{
  "AcquisitionMatrixPE": 104,
  "AcquisitionNumber": 1,
  "AcquisitionTime": "19:49:41.642500",
  "BandwidthPerPixelPhaseEncode": 17.17,
  "BaseResolution": 104,
  "BodyPartExamined": "BRAIN",
  "CoilCombinationMethod": "Sum of Squares",
  "ConsistencyInfo": "N4_VE11C_LATEST_20160120",
  "ConversionSoftware": "dcm2niix",
  "ConversionSoftwareVersion": "v1.0.20220505",
  "DerivedVendorReportedEchoSpacing": 0.000560011,
  "DeviceSerialNumber": "167006",
  "DwellTime": 2.1e-06,
  "EchoTime": 0.037,
  "EchoTrainLength": 104,
  "EffectiveEchoSpacing": 0.000560011,
  "FlipAngle": 52,
  "HeudiconvVersion": "0.5.3.post811+g6206e14",
  "ImageComments": "Unaliased MB4/PE3/LB",
  "ImageOrientationPatientDICOM": [0.997299, -0.0733926, 0.00289589, 0.0704376, 0.944482, -0.320925],
  "ImageOrientationText": "Tra>Cor(-18.7)>Sag(-1.2)",
  "ImageType": [
    "ORIGINAL",
    "PRIMARY",
    "M",
    "MB",
    "ND",
    "MOSAIC"
],
  "ImagingFrequency": 123.26,
  "InPlanePhaseEncodingDirectionDICOM": "COL",
  "InstitutionAddress": "Chemin Queen-Mary 4565,Montreal,District,CA,H3W 1W5",
  "InstitutionName": "IUGM",
  "InstitutionalDepartmentName": "Department",
  "MRAcquisitionType": "2D",
  "MagneticFieldStrength": 3,
  "Manufacturer": "Siemens",
  "ManufacturersModelName": "Prisma_fit",
  "MatrixCoilMode": "SENSE",
  "Modality": "MR",
  "MultibandAccelerationFactor": 4,
  "PartialFourier": 1,
  "PatientPosition": "HFS",
  "PercentPhaseFOV": 100,
  "PercentSampling": 100,
  "PhaseEncodingDirection": "j",
  "PhaseEncodingSteps": 104,
  "PhaseResolution": 1,
  "PixelBandwidth": 2290,
  "ProcedureStepDescription": "games^mario3",
  "ProtocolName": "func_task-mario3_run-07",
  "PulseSequenceDetails": "%CustomerSeq%\\cmrr_mbep2d_bold",
  "ReceiveCoilActiveElements": "HC1-7;NC1,2",
  "ReceiveCoilName": "HeadNeck_64",
  "ReconMatrixPE": 104,
  "RepetitionTime": 1.49,
  "SAR": 0.0571011,
  "ScanOptions": "FS",
  "ScanningSequence": "EP",
  "SequenceName": "epfid2d1_104",
  "SequenceVariant": "SK\\SS",
  "SeriesDescription": "func_task-mario3_run-07",
  "SeriesNumber": 28,
  "ShimSetting": [591, -7251, -8832, 449, 14, -302, 16, 26],
  "SliceThickness": 2,
  "SliceTiming": [0, 0.7825, 0.0975, 0.8825, 0.195, 0.98, 0.2925, 1.0775, 0.3925, 1.175, 0.49, 1.2725, 0.5875, 1.3725, 0.685, 0, 0.7825, 0.0975, 0.8825, 0.195, 0.98, 0.2925, 1.0775, 0.3925, 1.175, 0.49, 1.2725, 0.5875, 1.3725, 0.685, 0, 0.7825, 0.0975, 0.8825, 0.195, 0.98, 0.2925, 1.0775, 0.3925, 1.175, 0.49, 1.2725, 0.5875, 1.3725, 0.685, 0, 0.7825, 0.0975, 0.8825, 0.195, 0.98, 0.2925, 1.0775, 0.3925, 1.175, 0.49, 1.2725, 0.5875, 1.3725, 0.685],
  "SoftwareVersions": "syngo MR E11",
  "SpacingBetweenSlices": 2,
  "StationName": "MRC35049",
  "TaskName": "mario3",
  "TotalReadoutTime": 0.0576811,
  "TxRefAmp": 262.255,
  "WipMemBlock": "dd373d17-a300-4f02-81e9-cf5730e4664a||Sequence: R017 ve11c/master r/75a17815+; Jun 28 2022 16:32:11 by eja",
  "dcmmeta_affine": [
    [-1.9945977926254272, 0.1408751755952835, -0.041636791080236435, 97.85974884033203],
    [0.1467851847410202, 1.8889634609222412, -0.64052414894104, -75.07450103759766],
    [0.005791783798485994, 0.6418498754501343, 1.8942004442214966, -58.9144287109375],
    [0.0, 0.0, 0.0, 1.0]
],
  "dcmmeta_reorient_transform": [
    [0.0, -1.0, 0.0, 103.0],
    [1.0, 0.0, 0.0, 0.0],
    [0.0, 0.0, 1.0, 0.0],
    [0.0, 0.0, 0.0, 1.0]
],
  "dcmmeta_shape": [104, 104, 60, 404],
  "dcmmeta_slice_dim": 2,
  "dcmmeta_version": 0.6,
  "global": {
    "const": {
      "AcquisitionMatrix": [104, 0, 0, 104],
      "AngioFlag": "N",
      "BitsAllocated": 16,
      "BitsStored": 16,
      "BodyPartExamined": "BRAIN",
      "Columns": 832,
      "EchoNumbers": 1,
      "EchoTime": 37.0,
      "EchoTrainLength": 104,
      "FlipAngle": 52.0,
      "HighBit": 15,
      "ImageOrientationPatient": [0.99729892247465, -0.0733925952721, 0.00289589193987, 0.07043758666624, 0.94448173039922, -0.3209249247515],
      "ImagePositionPatient": [-889.68206866934, -753.64162246191, 238.72124332719],
      "ImageType": [
        "ORIGINAL",
        "PRIMARY",
        "M",
        "MB",
        "ND",
        "MOSAIC"
],
      "ImagedNucleus": "1H",
      "ImagingFrequency": 123.260191,
      "InPlanePhaseEncodingDirection": "COL",
      "MRAcquisitionType": "2D",
      "MagneticFieldStrength": 3.0,
      "Manufacturer": "SIEMENS",
      "ManufacturerModelName": "Prisma_fit",
      "Modality": "MR",
      "NumberOfAverages": 1.0,
      "NumberOfPhaseEncodingSteps": 104,
      "PercentPhaseFieldOfView": 100.0,
      "PercentSampling": 100.0,
      "PerformedProcedureStepStartTime": "182825.093000",
      "PhotometricInterpretation": "MONOCHROME2",
      "PixelBandwidth": 2290.0,
      "PixelRepresentation": 0,
      "PixelSpacing": [2.0, 2.0],
      "ProtocolName": "func_task-mario3_run-07",
      "RepetitionTime": 1490.0,
      "Rows": 832,
      "SAR": 0.05710107825088,
      "SamplesPerPixel": 1,
      "ScanOptions": "FS",
      "ScanningSequence": "EP",
      "SequenceName": "epfid2d1_104",
      "SequenceVariant": [
        "SK",
        "SS"
],
      "SeriesDescription": "func_task-mario3_run-07",
      "SeriesNumber": 28,
      "SeriesTime": "195052.143000",
      "SliceLocation": -33.791633655088,
      "SliceThickness": 2.0,
      "SmallestImagePixelValue": 0,
      "SoftwareVersions": "syngo MR E11",
      "SpacingBetweenSlices": 2.0000000233132,
      "SpecificCharacterSet": "ISO_IR 100",
      "StudyID": "1",
      "StudyTime": "182824.988000",
      "TransmitCoilName": "Body",
      "VariableFlipAngleFlag": "N",
      "WindowCenterWidthExplanation": "Algo1",
      "dBdt": 0.0},
    "slices": {}
  },
  "time": {
    "samples": {
      "AcquisitionNumber": [1, 2, 3, 4, 5, 6, 7, 8, 9, 10, 11, 12, 13, 14, 15, 16, 17, 18, 19, 20, 21, 22, 23, 24, 25, 26, 27, 28, 29, 30, 31, 32, 33, 34, 35, 36, 37, 38, 39, 40, 41, 42, 43, 44, 45, 46, 47, 48, 49, 50, 51, 52, 53, 54, 55, 56, 57, 58, 59, 60, 61, 62, 63, 64, 65, 66, 67, 68, 69, 70, 71, 72, 73, 74, 75, 76, 77, 78, 79, 80, 81, 82, 83, 84, 85, 86, 87, 88, 89, 90, 91, 92, 93, 94, 95, 96, 97, 98, 99, 100, 101, 102, 103, 104, 105, 106, 107, 108, 109, 110, 111, 112, 113, 114, 115, 116, 117, 118, 119, 120, 121, 122, 123, 124, 125, 126, 127, 128, 129, 130, 131, 132, 133, 134, 135, 136, 137, 138, 139, 140, 141, 142, 143, 144, 145, 146, 147, 148, 149, 150, 151, 152, 153, 154, 155, 156, 157, 158, 159, 160, 161, 162, 163, 164, 165, 166, 167, 168, 169, 170, 171, 172, 173, 174, 175, 176, 177, 178, 179, 180, 181, 182, 183, 184, 185, 186, 187, 188, 189, 190, 191, 192, 193, 194, 195, 196, 197, 198, 199, 200, 201, 202, 203, 204, 205, 206, 207, 208, 209, 210, 211, 212, 213, 214, 215, 216, 217, 218, 219, 220, 221, 222, 223, 224, 225, 226, 227, 228, 229, 230, 231, 232, 233, 234, 235, 236, 237, 238, 239, 240, 241, 242, 243, 244, 245, 246, 247, 248, 249, 250, 251, 252, 253, 254, 255, 256, 257, 258, 259, 260, 261, 262, 263, 264, 265, 266, 267, 268, 269, 270, 271, 272, 273, 274, 275, 276, 277, 278, 279, 280, 281, 282, 283, 284, 285, 286, 287, 288, 289, 290, 291, 292, 293, 294, 295, 296, 297, 298, 299, 300, 301, 302, 303, 304, 305, 306, 307, 308, 309, 310, 311, 312, 313, 314, 315, 316, 317, 318, 319, 320, 321, 322, 323, 324, 325, 326, 327, 328, 329, 330, 331, 332, 333, 334, 335, 336, 337, 338, 339, 340, 341, 342, 343, 344, 345, 346, 347, 348, 349, 350, 351, 352, 353, 354, 355, 356, 357, 358, 359, 360, 361, 362, 363, 364, 365, 366, 367, 368, 369, 370, 371, 372, 373, 374, 375, 376, 377, 378, 379, 380, 381, 382, 383, 384, 385, 386, 387, 388, 389, 390, 391, 392, 393, 394, 395, 396, 397, 398, 399, 400, 401, 402, 403, 404],
      "AcquisitionTime": ["194941.642500", "194943.132500", "194944.622500", "194946.112500", "194947.602500", "194949.092500", "194950.582500", "194952.072500", "194953.562500", "194955.052500", "194956.542500", "194958.032500", "194959.522500", "195001.012500", "195002.502500", "195003.992500", "195005.482500", "195006.972500", "195008.462500", "195009.952500", "195011.442500", "195012.932500", "195014.422500", "195015.912500", "195017.402500", "195018.892500", "195020.382500", "195021.872500", "195023.362500", "195024.852500", "195026.342500", "195027.832500", "195029.322500", "195030.812500", "195032.302500", "195033.792500", "195035.282500", "195036.772500", "195038.262500", "195039.752500", "195041.242500", "195042.732500", "195044.222500", "195045.712500", "195047.202500", "195048.692500", "195050.182500", "195051.672500", "195053.162500", "195054.652500", "195056.142500", "195057.632500", "195059.122500", "195100.612500", "195102.102500", "195103.592500", "195105.082500", "195106.572500", "195108.062500", "195109.552500", "195111.042500", "195112.532500", "195114.022500", "195115.512500", "195117.002500", "195118.492500", "195119.982500", "195121.472500", "195122.962500", "195124.452500", "195125.942500", "195127.432500", "195128.922500", "195130.412500", "195131.902500", "195133.392500", "195134.882500", "195136.372500", "195137.862500", "195139.352500", "195140.842500", "195142.332500", "195143.822500", "195145.312500", "195146.802500", "195148.292500", "195149.782500", "195151.272500", "195152.762500", "195154.252500", "195155.742500", "195157.232500", "195158.722500", "195200.212500", "195201.702500", "195203.192500", "195204.682500", "195206.172500", "195207.662500", "195209.152500", "195210.642500", "195212.132500", "195213.622500", "195215.112500", "195216.602500", "195218.092500", "195219.582500", "195221.072500", "195222.562500", "195224.052500", "195225.542500", "195227.032500", "195228.522500", "195230.012500", "195231.502500", "195232.992500", "195234.482500", "195235.972500", "195237.462500", "195238.952500", "195240.442500", "195241.932500", "195243.422500", "195244.912500", "195246.402500", "195247.892500", "195249.382500", "195250.872500", "195252.362500", "195253.852500", "195255.342500", "195256.832500", "195258.322500", "195259.812500", "195301.302500", "195302.792500", "195304.282500", "195305.772500", "195307.262500", "195308.752500", "195310.242500", "195311.732500", "195313.222500", "195314.712500", "195316.202500", "195317.692500", "195319.182500", "195320.672500", "195322.162500", "195323.652500", "195325.142500", "195326.632500", "195328.122500", "195329.612500", "195331.102500", "195332.592500", "195334.082500", "195335.572500", "195337.062500", "195338.552500", "195340.042500", "195341.532500", "195343.022500", "195344.512500", "195346.002500", "195347.492500", "195348.982500", "195350.472500", "195351.962500", "195353.452500", "195354.942500", "195356.432500", "195357.922500", "195359.412500", "195400.902500", "195402.392500", "195403.882500", "195405.372500", "195406.862500", "195408.352500", "195409.842500", "195411.332500", "195412.822500", "195414.312500", "195415.802500", "195417.292500", "195418.782500", "195420.272500", "195421.762500", "195423.252500", "195424.742500", "195426.232500", "195427.722500", "195429.212500", "195430.702500", "195432.192500", "195433.682500", "195435.172500", "195436.662500", "195438.152500", "195439.642500", "195441.132500", "195442.622500", "195444.112500", "195445.602500", "195447.092500", "195448.582500", "195450.072500", "195451.562500", "195453.052500", "195454.542500", "195456.032500", "195457.522500", "195459.012500", "195500.502500", "195501.992500", "195503.482500", "195504.972500", "195506.462500", "195507.952500", "195509.442500", "195510.932500", "195512.422500", "195513.912500", "195515.402500", "195516.892500", "195518.382500", "195519.872500", "195521.362500", "195522.852500", "195524.342500", "195525.832500", "195527.322500", "195528.812500", "195530.302500", "195531.792500", "195533.282500", "195534.772500", "195536.262500", "195537.752500", "195539.242500", "195540.732500", "195542.222500", "195543.712500", "195545.202500", "195546.692500", "195548.182500", "195549.672500", "195551.162500", "195552.652500", "195554.142500", "195555.632500", "195557.122500", "195558.612500", "195600.102500", "195601.592500", "195603.082500", "195604.572500", "195606.062500", "195607.552500", "195609.042500", "195610.532500", "195612.022500", "195613.512500", "195615.002500", "195616.492500", "195617.982500", "195619.472500", "195620.962500", "195622.452500", "195623.942500", "195625.432500", "195626.922500", "195628.412500", "195629.902500", "195631.392500", "195632.882500", "195634.372500", "195635.862500", "195637.352500", "195638.842500", "195640.332500", "195641.822500", "195643.312500", "195644.802500", "195646.292500", "195647.782500", "195649.272500", "195650.762500", "195652.252500", "195653.742500", "195655.232500", "195656.722500", "195658.212500", "195659.702500", "195701.192500", "195702.682500", "195704.172500", "195705.662500", "195707.152500", "195708.642500", "195710.132500", "195711.622500", "195713.112500", "195714.602500", "195716.092500", "195717.582500", "195719.072500", "195720.562500", "195722.052500", "195723.542500", "195725.032500", "195726.522500", "195728.012500", "195729.502500", "195730.992500", "195732.482500", "195733.972500", "195735.462500", "195736.952500", "195738.442500", "195739.932500", "195741.422500", "195742.912500", "195744.402500", "195745.892500", "195747.382500", "195748.872500", "195750.362500", "195751.852500", "195753.342500", "195754.832500", "195756.322500", "195757.812500", "195759.302500", "195800.792500", "195802.282500", "195803.772500", "195805.262500", "195806.752500", "195808.242500", "195809.732500", "195811.222500", "195812.712500", "195814.202500", "195815.692500", "195817.182500", "195818.672500", "195820.162500", "195821.652500", "195823.142500", "195824.632500", "195826.122500", "195827.612500", "195829.102500", "195830.592500", "195832.082500", "195833.572500", "195835.062500", "195836.552500", "195838.042500", "195839.532500", "195841.022500", "195842.512500", "195844.002500", "195845.492500", "195846.982500", "195848.472500", "195849.962500", "195851.452500", "195852.942500", "195854.432500", "195855.922500", "195857.412500", "195858.902500", "195900.392500", "195901.882500", "195903.372500", "195904.862500", "195906.352500", "195907.842500", "195909.332500", "195910.822500", "195912.312500", "195913.802500", "195915.292500", "195916.782500", "195918.272500", "195919.762500", "195921.252500", "195922.742500", "195924.232500", "195925.722500", "195927.212500", "195928.702500", "195930.192500", "195931.682500", "195933.172500", "195934.662500", "195936.152500", "195937.642500", "195939.132500", "195940.622500", "195942.112500"],
      "ContentTime": ["195052.146000", "195052.150000", "195052.153000", "195052.157000", "195052.160000", "195052.163000", "195052.167000", "195052.170000", "195052.173000", "195052.176000", "195052.180000", "195052.183000", "195052.186000", "195052.189000", "195052.193000", "195052.196000", "195052.206000", "195052.209000", "195052.213000", "195052.216000", "195052.219000", "195112.100000", "195112.104000", "195112.107000", "195112.110000", "195112.114000", "195112.117000", "195112.120000", "195112.123000", "195112.127000", "195112.130000", "195112.133000", "195112.136000", "195112.140000", "195112.143000", "195112.146000", "195112.150000", "195112.153000", "195112.156000", "195112.160000", "195112.179000", "195132.100000", "195132.105000", "195132.108000", "195132.112000", "195132.115000", "195132.118000", "195132.122000", "195132.125000", "195132.128000", "195132.131000", "195132.135000", "195132.138000", "195132.141000", "195132.144000", "195132.148000", "195132.151000", "195132.154000", "195132.157000", "195132.161000", "195132.164000", "195132.168000", "195152.100000", "195152.104000", "195152.107000", "195152.110000", "195152.114000", "195152.117000", "195152.120000", "195152.123000", "195152.127000", "195152.130000", "195152.133000", "195152.137000", "195152.140000", "195152.143000", "195152.147000", "195152.150000", "195152.153000", "195152.156000", "195152.160000", "195152.163000", "195232.101000", "195232.105000", "195232.108000", "195232.111000", "195232.119000", "195232.122000", "195232.125000", "195232.129000", "195232.132000", "195232.135000", "195232.139000", "195232.142000", "195232.145000", "195232.149000", "195232.152000", "195232.155000", "195232.158000", "195232.162000", "195232.165000", "195232.168000", "195232.171000", "195232.175000", "195232.178000", "195232.181000", "195232.185000", "195232.188000", "195232.191000", "195232.195000", "195232.198000", "195232.201000", "195232.204000", "195232.208000", "195312.100000", "195312.104000", "195312.107000", "195312.110000", "195312.114000", "195312.117000", "195312.120000", "195312.124000", "195312.127000", "195312.130000", "195312.134000", "195312.137000", "195312.140000", "195312.144000", "195312.147000", "195312.150000", "195312.153000", "195312.157000", "195312.160000", "195312.163000", "195312.167000", "195312.170000", "195312.173000", "195312.177000", "195312.180000", "195312.183000", "195312.187000", "195352.100000", "195352.104000", "195352.107000", "195352.110000", "195352.114000", "195352.117000", "195352.120000", "195352.124000", "195352.127000", "195352.130000", "195352.134000", "195352.137000", "195352.140000", "195352.144000", "195352.147000", "195352.150000", "195352.154000", "195352.157000", "195352.161000", "195352.165000", "195352.168000", "195352.171000", "195352.175000", "195352.178000", "195352.181000", "195352.185000", "195432.100000", "195432.104000", "195432.107000", "195432.111000", "195432.114000", "195432.117000", "195432.121000", "195432.124000", "195432.127000", "195432.131000", "195432.134000", "195432.137000", "195432.140000", "195432.144000", "195432.147000", "195432.150000", "195432.154000", "195432.157000", "195432.160000", "195432.163000", "195432.167000", "195432.170000", "195432.173000", "195432.177000", "195432.180000", "195432.183000", "195432.187000", "195512.101000", "195512.105000", "195512.108000", "195512.112000", "195512.115000", "195512.118000", "195512.122000", "195512.125000", "195512.128000", "195512.132000", "195512.135000", "195512.138000", "195512.142000", "195512.145000", "195512.148000", "195512.152000", "195512.155000", "195512.159000", "195512.162000", "195512.165000", "195512.169000", "195512.172000", "195512.175000", "195512.178000", "195512.182000", "195512.186000", "195512.189000", "195552.100000", "195552.104000", "195552.107000", "195552.110000", "195552.114000", "195552.117000", "195552.120000", "195552.124000", "195552.127000", "195552.130000", "195552.134000", "195552.137000", "195552.140000", "195552.144000", "195552.158000", "195552.161000", "195552.164000", "195552.168000", "195552.171000", "195552.174000", "195552.177000", "195552.181000", "195552.184000", "195552.187000", "195552.191000", "195552.194000", "195552.197000", "195632.100000", "195632.104000", "195632.107000", "195632.110000", "195632.114000", "195632.117000", "195632.120000", "195632.124000", "195632.127000", "195632.130000", "195632.134000", "195632.137000", "195632.140000", "195632.144000", "195632.147000", "195632.150000", "195632.154000", "195632.157000", "195632.160000", "195632.163000", "195632.167000", "195632.170000", "195632.173000", "195632.177000", "195632.180000", "195632.183000", "195632.187000", "195712.101000", "195712.105000", "195712.108000", "195712.112000", "195712.115000", "195712.118000", "195712.122000", "195712.125000", "195712.128000", "195712.131000", "195712.135000", "195712.138000", "195712.141000", "195712.145000", "195712.148000", "195712.151000", "195712.155000", "195712.158000", "195712.161000", "195712.165000", "195712.168000", "195712.171000", "195712.174000", "195712.178000", "195712.181000", "195712.184000", "195712.188000", "195752.100000", "195752.104000", "195752.107000", "195752.111000", "195752.114000", "195752.117000", "195752.121000", "195752.124000", "195752.127000", "195752.131000", "195752.134000", "195752.137000", "195752.141000", "195752.144000", "195752.147000", "195752.150000", "195752.154000", "195752.157000", "195752.161000", "195752.164000", "195752.167000", "195752.171000", "195752.174000", "195752.177000", "195752.181000", "195752.184000", "195832.100000", "195832.104000", "195832.107000", "195832.110000", "195832.114000", "195832.117000", "195832.120000", "195832.124000", "195832.127000", "195832.130000", "195832.134000", "195832.137000", "195832.140000", "195832.144000", "195832.147000", "195832.150000", "195832.153000", "195832.157000", "195832.160000", "195832.163000", "195832.167000", "195832.172000", "195832.175000", "195832.178000", "195832.182000", "195832.185000", "195832.188000", "195912.100000", "195912.104000", "195912.107000", "195912.111000", "195912.114000", "195912.117000", "195912.121000", "195912.124000", "195912.127000", "195912.130000", "195912.134000", "195912.137000", "195912.140000", "195912.144000", "195912.147000", "195912.150000", "195912.154000", "195912.157000", "195912.160000", "195912.163000", "195912.167000", "195912.170000", "195912.173000", "195912.177000", "195912.180000", "195912.183000", "195912.187000", "195944.654000", "195944.658000", "195944.665000", "195944.669000", "195944.672000", "195944.676000", "195944.679000", "195944.682000", "195944.686000", "195944.689000", "195944.692000", "195944.696000", "195944.699000", "195944.702000", "195944.706000", "195944.709000", "195944.712000", "195944.715000", "195944.719000", "195944.722000", "195944.725000", "195944.729000"],
      "InstanceCreationTime": ["195052.146000", "195052.150000", "195052.153000", "195052.157000", "195052.160000", "195052.163000", "195052.167000", "195052.170000", "195052.173000", "195052.176000", "195052.180000", "195052.183000", "195052.186000", "195052.189000", "195052.193000", "195052.196000", "195052.206000", "195052.209000", "195052.213000", "195052.216000", "195052.219000", "195112.100000", "195112.104000", "195112.107000", "195112.110000", "195112.114000", "195112.117000", "195112.120000", "195112.123000", "195112.127000", "195112.130000", "195112.133000", "195112.136000", "195112.140000", "195112.143000", "195112.146000", "195112.150000", "195112.153000", "195112.156000", "195112.160000", "195112.179000", "195132.100000", "195132.105000", "195132.108000", "195132.112000", "195132.115000", "195132.118000", "195132.122000", "195132.125000", "195132.128000", "195132.131000", "195132.135000", "195132.138000", "195132.141000", "195132.144000", "195132.148000", "195132.151000", "195132.154000", "195132.157000", "195132.161000", "195132.164000", "195132.168000", "195152.100000", "195152.104000", "195152.107000", "195152.110000", "195152.114000", "195152.117000", "195152.120000", "195152.123000", "195152.127000", "195152.130000", "195152.133000", "195152.137000", "195152.140000", "195152.143000", "195152.147000", "195152.150000", "195152.153000", "195152.156000", "195152.160000", "195152.163000", "195232.101000", "195232.105000", "195232.108000", "195232.111000", "195232.119000", "195232.122000", "195232.125000", "195232.129000", "195232.132000", "195232.135000", "195232.139000", "195232.142000", "195232.145000", "195232.149000", "195232.152000", "195232.155000", "195232.158000", "195232.162000", "195232.165000", "195232.168000", "195232.171000", "195232.175000", "195232.178000", "195232.181000", "195232.185000", "195232.188000", "195232.191000", "195232.195000", "195232.198000", "195232.201000", "195232.204000", "195232.208000", "195312.100000", "195312.104000", "195312.107000", "195312.110000", "195312.114000", "195312.117000", "195312.120000", "195312.124000", "195312.127000", "195312.130000", "195312.134000", "195312.137000", "195312.140000", "195312.144000", "195312.147000", "195312.150000", "195312.153000", "195312.157000", "195312.160000", "195312.163000", "195312.167000", "195312.170000", "195312.173000", "195312.177000", "195312.180000", "195312.183000", "195312.187000", "195352.100000", "195352.104000", "195352.107000", "195352.110000", "195352.114000", "195352.117000", "195352.120000", "195352.124000", "195352.127000", "195352.130000", "195352.134000", "195352.137000", "195352.140000", "195352.144000", "195352.147000", "195352.150000", "195352.154000", "195352.157000", "195352.161000", "195352.165000", "195352.168000", "195352.171000", "195352.175000", "195352.178000", "195352.181000", "195352.185000", "195432.100000", "195432.104000", "195432.107000", "195432.111000", "195432.114000", "195432.117000", "195432.121000", "195432.124000", "195432.127000", "195432.131000", "195432.134000", "195432.137000", "195432.140000", "195432.144000", "195432.147000", "195432.150000", "195432.154000", "195432.157000", "195432.160000", "195432.163000", "195432.167000", "195432.170000", "195432.173000", "195432.177000", "195432.180000", "195432.183000", "195432.187000", "195512.101000", "195512.105000", "195512.108000", "195512.112000", "195512.115000", "195512.118000", "195512.122000", "195512.125000", "195512.128000", "195512.132000", "195512.135000", "195512.138000", "195512.142000", "195512.145000", "195512.148000", "195512.152000", "195512.155000", "195512.159000", "195512.162000", "195512.165000", "195512.169000", "195512.172000", "195512.175000", "195512.178000", "195512.182000", "195512.186000", "195512.189000", "195552.100000", "195552.104000", "195552.107000", "195552.110000", "195552.114000", "195552.117000", "195552.120000", "195552.124000", "195552.127000", "195552.130000", "195552.134000", "195552.137000", "195552.140000", "195552.144000", "195552.158000", "195552.161000", "195552.164000", "195552.168000", "195552.171000", "195552.174000", "195552.177000", "195552.181000", "195552.184000", "195552.187000", "195552.191000", "195552.194000", "195552.197000", "195632.100000", "195632.104000", "195632.107000", "195632.110000", "195632.114000", "195632.117000", "195632.120000", "195632.124000", "195632.127000", "195632.130000", "195632.134000", "195632.137000", "195632.140000", "195632.144000", "195632.147000", "195632.150000", "195632.154000", "195632.157000", "195632.160000", "195632.163000", "195632.167000", "195632.170000", "195632.173000", "195632.177000", "195632.180000", "195632.183000", "195632.187000", "195712.101000", "195712.105000", "195712.108000", "195712.112000", "195712.115000", "195712.118000", "195712.122000", "195712.125000", "195712.128000", "195712.131000", "195712.135000", "195712.138000", "195712.141000", "195712.145000", "195712.148000", "195712.151000", "195712.155000", "195712.158000", "195712.161000", "195712.165000", "195712.168000", "195712.171000", "195712.174000", "195712.178000", "195712.181000", "195712.184000", "195712.188000", "195752.100000", "195752.104000", "195752.107000", "195752.111000", "195752.114000", "195752.117000", "195752.121000", "195752.124000", "195752.127000", "195752.131000", "195752.134000", "195752.137000", "195752.141000", "195752.144000", "195752.147000", "195752.150000", "195752.154000", "195752.157000", "195752.161000", "195752.164000", "195752.167000", "195752.171000", "195752.174000", "195752.177000", "195752.181000", "195752.184000", "195832.100000", "195832.104000", "195832.107000", "195832.110000", "195832.114000", "195832.117000", "195832.120000", "195832.124000", "195832.127000", "195832.130000", "195832.134000", "195832.137000", "195832.140000", "195832.144000", "195832.147000", "195832.150000", "195832.153000", "195832.157000", "195832.160000", "195832.163000", "195832.167000", "195832.172000", "195832.175000", "195832.178000", "195832.182000", "195832.185000", "195832.188000", "195912.100000", "195912.104000", "195912.107000", "195912.111000", "195912.114000", "195912.117000", "195912.121000", "195912.124000", "195912.127000", "195912.130000", "195912.134000", "195912.137000", "195912.140000", "195912.144000", "195912.147000", "195912.150000", "195912.154000", "195912.157000", "195912.160000", "195912.163000", "195912.167000", "195912.170000", "195912.173000", "195912.177000", "195912.180000", "195912.183000", "195912.187000", "195944.654000", "195944.658000", "195944.665000", "195944.669000", "195944.672000", "195944.676000", "195944.679000", "195944.682000", "195944.686000", "195944.689000", "195944.692000", "195944.696000", "195944.699000", "195944.702000", "195944.706000", "195944.709000", "195944.712000", "195944.715000", "195944.719000", "195944.722000", "195944.725000", "195944.729000"],
