{
  "AcquisitionMatrixPE": 104,
  "AcquisitionNumber": 1,
  "AcquisitionTime": "18:49:12.422500",
  "BandwidthPerPixelPhaseEncode": 17.17,
  "BaseResolution": 104,
  "BodyPartExamined": "BRAIN",
  "CoilCombinationMethod": "Sum of Squares",
  "ConsistencyInfo": "N4_VE11C_LATEST_20160120",
  "ConversionSoftware": "dcm2niix",
  "ConversionSoftwareVersion": "v1.0.20220505",
  "DerivedVendorReportedEchoSpacing": 0.000560011,
  "DeviceSerialNumber": "167006",
  "DwellTime": 2.1e-06,
  "EchoTime": 0.037,
  "EchoTime1": 0.037,
  "EchoTime2": 0.001,
  "EchoTrainLength": 104,
  "EffectiveEchoSpacing": 0.000560011,
  "FlipAngle": 52,
  "HeudiconvVersion": "0.5.3.post811+g6206e14",
  "ImageComments": "Unaliased MB4/PE3/LB",
  "ImageOrientationPatientDICOM": [0.997299, -0.0733926, 0.00289589, 0.0704376, 0.944482, -0.320925],
  "ImageOrientationText": "Tra>Cor(-18.7)>Sag(-1.2)",
  "ImageType": [
    "ORIGINAL",
    "PRIMARY",
    "P",
    "MB",
    "ND",
    "MOSAIC",
    "PHASE"
],
  "ImagingFrequency": 123.26,
  "InPlanePhaseEncodingDirectionDICOM": "COL",
  "InstitutionAddress": "Chemin Queen-Mary 4565,Montreal,District,CA,H3W 1W5",
  "InstitutionName": "IUGM",
  "InstitutionalDepartmentName": "Department",
  "MRAcquisitionType": "2D",
  "MagneticFieldStrength": 3,
  "Manufacturer": "Siemens",
  "ManufacturersModelName": "Prisma_fit",
  "MatrixCoilMode": "SENSE",
  "Modality": "MR",
  "MultibandAccelerationFactor": 4,
  "PartialFourier": 1,
  "PatientPosition": "HFS",
  "PercentPhaseFOV": 100,
  "PercentSampling": 100,
  "PhaseEncodingDirection": "j",
  "PhaseEncodingSteps": 104,
  "PhaseResolution": 1,
  "PixelBandwidth": 2290,
  "ProcedureStepDescription": "games^mario3",
  "ProtocolName": "func_task-mario3_run-02",
  "PulseSequenceDetails": "%CustomerSeq%\\cmrr_mbep2d_bold",
  "ReceiveCoilActiveElements": "HC1-7;NC1,2",
  "ReceiveCoilName": "HeadNeck_64",
  "ReconMatrixPE": 104,
  "RepetitionTime": 1.49,
  "SAR": 0.0571011,
  "ScanOptions": "FS",
  "ScanningSequence": "EP",
  "SequenceName": "epfid2d1_104",
  "SequenceVariant": "SK\\SS",
  "SeriesDescription": "func_task-mario3_run-02",
  "SeriesNumber": 14,
  "ShimSetting": [591, -7251, -8832, 449, 14, -302, 16, 26],
  "SliceThickness": 2,
  "SliceTiming": [0, 0.7825, 0.0975, 0.88, 0.195, 0.98, 0.2925, 1.0775, 0.39, 1.175, 0.49, 1.2725, 0.5875, 1.37, 0.685, 0, 0.7825, 0.0975, 0.88, 0.195, 0.98, 0.2925, 1.0775, 0.39, 1.175, 0.49, 1.2725, 0.5875, 1.37, 0.685, 0, 0.7825, 0.0975, 0.88, 0.195, 0.98, 0.2925, 1.0775, 0.39, 1.175, 0.49, 1.2725, 0.5875, 1.37, 0.685, 0, 0.7825, 0.0975, 0.88, 0.195, 0.98, 0.2925, 1.0775, 0.39, 1.175, 0.49, 1.2725, 0.5875, 1.37, 0.685],
  "SoftwareVersions": "syngo MR E11",
  "SpacingBetweenSlices": 2,
  "StationName": "MRC35049",
  "TaskName": "mario3",
  "TotalReadoutTime": 0.0576811,
  "TxRefAmp": 262.255,
  "WipMemBlock": "56043bbf-9262-4dcb-b863-f901fab4c948||Sequence: R017 ve11c/master r/75a17815+; Jun 28 2022 16:32:11 by eja",
  "dcmmeta_affine": [
    [-1.9945977926254272, 0.1408751755952835, -0.041636791080236435, 97.85974884033203],
    [0.1467851847410202, 1.8889634609222412, -0.64052414894104, -75.07450103759766],
    [0.005791783798485994, 0.6418498754501343, 1.8942004442214966, -58.9144287109375],
    [0.0, 0.0, 0.0, 1.0]
],
  "dcmmeta_reorient_transform": [
    [0.0, -1.0, 0.0, 103.0],
    [1.0, 0.0, 0.0, 0.0],
    [0.0, 0.0, 1.0, 0.0],
    [0.0, 0.0, 0.0, 1.0]
],
  "dcmmeta_shape": [104, 104, 60, 322],
  "dcmmeta_slice_dim": 2,
  "dcmmeta_version": 0.6,
  "global": {
    "const": {
      "AcquisitionMatrix": [104, 0, 0, 104],
      "AngioFlag": "N",
      "BitsAllocated": 16,
      "BitsStored": 16,
      "BodyPartExamined": "BRAIN",
      "Columns": 832,
      "EchoNumbers": 1,
      "EchoTime": 37.0,
      "EchoTrainLength": 104,
      "FlipAngle": 52.0,
      "HighBit": 15,
      "ImageOrientationPatient": [0.99729892247465, -0.0733925952721, 0.00289589193987, 0.07043758666624, 0.94448173039922, -0.3209249247515],
      "ImagePositionPatient": [-889.68206866934, -753.64162246191, 238.72124332719],
      "ImageType": [
        "ORIGINAL",
        "PRIMARY",
        "P",
        "MB",
        "ND",
        "MOSAIC"
],
      "ImagedNucleus": "1H",
      "ImagingFrequency": 123.260185,
      "InPlanePhaseEncodingDirection": "COL",
      "LargestImagePixelValue": 4095,
      "MRAcquisitionType": "2D",
      "MagneticFieldStrength": 3.0,
      "Manufacturer": "SIEMENS",
      "ManufacturerModelName": "Prisma_fit",
      "Modality": "MR",
      "NumberOfAverages": 1.0,
      "NumberOfPhaseEncodingSteps": 104,
      "PercentPhaseFieldOfView": 100.0,
      "PercentSampling": 100.0,
      "PerformedProcedureStepStartTime": "182825.093000",
      "PhotometricInterpretation": "MONOCHROME2",
      "PixelBandwidth": 2290.0,
      "PixelRepresentation": 0,
      "PixelSpacing": [2.0, 2.0],
      "ProtocolName": "func_task-mario3_run-02",
      "RepetitionTime": 1490.0,
      "RescaleIntercept": -4096.0,
      "RescaleSlope": 2.0,
      "RescaleType": "US",
      "Rows": 832,
      "SAR": 0.05710107825088,
      "SamplesPerPixel": 1,
      "ScanOptions": "FS",
      "ScanningSequence": "EP",
      "SequenceName": "epfid2d1_104",
      "SequenceVariant": [
        "SK",
        "SS"
],
      "SeriesDescription": "func_task-mario3_run-02",
      "SeriesNumber": 14,
      "SeriesTime": "185036.169000",
      "SliceLocation": -33.791633655088,
      "SliceThickness": 2.0,
      "SmallestImagePixelValue": 0,
      "SoftwareVersions": "syngo MR E11",
      "SpacingBetweenSlices": 2.0000000233132,
      "SpecificCharacterSet": "ISO_IR 100",
      "StudyID": "1",
      "StudyTime": "182824.988000",
      "TransmitCoilName": "Body",
      "VariableFlipAngleFlag": "N",
      "WindowCenterWidthExplanation": "Algo1",
      "dBdt": 0.0},
    "slices": {}
  },
  "time": {
    "samples": {
      "AcquisitionNumber": [1, 2, 3, 4, 5, 6, 7, 8, 9, 10, 11, 12, 13, 14, 15, 16, 17, 18, 19, 20, 21, 22, 23, 24, 25, 26, 27, 28, 29, 30, 31, 32, 33, 34, 35, 36, 37, 38, 39, 40, 41, 42, 43, 44, 45, 46, 47, 48, 49, 50, 51, 52, 53, 54, 55, 56, 57, 58, 59, 60, 61, 62, 63, 64, 65, 66, 67, 68, 69, 70, 71, 72, 73, 74, 75, 76, 77, 78, 79, 80, 81, 82, 83, 84, 85, 86, 87, 88, 89, 90, 91, 92, 93, 94, 95, 96, 97, 98, 99, 100, 101, 102, 103, 104, 105, 106, 107, 108, 109, 110, 111, 112, 113, 114, 115, 116, 117, 118, 119, 120, 121, 122, 123, 124, 125, 126, 127, 128, 129, 130, 131, 132, 133, 134, 135, 136, 137, 138, 139, 140, 141, 142, 143, 144, 145, 146, 147, 148, 149, 150, 151, 152, 153, 154, 155, 156, 157, 158, 159, 160, 161, 162, 163, 164, 165, 166, 167, 168, 169, 170, 171, 172, 173, 174, 175, 176, 177, 178, 179, 180, 181, 182, 183, 184, 185, 186, 187, 188, 189, 190, 191, 192, 193, 194, 195, 196, 197, 198, 199, 200, 201, 202, 203, 204, 205, 206, 207, 208, 209, 210, 211, 212, 213, 214, 215, 216, 217, 218, 219, 220, 221, 222, 223, 224, 225, 226, 227, 228, 229, 230, 231, 232, 233, 234, 235, 236, 237, 238, 239, 240, 241, 242, 243, 244, 245, 246, 247, 248, 249, 250, 251, 252, 253, 254, 255, 256, 257, 258, 259, 260, 261, 262, 263, 264, 265, 266, 267, 268, 269, 270, 271, 272, 273, 274, 275, 276, 277, 278, 279, 280, 281, 282, 283, 284, 285, 286, 287, 288, 289, 290, 291, 292, 293, 294, 295, 296, 297, 298, 299, 300, 301, 302, 303, 304, 305, 306, 307, 308, 309, 310, 311, 312, 313, 314, 315, 316, 317, 318, 319, 320, 321, 322],
      "AcquisitionTime": ["184912.422500", "184913.912500", "184915.402500", "184916.892500", "184918.382500", "184919.872500", "184921.362500", "184922.852500", "184924.342500", "184925.832500", "184927.322500", "184928.812500", "184930.302500", "184931.792500", "184933.282500", "184934.772500", "184936.262500", "184937.752500", "184939.242500", "184940.732500", "184942.222500", "184943.712500", "184945.202500", "184946.692500", "184948.182500", "184949.672500", "184951.162500", "184952.652500", "184954.142500", "184955.632500", "184957.122500", "184958.612500", "185000.102500", "185001.592500", "185003.082500", "185004.572500", "185006.062500", "185007.552500", "185009.042500", "185010.532500", "185012.022500", "185013.512500", "185015.002500", "185016.492500", "185017.982500", "185019.472500", "185020.962500", "185022.452500", "185023.942500", "185025.432500", "185026.922500", "185028.412500", "185029.902500", "185031.392500", "185032.882500", "185034.372500", "185035.862500", "185037.352500", "185038.842500", "185040.332500", "185041.822500", "185043.312500", "185044.802500", "185046.292500", "185047.782500", "185049.272500", "185050.762500", "185052.252500", "185053.742500", "185055.232500", "185056.722500", "185058.212500", "185059.702500", "185101.192500", "185102.682500", "185104.172500", "185105.662500", "185107.152500", "185108.642500", "185110.132500", "185111.622500", "185113.112500", "185114.602500", "185116.092500", "185117.582500", "185119.072500", "185120.562500", "185122.052500", "185123.542500", "185125.032500", "185126.522500", "185128.012500", "185129.502500", "185130.992500", "185132.482500", "185133.972500", "185135.462500", "185136.952500", "185138.442500", "185139.932500", "185141.422500", "185142.912500", "185144.402500", "185145.892500", "185147.382500", "185148.872500", "185150.362500", "185151.852500", "185153.342500", "185154.832500", "185156.322500", "185157.812500", "185159.302500", "185200.792500", "185202.282500", "185203.772500", "185205.262500", "185206.752500", "185208.242500", "185209.732500", "185211.222500", "185212.712500", "185214.202500", "185215.692500", "185217.182500", "185218.672500", "185220.162500", "185221.652500", "185223.142500", "185224.632500", "185226.122500", "185227.612500", "185229.102500", "185230.592500", "185232.082500", "185233.572500", "185235.062500", "185236.552500", "185238.042500", "185239.532500", "185241.022500", "185242.512500", "185244.002500", "185245.492500", "185246.982500", "185248.472500", "185249.962500", "185251.452500", "185252.942500", "185254.432500", "185255.922500", "185257.412500", "185258.902500", "185300.392500", "185301.882500", "185303.372500", "185304.862500", "185306.352500", "185307.842500", "185309.332500", "185310.822500", "185312.312500", "185313.802500", "185315.292500", "185316.782500", "185318.272500", "185319.762500", "185321.252500", "185322.742500", "185324.232500", "185325.722500", "185327.212500", "185328.702500", "185330.192500", "185331.682500", "185333.172500", "185334.662500", "185336.152500", "185337.642500", "185339.132500", "185340.622500", "185342.112500", "185343.602500", "185345.092500", "185346.582500", "185348.072500", "185349.562500", "185351.052500", "185352.542500", "185354.032500", "185355.522500", "185357.012500", "185358.502500", "185359.992500", "185401.482500", "185402.972500", "185404.462500", "185405.952500", "185407.442500", "185408.932500", "185410.422500", "185411.912500", "185413.402500", "185414.892500", "185416.382500", "185417.872500", "185419.362500", "185420.852500", "185422.342500", "185423.832500", "185425.322500", "185426.812500", "185428.302500", "185429.792500", "185431.282500", "185432.772500", "185434.262500", "185435.752500", "185437.242500", "185438.732500", "185440.222500", "185441.712500", "185443.202500", "185444.692500", "185446.182500", "185447.672500", "185449.162500", "185450.652500", "185452.142500", "185453.632500", "185455.122500", "185456.612500", "185458.102500", "185459.592500", "185501.082500", "185502.572500", "185504.062500", "185505.552500", "185507.042500", "185508.532500", "185510.022500", "185511.512500", "185513.002500", "185514.492500", "185515.982500", "185517.472500", "185518.962500", "185520.452500", "185521.942500", "185523.432500", "185524.922500", "185526.412500", "185527.902500", "185529.392500", "185530.882500", "185532.372500", "185533.862500", "185535.352500", "185536.842500", "185538.332500", "185539.822500", "185541.312500", "185542.802500", "185544.292500", "185545.782500", "185547.272500", "185548.762500", "185550.252500", "185551.742500", "185553.232500", "185554.722500", "185556.212500", "185557.702500", "185559.192500", "185600.682500", "185602.172500", "185603.662500", "185605.152500", "185606.642500", "185608.132500", "185609.622500", "185611.112500", "185612.602500", "185614.092500", "185615.582500", "185617.072500", "185618.562500", "185620.052500", "185621.542500", "185623.032500", "185624.522500", "185626.012500", "185627.502500", "185628.992500", "185630.482500", "185631.972500", "185633.462500", "185634.952500", "185636.442500", "185637.932500", "185639.422500", "185640.912500", "185642.402500", "185643.892500", "185645.382500", "185646.872500", "185648.362500", "185649.852500", "185651.342500", "185652.832500", "185654.322500", "185655.812500", "185657.302500", "185658.792500", "185700.282500", "185701.772500", "185703.262500", "185704.752500", "185706.242500", "185707.732500", "185709.222500", "185710.712500"],
      "ContentTime": ["185036.171000", "185036.174000", "185036.176000", "185036.179000", "185036.181000", "185036.184000", "185036.186000", "185036.188000", "185036.191000", "185036.193000", "185036.196000", "185036.198000", "185036.201000", "185036.203000", "185036.206000", "185036.208000", "185036.210000", "185036.213000", "185036.215000", "185036.218000", "185036.225000", "185036.227000", "185036.230000", "185036.232000", "185036.235000", "185036.238000", "185036.240000", "185036.243000", "185036.245000", "185036.248000", "185036.250000", "185036.253000", "185036.255000", "185036.258000", "185036.260000", "185056.499000", "185056.502000", "185056.504000", "185056.507000", "185056.509000", "185056.512000", "185056.514000", "185056.517000", "185056.519000", "185056.522000", "185056.524000", "185056.527000", "185056.529000", "185056.532000", "185056.534000", "185056.537000", "185056.539000", "185056.542000", "185056.545000", "185056.547000", "185116.040000", "185116.043000", "185116.046000", "185116.048000", "185116.051000", "185116.053000", "185116.056000", "185116.059000", "185116.061000", "185116.064000", "185116.066000", "185116.069000", "185116.071000", "185116.074000", "185116.076000", "185116.079000", "185116.081000", "185116.084000", "185116.086000", "185116.088000", "185136.051000", "185136.053000", "185136.056000", "185136.058000", "185136.061000", "185136.064000", "185136.066000", "185136.069000", "185136.071000", "185136.074000", "185136.077000", "185136.079000", "185136.082000", "185136.084000", "185136.086000", "185136.089000", "185136.092000", "185136.094000", "185136.097000", "185136.099000", "185156.015000", "185156.018000", "185156.021000", "185156.023000", "185156.026000", "185156.028000", "185156.031000", "185156.039000", "185156.042000", "185156.044000", "185156.047000", "185156.049000", "185156.051000", "185156.054000", "185236.161000", "185236.164000", "185236.166000", "185236.169000", "185236.171000", "185236.174000", "185236.176000", "185236.179000", "185236.181000", "185236.184000", "185236.186000", "185236.189000", "185236.191000", "185236.193000", "185236.196000", "185236.198000", "185236.201000", "185236.203000", "185236.206000", "185236.208000", "185236.211000", "185236.213000", "185236.216000", "185236.218000", "185236.221000", "185236.223000", "185236.226000", "185316.089000", "185316.092000", "185316.094000", "185316.097000", "185316.100000", "185316.102000", "185316.105000", "185316.107000", "185316.110000", "185316.112000", "185316.115000", "185316.117000", "185316.120000", "185316.123000", "185316.125000", "185316.128000", "185316.130000", "185316.133000", "185316.135000", "185316.138000", "185316.140000", "185316.143000", "185316.145000", "185316.148000", "185316.150000", "185316.153000", "185316.155000", "185356.074000", "185356.077000", "185356.079000", "185356.082000", "185356.084000", "185356.087000", "185356.089000", "185356.092000", "185356.094000", "185356.097000", "185356.099000", "185356.102000", "185356.104000", "185356.106000", "185356.109000", "185356.112000", "185356.114000", "185356.117000", "185356.119000", "185356.122000", "185356.124000", "185356.126000", "185356.129000", "185356.131000", "185356.134000", "185356.136000", "185436.089000", "185436.091000", "185436.094000", "185436.097000", "185436.099000", "185436.102000", "185436.104000", "185436.107000", "185436.109000", "185436.112000", "185436.114000", "185436.117000", "185436.119000", "185436.122000", "185436.124000", "185436.127000", "185436.129000", "185436.132000", "185436.134000", "185436.137000", "185436.139000", "185436.142000", "185436.144000", "185436.147000", "185436.151000", "185436.153000", "185436.156000", "185516.086000", "185516.088000", "185516.091000", "185516.094000", "185516.096000", "185516.099000", "185516.101000", "185516.104000", "185516.106000", "185516.109000", "185516.111000", "185516.114000", "185516.116000", "185516.119000", "185516.121000", "185516.124000", "185516.127000", "185516.129000", "185516.132000", "185516.134000", "185516.137000", "185516.140000", "185516.142000", "185516.145000", "185516.148000", "185516.150000", "185516.153000", "185556.099000", "185556.102000", "185556.104000", "185556.107000", "185556.109000", "185556.112000", "185556.114000", "185556.117000", "185556.119000", "185556.122000", "185556.124000", "185556.127000", "185556.129000", "185556.132000", "185556.134000", "185556.137000", "185556.139000", "185556.142000", "185556.144000", "185556.147000", "185556.149000", "185556.152000", "185556.154000", "185556.157000", "185556.159000", "185556.162000", "185556.164000", "185636.096000", "185636.099000", "185636.102000", "185636.104000", "185636.107000", "185636.109000", "185636.112000", "185636.114000", "185636.117000", "185636.119000", "185636.122000", "185636.124000", "185636.127000", "185636.129000", "185636.131000", "185636.134000", "185636.136000", "185636.139000", "185636.141000", "185636.144000", "185636.146000", "185636.149000", "185636.151000", "185636.154000", "185636.156000", "185636.159000", "185636.161000", "185713.498000", "185713.501000", "185713.503000", "185713.506000", "185713.508000", "185713.511000", "185713.513000", "185713.516000", "185713.518000", "185713.521000", "185713.523000", "185713.526000", "185713.528000", "185713.531000", "185713.533000", "185713.536000", "185713.538000", "185713.541000", "185713.543000", "185713.546000", "185713.548000", "185713.551000", "185713.553000", "185713.556000", "185713.558000"],
      "InstanceCreationTime": ["185036.171000", "185036.174000", "185036.176000", "185036.179000", "185036.181000", "185036.184000", "185036.186000", "185036.188000", "185036.191000", "185036.193000", "185036.196000", "185036.198000", "185036.201000", "185036.203000", "185036.206000", "185036.208000", "185036.210000", "185036.213000", "185036.215000", "185036.218000", "185036.225000", "185036.227000", "185036.230000", "185036.232000", "185036.235000", "185036.238000", "185036.240000", "185036.243000", "185036.245000", "185036.248000", "185036.250000", "185036.253000", "185036.255000", "185036.258000", "185036.260000", "185056.499000", "185056.502000", "185056.504000", "185056.507000", "185056.509000", "185056.512000", "185056.514000", "185056.517000", "185056.519000", "185056.522000", "185056.524000", "185056.527000", "185056.529000", "185056.532000", "185056.534000", "185056.537000", "185056.539000", "185056.542000", "185056.545000", "185056.547000", "185116.040000", "185116.043000", "185116.046000", "185116.048000", "185116.051000", "185116.053000", "185116.056000", "185116.059000", "185116.061000", "185116.064000", "185116.066000", "185116.069000", "185116.071000", "185116.074000", "185116.076000", "185116.079000", "185116.081000", "185116.084000", "185116.086000", "185116.088000", "185136.051000", "185136.053000", "185136.056000", "185136.058000", "185136.061000", "185136.064000", "185136.066000", "185136.069000", "185136.071000", "185136.074000", "185136.077000", "185136.079000", "185136.082000", "185136.084000", "185136.086000", "185136.089000", "185136.092000", "185136.094000", "185136.097000", "185136.099000", "185156.015000", "185156.018000", "185156.021000", "185156.023000", "185156.026000", "185156.028000", "185156.031000", "185156.039000", "185156.042000", "185156.044000", "185156.047000", "185156.049000", "185156.051000", "185156.054000", "185236.161000", "185236.164000", "185236.166000", "185236.169000", "185236.171000", "185236.174000", "185236.176000", "185236.179000", "185236.181000", "185236.184000", "185236.186000", "185236.189000", "185236.191000", "185236.193000", "185236.196000", "185236.198000", "185236.201000", "185236.203000", "185236.206000", "185236.208000", "185236.211000", "185236.213000", "185236.216000", "185236.218000", "185236.221000", "185236.223000", "185236.226000", "185316.089000", "185316.092000", "185316.094000", "185316.097000", "185316.100000", "185316.102000", "185316.105000", "185316.107000", "185316.110000", "185316.112000", "185316.115000", "185316.117000", "185316.120000", "185316.123000", "185316.125000", "185316.128000", "185316.130000", "185316.133000", "185316.135000", "185316.138000", "185316.140000", "185316.143000", "185316.145000", "185316.148000", "185316.150000", "185316.153000", "185316.155000", "185356.074000", "185356.077000", "185356.079000", "185356.082000", "185356.084000", "185356.087000", "185356.089000", "185356.092000", "185356.094000", "185356.097000", "185356.099000", "185356.102000", "185356.104000", "185356.106000", "185356.109000", "185356.112000", "185356.114000", "185356.117000", "185356.119000", "185356.122000", "185356.124000", "185356.126000", "185356.129000", "185356.131000", "185356.134000", "185356.136000", "185436.089000", "185436.091000", "185436.094000", "185436.097000", "185436.099000", "185436.102000", "185436.104000", "185436.107000", "185436.109000", "185436.112000", "185436.114000", "185436.117000", "185436.119000", "185436.122000", "185436.124000", "185436.127000", "185436.129000", "185436.132000", "185436.134000", "185436.137000", "185436.139000", "185436.142000", "185436.144000", "185436.147000", "185436.151000", "185436.153000", "185436.156000", "185516.086000", "185516.088000", "185516.091000", "185516.094000", "185516.096000", "185516.099000", "185516.101000", "185516.104000", "185516.106000", "185516.109000", "185516.111000", "185516.114000", "185516.116000", "185516.119000", "185516.121000", "185516.124000", "185516.127000", "185516.129000", "185516.132000", "185516.134000", "185516.137000", "185516.140000", "185516.142000", "185516.145000", "185516.148000", "185516.150000", "185516.153000", "185556.099000", "185556.102000", "185556.104000", "185556.107000", "185556.109000", "185556.112000", "185556.114000", "185556.117000", "185556.119000", "185556.122000", "185556.124000", "185556.127000", "185556.129000", "185556.132000", "185556.134000", "185556.137000", "185556.139000", "185556.142000", "185556.144000", "185556.147000", "185556.149000", "185556.152000", "185556.154000", "185556.157000", "185556.159000", "185556.162000", "185556.164000", "185636.096000", "185636.099000", "185636.102000", "185636.104000", "185636.107000", "185636.109000", "185636.112000", "185636.114000", "185636.117000", "185636.119000", "185636.122000", "185636.124000", "185636.127000", "185636.129000", "185636.131000", "185636.134000", "185636.136000", "185636.139000", "185636.141000", "185636.144000", "185636.146000", "185636.149000", "185636.151000", "185636.154000", "185636.156000", "185636.159000", "185636.161000", "185713.498000", "185713.501000", "185713.503000", "185713.506000", "185713.508000", "185713.511000", "185713.513000", "185713.516000", "185713.518000", "185713.521000", "185713.523000", "185713.526000", "185713.528000", "185713.531000", "185713.533000", "185713.536000", "185713.538000", "185713.541000", "185713.543000", "185713.546000", "185713.548000", "185713.551000", "185713.553000", "185713.556000", "185713.558000"],
      "InstanceNumber": [1, 2, 3, 4, 5, 6, 7, 8, 9, 10, 11, 12, 13, 14, 15, 16, 17, 18, 19, 20, 21, 22, 23, 24, 25, 26, 27, 28, 29, 30, 31, 32, 33, 34, 35, 36, 37, 38, 39, 40, 41, 42, 43, 44, 45, 46, 47, 48, 49, 50, 51, 52, 53, 54, 55, 56, 57, 58, 59, 60, 61, 62, 63, 64, 65, 66, 67, 68, 69, 70, 71, 72, 73, 74, 75, 76, 77, 78, 79, 80, 81, 82, 83, 84, 85, 86, 87, 88, 89, 90, 91, 92, 93, 94, 95, 96, 97, 98, 99, 100, 101, 102, 103, 104, 105, 106, 107, 108, 109, 110, 111, 112, 113, 114, 115, 116, 117, 118, 119, 120, 121, 122, 123, 124, 125, 126, 127, 128, 129, 130, 131, 132, 133, 134, 135, 136, 137, 138, 139, 140, 141, 142, 143, 144, 145, 146, 147, 148, 149, 150, 151, 152, 153, 154, 155, 156, 157, 158, 159, 160, 161, 162, 163, 164, 165, 166, 167, 168, 169, 170, 171, 172, 173, 174, 175, 176, 177, 178, 179, 180, 181, 182, 183, 184, 185, 186, 187, 188, 189, 190, 191, 192, 193, 194, 195, 196, 197, 198, 199, 200, 201, 202, 203, 204, 205, 206, 207, 208, 209, 210, 211, 212, 213, 214, 215, 216, 217, 218, 219, 220, 221, 222, 223, 224, 225, 226, 227, 228, 229, 230, 231, 232, 233, 234, 235, 236, 237, 238, 239, 240, 241, 242, 243, 244, 245, 246, 247, 248, 249, 250, 251, 252, 253, 254, 255, 256, 257, 258, 259, 260, 261, 262, 263, 264, 265, 266, 267, 268, 269, 270, 271, 272, 273, 274, 275, 276, 277, 278, 279, 280, 281, 282, 283, 284, 285, 286, 287, 288, 289, 290, 291, 292, 293, 294, 295, 296, 297, 298, 299, 300, 301, 302, 303, 304, 305, 306, 307, 308, 309, 310, 311, 312, 313, 314, 315, 316, 317, 318, 319, 320, 321, 322],
      "WindowCenter": [4966.0, 4946.0, 4944.0, 4944.0, 4940.0, 4942.0, 4938.0, 4940.0, 4940.0, 4938.0, 4944.0, 4938.0, 4944.0, 4962.0, 4944.0, 4944.0, 4944.0, 4944.0, 4940.0, 4944.0, 4960.0, 4938.0, 4962.0, 4940.0, 4962.0, 4942.0, 4964.0, 4940.0, 4962.0, 4962.0, 4940.0, 4938.0, 4938.0, 4942.0, 4938.0, 4938.0, 4962.0, 4964.0, 4942.0, 4938.0, 4940.0, 4938.0, 4938.0, 4964.0, 4936.0, 4938.0, 4942.0, 4942.0, 4938.0, 4964.0, 4940.0, 4938.0, 4962.0, 4934.0, 4936.0, 4938.0, 4962.0, 4944.0, 4938.0, 4942.0, 4964.0, 4962.0, 4966.0, 4962.0, 4964.0, 4962.0, 4962.0, 4966.0, 4942.0, 4964.0, 4966.0, 4942.0, 4940.0, 4944.0, 4940.0, 4940.0, 4938.0, 4942.0, 4938.0, 4942.0, 4940.0, 4942.0, 4938.0, 4938.0, 4964.0, 4942.0, 4958.0, 4936.0, 4938.0, 4956.0, 4964.0, 4960.0, 4942.0, 4940.0, 4942.0, 4942.0, 4936.0, 4938.0, 4936.0, 4936.0, 4958.0, 4936.0, 4936.0, 4940.0, 4940.0, 4940.0, 4940.0, 4940.0, 4940.0, 4938.0, 4936.0, 4938.0, 4940.0, 4944.0, 4938.0, 4936.0, 4942.0, 4960.0, 4962.0, 4960.0, 4942.0, 4962.0, 4938.0, 4940.0, 4934.0, 4956.0, 4936.0, 4934.0, 4936.0, 4946.0, 4940.0, 4942.0, 4938.0, 4938.0, 4936.0, 4934.0, 4932.0, 4936.0, 4938.0, 4932.0, 4934.0, 4936.0, 4936.0, 4934.0, 4936.0, 4942.0, 4934.0, 4932.0, 4934.0, 4934.0, 4934.0, 4938.0, 4936.0, 4934.0, 4938.0, 4936.0, 4936.0, 4928.0, 4878.0, 4928.0, 4940.0, 4942.0, 4920.0, 4944.0, 4938.0, 4936.0, 4930.0, 4926.0, 4930.0, 4926.0, 4936.0, 4932.0, 4936.0, 4938.0, 4940.0, 4936.0, 4940.0, 4934.0, 4940.0, 4960.0, 4958.0, 4936.0, 4934.0, 4938.0, 4960.0, 4942.0, 4960.0, 4940.0, 4934.0, 4938.0, 4938.0, 4932.0, 4938.0, 4934.0, 4940.0, 4934.0, 4938.0, 4934.0, 4938.0, 4934.0, 4962.0, 4934.0, 4936.0, 4938.0, 4934.0, 4944.0, 4936.0, 4938.0, 4938.0, 4962.0, 4940.0, 4936.0, 4936.0, 4934.0, 4938.0, 4934.0, 4942.0, 4934.0, 4938.0, 4960.0, 4938.0, 4960.0, 4938.0, 4934.0, 4936.0, 4936.0, 4934.0, 4936.0, 4938.0, 4936.0, 4934.0, 4936.0, 4960.0, 4940.0, 4936.0, 4940.0, 4934.0, 4936.0, 4938.0, 4962.0, 4940.0, 4936.0, 4936.0, 4936.0, 4936.0, 4938.0, 4960.0, 4936.0, 4940.0, 4940.0, 4940.0, 4940.0, 4938.0, 4942.0, 4938.0, 4936.0, 4936.0, 4936.0, 4934.0, 4936.0, 4956.0, 4938.0, 4938.0, 4938.0, 4934.0, 4942.0, 4934.0, 4938.0, 4958.0, 4936.0, 4938.0, 4938.0, 4960.0, 4936.0, 4934.0, 4940.0, 4938.0, 4938.0, 4958.0, 4938.0, 4962.0, 4938.0, 4936.0, 4940.0, 4940.0, 4938.0, 4958.0, 4940.0, 4936.0, 4938.0, 4938.0, 4938.0, 4938.0, 4936.0, 4936.0, 4938.0, 4936.0, 4936.0, 4936.0, 4852.0, 4920.0, 4940.0, 4918.0, 4922.0, 4920.0, 4942.0, 4938.0, 4956.0, 4934.0, 4920.0, 4956.0, 4956.0, 4960.0, 4942.0, 4944.0, 4942.0, 4942.0, 4944.0, 4940.0, 4938.0, 4954.0, 4956.0],
