{
  "AcquisitionMatrixPE": 104,
  "AcquisitionNumber": 1,
  "AcquisitionTime": "19:09:40.550000",
  "BandwidthPerPixelPhaseEncode": 17.17,
  "BaseResolution": 104,
  "BodyPartExamined": "BRAIN",
  "CoilCombinationMethod": "Sum of Squares",
  "ConsistencyInfo": "N4_VE11C_LATEST_20160120",
  "ConversionSoftware": "dcm2niix",
  "ConversionSoftwareVersion": "v1.0.20220505",
  "DerivedVendorReportedEchoSpacing": 0.000560011,
  "DeviceSerialNumber": "167006",
  "DwellTime": 2.1e-06,
  "EchoTime": 0.037,
  "EchoTrainLength": 104,
  "EffectiveEchoSpacing": 0.000560011,
  "FlipAngle": 52,
  "HeudiconvVersion": "0.5.3.post811+g6206e14",
  "ImageComments": "Unaliased MB4/PE3/LB",
  "ImageOrientationPatientDICOM": [0.997299, -0.0733926, 0.00289589, 0.0704376, 0.944482, -0.320925],
  "ImageOrientationText": "Tra>Cor(-18.7)>Sag(-1.2)",
  "ImageType": [
    "ORIGINAL",
    "PRIMARY",
    "M",
    "MB",
    "ND",
    "MOSAIC"
],
  "ImagingFrequency": 123.26,
  "InPlanePhaseEncodingDirectionDICOM": "COL",
  "InstitutionAddress": "Chemin Queen-Mary 4565,Montreal,District,CA,H3W 1W5",
  "InstitutionName": "IUGM",
  "InstitutionalDepartmentName": "Department",
  "MRAcquisitionType": "2D",
  "MagneticFieldStrength": 3,
  "Manufacturer": "Siemens",
  "ManufacturersModelName": "Prisma_fit",
  "MatrixCoilMode": "SENSE",
  "Modality": "MR",
  "MultibandAccelerationFactor": 4,
  "PartialFourier": 1,
  "PatientPosition": "HFS",
  "PercentPhaseFOV": 100,
  "PercentSampling": 100,
  "PhaseEncodingDirection": "j",
  "PhaseEncodingSteps": 104,
  "PhaseResolution": 1,
  "PixelBandwidth": 2290,
  "ProcedureStepDescription": "games^mario3",
  "ProtocolName": "func_task-mario3_run-04",
  "PulseSequenceDetails": "%CustomerSeq%\\cmrr_mbep2d_bold",
  "ReceiveCoilActiveElements": "HC1-7;NC1,2",
  "ReceiveCoilName": "HeadNeck_64",
  "ReconMatrixPE": 104,
  "RepetitionTime": 1.49,
  "SAR": 0.0571011,
  "ScanOptions": "FS",
  "ScanningSequence": "EP",
  "SequenceName": "epfid2d1_104",
  "SequenceVariant": "SK\\SS",
  "SeriesDescription": "func_task-mario3_run-04",
  "SeriesNumber": 19,
  "ShimSetting": [591, -7251, -8832, 449, 14, -302, 16, 26],
  "SliceThickness": 2,
  "SliceTiming": [0, 0.785, 0.1, 0.8825, 0.1975, 0.98, 0.295, 1.08, 0.3925, 1.1775, 0.49, 1.275, 0.59, 1.3725, 0.6875, 0, 0.785, 0.1, 0.8825, 0.1975, 0.98, 0.295, 1.08, 0.3925, 1.1775, 0.49, 1.275, 0.59, 1.3725, 0.6875, 0, 0.785, 0.1, 0.8825, 0.1975, 0.98, 0.295, 1.08, 0.3925, 1.1775, 0.49, 1.275, 0.59, 1.3725, 0.6875, 0, 0.785, 0.1, 0.8825, 0.1975, 0.98, 0.295, 1.08, 0.3925, 1.1775, 0.49, 1.275, 0.59, 1.3725, 0.6875],
  "SoftwareVersions": "syngo MR E11",
  "SpacingBetweenSlices": 2,
  "StationName": "MRC35049",
  "TaskName": "mario3",
  "TotalReadoutTime": 0.0576811,
  "TxRefAmp": 262.255,
  "WipMemBlock": "afbf8ac8-a61b-46ee-9b8e-72f7b1256349||Sequence: R017 ve11c/master r/75a17815+; Jun 28 2022 16:32:11 by eja",
  "dcmmeta_affine": [
    [-1.9945977926254272, 0.1408751755952835, -0.041636791080236435, 97.85974884033203],
    [0.1467851847410202, 1.8889634609222412, -0.64052414894104, -75.07450103759766],
    [0.005791783798485994, 0.6418498754501343, 1.8942004442214966, -58.9144287109375],
    [0.0, 0.0, 0.0, 1.0]
],
  "dcmmeta_reorient_transform": [
    [0.0, -1.0, 0.0, 103.0],
    [1.0, 0.0, 0.0, 0.0],
    [0.0, 0.0, 1.0, 0.0],
    [0.0, 0.0, 0.0, 1.0]
],
  "dcmmeta_shape": [104, 104, 60, 334],
  "dcmmeta_slice_dim": 2,
  "dcmmeta_version": 0.6,
  "global": {
    "const": {
      "AcquisitionMatrix": [104, 0, 0, 104],
      "AngioFlag": "N",
      "BitsAllocated": 16,
      "BitsStored": 16,
      "BodyPartExamined": "BRAIN",
      "Columns": 832,
      "EchoNumbers": 1,
      "EchoTime": 37.0,
      "EchoTrainLength": 104,
      "FlipAngle": 52.0,
      "HighBit": 15,
      "ImageOrientationPatient": [0.99729892247465, -0.0733925952721, 0.00289589193987, 0.07043758666624, 0.94448173039922, -0.3209249247515],
      "ImagePositionPatient": [-889.68206866934, -753.64162246191, 238.72124332719],
      "ImageType": [
        "ORIGINAL",
        "PRIMARY",
        "M",
        "MB",
        "ND",
        "MOSAIC"
],
      "ImagedNucleus": "1H",
      "ImagingFrequency": 123.26019,
      "InPlanePhaseEncodingDirection": "COL",
      "MRAcquisitionType": "2D",
      "MagneticFieldStrength": 3.0,
      "Manufacturer": "SIEMENS",
      "ManufacturerModelName": "Prisma_fit",
      "Modality": "MR",
      "NumberOfAverages": 1.0,
      "NumberOfPhaseEncodingSteps": 104,
      "PercentPhaseFieldOfView": 100.0,
      "PercentSampling": 100.0,
      "PerformedProcedureStepStartTime": "182825.093000",
      "PhotometricInterpretation": "MONOCHROME2",
      "PixelBandwidth": 2290.0,
      "PixelRepresentation": 0,
      "PixelSpacing": [2.0, 2.0],
      "ProtocolName": "func_task-mario3_run-04",
      "RepetitionTime": 1490.0,
      "Rows": 832,
      "SAR": 0.05710107825088,
      "SamplesPerPixel": 1,
      "ScanOptions": "FS",
      "ScanningSequence": "EP",
      "SequenceName": "epfid2d1_104",
      "SequenceVariant": [
        "SK",
        "SS"
],
      "SeriesDescription": "func_task-mario3_run-04",
      "SeriesNumber": 19,
      "SeriesTime": "191052.129000",
      "SliceLocation": -33.791633655088,
      "SliceThickness": 2.0,
      "SmallestImagePixelValue": 0,
      "SoftwareVersions": "syngo MR E11",
      "SpacingBetweenSlices": 2.0000000233132,
      "SpecificCharacterSet": "ISO_IR 100",
      "StudyID": "1",
      "StudyTime": "182824.988000",
      "TransmitCoilName": "Body",
      "VariableFlipAngleFlag": "N",
      "WindowCenterWidthExplanation": "Algo1",
      "dBdt": 0.0},
    "slices": {}
  },
  "time": {
    "samples": {
      "AcquisitionNumber": [1, 2, 3, 4, 5, 6, 7, 8, 9, 10, 11, 12, 13, 14, 15, 16, 17, 18, 19, 20, 21, 22, 23, 24, 25, 26, 27, 28, 29, 30, 31, 32, 33, 34, 35, 36, 37, 38, 39, 40, 41, 42, 43, 44, 45, 46, 47, 48, 49, 50, 51, 52, 53, 54, 55, 56, 57, 58, 59, 60, 61, 62, 63, 64, 65, 66, 67, 68, 69, 70, 71, 72, 73, 74, 75, 76, 77, 78, 79, 80, 81, 82, 83, 84, 85, 86, 87, 88, 89, 90, 91, 92, 93, 94, 95, 96, 97, 98, 99, 100, 101, 102, 103, 104, 105, 106, 107, 108, 109, 110, 111, 112, 113, 114, 115, 116, 117, 118, 119, 120, 121, 122, 123, 124, 125, 126, 127, 128, 129, 130, 131, 132, 133, 134, 135, 136, 137, 138, 139, 140, 141, 142, 143, 144, 145, 146, 147, 148, 149, 150, 151, 152, 153, 154, 155, 156, 157, 158, 159, 160, 161, 162, 163, 164, 165, 166, 167, 168, 169, 170, 171, 172, 173, 174, 175, 176, 177, 178, 179, 180, 181, 182, 183, 184, 185, 186, 187, 188, 189, 190, 191, 192, 193, 194, 195, 196, 197, 198, 199, 200, 201, 202, 203, 204, 205, 206, 207, 208, 209, 210, 211, 212, 213, 214, 215, 216, 217, 218, 219, 220, 221, 222, 223, 224, 225, 226, 227, 228, 229, 230, 231, 232, 233, 234, 235, 236, 237, 238, 239, 240, 241, 242, 243, 244, 245, 246, 247, 248, 249, 250, 251, 252, 253, 254, 255, 256, 257, 258, 259, 260, 261, 262, 263, 264, 265, 266, 267, 268, 269, 270, 271, 272, 273, 274, 275, 276, 277, 278, 279, 280, 281, 282, 283, 284, 285, 286, 287, 288, 289, 290, 291, 292, 293, 294, 295, 296, 297, 298, 299, 300, 301, 302, 303, 304, 305, 306, 307, 308, 309, 310, 311, 312, 313, 314, 315, 316, 317, 318, 319, 320, 321, 322, 323, 324, 325, 326, 327, 328, 329, 330, 331, 332, 333, 334],
      "AcquisitionTime": ["190940.550000", "190942.040000", "190943.530000", "190945.020000", "190946.510000", "190948.000000", "190949.490000", "190950.980000", "190952.470000", "190953.960000", "190955.450000", "190956.940000", "190958.430000", "190959.920000", "191001.410000", "191002.900000", "191004.390000", "191005.880000", "191007.370000", "191008.860000", "191010.350000", "191011.840000", "191013.330000", "191014.820000", "191016.310000", "191017.800000", "191019.290000", "191020.780000", "191022.270000", "191023.760000", "191025.250000", "191026.740000", "191028.230000", "191029.720000", "191031.210000", "191032.700000", "191034.190000", "191035.680000", "191037.170000", "191038.660000", "191040.150000", "191041.640000", "191043.130000", "191044.620000", "191046.110000", "191047.600000", "191049.090000", "191050.580000", "191052.070000", "191053.560000", "191055.050000", "191056.540000", "191058.030000", "191059.520000", "191101.010000", "191102.500000", "191103.990000", "191105.480000", "191106.970000", "191108.460000", "191109.950000", "191111.440000", "191112.930000", "191114.420000", "191115.910000", "191117.400000", "191118.890000", "191120.380000", "191121.870000", "191123.360000", "191124.850000", "191126.340000", "191127.830000", "191129.320000", "191130.810000", "191132.300000", "191133.790000", "191135.280000", "191136.770000", "191138.260000", "191139.750000", "191141.240000", "191142.730000", "191144.220000", "191145.710000", "191147.200000", "191148.690000", "191150.180000", "191151.670000", "191153.160000", "191154.650000", "191156.140000", "191157.630000", "191159.120000", "191200.610000", "191202.100000", "191203.590000", "191205.080000", "191206.570000", "191208.060000", "191209.550000", "191211.040000", "191212.530000", "191214.020000", "191215.510000", "191217.000000", "191218.490000", "191219.980000", "191221.470000", "191222.960000", "191224.450000", "191225.940000", "191227.430000", "191228.920000", "191230.410000", "191231.900000", "191233.390000", "191234.880000", "191236.370000", "191237.860000", "191239.350000", "191240.840000", "191242.330000", "191243.820000", "191245.310000", "191246.800000", "191248.290000", "191249.780000", "191251.270000", "191252.760000", "191254.250000", "191255.740000", "191257.230000", "191258.720000", "191300.210000", "191301.700000", "191303.190000", "191304.680000", "191306.170000", "191307.660000", "191309.150000", "191310.640000", "191312.130000", "191313.620000", "191315.110000", "191316.600000", "191318.090000", "191319.580000", "191321.070000", "191322.560000", "191324.050000", "191325.540000", "191327.030000", "191328.520000", "191330.010000", "191331.500000", "191332.990000", "191334.480000", "191335.970000", "191337.460000", "191338.950000", "191340.440000", "191341.930000", "191343.420000", "191344.910000", "191346.400000", "191347.890000", "191349.380000", "191350.870000", "191352.360000", "191353.850000", "191355.340000", "191356.830000", "191358.320000", "191359.810000", "191401.300000", "191402.790000", "191404.280000", "191405.770000", "191407.260000", "191408.750000", "191410.240000", "191411.730000", "191413.220000", "191414.710000", "191416.200000", "191417.690000", "191419.180000", "191420.670000", "191422.160000", "191423.650000", "191425.140000", "191426.630000", "191428.120000", "191429.610000", "191431.100000", "191432.590000", "191434.080000", "191435.570000", "191437.060000", "191438.550000", "191440.040000", "191441.530000", "191443.020000", "191444.510000", "191446.000000", "191447.490000", "191448.980000", "191450.470000", "191451.960000", "191453.450000", "191454.940000", "191456.430000", "191457.920000", "191459.410000", "191500.900000", "191502.390000", "191503.880000", "191505.370000", "191506.860000", "191508.350000", "191509.840000", "191511.330000", "191512.820000", "191514.310000", "191515.800000", "191517.290000", "191518.780000", "191520.270000", "191521.760000", "191523.250000", "191524.740000", "191526.230000", "191527.720000", "191529.210000", "191530.700000", "191532.190000", "191533.680000", "191535.170000", "191536.660000", "191538.150000", "191539.640000", "191541.130000", "191542.620000", "191544.110000", "191545.600000", "191547.090000", "191548.580000", "191550.070000", "191551.560000", "191553.050000", "191554.540000", "191556.030000", "191557.520000", "191559.010000", "191600.500000", "191601.990000", "191603.480000", "191604.970000", "191606.460000", "191607.950000", "191609.440000", "191610.930000", "191612.420000", "191613.910000", "191615.400000", "191616.890000", "191618.380000", "191619.870000", "191621.360000", "191622.850000", "191624.340000", "191625.830000", "191627.320000", "191628.810000", "191630.300000", "191631.790000", "191633.280000", "191634.770000", "191636.260000", "191637.750000", "191639.240000", "191640.730000", "191642.220000", "191643.710000", "191645.200000", "191646.690000", "191648.180000", "191649.670000", "191651.160000", "191652.650000", "191654.140000", "191655.630000", "191657.120000", "191658.610000", "191700.100000", "191701.590000", "191703.080000", "191704.570000", "191706.060000", "191707.550000", "191709.040000", "191710.530000", "191712.020000", "191713.510000", "191715.000000", "191716.490000", "191717.980000", "191719.470000", "191720.960000", "191722.450000", "191723.940000", "191725.430000", "191726.920000", "191728.410000", "191729.900000", "191731.390000", "191732.880000", "191734.370000", "191735.860000", "191737.350000", "191738.840000", "191740.330000", "191741.820000", "191743.310000", "191744.800000", "191746.290000", "191747.780000", "191749.270000", "191750.760000", "191752.250000", "191753.740000", "191755.230000", "191756.720000"],
      "ContentTime": ["191052.132000", "191052.136000", "191052.139000", "191052.143000", "191052.146000", "191052.149000", "191052.153000", "191052.156000", "191052.159000", "191052.163000", "191052.166000", "191052.169000", "191052.172000", "191052.176000", "191052.179000", "191052.182000", "191052.192000", "191052.195000", "191052.199000", "191052.202000", "191052.205000", "191052.208000", "191052.212000", "191052.215000", "191112.101000", "191112.105000", "191112.108000", "191112.111000", "191112.114000", "191112.118000", "191112.121000", "191112.124000", "191112.128000", "191112.131000", "191112.134000", "191112.137000", "191112.140000", "191112.144000", "191112.147000", "191112.150000", "191112.154000", "191112.157000", "191112.160000", "191112.163000", "191132.100000", "191132.104000", "191132.107000", "191132.110000", "191132.113000", "191132.117000", "191132.120000", "191132.123000", "191132.126000", "191132.130000", "191132.133000", "191132.136000", "191132.139000", "191132.143000", "191132.146000", "191132.149000", "191132.153000", "191132.156000", "191132.159000", "191132.162000", "191132.166000", "191152.100000", "191152.104000", "191152.107000", "191152.110000", "191152.114000", "191152.117000", "191152.120000", "191152.123000", "191152.127000", "191152.130000", "191152.133000", "191152.136000", "191152.140000", "191152.143000", "191152.146000", "191152.149000", "191152.153000", "191152.156000", "191152.159000", "191152.162000", "191232.100000", "191232.104000", "191232.107000", "191232.110000", "191232.114000", "191232.117000", "191232.120000", "191232.124000", "191232.127000", "191232.130000", "191232.133000", "191232.136000", "191232.140000", "191232.154000", "191232.157000", "191232.160000", "191232.163000", "191232.167000", "191232.170000", "191232.173000", "191232.177000", "191232.180000", "191232.183000", "191232.186000", "191232.190000", "191232.193000", "191232.196000", "191232.200000", "191232.203000", "191312.101000", "191312.105000", "191312.108000", "191312.111000", "191312.115000", "191312.118000", "191312.121000", "191312.125000", "191312.128000", "191312.131000", "191312.134000", "191312.138000", "191312.141000", "191312.144000", "191312.147000", "191312.151000", "191312.154000", "191312.157000", "191312.161000", "191312.164000", "191312.167000", "191312.170000", "191312.174000", "191312.177000", "191312.180000", "191312.184000", "191312.187000", "191352.100000", "191352.104000", "191352.107000", "191352.110000", "191352.114000", "191352.117000", "191352.120000", "191352.123000", "191352.127000", "191352.130000", "191352.133000", "191352.137000", "191352.140000", "191352.143000", "191352.147000", "191352.150000", "191352.153000", "191352.156000", "191352.160000", "191352.163000", "191352.166000", "191352.169000", "191352.173000", "191352.176000", "191352.179000", "191352.183000", "191352.186000", "191432.100000", "191432.104000", "191432.107000", "191432.111000", "191432.114000", "191432.117000", "191432.121000", "191432.124000", "191432.127000", "191432.131000", "191432.134000", "191432.137000", "191432.140000", "191432.144000", "191432.147000", "191432.150000", "191432.154000", "191432.157000", "191432.160000", "191432.163000", "191432.167000", "191432.170000", "191432.173000", "191432.177000", "191432.180000", "191432.183000", "191512.100000", "191512.104000", "191512.107000", "191512.110000", "191512.114000", "191512.117000", "191512.120000", "191512.124000", "191512.127000", "191512.130000", "191512.134000", "191512.137000", "191512.140000", "191512.143000", "191512.147000", "191512.150000", "191512.153000", "191512.157000", "191512.160000", "191512.163000", "191512.166000", "191512.170000", "191512.173000", "191512.176000", "191512.180000", "191512.183000", "191512.186000", "191552.100000", "191552.104000", "191552.107000", "191552.110000", "191552.114000", "191552.117000", "191552.120000", "191552.124000", "191552.127000", "191552.130000", "191552.141000", "191552.144000", "191552.147000", "191552.151000", "191552.154000", "191552.157000", "191552.161000", "191552.164000", "191552.167000", "191552.170000", "191552.174000", "191552.177000", "191552.180000", "191552.184000", "191552.187000", "191552.190000", "191552.193000", "191632.100000", "191632.104000", "191632.107000", "191632.111000", "191632.114000", "191632.117000", "191632.120000", "191632.124000", "191632.127000", "191632.130000", "191632.134000", "191632.137000", "191632.140000", "191632.143000", "191632.147000", "191632.150000", "191632.153000", "191632.157000", "191632.160000", "191632.163000", "191632.166000", "191632.170000", "191632.173000", "191632.176000", "191632.180000", "191632.183000", "191632.186000", "191712.100000", "191712.104000", "191712.107000", "191712.111000", "191712.114000", "191712.117000", "191712.120000", "191712.124000", "191712.127000", "191712.130000", "191712.133000", "191712.150000", "191712.154000", "191712.157000", "191712.160000", "191712.163000", "191712.167000", "191712.170000", "191712.173000", "191712.177000", "191712.180000", "191712.183000", "191712.186000", "191712.191000", "191712.194000", "191712.197000", "191712.201000", "191752.101000", "191752.105000", "191752.108000", "191752.111000", "191752.115000", "191752.134000", "191752.137000", "191752.141000", "191752.144000", "191752.147000", "191752.150000", "191752.154000", "191752.157000", "191752.160000", "191752.163000", "191752.167000", "191752.170000", "191752.173000", "191752.177000", "191752.180000", "191752.183000", "191752.186000", "191752.190000", "191752.193000", "191752.196000", "191752.199000", "191752.203000", "191800.511000", "191800.514000", "191800.518000", "191800.521000", "191800.524000"],
      "InstanceCreationTime": ["191052.132000", "191052.136000", "191052.139000", "191052.143000", "191052.146000", "191052.149000", "191052.153000", "191052.156000", "191052.159000", "191052.163000", "191052.166000", "191052.169000", "191052.172000", "191052.176000", "191052.179000", "191052.182000", "191052.192000", "191052.195000", "191052.199000", "191052.202000", "191052.205000", "191052.208000", "191052.212000", "191052.215000", "191112.101000", "191112.105000", "191112.108000", "191112.111000", "191112.114000", "191112.118000", "191112.121000", "191112.124000", "191112.128000", "191112.131000", "191112.134000", "191112.137000", "191112.140000", "191112.144000", "191112.147000", "191112.150000", "191112.154000", "191112.157000", "191112.160000", "191112.163000", "191132.100000", "191132.104000", "191132.107000", "191132.110000", "191132.113000", "191132.117000", "191132.120000", "191132.123000", "191132.126000", "191132.130000", "191132.133000", "191132.136000", "191132.139000", "191132.143000", "191132.146000", "191132.149000", "191132.153000", "191132.156000", "191132.159000", "191132.162000", "191132.166000", "191152.100000", "191152.104000", "191152.107000", "191152.110000", "191152.114000", "191152.117000", "191152.120000", "191152.123000", "191152.127000", "191152.130000", "191152.133000", "191152.136000", "191152.140000", "191152.143000", "191152.146000", "191152.149000", "191152.153000", "191152.156000", "191152.159000", "191152.162000", "191232.100000", "191232.104000", "191232.107000", "191232.110000", "191232.114000", "191232.117000", "191232.120000", "191232.124000", "191232.127000", "191232.130000", "191232.133000", "191232.136000", "191232.140000", "191232.154000", "191232.157000", "191232.160000", "191232.163000", "191232.167000", "191232.170000", "191232.173000", "191232.177000", "191232.180000", "191232.183000", "191232.186000", "191232.190000", "191232.193000", "191232.196000", "191232.200000", "191232.203000", "191312.101000", "191312.105000", "191312.108000", "191312.111000", "191312.115000", "191312.118000", "191312.121000", "191312.125000", "191312.128000", "191312.131000", "191312.134000", "191312.138000", "191312.141000", "191312.144000", "191312.147000", "191312.151000", "191312.154000", "191312.157000", "191312.161000", "191312.164000", "191312.167000", "191312.170000", "191312.174000", "191312.177000", "191312.180000", "191312.184000", "191312.187000", "191352.100000", "191352.104000", "191352.107000", "191352.110000", "191352.114000", "191352.117000", "191352.120000", "191352.123000", "191352.127000", "191352.130000", "191352.133000", "191352.137000", "191352.140000", "191352.143000", "191352.147000", "191352.150000", "191352.153000", "191352.156000", "191352.160000", "191352.163000", "191352.166000", "191352.169000", "191352.173000", "191352.176000", "191352.179000", "191352.183000", "191352.186000", "191432.100000", "191432.104000", "191432.107000", "191432.111000", "191432.114000", "191432.117000", "191432.121000", "191432.124000", "191432.127000", "191432.131000", "191432.134000", "191432.137000", "191432.140000", "191432.144000", "191432.147000", "191432.150000", "191432.154000", "191432.157000", "191432.160000", "191432.163000", "191432.167000", "191432.170000", "191432.173000", "191432.177000", "191432.180000", "191432.183000", "191512.100000", "191512.104000", "191512.107000", "191512.110000", "191512.114000", "191512.117000", "191512.120000", "191512.124000", "191512.127000", "191512.130000", "191512.134000", "191512.137000", "191512.140000", "191512.143000", "191512.147000", "191512.150000", "191512.153000", "191512.157000", "191512.160000", "191512.163000", "191512.166000", "191512.170000", "191512.173000", "191512.176000", "191512.180000", "191512.183000", "191512.186000", "191552.100000", "191552.104000", "191552.107000", "191552.110000", "191552.114000", "191552.117000", "191552.120000", "191552.124000", "191552.127000", "191552.130000", "191552.141000", "191552.144000", "191552.147000", "191552.151000", "191552.154000", "191552.157000", "191552.161000", "191552.164000", "191552.167000", "191552.170000", "191552.174000", "191552.177000", "191552.180000", "191552.184000", "191552.187000", "191552.190000", "191552.193000", "191632.100000", "191632.104000", "191632.107000", "191632.111000", "191632.114000", "191632.117000", "191632.120000", "191632.124000", "191632.127000", "191632.130000", "191632.134000", "191632.137000", "191632.140000", "191632.143000", "191632.147000", "191632.150000", "191632.153000", "191632.157000", "191632.160000", "191632.163000", "191632.166000", "191632.170000", "191632.173000", "191632.176000", "191632.180000", "191632.183000", "191632.186000", "191712.100000", "191712.104000", "191712.107000", "191712.111000", "191712.114000", "191712.117000", "191712.120000", "191712.124000", "191712.127000", "191712.130000", "191712.133000", "191712.150000", "191712.154000", "191712.157000", "191712.160000", "191712.163000", "191712.167000", "191712.170000", "191712.173000", "191712.177000", "191712.180000", "191712.183000", "191712.186000", "191712.191000", "191712.194000", "191712.197000", "191712.201000", "191752.101000", "191752.105000", "191752.108000", "191752.111000", "191752.115000", "191752.134000", "191752.137000", "191752.141000", "191752.144000", "191752.147000", "191752.150000", "191752.154000", "191752.157000", "191752.160000", "191752.163000", "191752.167000", "191752.170000", "191752.173000", "191752.177000", "191752.180000", "191752.183000", "191752.186000", "191752.190000", "191752.193000", "191752.196000", "191752.199000", "191752.203000", "191800.511000", "191800.514000", "191800.518000", "191800.521000", "191800.524000"],
      "InstanceNumber": [1, 2, 3, 4, 5, 6, 7, 8, 9, 10, 11, 12, 13, 14, 15, 16, 17, 18, 19, 20, 21, 22, 23, 24, 25, 26, 27, 28, 29, 30, 31, 32, 33, 34, 35, 36, 37, 38, 39, 40, 41, 42, 43, 44, 45, 46, 47, 48, 49, 50, 51, 52, 53, 54, 55, 56, 57, 58, 59, 60, 61, 62, 63, 64, 65, 66, 67, 68, 69, 70, 71, 72, 73, 74, 75, 76, 77, 78, 79, 80, 81, 82, 83, 84, 85, 86, 87, 88, 89, 90, 91, 92, 93, 94, 95, 96, 97, 98, 99, 100, 101, 102, 103, 104, 105, 106, 107, 108, 109, 110, 111, 112, 113, 114, 115, 116, 117, 118, 119, 120, 121, 122, 123, 124, 125, 126, 127, 128, 129, 130, 131, 132, 133, 134, 135, 136, 137, 138, 139, 140, 141, 142, 143, 144, 145, 146, 147, 148, 149, 150, 151, 152, 153, 154, 155, 156, 157, 158, 159, 160, 161, 162, 163, 164, 165, 166, 167, 168, 169, 170, 171, 172, 173, 174, 175, 176, 177, 178, 179, 180, 181, 182, 183, 184, 185, 186, 187, 188, 189, 190, 191, 192, 193, 194, 195, 196, 197, 198, 199, 200, 201, 202, 203, 204, 205, 206, 207, 208, 209, 210, 211, 212, 213, 214, 215, 216, 217, 218, 219, 220, 221, 222, 223, 224, 225, 226, 227, 228, 229, 230, 231, 232, 233, 234, 235, 236, 237, 238, 239, 240, 241, 242, 243, 244, 245, 246, 247, 248, 249, 250, 251, 252, 253, 254, 255, 256, 257, 258, 259, 260, 261, 262, 263, 264, 265, 266, 267, 268, 269, 270, 271, 272, 273, 274, 275, 276, 277, 278, 279, 280, 281, 282, 283, 284, 285, 286, 287, 288, 289, 290, 291, 292, 293, 294, 295, 296, 297, 298, 299, 300, 301, 302, 303, 304, 305, 306, 307, 308, 309, 310, 311, 312, 313, 314, 315, 316, 317, 318, 319, 320, 321, 322, 323, 324, 325, 326, 327, 328, 329, 330, 331, 332, 333, 334],
      "LargestImagePixelValue": [59422, 57892, 56999, 56297, 56106, 56096, 56307, 56164, 56561, 56198, 56114, 56596, 56381, 56765, 56634, 56778, 56845, 57128, 56413, 56710, 56096, 57186, 56473, 56360, 56113, 56203, 56878, 56382, 57091, 56507, 57060, 57148, 57059, 56696, 57042, 56295, 56911, 57161, 57812, 56647, 56745, 56605, 57242, 57362, 57118, 56951, 56271, 56825, 56691, 56824, 56693, 57227, 57416, 56713, 57064, 56944, 57094, 56949, 56506, 56733, 57072, 57160, 56617, 57347, 57053, 57086, 57151, 57095, 57440, 56859, 56530, 57130, 56989, 57234, 56869, 57405, 56764, 56861, 56157, 57300, 56242, 56541, 57061, 56721, 56442, 56474, 56957, 56733, 57104, 56996, 56811, 57195, 56798, 56578, 57305, 56923, 56908, 57093, 57128, 57204, 56043, 56654, 56492, 56811, 56602, 56995, 56747, 56876, 56721, 56542, 56951, 56716, 56784, 57092, 56794, 56734, 56861, 56767, 57104, 57021, 56757, 57052, 56804, 56917, 56897, 57133, 56517, 57049, 56647, 56997, 57174, 56793, 56757, 56826, 56982, 56577, 57587, 56808, 57395, 56946, 57009, 56240, 56691, 56704, 56951, 57419, 56729, 56869, 56999, 57245, 57148, 57158, 57250, 56258, 56796, 56516, 56697, 56728, 56562, 56690, 56515, 56839, 56671, 56710, 56552, 57130, 56907, 56983, 56718, 56573, 57232, 56607, 56564, 56718, 56203, 57090, 56619, 56494, 56681, 56707, 56753, 57055, 56387, 56126, 56615, 56615, 56735, 56340, 56684, 56896, 56891, 56740, 56589, 56823, 57149, 56528, 56764, 57055, 56742, 56625, 56224, 56424, 57035, 56973, 56388, 56917, 56509, 57067, 56483, 56965, 56496, 56416, 57206, 56222, 56989, 56906, 56903, 56956, 56830, 56621, 56786, 56636, 56769, 56741, 56698, 57310, 57492, 57005, 56655, 56202, 56358, 56330, 56319, 56524, 56747, 56374, 56612, 56579, 56489, 56706, 56641, 58873, 58322, 56884, 56790, 56983, 57165, 56978, 56845, 57228, 56611, 56794, 56408, 56383, 56737, 56654, 56532, 56869, 57125, 56974, 57092, 57169, 57076, 56829, 57006, 56949, 56788, 56544, 56653, 56981, 56600, 56944, 56474, 56825, 56328, 56691, 56435, 56536, 56710, 57267, 56823, 56740, 56984, 56746, 56911, 57073, 57078, 56669, 58642, 61750, 56163, 57037, 57072, 56691, 56526, 56853, 57984, 57087, 57172, 56871, 56617, 56373, 56138, 56291, 56400, 57624, 56573, 56713, 56714, 56469, 56559, 57823, 56263, 56408, 56537, 56745, 56666, 56714, 57068, 57118, 56533, 56832, 56848, 56496, 56723, 56724, 56554, 56713, 56492, 57086, 56611, 56657, 57089, 56699],
