{
  "AcquisitionMatrixPE": 104,
  "AcquisitionNumber": 1,
  "AcquisitionTime": "18:36:6.375000",
  "BandwidthPerPixelPhaseEncode": 17.17,
  "BaseResolution": 104,
  "BodyPartExamined": "BRAIN",
  "CoilCombinationMethod": "Sum of Squares",
  "ConsistencyInfo": "N4_VE11C_LATEST_20160120",
  "ConversionSoftware": "dcm2niix",
  "ConversionSoftwareVersion": "v1.0.20220505",
  "DerivedVendorReportedEchoSpacing": 0.000560011,
  "DeviceSerialNumber": "167006",
  "DwellTime": 2.1e-06,
  "EchoTime": 0.037,
  "EchoTime1": 0.037,
  "EchoTime2": 0.001,
  "EchoTrainLength": 104,
  "EffectiveEchoSpacing": 0.000560011,
  "FlipAngle": 52,
  "HeudiconvVersion": "0.5.3.post811+g6206e14",
  "ImageComments": "Unaliased MB4/PE3/LB",
  "ImageOrientationPatientDICOM": [0.997299, -0.0733926, 0.00289589, 0.0704376, 0.944482, -0.320925],
  "ImageOrientationText": "Tra>Cor(-18.7)>Sag(-1.2)",
  "ImageType": [
    "ORIGINAL",
    "PRIMARY",
    "P",
    "MB",
    "ND",
    "MOSAIC",
    "PHASE"
],
  "ImagingFrequency": 123.26,
  "InPlanePhaseEncodingDirectionDICOM": "COL",
  "InstitutionAddress": "Chemin Queen-Mary 4565,Montreal,District,CA,H3W 1W5",
  "InstitutionName": "IUGM",
  "InstitutionalDepartmentName": "Department",
  "MRAcquisitionType": "2D",
  "MagneticFieldStrength": 3,
  "Manufacturer": "Siemens",
  "ManufacturersModelName": "Prisma_fit",
  "MatrixCoilMode": "SENSE",
  "Modality": "MR",
  "MultibandAccelerationFactor": 4,
  "PartialFourier": 1,
  "PatientPosition": "HFS",
  "PercentPhaseFOV": 100,
  "PercentSampling": 100,
  "PhaseEncodingDirection": "j",
  "PhaseEncodingSteps": 104,
  "PhaseResolution": 1,
  "PixelBandwidth": 2290,
  "ProcedureStepDescription": "games^mario3",
  "ProtocolName": "func_task-mario3_run-01",
  "PulseSequenceDetails": "%CustomerSeq%\\cmrr_mbep2d_bold",
  "ReceiveCoilActiveElements": "HC1-7;NC1,2",
  "ReceiveCoilName": "HeadNeck_64",
  "ReconMatrixPE": 104,
  "RepetitionTime": 1.49,
  "SAR": 0.0571011,
  "ScanOptions": "FS",
  "ScanningSequence": "EP",
  "SequenceName": "epfid2d1_104",
  "SequenceVariant": "SK\\SS",
  "SeriesDescription": "func_task-mario3_run-01",
  "SeriesNumber": 11,
  "ShimSetting": [591, -7251, -8832, 449, 14, -302, 16, 26],
  "SliceThickness": 2,
  "SliceTiming": [0, 0.7825, 0.0975, 0.88, 0.195, 0.98, 0.2925, 1.0775, 0.39, 1.175, 0.49, 1.2725, 0.5875, 1.37, 0.685, 0, 0.7825, 0.0975, 0.88, 0.195, 0.98, 0.2925, 1.0775, 0.39, 1.175, 0.49, 1.2725, 0.5875, 1.37, 0.685, 0, 0.7825, 0.0975, 0.88, 0.195, 0.98, 0.2925, 1.0775, 0.39, 1.175, 0.49, 1.2725, 0.5875, 1.37, 0.685, 0, 0.7825, 0.0975, 0.88, 0.195, 0.98, 0.2925, 1.0775, 0.39, 1.175, 0.49, 1.2725, 0.5875, 1.37, 0.685],
  "SoftwareVersions": "syngo MR E11",
  "SpacingBetweenSlices": 2,
  "StationName": "MRC35049",
  "TaskName": "mario3",
  "TotalReadoutTime": 0.0576811,
  "TxRefAmp": 262.255,
  "WipMemBlock": "4d9045d5-67b2-457b-97da-de81c7eb2afd||Sequence: R017 ve11c/master r/75a17815+; Jun 28 2022 16:32:11 by eja",
  "dcmmeta_affine": [
    [-1.9945977926254272, 0.1408751755952835, -0.041636791080236435, 97.85974884033203],
    [0.1467851847410202, 1.8889634609222412, -0.64052414894104, -75.07450103759766],
    [0.005791783798485994, 0.6418498754501343, 1.8942004442214966, -58.9144287109375],
    [0.0, 0.0, 0.0, 1.0]
],
  "dcmmeta_reorient_transform": [
    [0.0, -1.0, 0.0, 103.0],
    [1.0, 0.0, 0.0, 0.0],
    [0.0, 0.0, 1.0, 0.0],
    [0.0, 0.0, 0.0, 1.0]
],
  "dcmmeta_shape": [104, 104, 60, 310],
  "dcmmeta_slice_dim": 2,
  "dcmmeta_version": 0.6,
  "global": {
    "const": {
      "AcquisitionMatrix": [104, 0, 0, 104],
      "AngioFlag": "N",
      "BitsAllocated": 16,
      "BitsStored": 16,
      "BodyPartExamined": "BRAIN",
      "Columns": 832,
      "EchoNumbers": 1,
      "EchoTime": 37.0,
      "EchoTrainLength": 104,
      "FlipAngle": 52.0,
      "HighBit": 15,
      "ImageOrientationPatient": [0.99729892247465, -0.0733925952721, 0.00289589193987, 0.07043758666624, 0.94448173039922, -0.3209249247515],
      "ImagePositionPatient": [-889.68206866934, -753.64162246191, 238.72124332719],
      "ImageType": [
        "ORIGINAL",
        "PRIMARY",
        "P",
        "MB",
        "ND",
        "MOSAIC"
],
      "ImagedNucleus": "1H",
      "ImagingFrequency": 123.260183,
      "InPlanePhaseEncodingDirection": "COL",
      "LargestImagePixelValue": 4095,
      "MRAcquisitionType": "2D",
      "MagneticFieldStrength": 3.0,
      "Manufacturer": "SIEMENS",
      "ManufacturerModelName": "Prisma_fit",
      "Modality": "MR",
      "NumberOfAverages": 1.0,
      "NumberOfPhaseEncodingSteps": 104,
      "PercentPhaseFieldOfView": 100.0,
      "PercentSampling": 100.0,
      "PerformedProcedureStepStartTime": "182825.093000",
      "PhotometricInterpretation": "MONOCHROME2",
      "PixelBandwidth": 2290.0,
      "PixelRepresentation": 0,
      "PixelSpacing": [2.0, 2.0],
      "ProtocolName": "func_task-mario3_run-01",
      "RepetitionTime": 1490.0,
      "RescaleIntercept": -4096.0,
      "RescaleSlope": 2.0,
      "RescaleType": "US",
      "Rows": 832,
      "SAR": 0.05710107825088,
      "SamplesPerPixel": 1,
      "ScanOptions": "FS",
      "ScanningSequence": "EP",
      "SequenceName": "epfid2d1_104",
      "SequenceVariant": [
        "SK",
        "SS"
],
      "SeriesDescription": "func_task-mario3_run-01",
      "SeriesNumber": 11,
      "SeriesTime": "183712.218000",
      "SliceLocation": -33.791633655088,
      "SliceThickness": 2.0,
      "SmallestImagePixelValue": 0,
      "SoftwareVersions": "syngo MR E11",
      "SpacingBetweenSlices": 2.0000000233132,
      "SpecificCharacterSet": "ISO_IR 100",
      "StudyID": "1",
      "StudyTime": "182824.988000",
      "TransmitCoilName": "Body",
      "VariableFlipAngleFlag": "N",
      "WindowCenterWidthExplanation": "Algo1",
      "dBdt": 0.0},
    "slices": {}
  },
  "time": {
    "samples": {
      "AcquisitionNumber": [1, 2, 3, 4, 5, 6, 7, 8, 9, 10, 11, 12, 13, 14, 15, 16, 17, 18, 19, 20, 21, 22, 23, 24, 25, 26, 27, 28, 29, 30, 31, 32, 33, 34, 35, 36, 37, 38, 39, 40, 41, 42, 43, 44, 45, 46, 47, 48, 49, 50, 51, 52, 53, 54, 55, 56, 57, 58, 59, 60, 61, 62, 63, 64, 65, 66, 67, 68, 69, 70, 71, 72, 73, 74, 75, 76, 77, 78, 79, 80, 81, 82, 83, 84, 85, 86, 87, 88, 89, 90, 91, 92, 93, 94, 95, 96, 97, 98, 99, 100, 101, 102, 103, 104, 105, 106, 107, 108, 109, 110, 111, 112, 113, 114, 115, 116, 117, 118, 119, 120, 121, 122, 123, 124, 125, 126, 127, 128, 129, 130, 131, 132, 133, 134, 135, 136, 137, 138, 139, 140, 141, 142, 143, 144, 145, 146, 147, 148, 149, 150, 151, 152, 153, 154, 155, 156, 157, 158, 159, 160, 161, 162, 163, 164, 165, 166, 167, 168, 169, 170, 171, 172, 173, 174, 175, 176, 177, 178, 179, 180, 181, 182, 183, 184, 185, 186, 187, 188, 189, 190, 191, 192, 193, 194, 195, 196, 197, 198, 199, 200, 201, 202, 203, 204, 205, 206, 207, 208, 209, 210, 211, 212, 213, 214, 215, 216, 217, 218, 219, 220, 221, 222, 223, 224, 225, 226, 227, 228, 229, 230, 231, 232, 233, 234, 235, 236, 237, 238, 239, 240, 241, 242, 243, 244, 245, 246, 247, 248, 249, 250, 251, 252, 253, 254, 255, 256, 257, 258, 259, 260, 261, 262, 263, 264, 265, 266, 267, 268, 269, 270, 271, 272, 273, 274, 275, 276, 277, 278, 279, 280, 281, 282, 283, 284, 285, 286, 287, 288, 289, 290, 291, 292, 293, 294, 295, 296, 297, 298, 299, 300, 301, 302, 303, 304, 305, 306, 307, 308, 309, 310],
      "AcquisitionTime": ["183606.375000", "183607.865000", "183609.355000", "183610.845000", "183612.335000", "183613.825000", "183615.315000", "183616.805000", "183618.295000", "183619.785000", "183621.275000", "183622.765000", "183624.255000", "183625.745000", "183627.235000", "183628.725000", "183630.215000", "183631.705000", "183633.195000", "183634.685000", "183636.175000", "183637.665000", "183639.155000", "183640.645000", "183642.135000", "183643.625000", "183645.115000", "183646.605000", "183648.095000", "183649.585000", "183651.075000", "183652.565000", "183654.055000", "183655.545000", "183657.035000", "183658.525000", "183700.015000", "183701.505000", "183702.995000", "183704.485000", "183705.975000", "183707.465000", "183708.955000", "183710.445000", "183711.935000", "183713.425000", "183714.915000", "183716.405000", "183717.895000", "183719.385000", "183720.875000", "183722.365000", "183723.855000", "183725.345000", "183726.835000", "183728.325000", "183729.815000", "183731.305000", "183732.795000", "183734.285000", "183735.775000", "183737.265000", "183738.755000", "183740.245000", "183741.735000", "183743.225000", "183744.715000", "183746.205000", "183747.695000", "183749.185000", "183750.675000", "183752.165000", "183753.655000", "183755.145000", "183756.635000", "183758.125000", "183759.615000", "183801.105000", "183802.595000", "183804.085000", "183805.575000", "183807.065000", "183808.555000", "183810.045000", "183811.535000", "183813.025000", "183814.515000", "183816.005000", "183817.495000", "183818.985000", "183820.475000", "183821.965000", "183823.455000", "183824.945000", "183826.435000", "183827.925000", "183829.415000", "183830.905000", "183832.395000", "183833.885000", "183835.375000", "183836.865000", "183838.355000", "183839.845000", "183841.335000", "183842.825000", "183844.315000", "183845.805000", "183847.295000", "183848.785000", "183850.275000", "183851.765000", "183853.255000", "183854.745000", "183856.235000", "183857.725000", "183859.215000", "183900.705000", "183902.195000", "183903.685000", "183905.175000", "183906.665000", "183908.155000", "183909.645000", "183911.135000", "183912.625000", "183914.115000", "183915.605000", "183917.095000", "183918.585000", "183920.075000", "183921.565000", "183923.055000", "183924.545000", "183926.035000", "183927.525000", "183929.015000", "183930.505000", "183931.995000", "183933.485000", "183934.975000", "183936.465000", "183937.955000", "183939.445000", "183940.935000", "183942.425000", "183943.915000", "183945.405000", "183946.895000", "183948.385000", "183949.875000", "183951.365000", "183952.855000", "183954.345000", "183955.835000", "183957.325000", "183958.815000", "184000.305000", "184001.795000", "184003.285000", "184004.775000", "184006.265000", "184007.755000", "184009.245000", "184010.735000", "184012.225000", "184013.715000", "184015.205000", "184016.695000", "184018.185000", "184019.675000", "184021.165000", "184022.655000", "184024.145000", "184025.635000", "184027.125000", "184028.615000", "184030.105000", "184031.595000", "184033.085000", "184034.575000", "184036.065000", "184037.555000", "184039.045000", "184040.535000", "184042.025000", "184043.515000", "184045.005000", "184046.495000", "184047.985000", "184049.475000", "184050.965000", "184052.455000", "184053.945000", "184055.435000", "184056.925000", "184058.415000", "184059.905000", "184101.395000", "184102.885000", "184104.375000", "184105.865000", "184107.355000", "184108.845000", "184110.335000", "184111.825000", "184113.315000", "184114.805000", "184116.295000", "184117.785000", "184119.275000", "184120.765000", "184122.255000", "184123.745000", "184125.235000", "184126.725000", "184128.215000", "184129.705000", "184131.195000", "184132.685000", "184134.175000", "184135.665000", "184137.155000", "184138.645000", "184140.135000", "184141.625000", "184143.115000", "184144.605000", "184146.095000", "184147.585000", "184149.075000", "184150.565000", "184152.055000", "184153.545000", "184155.035000", "184156.525000", "184158.015000", "184159.505000", "184200.995000", "184202.485000", "184203.975000", "184205.465000", "184206.955000", "184208.445000", "184209.935000", "184211.425000", "184212.915000", "184214.405000", "184215.895000", "184217.385000", "184218.875000", "184220.365000", "184221.855000", "184223.345000", "184224.835000", "184226.325000", "184227.815000", "184229.305000", "184230.795000", "184232.285000", "184233.775000", "184235.265000", "184236.755000", "184238.245000", "184239.735000", "184241.225000", "184242.715000", "184244.205000", "184245.695000", "184247.185000", "184248.675000", "184250.165000", "184251.655000", "184253.145000", "184254.635000", "184256.125000", "184257.615000", "184259.105000", "184300.595000", "184302.085000", "184303.575000", "184305.065000", "184306.555000", "184308.045000", "184309.535000", "184311.025000", "184312.515000", "184314.005000", "184315.495000", "184316.985000", "184318.475000", "184319.965000", "184321.455000", "184322.945000", "184324.435000", "184325.925000", "184327.415000", "184328.905000", "184330.395000", "184331.885000", "184333.375000", "184334.865000", "184336.355000", "184337.845000", "184339.335000", "184340.825000", "184342.315000", "184343.805000", "184345.295000", "184346.785000"],
      "ContentTime": ["183712.220000", "183712.222000", "183712.229000", "183712.232000", "183712.234000", "183712.237000", "183712.240000", "183712.242000", "183712.245000", "183712.247000", "183712.249000", "183712.252000", "183712.255000", "183712.263000", "183712.265000", "183712.268000", "183732.217000", "183732.220000", "183732.223000", "183732.225000", "183732.228000", "183732.230000", "183732.233000", "183732.235000", "183732.238000", "183732.240000", "183732.242000", "183732.245000", "183732.247000", "183732.250000", "183732.252000", "183732.255000", "183732.257000", "183732.260000", "183732.262000", "183732.265000", "183732.267000", "183752.228000", "183752.230000", "183752.233000", "183752.235000", "183752.238000", "183752.240000", "183752.243000", "183752.245000", "183752.248000", "183752.250000", "183752.253000", "183752.255000", "183752.258000", "183752.260000", "183752.262000", "183752.265000", "183752.267000", "183752.270000", "183752.272000", "183752.275000", "183812.221000", "183812.224000", "183812.227000", "183812.229000", "183812.232000", "183812.234000", "183812.237000", "183812.239000", "183812.242000", "183812.244000", "183812.247000", "183812.249000", "183812.252000", "183812.254000", "183812.256000", "183812.259000", "183812.261000", "183812.264000", "183812.266000", "183812.269000", "183832.222000", "183832.225000", "183832.227000", "183832.230000", "183832.232000", "183832.235000", "183832.237000", "183832.240000", "183832.242000", "183832.245000", "183832.247000", "183832.250000", "183832.252000", "183832.255000", "183832.257000", "183832.260000", "183832.262000", "183832.265000", "183832.267000", "183832.270000", "183912.236000", "183912.238000", "183912.241000", "183912.243000", "183912.246000", "183912.248000", "183912.251000", "183912.253000", "183912.256000", "183912.258000", "183912.261000", "183912.263000", "183912.266000", "183912.268000", "183912.271000", "183912.273000", "183912.276000", "183912.278000", "183912.281000", "183912.283000", "183912.286000", "183912.288000", "183912.291000", "183912.293000", "183912.296000", "183912.298000", "183912.301000", "183952.248000", "183952.251000", "183952.254000", "183952.256000", "183952.259000", "183952.261000", "183952.264000", "183952.266000", "183952.269000", "183952.271000", "183952.274000", "183952.276000", "183952.278000", "183952.281000", "183952.283000", "183952.286000", "183952.288000", "183952.291000", "183952.293000", "183952.296000", "183952.298000", "183952.301000", "183952.303000", "183952.306000", "183952.308000", "183952.311000", "183952.313000", "184032.239000", "184032.242000", "184032.244000", "184032.247000", "184032.249000", "184032.252000", "184032.254000", "184032.257000", "184032.259000", "184032.262000", "184032.264000", "184032.267000", "184032.269000", "184032.272000", "184032.274000", "184032.277000", "184032.279000", "184032.282000", "184032.284000", "184032.287000", "184032.289000", "184032.292000", "184032.294000", "184032.297000", "184032.299000", "184032.302000", "184112.237000", "184112.240000", "184112.242000", "184112.245000", "184112.252000", "184112.255000", "184112.257000", "184112.260000", "184112.263000", "184112.265000", "184112.268000", "184112.270000", "184112.272000", "184112.275000", "184112.277000", "184112.280000", "184112.282000", "184112.285000", "184112.287000", "184112.290000", "184112.292000", "184112.295000", "184112.297000", "184112.300000", "184112.302000", "184112.305000", "184112.307000", "184152.239000", "184152.242000", "184152.244000", "184152.247000", "184152.249000", "184152.252000", "184152.254000", "184152.257000", "184152.259000", "184152.262000", "184152.264000", "184152.267000", "184152.269000", "184152.272000", "184152.274000", "184152.277000", "184152.279000", "184152.282000", "184152.284000", "184152.287000", "184152.289000", "184152.292000", "184152.295000", "184152.297000", "184152.300000", "184152.302000", "184152.305000", "184232.236000", "184232.239000", "184232.241000", "184232.243000", "184232.246000", "184232.248000", "184232.251000", "184232.253000", "184232.256000", "184232.258000", "184232.261000", "184232.263000", "184232.266000", "184232.268000", "184232.271000", "184232.273000", "184232.276000", "184232.278000", "184232.281000", "184232.283000", "184232.286000", "184232.288000", "184232.291000", "184232.293000", "184232.296000", "184232.298000", "184232.301000", "184312.244000", "184312.247000", "184312.250000", "184312.252000", "184312.255000", "184312.257000", "184312.260000", "184312.262000", "184312.265000", "184312.267000", "184312.270000", "184312.272000", "184312.275000", "184312.277000", "184312.280000", "184312.282000", "184312.285000", "184312.287000", "184312.290000", "184312.292000", "184312.295000", "184312.297000", "184312.300000", "184312.302000", "184312.305000", "184312.307000", "184312.309000", "184350.126000", "184350.129000", "184350.131000", "184350.134000", "184350.136000", "184350.139000", "184350.141000", "184350.144000", "184350.146000", "184350.149000", "184350.151000", "184350.154000", "184350.156000", "184350.159000", "184350.161000", "184350.164000", "184350.166000", "184350.169000", "184350.171000", "184350.174000", "184350.176000", "184350.179000", "184350.182000", "184350.185000", "184350.188000"],
      "InstanceCreationTime": ["183712.220000", "183712.222000", "183712.229000", "183712.232000", "183712.234000", "183712.237000", "183712.240000", "183712.242000", "183712.245000", "183712.247000", "183712.249000", "183712.252000", "183712.255000", "183712.263000", "183712.265000", "183712.268000", "183732.217000", "183732.220000", "183732.223000", "183732.225000", "183732.228000", "183732.230000", "183732.233000", "183732.235000", "183732.238000", "183732.240000", "183732.242000", "183732.245000", "183732.247000", "183732.250000", "183732.252000", "183732.255000", "183732.257000", "183732.260000", "183732.262000", "183732.265000", "183732.267000", "183752.228000", "183752.230000", "183752.233000", "183752.235000", "183752.238000", "183752.240000", "183752.243000", "183752.245000", "183752.248000", "183752.250000", "183752.253000", "183752.255000", "183752.258000", "183752.260000", "183752.262000", "183752.265000", "183752.267000", "183752.270000", "183752.272000", "183752.275000", "183812.221000", "183812.224000", "183812.227000", "183812.229000", "183812.232000", "183812.234000", "183812.237000", "183812.239000", "183812.242000", "183812.244000", "183812.247000", "183812.249000", "183812.252000", "183812.254000", "183812.256000", "183812.259000", "183812.261000", "183812.264000", "183812.266000", "183812.269000", "183832.222000", "183832.225000", "183832.227000", "183832.230000", "183832.232000", "183832.235000", "183832.237000", "183832.240000", "183832.242000", "183832.245000", "183832.247000", "183832.250000", "183832.252000", "183832.255000", "183832.257000", "183832.260000", "183832.262000", "183832.265000", "183832.267000", "183832.270000", "183912.236000", "183912.238000", "183912.241000", "183912.243000", "183912.246000", "183912.248000", "183912.251000", "183912.253000", "183912.256000", "183912.258000", "183912.261000", "183912.263000", "183912.266000", "183912.268000", "183912.271000", "183912.273000", "183912.276000", "183912.278000", "183912.281000", "183912.283000", "183912.286000", "183912.288000", "183912.291000", "183912.293000", "183912.296000", "183912.298000", "183912.301000", "183952.248000", "183952.251000", "183952.254000", "183952.256000", "183952.259000", "183952.261000", "183952.264000", "183952.266000", "183952.269000", "183952.271000", "183952.274000", "183952.276000", "183952.278000", "183952.281000", "183952.283000", "183952.286000", "183952.288000", "183952.291000", "183952.293000", "183952.296000", "183952.298000", "183952.301000", "183952.303000", "183952.306000", "183952.308000", "183952.311000", "183952.313000", "184032.239000", "184032.242000", "184032.244000", "184032.247000", "184032.249000", "184032.252000", "184032.254000", "184032.257000", "184032.259000", "184032.262000", "184032.264000", "184032.267000", "184032.269000", "184032.272000", "184032.274000", "184032.277000", "184032.279000", "184032.282000", "184032.284000", "184032.287000", "184032.289000", "184032.292000", "184032.294000", "184032.297000", "184032.299000", "184032.302000", "184112.237000", "184112.240000", "184112.242000", "184112.245000", "184112.252000", "184112.255000", "184112.257000", "184112.260000", "184112.263000", "184112.265000", "184112.268000", "184112.270000", "184112.272000", "184112.275000", "184112.277000", "184112.280000", "184112.282000", "184112.285000", "184112.287000", "184112.290000", "184112.292000", "184112.295000", "184112.297000", "184112.300000", "184112.302000", "184112.305000", "184112.307000", "184152.239000", "184152.242000", "184152.244000", "184152.247000", "184152.249000", "184152.252000", "184152.254000", "184152.257000", "184152.259000", "184152.262000", "184152.264000", "184152.267000", "184152.269000", "184152.272000", "184152.274000", "184152.277000", "184152.279000", "184152.282000", "184152.284000", "184152.287000", "184152.289000", "184152.292000", "184152.295000", "184152.297000", "184152.300000", "184152.302000", "184152.305000", "184232.236000", "184232.239000", "184232.241000", "184232.243000", "184232.246000", "184232.248000", "184232.251000", "184232.253000", "184232.256000", "184232.258000", "184232.261000", "184232.263000", "184232.266000", "184232.268000", "184232.271000", "184232.273000", "184232.276000", "184232.278000", "184232.281000", "184232.283000", "184232.286000", "184232.288000", "184232.291000", "184232.293000", "184232.296000", "184232.298000", "184232.301000", "184312.244000", "184312.247000", "184312.250000", "184312.252000", "184312.255000", "184312.257000", "184312.260000", "184312.262000", "184312.265000", "184312.267000", "184312.270000", "184312.272000", "184312.275000", "184312.277000", "184312.280000", "184312.282000", "184312.285000", "184312.287000", "184312.290000", "184312.292000", "184312.295000", "184312.297000", "184312.300000", "184312.302000", "184312.305000", "184312.307000", "184312.309000", "184350.126000", "184350.129000", "184350.131000", "184350.134000", "184350.136000", "184350.139000", "184350.141000", "184350.144000", "184350.146000", "184350.149000", "184350.151000", "184350.154000", "184350.156000", "184350.159000", "184350.161000", "184350.164000", "184350.166000", "184350.169000", "184350.171000", "184350.174000", "184350.176000", "184350.179000", "184350.182000", "184350.185000", "184350.188000"],
      "InstanceNumber": [1, 2, 3, 4, 5, 6, 7, 8, 9, 10, 11, 12, 13, 14, 15, 16, 17, 18, 19, 20, 21, 22, 23, 24, 25, 26, 27, 28, 29, 30, 31, 32, 33, 34, 35, 36, 37, 38, 39, 40, 41, 42, 43, 44, 45, 46, 47, 48, 49, 50, 51, 52, 53, 54, 55, 56, 57, 58, 59, 60, 61, 62, 63, 64, 65, 66, 67, 68, 69, 70, 71, 72, 73, 74, 75, 76, 77, 78, 79, 80, 81, 82, 83, 84, 85, 86, 87, 88, 89, 90, 91, 92, 93, 94, 95, 96, 97, 98, 99, 100, 101, 102, 103, 104, 105, 106, 107, 108, 109, 110, 111, 112, 113, 114, 115, 116, 117, 118, 119, 120, 121, 122, 123, 124, 125, 126, 127, 128, 129, 130, 131, 132, 133, 134, 135, 136, 137, 138, 139, 140, 141, 142, 143, 144, 145, 146, 147, 148, 149, 150, 151, 152, 153, 154, 155, 156, 157, 158, 159, 160, 161, 162, 163, 164, 165, 166, 167, 168, 169, 170, 171, 172, 173, 174, 175, 176, 177, 178, 179, 180, 181, 182, 183, 184, 185, 186, 187, 188, 189, 190, 191, 192, 193, 194, 195, 196, 197, 198, 199, 200, 201, 202, 203, 204, 205, 206, 207, 208, 209, 210, 211, 212, 213, 214, 215, 216, 217, 218, 219, 220, 221, 222, 223, 224, 225, 226, 227, 228, 229, 230, 231, 232, 233, 234, 235, 236, 237, 238, 239, 240, 241, 242, 243, 244, 245, 246, 247, 248, 249, 250, 251, 252, 253, 254, 255, 256, 257, 258, 259, 260, 261, 262, 263, 264, 265, 266, 267, 268, 269, 270, 271, 272, 273, 274, 275, 276, 277, 278, 279, 280, 281, 282, 283, 284, 285, 286, 287, 288, 289, 290, 291, 292, 293, 294, 295, 296, 297, 298, 299, 300, 301, 302, 303, 304, 305, 306, 307, 308, 309, 310],
      "WindowCenter": [4882.0, 4916.0, 4920.0, 4894.0, 4896.0, 4884.0, 4888.0, 4880.0, 4884.0, 4884.0, 4860.0, 4884.0, 4886.0, 4892.0, 4888.0, 4888.0, 4884.0, 4890.0, 4918.0, 4886.0, 4888.0, 4884.0, 4886.0, 4890.0, 4884.0, 4886.0, 4890.0, 4896.0, 4886.0, 4894.0, 4888.0, 4890.0, 4888.0, 4884.0, 4886.0, 4880.0, 4888.0, 4886.0, 4894.0, 4888.0, 4918.0, 4884.0, 4894.0, 4880.0, 4886.0, 4884.0, 4890.0, 4882.0, 4890.0, 4886.0, 4890.0, 4880.0, 4888.0, 4884.0, 4890.0, 4880.0, 4860.0, 4850.0, 4850.0, 4818.0, 4854.0, 4850.0, 4890.0, 4890.0, 4930.0, 4924.0, 4922.0, 4888.0, 4886.0, 4880.0, 4854.0, 4852.0, 4880.0, 4850.0, 4892.0, 4890.0, 4928.0, 4892.0, 4900.0, 4886.0, 4884.0, 4852.0, 4882.0, 4878.0, 4884.0, 4884.0, 4918.0, 4894.0, 4916.0, 4896.0, 4888.0, 4888.0, 4876.0, 4882.0, 4840.0, 4848.0, 4880.0, 4912.0, 4918.0, 4918.0, 4918.0, 4888.0, 4886.0, 4852.0, 4884.0, 4850.0, 4888.0, 4884.0, 4916.0, 4912.0, 4914.0, 4890.0, 4890.0, 4878.0, 4884.0, 4878.0, 4888.0, 4884.0, 4884.0, 4884.0, 4884.0, 4890.0, 4886.0, 4892.0, 4888.0, 4892.0, 4880.0, 4890.0, 4878.0, 4884.0, 4880.0, 4886.0, 4888.0, 4894.0, 4892.0, 4916.0, 4884.0, 4882.0, 4880.0, 4878.0, 4882.0, 4888.0, 4884.0, 4890.0, 4886.0, 4882.0, 4888.0, 4882.0, 4886.0, 4878.0, 4886.0, 4886.0, 4890.0, 4890.0, 4894.0, 4880.0, 4880.0, 4878.0, 4852.0, 4882.0, 4878.0, 4918.0, 4886.0, 4892.0, 4888.0, 4890.0, 4878.0, 4884.0, 4880.0, 4882.0, 4888.0, 4882.0, 4892.0, 4880.0, 4884.0, 4878.0, 4884.0, 4886.0, 4892.0, 4884.0, 4884.0, 4890.0, 4876.0, 4890.0, 4884.0, 4894.0, 4882.0, 4888.0, 4880.0, 4852.0, 4850.0, 4882.0, 4878.0, 4912.0, 4890.0, 4894.0, 4886.0, 4914.0, 4886.0, 4880.0, 4778.0, 4784.0, 4848.0, 4892.0, 4928.0, 4932.0, 4926.0, 4890.0, 4888.0, 4880.0, 4838.0, 4850.0, 4856.0, 4880.0, 4890.0, 4886.0, 4892.0, 4888.0, 4886.0, 4854.0, 4856.0, 4852.0, 4842.0, 4854.0, 4846.0, 4888.0, 4884.0, 4916.0, 4888.0, 4886.0, 4878.0, 4884.0, 4852.0, 4858.0, 4854.0, 4882.0, 4880.0, 4884.0, 4878.0, 4886.0, 4858.0, 4856.0, 4860.0, 4878.0, 4878.0, 4878.0, 4880.0, 4878.0, 4884.0, 4844.0, 4880.0, 4882.0, 4888.0, 4884.0, 4886.0, 4878.0, 4852.0, 4850.0, 4850.0, 4854.0, 4854.0, 4884.0, 4854.0, 4880.0, 4848.0, 4880.0, 4850.0, 4856.0, 4846.0, 4884.0, 4850.0, 4858.0, 4856.0, 4878.0, 4860.0, 4850.0, 4860.0, 4850.0, 4856.0, 4848.0, 4858.0, 4854.0, 4856.0, 4854.0, 4852.0, 4860.0, 4854.0, 4880.0, 4780.0, 4754.0, 4808.0, 4884.0, 4930.0, 4936.0, 4938.0, 4918.0, 4886.0, 4846.0, 4818.0, 4814.0, 4816.0, 4846.0, 4842.0, 4846.0, 4884.0, 4916.0, 4886.0, 4890.0, 4876.0, 4880.0],
      "WindowWidth": [18720.0, 18750.0, 18750.0, 18718.0, 18716.0, 18716.0, 18720.0, 18716.0, 18720.0, 18720.0, 18690.0, 18716.0, 18716.0, 18724.0, 18722.0, 18718.0, 18722.0, 18726.0, 18754.0, 18722.0, 18718.0, 18724.0, 18714.0, 18722.0, 18722.0, 18716.0, 18728.0, 18722.0, 18718.0, 18724.0, 18724.0, 18724.0, 18718.0, 18722.0, 18718.0, 18724.0, 18724.0, 18726.0, 18718.0, 18728.0, 18752.0, 18722.0, 18728.0, 18720.0, 18718.0, 18726.0, 18718.0, 18718.0, 18718.0, 18722.0, 18728.0, 18720.0, 18720.0, 18724.0, 18720.0, 18714.0, 18690.0, 18692.0, 18688.0, 18658.0, 18688.0, 18694.0, 18720.0, 18722.0, 18752.0, 18750.0, 18748.0, 18720.0, 18718.0, 18726.0, 18690.0, 18692.0, 18718.0, 18694.0, 18718.0, 18726.0, 18752.0, 18726.0, 18718.0, 18726.0, 18720.0, 18694.0, 18726.0, 18724.0, 18724.0, 18722.0, 18754.0, 18720.0, 18752.0, 18718.0, 18720.0, 18724.0, 18722.0, 18720.0, 18688.0, 18690.0, 18730.0, 18756.0, 18754.0, 18758.0, 18752.0, 18728.0, 18724.0, 18698.0, 18728.0, 18700.0, 18730.0, 18728.0, 18752.0, 18760.0, 18750.0, 18724.0, 18726.0, 18724.0, 18730.0, 18726.0, 18724.0, 18728.0, 18726.0, 18724.0, 18732.0, 18722.0, 18732.0, 18728.0, 18728.0, 18724.0, 18726.0, 18726.0, 18728.0, 18726.0, 18730.0, 18730.0, 18728.0, 18722.0, 18726.0, 18754.0, 18730.0, 18724.0, 18726.0, 18726.0, 18726.0, 18728.0, 18726.0, 18726.0, 18724.0, 18722.0, 18724.0, 18728.0, 18726.0, 18722.0, 18732.0, 18726.0, 18722.0, 18726.0, 18724.0, 18726.0, 18720.0, 18722.0, 18696.0, 18724.0, 18722.0, 18758.0, 18730.0, 18718.0, 18722.0, 18720.0, 18724.0, 18722.0, 18724.0, 18722.0, 18722.0, 18724.0, 18722.0, 18724.0, 18722.0, 18726.0, 18728.0, 18722.0, 18722.0, 18726.0, 18728.0, 18728.0, 18726.0, 18722.0, 18726.0, 18724.0, 18724.0, 18724.0, 18726.0, 18698.0, 18698.0, 18722.0, 18726.0, 18758.0, 18728.0, 18720.0, 18728.0, 18750.0, 18730.0, 18728.0, 18624.0, 18624.0, 18692.0, 18722.0, 18750.0, 18750.0, 18746.0, 18728.0, 18724.0, 18722.0, 18692.0, 18694.0, 18694.0, 18726.0, 18728.0, 18728.0, 18720.0, 18724.0, 18720.0, 18694.0, 18694.0, 18688.0, 18692.0, 18696.0, 18690.0, 18722.0, 18728.0, 18750.0, 18726.0, 18720.0, 18726.0, 18726.0, 18694.0, 18690.0, 18690.0, 18724.0, 18718.0, 18726.0, 18724.0, 18724.0, 18692.0, 18694.0, 18694.0, 18718.0, 18720.0, 18726.0, 18722.0, 18726.0, 18722.0, 18690.0, 18726.0, 18730.0, 18722.0, 18726.0, 18724.0, 18724.0, 18692.0, 18686.0, 18690.0, 18690.0, 18688.0, 18720.0, 18694.0, 18722.0, 18686.0, 18718.0, 18690.0, 18694.0, 18690.0, 18728.0, 18686.0, 18696.0, 18692.0, 18722.0, 18690.0, 18690.0, 18690.0, 18690.0, 18692.0, 18690.0, 18690.0, 18690.0, 18694.0, 18690.0, 18694.0, 18688.0, 18696.0, 18722.0, 18622.0, 18588.0, 18644.0, 18728.0, 18752.0, 18744.0, 18738.0, 18750.0, 18726.0, 18692.0, 18660.0, 18652.0, 18660.0, 18684.0, 18690.0, 18688.0, 18720.0, 18756.0, 18730.0, 18732.0, 18730.0, 18730.0]
