{
  "AcquisitionMatrixPE": 104,
  "AcquisitionNumber": 1,
  "AcquisitionTime": "18:58:9.022500",
  "BandwidthPerPixelPhaseEncode": 17.17,
  "BaseResolution": 104,
  "BodyPartExamined": "BRAIN",
  "CoilCombinationMethod": "Sum of Squares",
  "ConsistencyInfo": "N4_VE11C_LATEST_20160120",
  "ConversionSoftware": "dcm2niix",
  "ConversionSoftwareVersion": "v1.0.20220505",
  "DerivedVendorReportedEchoSpacing": 0.000560011,
  "DeviceSerialNumber": "167006",
  "DwellTime": 2.1e-06,
  "EchoTime": 0.037,
  "EchoTime1": 0.037,
  "EchoTime2": 0.001,
  "EchoTrainLength": 104,
  "EffectiveEchoSpacing": 0.000560011,
  "FlipAngle": 52,
  "HeudiconvVersion": "0.5.3.post811+g6206e14",
  "ImageComments": "Unaliased MB4/PE3/LB",
  "ImageOrientationPatientDICOM": [0.997299, -0.0733926, 0.00289589, 0.0704376, 0.944482, -0.320925],
  "ImageOrientationText": "Tra>Cor(-18.7)>Sag(-1.2)",
  "ImageType": [
    "ORIGINAL",
    "PRIMARY",
    "P",
    "MB",
    "ND",
    "MOSAIC",
    "PHASE"
],
  "ImagingFrequency": 123.26,
  "InPlanePhaseEncodingDirectionDICOM": "COL",
  "InstitutionAddress": "Chemin Queen-Mary 4565,Montreal,District,CA,H3W 1W5",
  "InstitutionName": "IUGM",
  "InstitutionalDepartmentName": "Department",
  "MRAcquisitionType": "2D",
  "MagneticFieldStrength": 3,
  "Manufacturer": "Siemens",
  "ManufacturersModelName": "Prisma_fit",
  "MatrixCoilMode": "SENSE",
  "Modality": "MR",
  "MultibandAccelerationFactor": 4,
  "PartialFourier": 1,
  "PatientPosition": "HFS",
  "PercentPhaseFOV": 100,
  "PercentSampling": 100,
  "PhaseEncodingDirection": "j",
  "PhaseEncodingSteps": 104,
  "PhaseResolution": 1,
  "PixelBandwidth": 2290,
  "ProcedureStepDescription": "games^mario3",
  "ProtocolName": "func_task-mario3_run-03",
  "PulseSequenceDetails": "%CustomerSeq%\\cmrr_mbep2d_bold",
  "ReceiveCoilActiveElements": "HC1-7;NC1,2",
  "ReceiveCoilName": "HeadNeck_64",
  "ReconMatrixPE": 104,
  "RepetitionTime": 1.49,
  "SAR": 0.0571011,
  "ScanOptions": "FS",
  "ScanningSequence": "EP",
  "SequenceName": "epfid2d1_104",
  "SequenceVariant": "SK\\SS",
  "SeriesDescription": "func_task-mario3_run-03",
  "SeriesNumber": 17,
  "ShimSetting": [591, -7251, -8832, 449, 14, -302, 16, 26],
  "SliceThickness": 2,
  "SliceTiming": [0, 0.7825, 0.0975, 0.8825, 0.195, 0.98, 0.2925, 1.0775, 0.3925, 1.175, 0.49, 1.2725, 0.5875, 1.3725, 0.685, 0, 0.7825, 0.0975, 0.8825, 0.195, 0.98, 0.2925, 1.0775, 0.3925, 1.175, 0.49, 1.2725, 0.5875, 1.3725, 0.685, 0, 0.7825, 0.0975, 0.8825, 0.195, 0.98, 0.2925, 1.0775, 0.3925, 1.175, 0.49, 1.2725, 0.5875, 1.3725, 0.685, 0, 0.7825, 0.0975, 0.8825, 0.195, 0.98, 0.2925, 1.0775, 0.3925, 1.175, 0.49, 1.2725, 0.5875, 1.3725, 0.685],
  "SoftwareVersions": "syngo MR E11",
  "SpacingBetweenSlices": 2,
  "StationName": "MRC35049",
  "TaskName": "mario3",
  "TotalReadoutTime": 0.0576811,
  "TxRefAmp": 262.255,
  "WipMemBlock": "fc8aab16-a70d-4116-916b-270cf6d007f4||Sequence: R017 ve11c/master r/75a17815+; Jun 28 2022 16:32:11 by eja",
  "dcmmeta_affine": [
    [-1.9945977926254272, 0.1408751755952835, -0.041636791080236435, 97.85974884033203],
    [0.1467851847410202, 1.8889634609222412, -0.64052414894104, -75.07450103759766],
    [0.005791783798485994, 0.6418498754501343, 1.8942004442214966, -58.9144287109375],
    [0.0, 0.0, 0.0, 1.0]
],
  "dcmmeta_reorient_transform": [
    [0.0, -1.0, 0.0, 103.0],
    [1.0, 0.0, 0.0, 0.0],
    [0.0, 0.0, 1.0, 0.0],
    [0.0, 0.0, 0.0, 1.0]
],
  "dcmmeta_shape": [104, 104, 60, 425],
  "dcmmeta_slice_dim": 2,
  "dcmmeta_version": 0.6,
  "global": {
    "const": {
      "AcquisitionMatrix": [104, 0, 0, 104],
      "AngioFlag": "N",
      "BitsAllocated": 16,
      "BitsStored": 16,
      "BodyPartExamined": "BRAIN",
      "Columns": 832,
      "EchoNumbers": 1,
      "EchoTime": 37.0,
      "EchoTrainLength": 104,
      "FlipAngle": 52.0,
      "HighBit": 15,
      "ImageOrientationPatient": [0.99729892247465, -0.0733925952721, 0.00289589193987, 0.07043758666624, 0.94448173039922, -0.3209249247515],
      "ImagePositionPatient": [-889.68206866934, -753.64162246191, 238.72124332719],
      "ImageType": [
        "ORIGINAL",
        "PRIMARY",
        "P",
        "MB",
        "ND",
        "MOSAIC"
],
      "ImagedNucleus": "1H",
      "ImagingFrequency": 123.260184,
      "InPlanePhaseEncodingDirection": "COL",
      "LargestImagePixelValue": 4095,
      "MRAcquisitionType": "2D",
      "MagneticFieldStrength": 3.0,
      "Manufacturer": "SIEMENS",
      "ManufacturerModelName": "Prisma_fit",
      "Modality": "MR",
      "NumberOfAverages": 1.0,
      "NumberOfPhaseEncodingSteps": 104,
      "PercentPhaseFieldOfView": 100.0,
      "PercentSampling": 100.0,
      "PerformedProcedureStepStartTime": "182825.093000",
      "PhotometricInterpretation": "MONOCHROME2",
      "PixelBandwidth": 2290.0,
      "PixelRepresentation": 0,
      "PixelSpacing": [2.0, 2.0],
      "ProtocolName": "func_task-mario3_run-03",
      "RepetitionTime": 1490.0,
      "RescaleIntercept": -4096.0,
      "RescaleSlope": 2.0,
      "RescaleType": "US",
      "Rows": 832,
      "SAR": 0.05710107825088,
      "SamplesPerPixel": 1,
      "ScanOptions": "FS",
      "ScanningSequence": "EP",
      "SequenceName": "epfid2d1_104",
      "SequenceVariant": [
        "SK",
        "SS"
],
      "SeriesDescription": "func_task-mario3_run-03",
      "SeriesNumber": 17,
      "SeriesTime": "185919.608000",
      "SliceLocation": -33.791633655088,
      "SliceThickness": 2.0,
      "SmallestImagePixelValue": 0,
      "SoftwareVersions": "syngo MR E11",
      "SpacingBetweenSlices": 2.0000000233132,
      "SpecificCharacterSet": "ISO_IR 100",
      "StudyID": "1",
      "StudyTime": "182824.988000",
      "TransmitCoilName": "Body",
      "VariableFlipAngleFlag": "N",
      "WindowCenterWidthExplanation": "Algo1",
      "dBdt": 0.0},
    "slices": {}
  },
  "time": {
    "samples": {
      "AcquisitionNumber": [1, 2, 3, 4, 5, 6, 7, 8, 9, 10, 11, 12, 13, 14, 15, 16, 17, 18, 19, 20, 21, 22, 23, 24, 25, 26, 27, 28, 29, 30, 31, 32, 33, 34, 35, 36, 37, 38, 39, 40, 41, 42, 43, 44, 45, 46, 47, 48, 49, 50, 51, 52, 53, 54, 55, 56, 57, 58, 59, 60, 61, 62, 63, 64, 65, 66, 67, 68, 69, 70, 71, 72, 73, 74, 75, 76, 77, 78, 79, 80, 81, 82, 83, 84, 85, 86, 87, 88, 89, 90, 91, 92, 93, 94, 95, 96, 97, 98, 99, 100, 101, 102, 103, 104, 105, 106, 107, 108, 109, 110, 111, 112, 113, 114, 115, 116, 117, 118, 119, 120, 121, 122, 123, 124, 125, 126, 127, 128, 129, 130, 131, 132, 133, 134, 135, 136, 137, 138, 139, 140, 141, 142, 143, 144, 145, 146, 147, 148, 149, 150, 151, 152, 153, 154, 155, 156, 157, 158, 159, 160, 161, 162, 163, 164, 165, 166, 167, 168, 169, 170, 171, 172, 173, 174, 175, 176, 177, 178, 179, 180, 181, 182, 183, 184, 185, 186, 187, 188, 189, 190, 191, 192, 193, 194, 195, 196, 197, 198, 199, 200, 201, 202, 203, 204, 205, 206, 207, 208, 209, 210, 211, 212, 213, 214, 215, 216, 217, 218, 219, 220, 221, 222, 223, 224, 225, 226, 227, 228, 229, 230, 231, 232, 233, 234, 235, 236, 237, 238, 239, 240, 241, 242, 243, 244, 245, 246, 247, 248, 249, 250, 251, 252, 253, 254, 255, 256, 257, 258, 259, 260, 261, 262, 263, 264, 265, 266, 267, 268, 269, 270, 271, 272, 273, 274, 275, 276, 277, 278, 279, 280, 281, 282, 283, 284, 285, 286, 287, 288, 289, 290, 291, 292, 293, 294, 295, 296, 297, 298, 299, 300, 301, 302, 303, 304, 305, 306, 307, 308, 309, 310, 311, 312, 313, 314, 315, 316, 317, 318, 319, 320, 321, 322, 323, 324, 325, 326, 327, 328, 329, 330, 331, 332, 333, 334, 335, 336, 337, 338, 339, 340, 341, 342, 343, 344, 345, 346, 347, 348, 349, 350, 351, 352, 353, 354, 355, 356, 357, 358, 359, 360, 361, 362, 363, 364, 365, 366, 367, 368, 369, 370, 371, 372, 373, 374, 375, 376, 377, 378, 379, 380, 381, 382, 383, 384, 385, 386, 387, 388, 389, 390, 391, 392, 393, 394, 395, 396, 397, 398, 399, 400, 401, 402, 403, 404, 405, 406, 407, 408, 409, 410, 411, 412, 413, 414, 415, 416, 417, 418, 419, 420, 421, 422, 423, 424, 425],
      "AcquisitionTime": ["185809.022500", "185810.512500", "185812.002500", "185813.492500", "185814.982500", "185816.472500", "185817.962500", "185819.452500", "185820.942500", "185822.432500", "185823.922500", "185825.412500", "185826.902500", "185828.392500", "185829.882500", "185831.372500", "185832.862500", "185834.352500", "185835.842500", "185837.332500", "185838.822500", "185840.312500", "185841.802500", "185843.292500", "185844.782500", "185846.272500", "185847.762500", "185849.252500", "185850.742500", "185852.232500", "185853.722500", "185855.212500", "185856.702500", "185858.192500", "185859.682500", "185901.172500", "185902.662500", "185904.152500", "185905.642500", "185907.132500", "185908.622500", "185910.112500", "185911.602500", "185913.092500", "185914.582500", "185916.072500", "185917.562500", "185919.052500", "185920.542500", "185922.032500", "185923.522500", "185925.012500", "185926.502500", "185927.992500", "185929.482500", "185930.972500", "185932.462500", "185933.952500", "185935.442500", "185936.932500", "185938.422500", "185939.912500", "185941.402500", "185942.892500", "185944.382500", "185945.872500", "185947.362500", "185948.852500", "185950.342500", "185951.832500", "185953.322500", "185954.812500", "185956.302500", "185957.792500", "185959.282500", "190000.772500", "190002.262500", "190003.752500", "190005.242500", "190006.732500", "190008.222500", "190009.712500", "190011.202500", "190012.692500", "190014.182500", "190015.672500", "190017.162500", "190018.652500", "190020.142500", "190021.632500", "190023.122500", "190024.612500", "190026.102500", "190027.592500", "190029.082500", "190030.572500", "190032.062500", "190033.552500", "190035.042500", "190036.532500", "190038.022500", "190039.512500", "190041.002500", "190042.492500", "190043.982500", "190045.472500", "190046.962500", "190048.452500", "190049.942500", "190051.432500", "190052.922500", "190054.412500", "190055.902500", "190057.392500", "190058.882500", "190100.372500", "190101.862500", "190103.352500", "190104.842500", "190106.332500", "190107.822500", "190109.312500", "190110.802500", "190112.292500", "190113.782500", "190115.272500", "190116.762500", "190118.252500", "190119.742500", "190121.232500", "190122.722500", "190124.212500", "190125.702500", "190127.192500", "190128.682500", "190130.172500", "190131.662500", "190133.152500", "190134.642500", "190136.132500", "190137.622500", "190139.112500", "190140.602500", "190142.092500", "190143.582500", "190145.072500", "190146.562500", "190148.052500", "190149.542500", "190151.032500", "190152.522500", "190154.012500", "190155.502500", "190156.992500", "190158.482500", "190159.972500", "190201.462500", "190202.952500", "190204.442500", "190205.932500", "190207.422500", "190208.912500", "190210.402500", "190211.892500", "190213.382500", "190214.872500", "190216.362500", "190217.852500", "190219.342500", "190220.832500", "190222.322500", "190223.812500", "190225.302500", "190226.792500", "190228.282500", "190229.772500", "190231.262500", "190232.752500", "190234.242500", "190235.732500", "190237.222500", "190238.712500", "190240.202500", "190241.692500", "190243.182500", "190244.672500", "190246.162500", "190247.652500", "190249.142500", "190250.632500", "190252.122500", "190253.612500", "190255.102500", "190256.592500", "190258.082500", "190259.572500", "190301.062500", "190302.552500", "190304.042500", "190305.532500", "190307.022500", "190308.512500", "190310.002500", "190311.492500", "190312.982500", "190314.472500", "190315.962500", "190317.452500", "190318.942500", "190320.432500", "190321.922500", "190323.412500", "190324.902500", "190326.392500", "190327.882500", "190329.372500", "190330.862500", "190332.352500", "190333.842500", "190335.332500", "190336.822500", "190338.312500", "190339.802500", "190341.292500", "190342.782500", "190344.272500", "190345.762500", "190347.252500", "190348.742500", "190350.232500", "190351.722500", "190353.212500", "190354.702500", "190356.192500", "190357.682500", "190359.172500", "190400.662500", "190402.152500", "190403.642500", "190405.132500", "190406.622500", "190408.112500", "190409.602500", "190411.092500", "190412.582500", "190414.072500", "190415.562500", "190417.052500", "190418.542500", "190420.032500", "190421.522500", "190423.012500", "190424.502500", "190425.992500", "190427.482500", "190428.972500", "190430.462500", "190431.952500", "190433.442500", "190434.932500", "190436.422500", "190437.912500", "190439.402500", "190440.892500", "190442.382500", "190443.872500", "190445.362500", "190446.852500", "190448.342500", "190449.832500", "190451.322500", "190452.812500", "190454.302500", "190455.792500", "190457.282500", "190458.772500", "190500.262500", "190501.752500", "190503.242500", "190504.732500", "190506.222500", "190507.712500", "190509.202500", "190510.692500", "190512.182500", "190513.672500", "190515.162500", "190516.652500", "190518.142500", "190519.632500", "190521.122500", "190522.612500", "190524.102500", "190525.592500", "190527.082500", "190528.572500", "190530.062500", "190531.552500", "190533.042500", "190534.532500", "190536.022500", "190537.512500", "190539.002500", "190540.492500", "190541.982500", "190543.472500", "190544.962500", "190546.452500", "190547.942500", "190549.432500", "190550.922500", "190552.412500", "190553.902500", "190555.392500", "190556.882500", "190558.372500", "190559.862500", "190601.352500", "190602.842500", "190604.332500", "190605.822500", "190607.312500", "190608.802500", "190610.292500", "190611.782500", "190613.272500", "190614.762500", "190616.252500", "190617.742500", "190619.232500", "190620.722500", "190622.212500", "190623.702500", "190625.192500", "190626.682500", "190628.172500", "190629.662500", "190631.152500", "190632.642500", "190634.132500", "190635.622500", "190637.112500", "190638.602500", "190640.092500", "190641.582500", "190643.072500", "190644.562500", "190646.052500", "190647.542500", "190649.032500", "190650.522500", "190652.012500", "190653.502500", "190654.992500", "190656.482500", "190657.972500", "190659.462500", "190700.952500", "190702.442500", "190703.932500", "190705.422500", "190706.912500", "190708.402500", "190709.892500", "190711.382500", "190712.872500", "190714.362500", "190715.852500", "190717.342500", "190718.832500", "190720.322500", "190721.812500", "190723.302500", "190724.792500", "190726.282500", "190727.772500", "190729.262500", "190730.752500", "190732.242500", "190733.732500", "190735.222500", "190736.712500", "190738.202500", "190739.692500", "190741.182500", "190742.672500", "190744.162500", "190745.652500", "190747.142500", "190748.632500", "190750.122500", "190751.612500", "190753.102500", "190754.592500", "190756.082500", "190757.572500", "190759.062500", "190800.552500", "190802.042500", "190803.532500", "190805.022500", "190806.512500", "190808.002500", "190809.492500", "190810.982500", "190812.472500", "190813.962500", "190815.452500", "190816.942500", "190818.432500", "190819.922500", "190821.412500", "190822.902500", "190824.392500", "190825.882500", "190827.372500", "190828.862500", "190830.352500", "190831.842500", "190833.332500", "190834.822500", "190836.312500", "190837.802500", "190839.292500", "190840.782500"],
      "ContentTime": ["185919.610000", "185919.613000", "185919.615000", "185919.618000", "185919.625000", "185919.627000", "185919.630000", "185919.632000", "185919.635000", "185919.637000", "185919.640000", "185919.642000", "185919.645000", "185919.647000", "185919.650000", "185919.652000", "185919.655000", "185919.657000", "185919.660000", "185919.662000", "185939.579000", "185939.582000", "185939.585000", "185939.587000", "185939.590000", "185939.592000", "185939.595000", "185939.597000", "185939.600000", "185939.602000", "185939.604000", "185939.607000", "185939.609000", "185939.612000", "185939.614000", "185939.617000", "185939.619000", "185939.621000", "185939.624000", "185939.626000", "185959.584000", "185959.586000", "185959.589000", "185959.591000", "185959.594000", "185959.596000", "185959.599000", "185959.601000", "185959.604000", "185959.606000", "185959.608000", "185959.611000", "185959.613000", "185959.616000", "185959.618000", "185959.621000", "185959.623000", "185959.626000", "185959.628000", "185959.631000", "190019.583000", "190019.586000", "190019.588000", "190019.590000", "190019.593000", "190019.595000", "190019.598000", "190019.600000", "190019.603000", "190019.605000", "190019.608000", "190019.610000", "190019.613000", "190019.615000", "190019.618000", "190019.620000", "190019.623000", "190019.625000", "190019.628000", "190019.630000", "190019.633000", "190059.632000", "190059.635000", "190059.638000", "190059.640000", "190059.643000", "190059.645000", "190059.648000", "190059.650000", "190059.653000", "190059.655000", "190059.658000", "190059.660000", "190059.663000", "190059.665000", "190059.667000", "190059.670000", "190059.672000", "190059.675000", "190059.677000", "190059.680000", "190059.682000", "190059.685000", "190059.687000", "190059.690000", "190059.692000", "190059.695000", "190059.697000", "190059.700000", "190059.702000", "190059.705000", "190059.715000", "190059.717000", "190059.720000", "190139.622000", "190139.625000", "190139.628000", "190139.630000", "190139.633000", "190139.635000", "190139.638000", "190139.640000", "190139.643000", "190139.645000", "190139.648000", "190139.650000", "190139.653000", "190139.655000", "190139.658000", "190139.660000", "190139.663000", "190139.665000", "190139.668000", "190139.670000", "190139.673000", "190139.675000", "190139.678000", "190139.680000", "190139.683000", "190139.685000", "190139.688000", "190159.985000", "190159.988000", "190159.991000", "190159.993000", "190159.996000", "190159.998000", "190200.003000", "190200.006000", "190200.008000", "190200.011000", "190200.013000", "190200.016000", "190200.018000", "190239.615000", "190239.618000", "190239.621000", "190239.623000", "190239.626000", "190239.628000", "190239.631000", "190239.633000", "190239.635000", "190239.638000", "190239.640000", "190239.643000", "190239.645000", "190239.648000", "190239.650000", "190239.653000", "190239.655000", "190239.658000", "190239.660000", "190239.663000", "190239.665000", "190239.668000", "190239.670000", "190239.673000", "190239.675000", "190239.678000", "190239.680000", "190319.607000", "190319.610000", "190319.612000", "190319.615000", "190319.618000", "190319.620000", "190319.622000", "190319.625000", "190319.627000", "190319.630000", "190319.632000", "190319.635000", "190319.637000", "190319.640000", "190319.642000", "190319.645000", "190319.647000", "190319.650000", "190319.652000", "190319.655000", "190319.658000", "190319.660000", "190319.663000", "190319.665000", "190319.668000", "190319.670000", "190319.672000", "190359.609000", "190359.612000", "190359.614000", "190359.617000", "190359.619000", "190359.622000", "190359.624000", "190359.627000", "190359.629000", "190359.632000", "190359.634000", "190359.637000", "190359.639000", "190359.642000", "190359.644000", "190359.647000", "190359.649000", "190359.652000", "190359.654000", "190359.657000", "190359.659000", "190359.662000", "190359.664000", "190359.667000", "190359.669000", "190359.672000", "190359.674000", "190439.617000", "190439.619000", "190439.622000", "190439.625000", "190439.627000", "190439.630000", "190439.632000", "190439.635000", "190439.637000", "190439.640000", "190439.642000", "190439.645000", "190439.659000", "190439.662000", "190439.664000", "190439.667000", "190439.669000", "190439.672000", "190439.674000", "190439.677000", "190439.679000", "190439.682000", "190439.684000", "190439.687000", "190439.689000", "190439.692000", "190519.614000", "190519.617000", "190519.619000", "190519.622000", "190519.624000", "190519.627000", "190519.629000", "190519.632000", "190519.634000", "190519.637000", "190519.639000", "190519.642000", "190519.644000", "190519.647000", "190519.649000", "190519.652000", "190519.654000", "190519.657000", "190519.660000", "190519.663000", "190519.665000", "190519.668000", "190519.670000", "190519.673000", "190519.675000", "190519.678000", "190519.680000", "190559.605000", "190559.608000", "190559.611000", "190559.613000", "190559.616000", "190559.618000", "190559.621000", "190559.623000", "190559.625000", "190559.628000", "190559.630000", "190559.633000", "190559.635000", "190559.638000", "190559.640000", "190559.643000", "190559.645000", "190559.648000", "190559.650000", "190559.653000", "190559.655000", "190559.658000", "190559.660000", "190559.663000", "190559.665000", "190559.668000", "190559.670000", "190639.613000", "190639.616000", "190639.618000", "190639.621000", "190639.623000", "190639.626000", "190639.629000", "190639.631000", "190639.634000", "190639.636000", "190639.639000", "190639.641000", "190639.644000", "190639.646000", "190639.649000", "190639.651000", "190639.653000", "190639.656000", "190639.658000", "190639.661000", "190639.663000", "190639.666000", "190639.668000", "190639.671000", "190639.673000", "190639.676000", "190639.678000", "190719.644000", "190719.646000", "190719.649000", "190719.651000", "190719.654000", "190719.656000", "190719.659000", "190719.661000", "190719.664000", "190719.666000", "190719.670000", "190719.673000", "190719.676000", "190719.678000", "190719.681000", "190719.683000", "190719.685000", "190719.688000", "190719.690000", "190719.693000", "190719.695000", "190719.698000", "190719.700000", "190719.703000", "190719.705000", "190719.708000", "190719.710000", "190759.607000", "190759.610000", "190759.613000", "190759.615000", "190759.618000", "190759.620000", "190759.623000", "190759.625000", "190759.627000", "190759.630000", "190759.633000", "190759.635000", "190759.637000", "190759.640000", "190759.642000", "190759.645000", "190759.647000", "190759.650000", "190759.652000", "190759.655000", "190759.657000", "190759.660000", "190759.662000", "190759.665000", "190759.667000", "190759.670000", "190759.672000", "190839.610000", "190839.613000", "190839.615000", "190839.618000", "190839.620000", "190839.623000", "190839.625000", "190839.628000", "190839.630000", "190839.633000", "190839.635000", "190839.638000", "190839.640000", "190839.643000", "190839.645000", "190839.648000", "190839.650000", "190839.653000", "190839.655000", "190839.658000", "190839.660000", "190839.663000", "190839.665000", "190839.668000", "190839.670000", "190839.673000", "190843.180000", "190843.183000", "190843.186000"],
      "InstanceCreationTime": ["185919.610000", "185919.613000", "185919.615000", "185919.618000", "185919.625000", "185919.627000", "185919.630000", "185919.632000", "185919.635000", "185919.637000", "185919.640000", "185919.642000", "185919.645000", "185919.647000", "185919.650000", "185919.652000", "185919.655000", "185919.657000", "185919.660000", "185919.662000", "185939.579000", "185939.582000", "185939.585000", "185939.587000", "185939.590000", "185939.592000", "185939.595000", "185939.597000", "185939.600000", "185939.602000", "185939.604000", "185939.607000", "185939.609000", "185939.612000", "185939.614000", "185939.617000", "185939.619000", "185939.621000", "185939.624000", "185939.626000", "185959.584000", "185959.586000", "185959.589000", "185959.591000", "185959.594000", "185959.596000", "185959.599000", "185959.601000", "185959.604000", "185959.606000", "185959.608000", "185959.611000", "185959.613000", "185959.616000", "185959.618000", "185959.621000", "185959.623000", "185959.626000", "185959.628000", "185959.631000", "190019.583000", "190019.586000", "190019.588000", "190019.590000", "190019.593000", "190019.595000", "190019.598000", "190019.600000", "190019.603000", "190019.605000", "190019.608000", "190019.610000", "190019.613000", "190019.615000", "190019.618000", "190019.620000", "190019.623000", "190019.625000", "190019.628000", "190019.630000", "190019.633000", "190059.632000", "190059.635000", "190059.638000", "190059.640000", "190059.643000", "190059.645000", "190059.648000", "190059.650000", "190059.653000", "190059.655000", "190059.658000", "190059.660000", "190059.663000", "190059.665000", "190059.667000", "190059.670000", "190059.672000", "190059.675000", "190059.677000", "190059.680000", "190059.682000", "190059.685000", "190059.687000", "190059.690000", "190059.692000", "190059.695000", "190059.697000", "190059.700000", "190059.702000", "190059.705000", "190059.715000", "190059.717000", "190059.720000", "190139.622000", "190139.625000", "190139.628000", "190139.630000", "190139.633000", "190139.635000", "190139.638000", "190139.640000", "190139.643000", "190139.645000", "190139.648000", "190139.650000", "190139.653000", "190139.655000", "190139.658000", "190139.660000", "190139.663000", "190139.665000", "190139.668000", "190139.670000", "190139.673000", "190139.675000", "190139.678000", "190139.680000", "190139.683000", "190139.685000", "190139.688000", "190159.985000", "190159.988000", "190159.991000", "190159.993000", "190159.996000", "190159.998000", "190200.003000", "190200.006000", "190200.008000", "190200.011000", "190200.013000", "190200.016000", "190200.018000", "190239.615000", "190239.618000", "190239.621000", "190239.623000", "190239.626000", "190239.628000", "190239.631000", "190239.633000", "190239.635000", "190239.638000", "190239.640000", "190239.643000", "190239.645000", "190239.648000", "190239.650000", "190239.653000", "190239.655000", "190239.658000", "190239.660000", "190239.663000", "190239.665000", "190239.668000", "190239.670000", "190239.673000", "190239.675000", "190239.678000", "190239.680000", "190319.607000", "190319.610000", "190319.612000", "190319.615000", "190319.618000", "190319.620000", "190319.622000", "190319.625000", "190319.627000", "190319.630000", "190319.632000", "190319.635000", "190319.637000", "190319.640000", "190319.642000", "190319.645000", "190319.647000", "190319.650000", "190319.652000", "190319.655000", "190319.658000", "190319.660000", "190319.663000", "190319.665000", "190319.668000", "190319.670000", "190319.672000", "190359.609000", "190359.612000", "190359.614000", "190359.617000", "190359.619000", "190359.622000", "190359.624000", "190359.627000", "190359.629000", "190359.632000", "190359.634000", "190359.637000", "190359.639000", "190359.642000", "190359.644000", "190359.647000", "190359.649000", "190359.652000", "190359.654000", "190359.657000", "190359.659000", "190359.662000", "190359.664000", "190359.667000", "190359.669000", "190359.672000", "190359.674000", "190439.617000", "190439.619000", "190439.622000", "190439.625000", "190439.627000", "190439.630000", "190439.632000", "190439.635000", "190439.637000", "190439.640000", "190439.642000", "190439.645000", "190439.659000", "190439.662000", "190439.664000", "190439.667000", "190439.669000", "190439.672000", "190439.674000", "190439.677000", "190439.679000", "190439.682000", "190439.684000", "190439.687000", "190439.689000", "190439.692000", "190519.614000", "190519.617000", "190519.619000", "190519.622000", "190519.624000", "190519.627000", "190519.629000", "190519.632000", "190519.634000", "190519.637000", "190519.639000", "190519.642000", "190519.644000", "190519.647000", "190519.649000", "190519.652000", "190519.654000", "190519.657000", "190519.660000", "190519.663000", "190519.665000", "190519.668000", "190519.670000", "190519.673000", "190519.675000", "190519.678000", "190519.680000", "190559.605000", "190559.608000", "190559.611000", "190559.613000", "190559.616000", "190559.618000", "190559.621000", "190559.623000", "190559.625000", "190559.628000", "190559.630000", "190559.633000", "190559.635000", "190559.638000", "190559.640000", "190559.643000", "190559.645000", "190559.648000", "190559.650000", "190559.653000", "190559.655000", "190559.658000", "190559.660000", "190559.663000", "190559.665000", "190559.668000", "190559.670000", "190639.613000", "190639.616000", "190639.618000", "190639.621000", "190639.623000", "190639.626000", "190639.629000", "190639.631000", "190639.634000", "190639.636000", "190639.639000", "190639.641000", "190639.644000", "190639.646000", "190639.649000", "190639.651000", "190639.653000", "190639.656000", "190639.658000", "190639.661000", "190639.663000", "190639.666000", "190639.668000", "190639.671000", "190639.673000", "190639.676000", "190639.678000", "190719.644000", "190719.646000", "190719.649000", "190719.651000", "190719.654000", "190719.656000", "190719.659000", "190719.661000", "190719.664000", "190719.666000", "190719.670000", "190719.673000", "190719.676000", "190719.678000", "190719.681000", "190719.683000", "190719.685000", "190719.688000", "190719.690000", "190719.693000", "190719.695000", "190719.698000", "190719.700000", "190719.703000", "190719.705000", "190719.708000", "190719.710000", "190759.607000", "190759.610000", "190759.613000", "190759.615000", "190759.618000", "190759.620000", "190759.623000", "190759.625000", "190759.627000", "190759.630000", "190759.633000", "190759.635000", "190759.637000", "190759.640000", "190759.642000", "190759.645000", "190759.647000", "190759.650000", "190759.652000", "190759.655000", "190759.657000", "190759.660000", "190759.662000", "190759.665000", "190759.667000", "190759.670000", "190759.672000", "190839.610000", "190839.613000", "190839.615000", "190839.618000", "190839.620000", "190839.623000", "190839.625000", "190839.628000", "190839.630000", "190839.633000", "190839.635000", "190839.638000", "190839.640000", "190839.643000", "190839.645000", "190839.648000", "190839.650000", "190839.653000", "190839.655000", "190839.658000", "190839.660000", "190839.663000", "190839.665000", "190839.668000", "190839.670000", "190839.673000", "190843.180000", "190843.183000", "190843.186000"],
