{
  "AcquisitionMatrixPE": 104,
  "AcquisitionNumber": 1,
  "AcquisitionTime": "19:49:41.642500",
  "BandwidthPerPixelPhaseEncode": 17.17,
  "BaseResolution": 104,
  "BodyPartExamined": "BRAIN",
  "CoilCombinationMethod": "Sum of Squares",
  "ConsistencyInfo": "N4_VE11C_LATEST_20160120",
  "ConversionSoftware": "dcm2niix",
  "ConversionSoftwareVersion": "v1.0.20220505",
  "DerivedVendorReportedEchoSpacing": 0.000560011,
  "DeviceSerialNumber": "167006",
  "DwellTime": 2.1e-06,
  "EchoTime": 0.037,
  "EchoTime1": 0.037,
  "EchoTime2": 0.001,
  "EchoTrainLength": 104,
  "EffectiveEchoSpacing": 0.000560011,
  "FlipAngle": 52,
  "HeudiconvVersion": "0.5.3.post811+g6206e14",
  "ImageComments": "Unaliased MB4/PE3/LB",
  "ImageOrientationPatientDICOM": [0.997299, -0.0733926, 0.00289589, 0.0704376, 0.944482, -0.320925],
  "ImageOrientationText": "Tra>Cor(-18.7)>Sag(-1.2)",
  "ImageType": [
    "ORIGINAL",
    "PRIMARY",
    "P",
    "MB",
    "ND",
    "MOSAIC",
    "PHASE"
],
  "ImagingFrequency": 123.26,
  "InPlanePhaseEncodingDirectionDICOM": "COL",
  "InstitutionAddress": "Chemin Queen-Mary 4565,Montreal,District,CA,H3W 1W5",
  "InstitutionName": "IUGM",
  "InstitutionalDepartmentName": "Department",
  "MRAcquisitionType": "2D",
  "MagneticFieldStrength": 3,
  "Manufacturer": "Siemens",
  "ManufacturersModelName": "Prisma_fit",
  "MatrixCoilMode": "SENSE",
  "Modality": "MR",
  "MultibandAccelerationFactor": 4,
  "PartialFourier": 1,
  "PatientPosition": "HFS",
  "PercentPhaseFOV": 100,
  "PercentSampling": 100,
  "PhaseEncodingDirection": "j",
  "PhaseEncodingSteps": 104,
  "PhaseResolution": 1,
  "PixelBandwidth": 2290,
  "ProcedureStepDescription": "games^mario3",
  "ProtocolName": "func_task-mario3_run-07",
  "PulseSequenceDetails": "%CustomerSeq%\\cmrr_mbep2d_bold",
  "ReceiveCoilActiveElements": "HC1-7;NC1,2",
  "ReceiveCoilName": "HeadNeck_64",
  "ReconMatrixPE": 104,
  "RepetitionTime": 1.49,
  "SAR": 0.0571011,
  "ScanOptions": "FS",
  "ScanningSequence": "EP",
  "SequenceName": "epfid2d1_104",
  "SequenceVariant": "SK\\SS",
  "SeriesDescription": "func_task-mario3_run-07",
  "SeriesNumber": 29,
  "ShimSetting": [591, -7251, -8832, 449, 14, -302, 16, 26],
  "SliceThickness": 2,
  "SliceTiming": [0, 0.7825, 0.0975, 0.8825, 0.195, 0.98, 0.2925, 1.0775, 0.3925, 1.175, 0.49, 1.2725, 0.5875, 1.3725, 0.685, 0, 0.7825, 0.0975, 0.8825, 0.195, 0.98, 0.2925, 1.0775, 0.3925, 1.175, 0.49, 1.2725, 0.5875, 1.3725, 0.685, 0, 0.7825, 0.0975, 0.8825, 0.195, 0.98, 0.2925, 1.0775, 0.3925, 1.175, 0.49, 1.2725, 0.5875, 1.3725, 0.685, 0, 0.7825, 0.0975, 0.8825, 0.195, 0.98, 0.2925, 1.0775, 0.3925, 1.175, 0.49, 1.2725, 0.5875, 1.3725, 0.685],
  "SoftwareVersions": "syngo MR E11",
  "SpacingBetweenSlices": 2,
  "StationName": "MRC35049",
  "TaskName": "mario3",
  "TotalReadoutTime": 0.0576811,
  "TxRefAmp": 262.255,
  "WipMemBlock": "dd373d17-a300-4f02-81e9-cf5730e4664a||Sequence: R017 ve11c/master r/75a17815+; Jun 28 2022 16:32:11 by eja",
  "dcmmeta_affine": [
    [-1.9945977926254272, 0.1408751755952835, -0.041636791080236435, 97.85974884033203],
    [0.1467851847410202, 1.8889634609222412, -0.64052414894104, -75.07450103759766],
    [0.005791783798485994, 0.6418498754501343, 1.8942004442214966, -58.9144287109375],
    [0.0, 0.0, 0.0, 1.0]
],
  "dcmmeta_reorient_transform": [
    [0.0, -1.0, 0.0, 103.0],
    [1.0, 0.0, 0.0, 0.0],
    [0.0, 0.0, 1.0, 0.0],
    [0.0, 0.0, 0.0, 1.0]
],
  "dcmmeta_shape": [104, 104, 60, 404],
  "dcmmeta_slice_dim": 2,
  "dcmmeta_version": 0.6,
  "global": {
    "const": {
      "AcquisitionMatrix": [104, 0, 0, 104],
      "AngioFlag": "N",
      "BitsAllocated": 16,
      "BitsStored": 16,
      "BodyPartExamined": "BRAIN",
      "Columns": 832,
      "EchoNumbers": 1,
      "EchoTime": 37.0,
      "EchoTrainLength": 104,
      "FlipAngle": 52.0,
      "HighBit": 15,
      "ImageOrientationPatient": [0.99729892247465, -0.0733925952721, 0.00289589193987, 0.07043758666624, 0.94448173039922, -0.3209249247515],
      "ImagePositionPatient": [-889.68206866934, -753.64162246191, 238.72124332719],
      "ImageType": [
        "ORIGINAL",
        "PRIMARY",
        "P",
        "MB",
        "ND",
        "MOSAIC"
],
      "ImagedNucleus": "1H",
      "ImagingFrequency": 123.260191,
      "InPlanePhaseEncodingDirection": "COL",
      "LargestImagePixelValue": 4095,
      "MRAcquisitionType": "2D",
      "MagneticFieldStrength": 3.0,
      "Manufacturer": "SIEMENS",
      "ManufacturerModelName": "Prisma_fit",
      "Modality": "MR",
      "NumberOfAverages": 1.0,
      "NumberOfPhaseEncodingSteps": 104,
      "PercentPhaseFieldOfView": 100.0,
      "PercentSampling": 100.0,
      "PerformedProcedureStepStartTime": "182825.093000",
      "PhotometricInterpretation": "MONOCHROME2",
      "PixelBandwidth": 2290.0,
      "PixelRepresentation": 0,
      "PixelSpacing": [2.0, 2.0],
      "ProtocolName": "func_task-mario3_run-07",
      "RepetitionTime": 1490.0,
      "RescaleIntercept": -4096.0,
      "RescaleSlope": 2.0,
      "RescaleType": "US",
      "Rows": 832,
      "SAR": 0.05710107825088,
      "SamplesPerPixel": 1,
      "ScanOptions": "FS",
      "ScanningSequence": "EP",
      "SequenceName": "epfid2d1_104",
      "SequenceVariant": [
        "SK",
        "SS"
],
      "SeriesDescription": "func_task-mario3_run-07",
      "SeriesNumber": 29,
      "SeriesTime": "195052.254000",
      "SliceLocation": -33.791633655088,
      "SliceThickness": 2.0,
      "SmallestImagePixelValue": 0,
      "SoftwareVersions": "syngo MR E11",
      "SpacingBetweenSlices": 2.0000000233132,
      "SpecificCharacterSet": "ISO_IR 100",
      "StudyID": "1",
      "StudyTime": "182824.988000",
      "TransmitCoilName": "Body",
      "VariableFlipAngleFlag": "N",
      "WindowCenterWidthExplanation": "Algo1",
      "dBdt": 0.0},
    "slices": {}
  },
  "time": {
    "samples": {
      "AcquisitionNumber": [1, 2, 3, 4, 5, 6, 7, 8, 9, 10, 11, 12, 13, 14, 15, 16, 17, 18, 19, 20, 21, 22, 23, 24, 25, 26, 27, 28, 29, 30, 31, 32, 33, 34, 35, 36, 37, 38, 39, 40, 41, 42, 43, 44, 45, 46, 47, 48, 49, 50, 51, 52, 53, 54, 55, 56, 57, 58, 59, 60, 61, 62, 63, 64, 65, 66, 67, 68, 69, 70, 71, 72, 73, 74, 75, 76, 77, 78, 79, 80, 81, 82, 83, 84, 85, 86, 87, 88, 89, 90, 91, 92, 93, 94, 95, 96, 97, 98, 99, 100, 101, 102, 103, 104, 105, 106, 107, 108, 109, 110, 111, 112, 113, 114, 115, 116, 117, 118, 119, 120, 121, 122, 123, 124, 125, 126, 127, 128, 129, 130, 131, 132, 133, 134, 135, 136, 137, 138, 139, 140, 141, 142, 143, 144, 145, 146, 147, 148, 149, 150, 151, 152, 153, 154, 155, 156, 157, 158, 159, 160, 161, 162, 163, 164, 165, 166, 167, 168, 169, 170, 171, 172, 173, 174, 175, 176, 177, 178, 179, 180, 181, 182, 183, 184, 185, 186, 187, 188, 189, 190, 191, 192, 193, 194, 195, 196, 197, 198, 199, 200, 201, 202, 203, 204, 205, 206, 207, 208, 209, 210, 211, 212, 213, 214, 215, 216, 217, 218, 219, 220, 221, 222, 223, 224, 225, 226, 227, 228, 229, 230, 231, 232, 233, 234, 235, 236, 237, 238, 239, 240, 241, 242, 243, 244, 245, 246, 247, 248, 249, 250, 251, 252, 253, 254, 255, 256, 257, 258, 259, 260, 261, 262, 263, 264, 265, 266, 267, 268, 269, 270, 271, 272, 273, 274, 275, 276, 277, 278, 279, 280, 281, 282, 283, 284, 285, 286, 287, 288, 289, 290, 291, 292, 293, 294, 295, 296, 297, 298, 299, 300, 301, 302, 303, 304, 305, 306, 307, 308, 309, 310, 311, 312, 313, 314, 315, 316, 317, 318, 319, 320, 321, 322, 323, 324, 325, 326, 327, 328, 329, 330, 331, 332, 333, 334, 335, 336, 337, 338, 339, 340, 341, 342, 343, 344, 345, 346, 347, 348, 349, 350, 351, 352, 353, 354, 355, 356, 357, 358, 359, 360, 361, 362, 363, 364, 365, 366, 367, 368, 369, 370, 371, 372, 373, 374, 375, 376, 377, 378, 379, 380, 381, 382, 383, 384, 385, 386, 387, 388, 389, 390, 391, 392, 393, 394, 395, 396, 397, 398, 399, 400, 401, 402, 403, 404],
      "AcquisitionTime": ["194941.642500", "194943.132500", "194944.622500", "194946.112500", "194947.602500", "194949.092500", "194950.582500", "194952.072500", "194953.562500", "194955.052500", "194956.542500", "194958.032500", "194959.522500", "195001.012500", "195002.502500", "195003.992500", "195005.482500", "195006.972500", "195008.462500", "195009.952500", "195011.442500", "195012.932500", "195014.422500", "195015.912500", "195017.402500", "195018.892500", "195020.382500", "195021.872500", "195023.362500", "195024.852500", "195026.342500", "195027.832500", "195029.322500", "195030.812500", "195032.302500", "195033.792500", "195035.282500", "195036.772500", "195038.262500", "195039.752500", "195041.242500", "195042.732500", "195044.222500", "195045.712500", "195047.202500", "195048.692500", "195050.182500", "195051.672500", "195053.162500", "195054.652500", "195056.142500", "195057.632500", "195059.122500", "195100.612500", "195102.102500", "195103.592500", "195105.082500", "195106.572500", "195108.062500", "195109.552500", "195111.042500", "195112.532500", "195114.022500", "195115.512500", "195117.002500", "195118.492500", "195119.982500", "195121.472500", "195122.962500", "195124.452500", "195125.942500", "195127.432500", "195128.922500", "195130.412500", "195131.902500", "195133.392500", "195134.882500", "195136.372500", "195137.862500", "195139.352500", "195140.842500", "195142.332500", "195143.822500", "195145.312500", "195146.802500", "195148.292500", "195149.782500", "195151.272500", "195152.762500", "195154.252500", "195155.742500", "195157.232500", "195158.722500", "195200.212500", "195201.702500", "195203.192500", "195204.682500", "195206.172500", "195207.662500", "195209.152500", "195210.642500", "195212.132500", "195213.622500", "195215.112500", "195216.602500", "195218.092500", "195219.582500", "195221.072500", "195222.562500", "195224.052500", "195225.542500", "195227.032500", "195228.522500", "195230.012500", "195231.502500", "195232.992500", "195234.482500", "195235.972500", "195237.462500", "195238.952500", "195240.442500", "195241.932500", "195243.422500", "195244.912500", "195246.402500", "195247.892500", "195249.382500", "195250.872500", "195252.362500", "195253.852500", "195255.342500", "195256.832500", "195258.322500", "195259.812500", "195301.302500", "195302.792500", "195304.282500", "195305.772500", "195307.262500", "195308.752500", "195310.242500", "195311.732500", "195313.222500", "195314.712500", "195316.202500", "195317.692500", "195319.182500", "195320.672500", "195322.162500", "195323.652500", "195325.142500", "195326.632500", "195328.122500", "195329.612500", "195331.102500", "195332.592500", "195334.082500", "195335.572500", "195337.062500", "195338.552500", "195340.042500", "195341.532500", "195343.022500", "195344.512500", "195346.002500", "195347.492500", "195348.982500", "195350.472500", "195351.962500", "195353.452500", "195354.942500", "195356.432500", "195357.922500", "195359.412500", "195400.902500", "195402.392500", "195403.882500", "195405.372500", "195406.862500", "195408.352500", "195409.842500", "195411.332500", "195412.822500", "195414.312500", "195415.802500", "195417.292500", "195418.782500", "195420.272500", "195421.762500", "195423.252500", "195424.742500", "195426.232500", "195427.722500", "195429.212500", "195430.702500", "195432.192500", "195433.682500", "195435.172500", "195436.662500", "195438.152500", "195439.642500", "195441.132500", "195442.622500", "195444.112500", "195445.602500", "195447.092500", "195448.582500", "195450.072500", "195451.562500", "195453.052500", "195454.542500", "195456.032500", "195457.522500", "195459.012500", "195500.502500", "195501.992500", "195503.482500", "195504.972500", "195506.462500", "195507.952500", "195509.442500", "195510.932500", "195512.422500", "195513.912500", "195515.402500", "195516.892500", "195518.382500", "195519.872500", "195521.362500", "195522.852500", "195524.342500", "195525.832500", "195527.322500", "195528.812500", "195530.302500", "195531.792500", "195533.282500", "195534.772500", "195536.262500", "195537.752500", "195539.242500", "195540.732500", "195542.222500", "195543.712500", "195545.202500", "195546.692500", "195548.182500", "195549.672500", "195551.162500", "195552.652500", "195554.142500", "195555.632500", "195557.122500", "195558.612500", "195600.102500", "195601.592500", "195603.082500", "195604.572500", "195606.062500", "195607.552500", "195609.042500", "195610.532500", "195612.022500", "195613.512500", "195615.002500", "195616.492500", "195617.982500", "195619.472500", "195620.962500", "195622.452500", "195623.942500", "195625.432500", "195626.922500", "195628.412500", "195629.902500", "195631.392500", "195632.882500", "195634.372500", "195635.862500", "195637.352500", "195638.842500", "195640.332500", "195641.822500", "195643.312500", "195644.802500", "195646.292500", "195647.782500", "195649.272500", "195650.762500", "195652.252500", "195653.742500", "195655.232500", "195656.722500", "195658.212500", "195659.702500", "195701.192500", "195702.682500", "195704.172500", "195705.662500", "195707.152500", "195708.642500", "195710.132500", "195711.622500", "195713.112500", "195714.602500", "195716.092500", "195717.582500", "195719.072500", "195720.562500", "195722.052500", "195723.542500", "195725.032500", "195726.522500", "195728.012500", "195729.502500", "195730.992500", "195732.482500", "195733.972500", "195735.462500", "195736.952500", "195738.442500", "195739.932500", "195741.422500", "195742.912500", "195744.402500", "195745.892500", "195747.382500", "195748.872500", "195750.362500", "195751.852500", "195753.342500", "195754.832500", "195756.322500", "195757.812500", "195759.302500", "195800.792500", "195802.282500", "195803.772500", "195805.262500", "195806.752500", "195808.242500", "195809.732500", "195811.222500", "195812.712500", "195814.202500", "195815.692500", "195817.182500", "195818.672500", "195820.162500", "195821.652500", "195823.142500", "195824.632500", "195826.122500", "195827.612500", "195829.102500", "195830.592500", "195832.082500", "195833.572500", "195835.062500", "195836.552500", "195838.042500", "195839.532500", "195841.022500", "195842.512500", "195844.002500", "195845.492500", "195846.982500", "195848.472500", "195849.962500", "195851.452500", "195852.942500", "195854.432500", "195855.922500", "195857.412500", "195858.902500", "195900.392500", "195901.882500", "195903.372500", "195904.862500", "195906.352500", "195907.842500", "195909.332500", "195910.822500", "195912.312500", "195913.802500", "195915.292500", "195916.782500", "195918.272500", "195919.762500", "195921.252500", "195922.742500", "195924.232500", "195925.722500", "195927.212500", "195928.702500", "195930.192500", "195931.682500", "195933.172500", "195934.662500", "195936.152500", "195937.642500", "195939.132500", "195940.622500", "195942.112500"],
      "ContentTime": ["195052.256000", "195052.259000", "195052.261000", "195052.264000", "195052.266000", "195052.269000", "195052.271000", "195052.274000", "195052.276000", "195052.279000", "195052.281000", "195052.284000", "195052.286000", "195052.289000", "195052.291000", "195052.294000", "195052.296000", "195052.299000", "195052.301000", "195052.303000", "195052.306000", "195112.213000", "195112.216000", "195112.219000", "195112.221000", "195112.224000", "195112.226000", "195112.229000", "195112.231000", "195112.233000", "195112.236000", "195112.238000", "195112.241000", "195112.243000", "195112.246000", "195112.248000", "195112.251000", "195112.253000", "195112.256000", "195112.258000", "195112.261000", "195132.207000", "195132.209000", "195132.212000", "195132.214000", "195132.217000", "195132.219000", "195132.222000", "195132.224000", "195132.227000", "195132.229000", "195132.232000", "195132.234000", "195132.237000", "195132.239000", "195132.242000", "195132.244000", "195132.247000", "195132.249000", "195132.252000", "195132.254000", "195132.256000", "195152.200000", "195152.203000", "195152.205000", "195152.208000", "195152.210000", "195152.213000", "195152.215000", "195152.218000", "195152.220000", "195152.223000", "195152.225000", "195152.228000", "195152.230000", "195152.233000", "195152.235000", "195152.238000", "195152.240000", "195152.242000", "195152.245000", "195152.247000", "195232.261000", "195232.264000", "195232.266000", "195232.269000", "195232.271000", "195232.274000", "195232.276000", "195232.279000", "195232.281000", "195232.285000", "195232.287000", "195232.290000", "195232.292000", "195232.295000", "195232.297000", "195232.300000", "195232.302000", "195232.305000", "195232.307000", "195232.310000", "195232.312000", "195232.315000", "195232.317000", "195232.319000", "195232.322000", "195232.325000", "195232.327000", "195232.330000", "195232.332000", "195232.334000", "195232.337000", "195232.339000", "195312.234000", "195312.237000", "195312.239000", "195312.242000", "195312.244000", "195312.247000", "195312.249000", "195312.252000", "195312.254000", "195312.257000", "195312.259000", "195312.262000", "195312.264000", "195312.267000", "195312.269000", "195312.272000", "195312.274000", "195312.276000", "195312.279000", "195312.282000", "195312.284000", "195312.286000", "195312.289000", "195312.291000", "195312.294000", "195312.297000", "195312.299000", "195352.241000", "195352.244000", "195352.247000", "195352.249000", "195352.252000", "195352.254000", "195352.257000", "195352.259000", "195352.262000", "195352.266000", "195352.268000", "195352.271000", "195352.274000", "195352.277000", "195352.280000", "195352.283000", "195352.285000", "195352.289000", "195352.292000", "195352.296000", "195352.301000", "195352.304000", "195352.306000", "195352.309000", "195352.311000", "195352.344000", "195432.249000", "195432.252000", "195432.254000", "195432.257000", "195432.259000", "195432.262000", "195432.264000", "195432.267000", "195432.269000", "195432.272000", "195432.274000", "195432.277000", "195432.279000", "195432.282000", "195432.284000", "195432.287000", "195432.289000", "195432.292000", "195432.294000", "195432.297000", "195432.299000", "195432.302000", "195432.304000", "195432.307000", "195432.309000", "195432.312000", "195432.314000", "195512.235000", "195512.237000", "195512.240000", "195512.242000", "195512.245000", "195512.247000", "195512.250000", "195512.252000", "195512.255000", "195512.257000", "195512.260000", "195512.262000", "195512.265000", "195512.267000", "195512.270000", "195512.272000", "195512.275000", "195512.277000", "195512.280000", "195512.282000", "195512.285000", "195512.287000", "195512.290000", "195512.292000", "195512.295000", "195512.297000", "195512.300000", "195552.248000", "195552.251000", "195552.253000", "195552.256000", "195552.258000", "195552.261000", "195552.263000", "195552.266000", "195552.268000", "195552.271000", "195552.273000", "195552.276000", "195552.278000", "195552.281000", "195552.283000", "195552.286000", "195552.288000", "195552.291000", "195552.293000", "195552.296000", "195552.298000", "195552.301000", "195552.303000", "195552.306000", "195552.313000", "195552.316000", "195552.318000", "195632.239000", "195632.242000", "195632.244000", "195632.247000", "195632.249000", "195632.252000", "195632.254000", "195632.257000", "195632.259000", "195632.262000", "195632.264000", "195632.267000", "195632.269000", "195632.272000", "195632.274000", "195632.277000", "195632.279000", "195632.282000", "195632.284000", "195632.287000", "195632.289000", "195632.292000", "195632.294000", "195632.297000", "195632.299000", "195632.302000", "195632.304000", "195712.237000", "195712.239000", "195712.242000", "195712.244000", "195712.247000", "195712.249000", "195712.252000", "195712.254000", "195712.257000", "195712.259000", "195712.262000", "195712.264000", "195712.267000", "195712.269000", "195712.272000", "195712.274000", "195712.277000", "195712.279000", "195712.282000", "195712.284000", "195712.287000", "195712.289000", "195712.292000", "195712.294000", "195712.297000", "195712.299000", "195712.302000", "195752.660000", "195752.663000", "195752.666000", "195752.668000", "195752.671000", "195752.673000", "195752.676000", "195752.678000", "195752.681000", "195752.683000", "195752.686000", "195752.688000", "195752.691000", "195752.693000", "195752.696000", "195752.698000", "195752.701000", "195752.703000", "195752.706000", "195752.708000", "195752.711000", "195752.713000", "195752.716000", "195752.718000", "195752.721000", "195752.723000", "195832.241000", "195832.243000", "195832.246000", "195832.248000", "195832.251000", "195832.253000", "195832.256000", "195832.258000", "195832.261000", "195832.263000", "195832.266000", "195832.268000", "195832.271000", "195832.273000", "195832.276000", "195832.279000", "195832.282000", "195832.284000", "195832.287000", "195832.289000", "195832.292000", "195832.294000", "195832.297000", "195832.299000", "195832.302000", "195832.304000", "195832.307000", "195912.249000", "195912.252000", "195912.254000", "195912.257000", "195912.259000", "195912.262000", "195912.264000", "195912.267000", "195912.269000", "195912.272000", "195912.274000", "195912.277000", "195912.279000", "195912.282000", "195912.284000", "195912.287000", "195912.289000", "195912.292000", "195912.294000", "195912.297000", "195912.299000", "195912.302000", "195912.304000", "195912.307000", "195912.309000", "195912.312000", "195912.314000", "195944.778000", "195944.781000", "195944.784000", "195944.786000", "195944.789000", "195944.791000", "195944.794000", "195944.796000", "195944.799000", "195944.801000", "195944.804000", "195944.806000", "195944.809000", "195944.811000", "195944.814000", "195944.816000", "195944.819000", "195944.821000", "195944.824000", "195944.826000", "195944.829000", "195944.831000"],
      "InstanceCreationTime": ["195052.256000", "195052.259000", "195052.261000", "195052.264000", "195052.266000", "195052.269000", "195052.271000", "195052.274000", "195052.276000", "195052.279000", "195052.281000", "195052.284000", "195052.286000", "195052.289000", "195052.291000", "195052.294000", "195052.296000", "195052.299000", "195052.301000", "195052.303000", "195052.306000", "195112.213000", "195112.216000", "195112.219000", "195112.221000", "195112.224000", "195112.226000", "195112.229000", "195112.231000", "195112.233000", "195112.236000", "195112.238000", "195112.241000", "195112.243000", "195112.246000", "195112.248000", "195112.251000", "195112.253000", "195112.256000", "195112.258000", "195112.261000", "195132.207000", "195132.209000", "195132.212000", "195132.214000", "195132.217000", "195132.219000", "195132.222000", "195132.224000", "195132.227000", "195132.229000", "195132.232000", "195132.234000", "195132.237000", "195132.239000", "195132.242000", "195132.244000", "195132.247000", "195132.249000", "195132.252000", "195132.254000", "195132.256000", "195152.200000", "195152.203000", "195152.205000", "195152.208000", "195152.210000", "195152.213000", "195152.215000", "195152.218000", "195152.220000", "195152.223000", "195152.225000", "195152.228000", "195152.230000", "195152.233000", "195152.235000", "195152.238000", "195152.240000", "195152.242000", "195152.245000", "195152.247000", "195232.261000", "195232.264000", "195232.266000", "195232.269000", "195232.271000", "195232.274000", "195232.276000", "195232.279000", "195232.281000", "195232.285000", "195232.287000", "195232.290000", "195232.292000", "195232.295000", "195232.297000", "195232.300000", "195232.302000", "195232.305000", "195232.307000", "195232.310000", "195232.312000", "195232.315000", "195232.317000", "195232.319000", "195232.322000", "195232.325000", "195232.327000", "195232.330000", "195232.332000", "195232.334000", "195232.337000", "195232.339000", "195312.234000", "195312.237000", "195312.239000", "195312.242000", "195312.244000", "195312.247000", "195312.249000", "195312.252000", "195312.254000", "195312.257000", "195312.259000", "195312.262000", "195312.264000", "195312.267000", "195312.269000", "195312.272000", "195312.274000", "195312.276000", "195312.279000", "195312.282000", "195312.284000", "195312.286000", "195312.289000", "195312.291000", "195312.294000", "195312.297000", "195312.299000", "195352.241000", "195352.244000", "195352.247000", "195352.249000", "195352.252000", "195352.254000", "195352.257000", "195352.259000", "195352.262000", "195352.266000", "195352.268000", "195352.271000", "195352.274000", "195352.277000", "195352.280000", "195352.283000", "195352.285000", "195352.289000", "195352.292000", "195352.296000", "195352.301000", "195352.304000", "195352.306000", "195352.309000", "195352.311000", "195352.344000", "195432.249000", "195432.252000", "195432.254000", "195432.257000", "195432.259000", "195432.262000", "195432.264000", "195432.267000", "195432.269000", "195432.272000", "195432.274000", "195432.277000", "195432.279000", "195432.282000", "195432.284000", "195432.287000", "195432.289000", "195432.292000", "195432.294000", "195432.297000", "195432.299000", "195432.302000", "195432.304000", "195432.307000", "195432.309000", "195432.312000", "195432.314000", "195512.235000", "195512.237000", "195512.240000", "195512.242000", "195512.245000", "195512.247000", "195512.250000", "195512.252000", "195512.255000", "195512.257000", "195512.260000", "195512.262000", "195512.265000", "195512.267000", "195512.270000", "195512.272000", "195512.275000", "195512.277000", "195512.280000", "195512.282000", "195512.285000", "195512.287000", "195512.290000", "195512.292000", "195512.295000", "195512.297000", "195512.300000", "195552.248000", "195552.251000", "195552.253000", "195552.256000", "195552.258000", "195552.261000", "195552.263000", "195552.266000", "195552.268000", "195552.271000", "195552.273000", "195552.276000", "195552.278000", "195552.281000", "195552.283000", "195552.286000", "195552.288000", "195552.291000", "195552.293000", "195552.296000", "195552.298000", "195552.301000", "195552.303000", "195552.306000", "195552.313000", "195552.316000", "195552.318000", "195632.239000", "195632.242000", "195632.244000", "195632.247000", "195632.249000", "195632.252000", "195632.254000", "195632.257000", "195632.259000", "195632.262000", "195632.264000", "195632.267000", "195632.269000", "195632.272000", "195632.274000", "195632.277000", "195632.279000", "195632.282000", "195632.284000", "195632.287000", "195632.289000", "195632.292000", "195632.294000", "195632.297000", "195632.299000", "195632.302000", "195632.304000", "195712.237000", "195712.239000", "195712.242000", "195712.244000", "195712.247000", "195712.249000", "195712.252000", "195712.254000", "195712.257000", "195712.259000", "195712.262000", "195712.264000", "195712.267000", "195712.269000", "195712.272000", "195712.274000", "195712.277000", "195712.279000", "195712.282000", "195712.284000", "195712.287000", "195712.289000", "195712.292000", "195712.294000", "195712.297000", "195712.299000", "195712.302000", "195752.660000", "195752.663000", "195752.666000", "195752.668000", "195752.671000", "195752.673000", "195752.676000", "195752.678000", "195752.681000", "195752.683000", "195752.686000", "195752.688000", "195752.691000", "195752.693000", "195752.696000", "195752.698000", "195752.701000", "195752.703000", "195752.706000", "195752.708000", "195752.711000", "195752.713000", "195752.716000", "195752.718000", "195752.721000", "195752.723000", "195832.241000", "195832.243000", "195832.246000", "195832.248000", "195832.251000", "195832.253000", "195832.256000", "195832.258000", "195832.261000", "195832.263000", "195832.266000", "195832.268000", "195832.271000", "195832.273000", "195832.276000", "195832.279000", "195832.282000", "195832.284000", "195832.287000", "195832.289000", "195832.292000", "195832.294000", "195832.297000", "195832.299000", "195832.302000", "195832.304000", "195832.307000", "195912.249000", "195912.252000", "195912.254000", "195912.257000", "195912.259000", "195912.262000", "195912.264000", "195912.267000", "195912.269000", "195912.272000", "195912.274000", "195912.277000", "195912.279000", "195912.282000", "195912.284000", "195912.287000", "195912.289000", "195912.292000", "195912.294000", "195912.297000", "195912.299000", "195912.302000", "195912.304000", "195912.307000", "195912.309000", "195912.312000", "195912.314000", "195944.778000", "195944.781000", "195944.784000", "195944.786000", "195944.789000", "195944.791000", "195944.794000", "195944.796000", "195944.799000", "195944.801000", "195944.804000", "195944.806000", "195944.809000", "195944.811000", "195944.814000", "195944.816000", "195944.819000", "195944.821000", "195944.824000", "195944.826000", "195944.829000", "195944.831000"],
