{
  "AcquisitionMatrixPE": 104,
  "AcquisitionNumber": 1,
  "AcquisitionTime": "18:49:12.422500",
  "BandwidthPerPixelPhaseEncode": 17.17,
  "BaseResolution": 104,
  "BodyPartExamined": "BRAIN",
  "CoilCombinationMethod": "Sum of Squares",
  "ConsistencyInfo": "N4_VE11C_LATEST_20160120",
  "ConversionSoftware": "dcm2niix",
  "ConversionSoftwareVersion": "v1.0.20220505",
  "DerivedVendorReportedEchoSpacing": 0.000560011,
  "DeviceSerialNumber": "167006",
  "DwellTime": 2.1e-06,
  "EchoTime": 0.037,
  "EchoTrainLength": 104,
  "EffectiveEchoSpacing": 0.000560011,
  "FlipAngle": 52,
  "HeudiconvVersion": "0.5.3.post811+g6206e14",
  "ImageComments": "Unaliased MB4/PE3/LB",
  "ImageOrientationPatientDICOM": [0.997299, -0.0733926, 0.00289589, 0.0704376, 0.944482, -0.320925],
  "ImageOrientationText": "Tra>Cor(-18.7)>Sag(-1.2)",
  "ImageType": [
    "ORIGINAL",
    "PRIMARY",
    "M",
    "MB",
    "ND",
    "MOSAIC"
],
  "ImagingFrequency": 123.26,
  "InPlanePhaseEncodingDirectionDICOM": "COL",
  "InstitutionAddress": "Chemin Queen-Mary 4565,Montreal,District,CA,H3W 1W5",
  "InstitutionName": "IUGM",
  "InstitutionalDepartmentName": "Department",
  "MRAcquisitionType": "2D",
  "MagneticFieldStrength": 3,
  "Manufacturer": "Siemens",
  "ManufacturersModelName": "Prisma_fit",
  "MatrixCoilMode": "SENSE",
  "Modality": "MR",
  "MultibandAccelerationFactor": 4,
  "PartialFourier": 1,
  "PatientPosition": "HFS",
  "PercentPhaseFOV": 100,
  "PercentSampling": 100,
  "PhaseEncodingDirection": "j",
  "PhaseEncodingSteps": 104,
  "PhaseResolution": 1,
  "PixelBandwidth": 2290,
  "ProcedureStepDescription": "games^mario3",
  "ProtocolName": "func_task-mario3_run-02",
  "PulseSequenceDetails": "%CustomerSeq%\\cmrr_mbep2d_bold",
  "ReceiveCoilActiveElements": "HC1-7;NC1,2",
  "ReceiveCoilName": "HeadNeck_64",
  "ReconMatrixPE": 104,
  "RepetitionTime": 1.49,
  "SAR": 0.0571011,
  "ScanOptions": "FS",
  "ScanningSequence": "EP",
  "SequenceName": "epfid2d1_104",
  "SequenceVariant": "SK\\SS",
  "SeriesDescription": "func_task-mario3_run-02",
  "SeriesNumber": 13,
  "ShimSetting": [591, -7251, -8832, 449, 14, -302, 16, 26],
  "SliceThickness": 2,
  "SliceTiming": [0, 0.7825, 0.0975, 0.88, 0.195, 0.98, 0.2925, 1.0775, 0.39, 1.175, 0.49, 1.2725, 0.5875, 1.37, 0.685, 0, 0.7825, 0.0975, 0.88, 0.195, 0.98, 0.2925, 1.0775, 0.39, 1.175, 0.49, 1.2725, 0.5875, 1.37, 0.685, 0, 0.7825, 0.0975, 0.88, 0.195, 0.98, 0.2925, 1.0775, 0.39, 1.175, 0.49, 1.2725, 0.5875, 1.37, 0.685, 0, 0.7825, 0.0975, 0.88, 0.195, 0.98, 0.2925, 1.0775, 0.39, 1.175, 0.49, 1.2725, 0.5875, 1.37, 0.685],
  "SoftwareVersions": "syngo MR E11",
  "SpacingBetweenSlices": 2,
  "StationName": "MRC35049",
  "TaskName": "mario3",
  "TotalReadoutTime": 0.0576811,
  "TxRefAmp": 262.255,
  "WipMemBlock": "56043bbf-9262-4dcb-b863-f901fab4c948||Sequence: R017 ve11c/master r/75a17815+; Jun 28 2022 16:32:11 by eja",
  "dcmmeta_affine": [
    [-1.9945977926254272, 0.1408751755952835, -0.041636791080236435, 97.85974884033203],
    [0.1467851847410202, 1.8889634609222412, -0.64052414894104, -75.07450103759766],
    [0.005791783798485994, 0.6418498754501343, 1.8942004442214966, -58.9144287109375],
    [0.0, 0.0, 0.0, 1.0]
],
  "dcmmeta_reorient_transform": [
    [0.0, -1.0, 0.0, 103.0],
    [1.0, 0.0, 0.0, 0.0],
    [0.0, 0.0, 1.0, 0.0],
    [0.0, 0.0, 0.0, 1.0]
],
  "dcmmeta_shape": [104, 104, 60, 322],
  "dcmmeta_slice_dim": 2,
  "dcmmeta_version": 0.6,
  "global": {
    "const": {
      "AcquisitionMatrix": [104, 0, 0, 104],
      "AngioFlag": "N",
      "BitsAllocated": 16,
      "BitsStored": 16,
      "BodyPartExamined": "BRAIN",
      "Columns": 832,
      "EchoNumbers": 1,
      "EchoTime": 37.0,
      "EchoTrainLength": 104,
      "FlipAngle": 52.0,
      "HighBit": 15,
      "ImageOrientationPatient": [0.99729892247465, -0.0733925952721, 0.00289589193987, 0.07043758666624, 0.94448173039922, -0.3209249247515],
      "ImagePositionPatient": [-889.68206866934, -753.64162246191, 238.72124332719],
      "ImageType": [
        "ORIGINAL",
        "PRIMARY",
        "M",
        "MB",
        "ND",
        "MOSAIC"
],
      "ImagedNucleus": "1H",
      "ImagingFrequency": 123.260185,
      "InPlanePhaseEncodingDirection": "COL",
      "MRAcquisitionType": "2D",
      "MagneticFieldStrength": 3.0,
      "Manufacturer": "SIEMENS",
      "ManufacturerModelName": "Prisma_fit",
      "Modality": "MR",
      "NumberOfAverages": 1.0,
      "NumberOfPhaseEncodingSteps": 104,
      "PercentPhaseFieldOfView": 100.0,
      "PercentSampling": 100.0,
      "PerformedProcedureStepStartTime": "182825.093000",
      "PhotometricInterpretation": "MONOCHROME2",
      "PixelBandwidth": 2290.0,
      "PixelRepresentation": 0,
      "PixelSpacing": [2.0, 2.0],
      "ProtocolName": "func_task-mario3_run-02",
      "RepetitionTime": 1490.0,
      "Rows": 832,
      "SAR": 0.05710107825088,
      "SamplesPerPixel": 1,
      "ScanOptions": "FS",
      "ScanningSequence": "EP",
      "SequenceName": "epfid2d1_104",
      "SequenceVariant": [
        "SK",
        "SS"
],
      "SeriesDescription": "func_task-mario3_run-02",
      "SeriesNumber": 13,
      "SeriesTime": "185035.987000",
      "SliceLocation": -33.791633655088,
      "SliceThickness": 2.0,
      "SmallestImagePixelValue": 0,
      "SoftwareVersions": "syngo MR E11",
      "SpacingBetweenSlices": 2.0000000233132,
      "SpecificCharacterSet": "ISO_IR 100",
      "StudyID": "1",
      "StudyTime": "182824.988000",
      "TransmitCoilName": "Body",
      "VariableFlipAngleFlag": "N",
      "WindowCenterWidthExplanation": "Algo1",
      "dBdt": 0.0},
    "slices": {}
  },
  "time": {
    "samples": {
      "AcquisitionNumber": [1, 2, 3, 4, 5, 6, 7, 8, 9, 10, 11, 12, 13, 14, 15, 16, 17, 18, 19, 20, 21, 22, 23, 24, 25, 26, 27, 28, 29, 30, 31, 32, 33, 34, 35, 36, 37, 38, 39, 40, 41, 42, 43, 44, 45, 46, 47, 48, 49, 50, 51, 52, 53, 54, 55, 56, 57, 58, 59, 60, 61, 62, 63, 64, 65, 66, 67, 68, 69, 70, 71, 72, 73, 74, 75, 76, 77, 78, 79, 80, 81, 82, 83, 84, 85, 86, 87, 88, 89, 90, 91, 92, 93, 94, 95, 96, 97, 98, 99, 100, 101, 102, 103, 104, 105, 106, 107, 108, 109, 110, 111, 112, 113, 114, 115, 116, 117, 118, 119, 120, 121, 122, 123, 124, 125, 126, 127, 128, 129, 130, 131, 132, 133, 134, 135, 136, 137, 138, 139, 140, 141, 142, 143, 144, 145, 146, 147, 148, 149, 150, 151, 152, 153, 154, 155, 156, 157, 158, 159, 160, 161, 162, 163, 164, 165, 166, 167, 168, 169, 170, 171, 172, 173, 174, 175, 176, 177, 178, 179, 180, 181, 182, 183, 184, 185, 186, 187, 188, 189, 190, 191, 192, 193, 194, 195, 196, 197, 198, 199, 200, 201, 202, 203, 204, 205, 206, 207, 208, 209, 210, 211, 212, 213, 214, 215, 216, 217, 218, 219, 220, 221, 222, 223, 224, 225, 226, 227, 228, 229, 230, 231, 232, 233, 234, 235, 236, 237, 238, 239, 240, 241, 242, 243, 244, 245, 246, 247, 248, 249, 250, 251, 252, 253, 254, 255, 256, 257, 258, 259, 260, 261, 262, 263, 264, 265, 266, 267, 268, 269, 270, 271, 272, 273, 274, 275, 276, 277, 278, 279, 280, 281, 282, 283, 284, 285, 286, 287, 288, 289, 290, 291, 292, 293, 294, 295, 296, 297, 298, 299, 300, 301, 302, 303, 304, 305, 306, 307, 308, 309, 310, 311, 312, 313, 314, 315, 316, 317, 318, 319, 320, 321, 322],
      "AcquisitionTime": ["184912.422500", "184913.912500", "184915.402500", "184916.892500", "184918.382500", "184919.872500", "184921.362500", "184922.852500", "184924.342500", "184925.832500", "184927.322500", "184928.812500", "184930.302500", "184931.792500", "184933.282500", "184934.772500", "184936.262500", "184937.752500", "184939.242500", "184940.732500", "184942.222500", "184943.712500", "184945.202500", "184946.692500", "184948.182500", "184949.672500", "184951.162500", "184952.652500", "184954.142500", "184955.632500", "184957.122500", "184958.612500", "185000.102500", "185001.592500", "185003.082500", "185004.572500", "185006.062500", "185007.552500", "185009.042500", "185010.532500", "185012.022500", "185013.512500", "185015.002500", "185016.492500", "185017.982500", "185019.472500", "185020.962500", "185022.452500", "185023.942500", "185025.432500", "185026.922500", "185028.412500", "185029.902500", "185031.392500", "185032.882500", "185034.372500", "185035.862500", "185037.352500", "185038.842500", "185040.332500", "185041.822500", "185043.312500", "185044.802500", "185046.292500", "185047.782500", "185049.272500", "185050.762500", "185052.252500", "185053.742500", "185055.232500", "185056.722500", "185058.212500", "185059.702500", "185101.192500", "185102.682500", "185104.172500", "185105.662500", "185107.152500", "185108.642500", "185110.132500", "185111.622500", "185113.112500", "185114.602500", "185116.092500", "185117.582500", "185119.072500", "185120.562500", "185122.052500", "185123.542500", "185125.032500", "185126.522500", "185128.012500", "185129.502500", "185130.992500", "185132.482500", "185133.972500", "185135.462500", "185136.952500", "185138.442500", "185139.932500", "185141.422500", "185142.912500", "185144.402500", "185145.892500", "185147.382500", "185148.872500", "185150.362500", "185151.852500", "185153.342500", "185154.832500", "185156.322500", "185157.812500", "185159.302500", "185200.792500", "185202.282500", "185203.772500", "185205.262500", "185206.752500", "185208.242500", "185209.732500", "185211.222500", "185212.712500", "185214.202500", "185215.692500", "185217.182500", "185218.672500", "185220.162500", "185221.652500", "185223.142500", "185224.632500", "185226.122500", "185227.612500", "185229.102500", "185230.592500", "185232.082500", "185233.572500", "185235.062500", "185236.552500", "185238.042500", "185239.532500", "185241.022500", "185242.512500", "185244.002500", "185245.492500", "185246.982500", "185248.472500", "185249.962500", "185251.452500", "185252.942500", "185254.432500", "185255.922500", "185257.412500", "185258.902500", "185300.392500", "185301.882500", "185303.372500", "185304.862500", "185306.352500", "185307.842500", "185309.332500", "185310.822500", "185312.312500", "185313.802500", "185315.292500", "185316.782500", "185318.272500", "185319.762500", "185321.252500", "185322.742500", "185324.232500", "185325.722500", "185327.212500", "185328.702500", "185330.192500", "185331.682500", "185333.172500", "185334.662500", "185336.152500", "185337.642500", "185339.132500", "185340.622500", "185342.112500", "185343.602500", "185345.092500", "185346.582500", "185348.072500", "185349.562500", "185351.052500", "185352.542500", "185354.032500", "185355.522500", "185357.012500", "185358.502500", "185359.992500", "185401.482500", "185402.972500", "185404.462500", "185405.952500", "185407.442500", "185408.932500", "185410.422500", "185411.912500", "185413.402500", "185414.892500", "185416.382500", "185417.872500", "185419.362500", "185420.852500", "185422.342500", "185423.832500", "185425.322500", "185426.812500", "185428.302500", "185429.792500", "185431.282500", "185432.772500", "185434.262500", "185435.752500", "185437.242500", "185438.732500", "185440.222500", "185441.712500", "185443.202500", "185444.692500", "185446.182500", "185447.672500", "185449.162500", "185450.652500", "185452.142500", "185453.632500", "185455.122500", "185456.612500", "185458.102500", "185459.592500", "185501.082500", "185502.572500", "185504.062500", "185505.552500", "185507.042500", "185508.532500", "185510.022500", "185511.512500", "185513.002500", "185514.492500", "185515.982500", "185517.472500", "185518.962500", "185520.452500", "185521.942500", "185523.432500", "185524.922500", "185526.412500", "185527.902500", "185529.392500", "185530.882500", "185532.372500", "185533.862500", "185535.352500", "185536.842500", "185538.332500", "185539.822500", "185541.312500", "185542.802500", "185544.292500", "185545.782500", "185547.272500", "185548.762500", "185550.252500", "185551.742500", "185553.232500", "185554.722500", "185556.212500", "185557.702500", "185559.192500", "185600.682500", "185602.172500", "185603.662500", "185605.152500", "185606.642500", "185608.132500", "185609.622500", "185611.112500", "185612.602500", "185614.092500", "185615.582500", "185617.072500", "185618.562500", "185620.052500", "185621.542500", "185623.032500", "185624.522500", "185626.012500", "185627.502500", "185628.992500", "185630.482500", "185631.972500", "185633.462500", "185634.952500", "185636.442500", "185637.932500", "185639.422500", "185640.912500", "185642.402500", "185643.892500", "185645.382500", "185646.872500", "185648.362500", "185649.852500", "185651.342500", "185652.832500", "185654.322500", "185655.812500", "185657.302500", "185658.792500", "185700.282500", "185701.772500", "185703.262500", "185704.752500", "185706.242500", "185707.732500", "185709.222500", "185710.712500"],
      "ContentTime": ["185035.990000", "185035.994000", "185035.997000", "185036.002000", "185036.005000", "185036.008000", "185036.012000", "185036.015000", "185036.018000", "185036.022000", "185036.025000", "185036.028000", "185036.032000", "185036.035000", "185036.038000", "185036.042000", "185036.045000", "185036.048000", "185036.051000", "185036.055000", "185036.058000", "185036.070000", "185036.073000", "185036.076000", "185036.080000", "185036.091000", "185036.094000", "185036.097000", "185036.100000", "185036.104000", "185036.107000", "185036.110000", "185036.113000", "185036.117000", "185036.120000", "185055.944000", "185055.948000", "185055.951000", "185055.954000", "185055.958000", "185055.961000", "185055.964000", "185055.967000", "185055.971000", "185055.974000", "185055.977000", "185055.981000", "185055.984000", "185055.987000", "185055.990000", "185055.994000", "185055.997000", "185056.001000", "185056.004000", "185056.008000", "185115.944000", "185115.948000", "185115.951000", "185115.954000", "185115.957000", "185115.961000", "185115.964000", "185115.967000", "185115.970000", "185115.974000", "185115.977000", "185115.980000", "185115.984000", "185115.987000", "185115.990000", "185115.993000", "185115.997000", "185116.001000", "185116.004000", "185116.008000", "185135.944000", "185135.948000", "185135.951000", "185135.954000", "185135.958000", "185135.961000", "185135.964000", "185135.967000", "185135.971000", "185135.974000", "185135.977000", "185135.980000", "185135.984000", "185135.987000", "185135.991000", "185135.994000", "185135.997000", "185136.002000", "185136.005000", "185136.009000", "185155.945000", "185155.949000", "185155.952000", "185155.955000", "185155.959000", "185155.962000", "185155.965000", "185155.968000", "185155.972000", "185155.975000", "185155.978000", "185155.981000", "185155.985000", "185155.988000", "185235.944000", "185235.948000", "185235.951000", "185235.954000", "185235.958000", "185235.961000", "185235.964000", "185235.967000", "185235.971000", "185235.974000", "185235.977000", "185235.980000", "185235.984000", "185235.987000", "185235.990000", "185236.017000", "185236.020000", "185236.023000", "185236.027000", "185236.030000", "185236.078000", "185236.081000", "185236.085000", "185236.088000", "185236.091000", "185236.094000", "185236.098000", "185315.944000", "185315.948000", "185315.951000", "185315.954000", "185315.958000", "185315.961000", "185315.964000", "185315.968000", "185315.971000", "185315.974000", "185315.977000", "185315.981000", "185315.984000", "185315.987000", "185315.990000", "185315.994000", "185315.997000", "185316.001000", "185316.005000", "185316.008000", "185316.011000", "185316.015000", "185316.018000", "185316.021000", "185316.024000", "185316.028000", "185316.031000", "185355.944000", "185355.948000", "185355.951000", "185355.954000", "185355.958000", "185355.961000", "185355.964000", "185355.967000", "185355.971000", "185355.974000", "185355.978000", "185355.981000", "185355.984000", "185355.987000", "185355.991000", "185355.994000", "185355.997000", "185356.002000", "185356.005000", "185356.008000", "185356.011000", "185356.015000", "185356.018000", "185356.021000", "185356.025000", "185356.028000", "185435.944000", "185435.948000", "185435.951000", "185435.954000", "185435.957000", "185435.961000", "185435.964000", "185435.967000", "185435.971000", "185435.974000", "185435.977000", "185435.980000", "185435.984000", "185435.987000", "185435.990000", "185435.993000", "185435.997000", "185436.001000", "185436.004000", "185436.007000", "185436.024000", "185436.027000", "185436.031000", "185436.034000", "185436.037000", "185436.040000", "185436.044000", "185515.944000", "185515.948000", "185515.952000", "185515.955000", "185515.959000", "185515.962000", "185515.965000", "185515.969000", "185515.972000", "185515.976000", "185515.979000", "185515.982000", "185515.986000", "185515.989000", "185515.992000", "185515.996000", "185516.000000", "185516.004000", "185516.007000", "185516.010000", "185516.014000", "185516.017000", "185516.020000", "185516.024000", "185516.027000", "185516.030000", "185516.033000", "185555.944000", "185555.948000", "185555.951000", "185555.954000", "185555.958000", "185555.961000", "185555.965000", "185555.968000", "185555.971000", "185555.975000", "185555.978000", "185555.982000", "185555.985000", "185555.989000", "185555.992000", "185555.995000", "185555.998000", "185556.003000", "185556.006000", "185556.010000", "185556.013000", "185556.016000", "185556.019000", "185556.023000", "185556.026000", "185556.029000", "185556.032000", "185635.945000", "185635.949000", "185635.952000", "185635.955000", "185635.959000", "185635.962000", "185635.965000", "185635.969000", "185635.972000", "185635.975000", "185635.978000", "185635.982000", "185635.985000", "185635.988000", "185635.991000", "185635.995000", "185635.998000", "185636.002000", "185636.006000", "185636.009000", "185636.012000", "185636.015000", "185636.019000", "185636.022000", "185636.025000", "185636.028000", "185636.032000", "185713.346000", "185713.359000", "185713.363000", "185713.366000", "185713.369000", "185713.373000", "185713.376000", "185713.379000", "185713.382000", "185713.386000", "185713.389000", "185713.392000", "185713.396000", "185713.399000", "185713.402000", "185713.405000", "185713.409000", "185713.412000", "185713.415000", "185713.419000", "185713.422000", "185713.425000", "185713.428000", "185713.432000", "185713.435000"],
      "InstanceCreationTime": ["185035.990000", "185035.994000", "185035.997000", "185036.002000", "185036.005000", "185036.008000", "185036.012000", "185036.015000", "185036.018000", "185036.022000", "185036.025000", "185036.028000", "185036.032000", "185036.035000", "185036.038000", "185036.042000", "185036.045000", "185036.048000", "185036.051000", "185036.055000", "185036.058000", "185036.070000", "185036.073000", "185036.076000", "185036.080000", "185036.091000", "185036.094000", "185036.097000", "185036.100000", "185036.104000", "185036.107000", "185036.110000", "185036.113000", "185036.117000", "185036.120000", "185055.944000", "185055.948000", "185055.951000", "185055.954000", "185055.958000", "185055.961000", "185055.964000", "185055.967000", "185055.971000", "185055.974000", "185055.977000", "185055.981000", "185055.984000", "185055.987000", "185055.990000", "185055.994000", "185055.997000", "185056.001000", "185056.004000", "185056.008000", "185115.944000", "185115.948000", "185115.951000", "185115.954000", "185115.957000", "185115.961000", "185115.964000", "185115.967000", "185115.970000", "185115.974000", "185115.977000", "185115.980000", "185115.984000", "185115.987000", "185115.990000", "185115.993000", "185115.997000", "185116.001000", "185116.004000", "185116.008000", "185135.944000", "185135.948000", "185135.951000", "185135.954000", "185135.958000", "185135.961000", "185135.964000", "185135.967000", "185135.971000", "185135.974000", "185135.977000", "185135.980000", "185135.984000", "185135.987000", "185135.991000", "185135.994000", "185135.997000", "185136.002000", "185136.005000", "185136.009000", "185155.945000", "185155.949000", "185155.952000", "185155.955000", "185155.959000", "185155.962000", "185155.965000", "185155.968000", "185155.972000", "185155.975000", "185155.978000", "185155.981000", "185155.985000", "185155.988000", "185235.944000", "185235.948000", "185235.951000", "185235.954000", "185235.958000", "185235.961000", "185235.964000", "185235.967000", "185235.971000", "185235.974000", "185235.977000", "185235.980000", "185235.984000", "185235.987000", "185235.990000", "185236.017000", "185236.020000", "185236.023000", "185236.027000", "185236.030000", "185236.078000", "185236.081000", "185236.085000", "185236.088000", "185236.091000", "185236.094000", "185236.098000", "185315.944000", "185315.948000", "185315.951000", "185315.954000", "185315.958000", "185315.961000", "185315.964000", "185315.968000", "185315.971000", "185315.974000", "185315.977000", "185315.981000", "185315.984000", "185315.987000", "185315.990000", "185315.994000", "185315.997000", "185316.001000", "185316.005000", "185316.008000", "185316.011000", "185316.015000", "185316.018000", "185316.021000", "185316.024000", "185316.028000", "185316.031000", "185355.944000", "185355.948000", "185355.951000", "185355.954000", "185355.958000", "185355.961000", "185355.964000", "185355.967000", "185355.971000", "185355.974000", "185355.978000", "185355.981000", "185355.984000", "185355.987000", "185355.991000", "185355.994000", "185355.997000", "185356.002000", "185356.005000", "185356.008000", "185356.011000", "185356.015000", "185356.018000", "185356.021000", "185356.025000", "185356.028000", "185435.944000", "185435.948000", "185435.951000", "185435.954000", "185435.957000", "185435.961000", "185435.964000", "185435.967000", "185435.971000", "185435.974000", "185435.977000", "185435.980000", "185435.984000", "185435.987000", "185435.990000", "185435.993000", "185435.997000", "185436.001000", "185436.004000", "185436.007000", "185436.024000", "185436.027000", "185436.031000", "185436.034000", "185436.037000", "185436.040000", "185436.044000", "185515.944000", "185515.948000", "185515.952000", "185515.955000", "185515.959000", "185515.962000", "185515.965000", "185515.969000", "185515.972000", "185515.976000", "185515.979000", "185515.982000", "185515.986000", "185515.989000", "185515.992000", "185515.996000", "185516.000000", "185516.004000", "185516.007000", "185516.010000", "185516.014000", "185516.017000", "185516.020000", "185516.024000", "185516.027000", "185516.030000", "185516.033000", "185555.944000", "185555.948000", "185555.951000", "185555.954000", "185555.958000", "185555.961000", "185555.965000", "185555.968000", "185555.971000", "185555.975000", "185555.978000", "185555.982000", "185555.985000", "185555.989000", "185555.992000", "185555.995000", "185555.998000", "185556.003000", "185556.006000", "185556.010000", "185556.013000", "185556.016000", "185556.019000", "185556.023000", "185556.026000", "185556.029000", "185556.032000", "185635.945000", "185635.949000", "185635.952000", "185635.955000", "185635.959000", "185635.962000", "185635.965000", "185635.969000", "185635.972000", "185635.975000", "185635.978000", "185635.982000", "185635.985000", "185635.988000", "185635.991000", "185635.995000", "185635.998000", "185636.002000", "185636.006000", "185636.009000", "185636.012000", "185636.015000", "185636.019000", "185636.022000", "185636.025000", "185636.028000", "185636.032000", "185713.346000", "185713.359000", "185713.363000", "185713.366000", "185713.369000", "185713.373000", "185713.376000", "185713.379000", "185713.382000", "185713.386000", "185713.389000", "185713.392000", "185713.396000", "185713.399000", "185713.402000", "185713.405000", "185713.409000", "185713.412000", "185713.415000", "185713.419000", "185713.422000", "185713.425000", "185713.428000", "185713.432000", "185713.435000"],
      "InstanceNumber": [1, 2, 3, 4, 5, 6, 7, 8, 9, 10, 11, 12, 13, 14, 15, 16, 17, 18, 19, 20, 21, 22, 23, 24, 25, 26, 27, 28, 29, 30, 31, 32, 33, 34, 35, 36, 37, 38, 39, 40, 41, 42, 43, 44, 45, 46, 47, 48, 49, 50, 51, 52, 53, 54, 55, 56, 57, 58, 59, 60, 61, 62, 63, 64, 65, 66, 67, 68, 69, 70, 71, 72, 73, 74, 75, 76, 77, 78, 79, 80, 81, 82, 83, 84, 85, 86, 87, 88, 89, 90, 91, 92, 93, 94, 95, 96, 97, 98, 99, 100, 101, 102, 103, 104, 105, 106, 107, 108, 109, 110, 111, 112, 113, 114, 115, 116, 117, 118, 119, 120, 121, 122, 123, 124, 125, 126, 127, 128, 129, 130, 131, 132, 133, 134, 135, 136, 137, 138, 139, 140, 141, 142, 143, 144, 145, 146, 147, 148, 149, 150, 151, 152, 153, 154, 155, 156, 157, 158, 159, 160, 161, 162, 163, 164, 165, 166, 167, 168, 169, 170, 171, 172, 173, 174, 175, 176, 177, 178, 179, 180, 181, 182, 183, 184, 185, 186, 187, 188, 189, 190, 191, 192, 193, 194, 195, 196, 197, 198, 199, 200, 201, 202, 203, 204, 205, 206, 207, 208, 209, 210, 211, 212, 213, 214, 215, 216, 217, 218, 219, 220, 221, 222, 223, 224, 225, 226, 227, 228, 229, 230, 231, 232, 233, 234, 235, 236, 237, 238, 239, 240, 241, 242, 243, 244, 245, 246, 247, 248, 249, 250, 251, 252, 253, 254, 255, 256, 257, 258, 259, 260, 261, 262, 263, 264, 265, 266, 267, 268, 269, 270, 271, 272, 273, 274, 275, 276, 277, 278, 279, 280, 281, 282, 283, 284, 285, 286, 287, 288, 289, 290, 291, 292, 293, 294, 295, 296, 297, 298, 299, 300, 301, 302, 303, 304, 305, 306, 307, 308, 309, 310, 311, 312, 313, 314, 315, 316, 317, 318, 319, 320, 321, 322],
      "LargestImagePixelValue": [61101, 59594, 58589, 58025, 57453, 57682, 58012, 57691, 57242, 57797, 58056, 57650, 57431, 57600, 58188, 57996, 57709, 57779, 58169, 57960, 57969, 58074, 57964, 57245, 58028, 57839, 58034, 58454, 58502, 57992, 57305, 57920, 58310, 57895, 58037, 57391, 57667, 57967, 57820, 57749, 58261, 57895, 57549, 58212, 58063, 58460, 58169, 57943, 58067, 58031, 57357, 57842, 57764, 57900, 57672, 57918, 57692, 57441, 57722, 57820, 57381, 57849, 57859, 57623, 57821, 58078, 57668, 57045, 57493, 57667, 57263, 57251, 57482, 57328, 57786, 57785, 57768, 57503, 57317, 57421, 57536, 57878, 57669, 57600, 57641, 57544, 57839, 57817, 57499, 57757, 57500, 57541, 57439, 57416, 57823, 58072, 58045, 57288, 57455, 57779, 57357, 57616, 58112, 57743, 57460, 57411, 57714, 57337, 57589, 57286, 57762, 57659, 57263, 57960, 57211, 57498, 57728, 58146, 58140, 57571, 57580, 57507, 57654, 57411, 57606, 57132, 57929, 57336, 57864, 58066, 57450, 57675, 57913, 57603, 57468, 58333, 56776, 56989, 58350, 57096, 56841, 56639, 57251, 56054, 56738, 56771, 56512, 57390, 56727, 56499, 56679, 56611, 56885, 56749, 56869, 56492, 56608, 57253, 57657, 57529, 56962, 56814, 57209, 56772, 56837, 57557, 57094, 57390, 57856, 57610, 57739, 57312, 57455, 57393, 57632, 57742, 57019, 57159, 58025, 57724, 57285, 57395, 57282, 57010, 57185, 57127, 57083, 57236, 57435, 57038, 57668, 56641, 56776, 56700, 56750, 56939, 56924, 57061, 57095, 57419, 56995, 56827, 56962, 57132, 57457, 57232, 56889, 57197, 57311, 57376, 57321, 57510, 57599, 57244, 57184, 57777, 57096, 57086, 57020, 57302, 57182, 57339, 57421, 57146, 57481, 57401, 57412, 56753, 57304, 57223, 57137, 57454, 57301, 57261, 56853, 57676, 57197, 57577, 57548, 57009, 57191, 56856, 57360, 57013, 56996, 57058, 57366, 57493, 57257, 57269, 57282, 57148, 56833, 57144, 57458, 57549, 57401, 57500, 57107, 57029, 57386, 57417, 57551, 57442, 57412, 57131, 57170, 57047, 56983, 57183, 57048, 57439, 57074, 57270, 57158, 57382, 57069, 56997, 56807, 57360, 57100, 56989, 56901, 56751, 56775, 57087, 57165, 57379, 56546, 56930, 57072, 57006, 57222, 57289, 57285, 56851, 57012, 57349, 57271, 57046, 58099, 57631, 57511, 57521, 57483, 57153, 57375, 57227, 56973, 57477, 57902, 57323, 57095, 57158, 57322, 57426, 57272, 57014, 56611, 56913, 56535, 56712],
