{
  "AcquisitionMatrixPE": 104,
  "AcquisitionNumber": 1,
  "AcquisitionTime": "19:35:7.582500",
  "BandwidthPerPixelPhaseEncode": 17.17,
  "BaseResolution": 104,
  "BodyPartExamined": "BRAIN",
  "CoilCombinationMethod": "Sum of Squares",
  "ConsistencyInfo": "N4_VE11C_LATEST_20160120",
  "ConversionSoftware": "dcm2niix",
  "ConversionSoftwareVersion": "v1.0.20220505",
  "DerivedVendorReportedEchoSpacing": 0.000560011,
  "DeviceSerialNumber": "167006",
  "DwellTime": 2.1e-06,
  "EchoTime": 0.037,
  "EchoTrainLength": 104,
  "EffectiveEchoSpacing": 0.000560011,
  "FlipAngle": 52,
  "HeudiconvVersion": "0.5.3.post811+g6206e14",
  "ImageComments": "Unaliased MB4/PE3/LB",
  "ImageOrientationPatientDICOM": [0.997299, -0.0733926, 0.00289589, 0.0704376, 0.944482, -0.320925],
  "ImageOrientationText": "Tra>Cor(-18.7)>Sag(-1.2)",
  "ImageType": [
    "ORIGINAL",
    "PRIMARY",
    "M",
    "MB",
    "ND",
    "MOSAIC"
],
  "ImagingFrequency": 123.26,
  "InPlanePhaseEncodingDirectionDICOM": "COL",
  "InstitutionAddress": "Chemin Queen-Mary 4565,Montreal,District,CA,H3W 1W5",
  "InstitutionName": "IUGM",
  "InstitutionalDepartmentName": "Department",
  "MRAcquisitionType": "2D",
  "MagneticFieldStrength": 3,
  "Manufacturer": "Siemens",
  "ManufacturersModelName": "Prisma_fit",
  "MatrixCoilMode": "SENSE",
  "Modality": "MR",
  "MultibandAccelerationFactor": 4,
  "PartialFourier": 1,
  "PatientPosition": "HFS",
  "PercentPhaseFOV": 100,
  "PercentSampling": 100,
  "PhaseEncodingDirection": "j",
  "PhaseEncodingSteps": 104,
  "PhaseResolution": 1,
  "PixelBandwidth": 2290,
  "ProcedureStepDescription": "games^mario3",
  "ProtocolName": "func_task-mario3_run-06",
  "PulseSequenceDetails": "%CustomerSeq%\\cmrr_mbep2d_bold",
  "ReceiveCoilActiveElements": "HC1-7;NC1,2",
  "ReceiveCoilName": "HeadNeck_64",
  "ReconMatrixPE": 104,
  "RepetitionTime": 1.49,
  "SAR": 0.0571011,
  "ScanOptions": "FS",
  "ScanningSequence": "EP",
  "SequenceName": "epfid2d1_104",
  "SequenceVariant": "SK\\SS",
  "SeriesDescription": "func_task-mario3_run-06",
  "SeriesNumber": 25,
  "ShimSetting": [591, -7251, -8832, 449, 14, -302, 16, 26],
  "SliceThickness": 2,
  "SliceTiming": [0, 0.7825, 0.0975, 0.88, 0.195, 0.98, 0.2925, 1.0775, 0.39, 1.175, 0.49, 1.2725, 0.5875, 1.37, 0.685, 0, 0.7825, 0.0975, 0.88, 0.195, 0.98, 0.2925, 1.0775, 0.39, 1.175, 0.49, 1.2725, 0.5875, 1.37, 0.685, 0, 0.7825, 0.0975, 0.88, 0.195, 0.98, 0.2925, 1.0775, 0.39, 1.175, 0.49, 1.2725, 0.5875, 1.37, 0.685, 0, 0.7825, 0.0975, 0.88, 0.195, 0.98, 0.2925, 1.0775, 0.39, 1.175, 0.49, 1.2725, 0.5875, 1.37, 0.685],
  "SoftwareVersions": "syngo MR E11",
  "SpacingBetweenSlices": 2,
  "StationName": "MRC35049",
  "TaskName": "mario3",
  "TotalReadoutTime": 0.0576811,
  "TxRefAmp": 262.255,
  "WipMemBlock": "c4831f5e-f249-4575-9597-f4d311e07821||Sequence: R017 ve11c/master r/75a17815+; Jun 28 2022 16:32:11 by eja",
  "dcmmeta_affine": [
    [-1.9945977926254272, 0.1408751755952835, -0.041636791080236435, 97.85974884033203],
    [0.1467851847410202, 1.8889634609222412, -0.64052414894104, -75.07450103759766],
    [0.005791783798485994, 0.6418498754501343, 1.8942004442214966, -58.9144287109375],
    [0.0, 0.0, 0.0, 1.0]
],
  "dcmmeta_reorient_transform": [
    [0.0, -1.0, 0.0, 103.0],
    [1.0, 0.0, 0.0, 0.0],
    [0.0, 0.0, 1.0, 0.0],
    [0.0, 0.0, 0.0, 1.0]
],
  "dcmmeta_shape": [104, 104, 60, 548],
  "dcmmeta_slice_dim": 2,
  "dcmmeta_version": 0.6,
  "global": {
    "const": {
      "AcquisitionMatrix": [104, 0, 0, 104],
      "AngioFlag": "N",
      "BitsAllocated": 16,
      "BitsStored": 16,
      "BodyPartExamined": "BRAIN",
      "Columns": 832,
      "EchoNumbers": 1,
      "EchoTime": 37.0,
      "EchoTrainLength": 104,
      "FlipAngle": 52.0,
      "HighBit": 15,
      "ImageOrientationPatient": [0.99729892247465, -0.0733925952721, 0.00289589193987, 0.07043758666624, 0.94448173039922, -0.3209249247515],
      "ImagePositionPatient": [-889.68206866934, -753.64162246191, 238.72124332719],
      "ImageType": [
        "ORIGINAL",
        "PRIMARY",
        "M",
        "MB",
        "ND",
        "MOSAIC"
],
      "ImagedNucleus": "1H",
      "ImagingFrequency": 123.260192,
      "InPlanePhaseEncodingDirection": "COL",
      "MRAcquisitionType": "2D",
      "MagneticFieldStrength": 3.0,
      "Manufacturer": "SIEMENS",
      "ManufacturerModelName": "Prisma_fit",
      "Modality": "MR",
      "NumberOfAverages": 1.0,
      "NumberOfPhaseEncodingSteps": 104,
      "PercentPhaseFieldOfView": 100.0,
      "PercentSampling": 100.0,
      "PerformedProcedureStepStartTime": "182825.093000",
      "PhotometricInterpretation": "MONOCHROME2",
      "PixelBandwidth": 2290.0,
      "PixelRepresentation": 0,
      "PixelSpacing": [2.0, 2.0],
      "ProtocolName": "func_task-mario3_run-06",
      "RepetitionTime": 1490.0,
      "Rows": 832,
      "SAR": 0.05710107825088,
      "SamplesPerPixel": 1,
      "ScanOptions": "FS",
      "ScanningSequence": "EP",
      "SequenceName": "epfid2d1_104",
      "SequenceVariant": [
        "SK",
        "SS"
],
      "SeriesDescription": "func_task-mario3_run-06",
      "SeriesNumber": 25,
      "SeriesTime": "193619.501000",
      "SliceLocation": -33.791633655088,
      "SliceThickness": 2.0,
      "SmallestImagePixelValue": 0,
      "SoftwareVersions": "syngo MR E11",
      "SpacingBetweenSlices": 2.0000000233132,
      "SpecificCharacterSet": "ISO_IR 100",
      "StudyID": "1",
      "StudyTime": "182824.988000",
      "TransmitCoilName": "Body",
      "VariableFlipAngleFlag": "N",
      "WindowCenterWidthExplanation": "Algo1",
      "dBdt": 0.0},
    "slices": {}
  },
  "time": {
    "samples": {
      "AcquisitionNumber": [1, 2, 3, 4, 5, 6, 7, 8, 9, 10, 11, 12, 13, 14, 15, 16, 17, 18, 19, 20, 21, 22, 23, 24, 25, 26, 27, 28, 29, 30, 31, 32, 33, 34, 35, 36, 37, 38, 39, 40, 41, 42, 43, 44, 45, 46, 47, 48, 49, 50, 51, 52, 53, 54, 55, 56, 57, 58, 59, 60, 61, 62, 63, 64, 65, 66, 67, 68, 69, 70, 71, 72, 73, 74, 75, 76, 77, 78, 79, 80, 81, 82, 83, 84, 85, 86, 87, 88, 89, 90, 91, 92, 93, 94, 95, 96, 97, 98, 99, 100, 101, 102, 103, 104, 105, 106, 107, 108, 109, 110, 111, 112, 113, 114, 115, 116, 117, 118, 119, 120, 121, 122, 123, 124, 125, 126, 127, 128, 129, 130, 131, 132, 133, 134, 135, 136, 137, 138, 139, 140, 141, 142, 143, 144, 145, 146, 147, 148, 149, 150, 151, 152, 153, 154, 155, 156, 157, 158, 159, 160, 161, 162, 163, 164, 165, 166, 167, 168, 169, 170, 171, 172, 173, 174, 175, 176, 177, 178, 179, 180, 181, 182, 183, 184, 185, 186, 187, 188, 189, 190, 191, 192, 193, 194, 195, 196, 197, 198, 199, 200, 201, 202, 203, 204, 205, 206, 207, 208, 209, 210, 211, 212, 213, 214, 215, 216, 217, 218, 219, 220, 221, 222, 223, 224, 225, 226, 227, 228, 229, 230, 231, 232, 233, 234, 235, 236, 237, 238, 239, 240, 241, 242, 243, 244, 245, 246, 247, 248, 249, 250, 251, 252, 253, 254, 255, 256, 257, 258, 259, 260, 261, 262, 263, 264, 265, 266, 267, 268, 269, 270, 271, 272, 273, 274, 275, 276, 277, 278, 279, 280, 281, 282, 283, 284, 285, 286, 287, 288, 289, 290, 291, 292, 293, 294, 295, 296, 297, 298, 299, 300, 301, 302, 303, 304, 305, 306, 307, 308, 309, 310, 311, 312, 313, 314, 315, 316, 317, 318, 319, 320, 321, 322, 323, 324, 325, 326, 327, 328, 329, 330, 331, 332, 333, 334, 335, 336, 337, 338, 339, 340, 341, 342, 343, 344, 345, 346, 347, 348, 349, 350, 351, 352, 353, 354, 355, 356, 357, 358, 359, 360, 361, 362, 363, 364, 365, 366, 367, 368, 369, 370, 371, 372, 373, 374, 375, 376, 377, 378, 379, 380, 381, 382, 383, 384, 385, 386, 387, 388, 389, 390, 391, 392, 393, 394, 395, 396, 397, 398, 399, 400, 401, 402, 403, 404, 405, 406, 407, 408, 409, 410, 411, 412, 413, 414, 415, 416, 417, 418, 419, 420, 421, 422, 423, 424, 425, 426, 427, 428, 429, 430, 431, 432, 433, 434, 435, 436, 437, 438, 439, 440, 441, 442, 443, 444, 445, 446, 447, 448, 449, 450, 451, 452, 453, 454, 455, 456, 457, 458, 459, 460, 461, 462, 463, 464, 465, 466, 467, 468, 469, 470, 471, 472, 473, 474, 475, 476, 477, 478, 479, 480, 481, 482, 483, 484, 485, 486, 487, 488, 489, 490, 491, 492, 493, 494, 495, 496, 497, 498, 499, 500, 501, 502, 503, 504, 505, 506, 507, 508, 509, 510, 511, 512, 513, 514, 515, 516, 517, 518, 519, 520, 521, 522, 523, 524, 525, 526, 527, 528, 529, 530, 531, 532, 533, 534, 535, 536, 537, 538, 539, 540, 541, 542, 543, 544, 545, 546, 547, 548],
      "AcquisitionTime": ["193507.582500", "193509.072500", "193510.562500", "193512.052500", "193513.542500", "193515.032500", "193516.522500", "193518.012500", "193519.502500", "193520.992500", "193522.482500", "193523.972500", "193525.462500", "193526.952500", "193528.442500", "193529.932500", "193531.422500", "193532.912500", "193534.402500", "193535.892500", "193537.382500", "193538.872500", "193540.362500", "193541.852500", "193543.342500", "193544.832500", "193546.322500", "193547.812500", "193549.302500", "193550.792500", "193552.282500", "193553.772500", "193555.262500", "193556.752500", "193558.242500", "193559.732500", "193601.222500", "193602.712500", "193604.202500", "193605.692500", "193607.182500", "193608.672500", "193610.162500", "193611.652500", "193613.142500", "193614.632500", "193616.122500", "193617.612500", "193619.102500", "193620.592500", "193622.082500", "193623.572500", "193625.062500", "193626.552500", "193628.042500", "193629.532500", "193631.022500", "193632.512500", "193634.002500", "193635.492500", "193636.982500", "193638.472500", "193639.962500", "193641.452500", "193642.942500", "193644.432500", "193645.922500", "193647.412500", "193648.902500", "193650.392500", "193651.882500", "193653.372500", "193654.862500", "193656.352500", "193657.842500", "193659.332500", "193700.822500", "193702.312500", "193703.802500", "193705.292500", "193706.782500", "193708.272500", "193709.762500", "193711.252500", "193712.742500", "193714.232500", "193715.722500", "193717.212500", "193718.702500", "193720.192500", "193721.682500", "193723.172500", "193724.662500", "193726.152500", "193727.642500", "193729.132500", "193730.622500", "193732.112500", "193733.602500", "193735.092500", "193736.582500", "193738.072500", "193739.562500", "193741.052500", "193742.542500", "193744.032500", "193745.522500", "193747.012500", "193748.502500", "193749.992500", "193751.482500", "193752.972500", "193754.462500", "193755.952500", "193757.442500", "193758.932500", "193800.422500", "193801.912500", "193803.402500", "193804.892500", "193806.382500", "193807.872500", "193809.362500", "193810.852500", "193812.342500", "193813.832500", "193815.322500", "193816.812500", "193818.302500", "193819.792500", "193821.282500", "193822.772500", "193824.262500", "193825.752500", "193827.242500", "193828.732500", "193830.222500", "193831.712500", "193833.202500", "193834.692500", "193836.182500", "193837.672500", "193839.162500", "193840.652500", "193842.142500", "193843.632500", "193845.122500", "193846.612500", "193848.102500", "193849.592500", "193851.082500", "193852.572500", "193854.062500", "193855.552500", "193857.042500", "193858.532500", "193900.022500", "193901.512500", "193903.002500", "193904.492500", "193905.982500", "193907.472500", "193908.962500", "193910.452500", "193911.942500", "193913.432500", "193914.922500", "193916.412500", "193917.902500", "193919.392500", "193920.882500", "193922.372500", "193923.862500", "193925.352500", "193926.842500", "193928.332500", "193929.822500", "193931.312500", "193932.802500", "193934.292500", "193935.782500", "193937.272500", "193938.762500", "193940.252500", "193941.742500", "193943.232500", "193944.722500", "193946.212500", "193947.702500", "193949.192500", "193950.682500", "193952.172500", "193953.662500", "193955.152500", "193956.642500", "193958.132500", "193959.622500", "194001.112500", "194002.602500", "194004.092500", "194005.582500", "194007.072500", "194008.562500", "194010.052500", "194011.542500", "194013.032500", "194014.522500", "194016.012500", "194017.502500", "194018.992500", "194020.482500", "194021.972500", "194023.462500", "194024.952500", "194026.442500", "194027.932500", "194029.422500", "194030.912500", "194032.402500", "194033.892500", "194035.382500", "194036.872500", "194038.362500", "194039.852500", "194041.342500", "194042.832500", "194044.322500", "194045.812500", "194047.302500", "194048.792500", "194050.282500", "194051.772500", "194053.262500", "194054.752500", "194056.242500", "194057.732500", "194059.222500", "194100.712500", "194102.202500", "194103.692500", "194105.182500", "194106.672500", "194108.162500", "194109.652500", "194111.142500", "194112.632500", "194114.122500", "194115.612500", "194117.102500", "194118.592500", "194120.082500", "194121.572500", "194123.062500", "194124.552500", "194126.042500", "194127.532500", "194129.022500", "194130.512500", "194132.002500", "194133.492500", "194134.982500", "194136.472500", "194137.962500", "194139.452500", "194140.942500", "194142.432500", "194143.922500", "194145.412500", "194146.902500", "194148.392500", "194149.882500", "194151.372500", "194152.862500", "194154.352500", "194155.842500", "194157.332500", "194158.822500", "194200.312500", "194201.802500", "194203.292500", "194204.782500", "194206.272500", "194207.762500", "194209.252500", "194210.742500", "194212.232500", "194213.722500", "194215.212500", "194216.702500", "194218.192500", "194219.682500", "194221.172500", "194222.662500", "194224.152500", "194225.642500", "194227.132500", "194228.622500", "194230.112500", "194231.602500", "194233.092500", "194234.582500", "194236.072500", "194237.562500", "194239.052500", "194240.542500", "194242.032500", "194243.522500", "194245.012500", "194246.502500", "194247.992500", "194249.482500", "194250.972500", "194252.462500", "194253.952500", "194255.442500", "194256.932500", "194258.422500", "194259.912500", "194301.402500", "194302.892500", "194304.382500", "194305.872500", "194307.362500", "194308.852500", "194310.342500", "194311.832500", "194313.322500", "194314.812500", "194316.302500", "194317.792500", "194319.282500", "194320.772500", "194322.262500", "194323.752500", "194325.242500", "194326.732500", "194328.222500", "194329.712500", "194331.202500", "194332.692500", "194334.182500", "194335.672500", "194337.162500", "194338.652500", "194340.142500", "194341.632500", "194343.122500", "194344.612500", "194346.102500", "194347.592500", "194349.082500", "194350.572500", "194352.062500", "194353.552500", "194355.042500", "194356.532500", "194358.022500", "194359.512500", "194401.002500", "194402.492500", "194403.982500", "194405.472500", "194406.962500", "194408.452500", "194409.942500", "194411.432500", "194412.922500", "194414.412500", "194415.902500", "194417.392500", "194418.882500", "194420.372500", "194421.862500", "194423.352500", "194424.842500", "194426.332500", "194427.822500", "194429.312500", "194430.802500", "194432.292500", "194433.782500", "194435.272500", "194436.762500", "194438.252500", "194439.742500", "194441.232500", "194442.722500", "194444.212500", "194445.702500", "194447.192500", "194448.682500", "194450.172500", "194451.662500", "194453.152500", "194454.642500", "194456.132500", "194457.622500", "194459.112500", "194500.602500", "194502.092500", "194503.582500", "194505.072500", "194506.562500", "194508.052500", "194509.542500", "194511.032500", "194512.522500", "194514.012500", "194515.502500", "194516.992500", "194518.482500", "194519.972500", "194521.462500", "194522.952500", "194524.442500", "194525.932500", "194527.422500", "194528.912500", "194530.402500", "194531.892500", "194533.382500", "194534.872500", "194536.362500", "194537.852500", "194539.342500", "194540.832500", "194542.322500", "194543.812500", "194545.302500", "194546.792500", "194548.282500", "194549.772500", "194551.262500", "194552.752500", "194554.242500", "194555.732500", "194557.222500", "194558.712500", "194600.202500", "194601.692500", "194603.182500", "194604.672500", "194606.162500", "194607.652500", "194609.142500", "194610.632500", "194612.122500", "194613.612500", "194615.102500", "194616.592500", "194618.082500", "194619.572500", "194621.062500", "194622.552500", "194624.042500", "194625.532500", "194627.022500", "194628.512500", "194630.002500", "194631.492500", "194632.982500", "194634.472500", "194635.962500", "194637.452500", "194638.942500", "194640.432500", "194641.922500", "194643.412500", "194644.902500", "194646.392500", "194647.882500", "194649.372500", "194650.862500", "194652.352500", "194653.842500", "194655.332500", "194656.822500", "194658.312500", "194659.802500", "194701.292500", "194702.782500", "194704.272500", "194705.762500", "194707.252500", "194708.742500", "194710.232500", "194711.722500", "194713.212500", "194714.702500", "194716.192500", "194717.682500", "194719.172500", "194720.662500", "194722.152500", "194723.642500", "194725.132500", "194726.622500", "194728.112500", "194729.602500", "194731.092500", "194732.582500", "194734.072500", "194735.562500", "194737.052500", "194738.542500", "194740.032500", "194741.522500", "194743.012500", "194744.502500", "194745.992500", "194747.482500", "194748.972500", "194750.462500", "194751.952500", "194753.442500", "194754.932500", "194756.422500", "194757.912500", "194759.402500", "194800.892500", "194802.382500", "194803.872500", "194805.362500", "194806.852500", "194808.342500", "194809.832500", "194811.322500", "194812.812500", "194814.302500", "194815.792500", "194817.282500", "194818.772500", "194820.262500", "194821.752500", "194823.242500", "194824.732500", "194826.222500", "194827.712500", "194829.202500", "194830.692500", "194832.182500", "194833.672500", "194835.162500", "194836.652500", "194838.142500", "194839.632500", "194841.122500", "194842.612500"],
      "ContentTime": ["193619.504000", "193619.508000", "193619.512000", "193619.515000", "193619.518000", "193619.521000", "193619.525000", "193619.528000", "193619.531000", "193619.534000", "193619.538000", "193619.541000", "193619.544000", "193619.547000", "193619.551000", "193619.554000", "193619.566000", "193619.569000", "193619.572000", "193619.576000", "193619.579000", "193619.582000", "193639.471000", "193639.475000", "193639.478000", "193639.481000", "193639.485000", "193639.488000", "193639.491000", "193639.494000", "193639.498000", "193639.501000", "193639.504000", "193639.507000", "193639.511000", "193639.514000", "193639.517000", "193639.521000", "193639.524000", "193639.527000", "193639.530000", "193639.534000", "193659.471000", "193659.475000", "193659.490000", "193659.493000", "193659.497000", "193659.500000", "193659.503000", "193659.507000", "193659.510000", "193659.513000", "193659.516000", "193659.520000", "193659.523000", "193659.526000", "193659.530000", "193659.533000", "193659.536000", "193659.540000", "193659.543000", "193659.546000", "193719.471000", "193719.475000", "193719.478000", "193719.481000", "193719.485000", "193719.488000", "193719.491000", "193719.494000", "193719.498000", "193719.501000", "193719.504000", "193719.507000", "193719.510000", "193719.514000", "193719.517000", "193719.520000", "193719.523000", "193719.527000", "193719.530000", "193719.533000", "193719.537000", "193759.471000", "193759.475000", "193759.478000", "193759.481000", "193759.485000", "193759.488000", "193759.491000", "193759.494000", "193759.498000", "193759.501000", "193759.504000", "193759.508000", "193759.511000", "193759.514000", "193759.517000", "193759.521000", "193759.524000", "193759.527000", "193759.530000", "193759.534000", "193759.537000", "193759.540000", "193759.543000", "193759.547000", "193759.550000", "193759.553000", "193759.557000", "193759.560000", "193759.563000", "193759.567000", "193759.570000", "193839.471000", "193839.475000", "193839.478000", "193839.481000", "193839.490000", "193839.493000", "193839.497000", "193839.500000", "193839.503000", "193839.507000", "193839.510000", "193839.513000", "193839.516000", "193839.520000", "193839.523000", "193839.526000", "193839.530000", "193839.533000", "193839.536000", "193839.539000", "193839.543000", "193839.546000", "193839.549000", "193839.552000", "193839.556000", "193839.559000", "193839.562000", "193919.471000", "193919.475000", "193919.478000", "193919.481000", "193919.485000", "193919.488000", "193919.491000", "193919.495000", "193919.498000", "193919.501000", "193919.504000", "193919.508000", "193919.511000", "193919.514000", "193919.518000", "193919.521000", "193919.524000", "193919.527000", "193919.531000", "193919.534000", "193919.537000", "193919.541000", "193919.544000", "193919.548000", "193919.551000", "193919.554000", "193919.557000", "193959.470000", "193959.474000", "193959.477000", "193959.480000", "193959.484000", "193959.487000", "193959.490000", "193959.494000", "193959.497000", "193959.500000", "193959.503000", "193959.507000", "193959.510000", "193959.513000", "193959.517000", "193959.520000", "193959.523000", "193959.527000", "193959.530000", "193959.533000", "193959.536000", "193959.540000", "193959.543000", "193959.546000", "193959.549000", "193959.553000", "193959.556000", "194039.471000", "194039.475000", "194039.478000", "194039.481000", "194039.484000", "194039.488000", "194039.491000", "194039.494000", "194039.498000", "194039.501000", "194039.504000", "194039.508000", "194039.511000", "194039.514000", "194039.518000", "194039.521000", "194039.524000", "194039.527000", "194039.531000", "194039.534000", "194039.537000", "194039.541000", "194039.544000", "194039.547000", "194039.550000", "194039.554000", "194039.557000", "194119.471000", "194119.475000", "194119.478000", "194119.481000", "194119.485000", "194119.488000", "194119.492000", "194119.495000", "194119.498000", "194119.501000", "194119.505000", "194119.508000", "194119.511000", "194119.516000", "194119.519000", "194119.523000", "194119.526000", "194119.529000", "194119.533000", "194119.536000", "194119.552000", "194119.555000", "194119.559000", "194119.562000", "194119.565000", "194119.569000", "194159.471000", "194159.475000", "194159.478000", "194159.481000", "194159.485000", "194159.488000", "194159.492000", "194159.495000", "194159.498000", "194159.502000", "194159.505000", "194159.508000", "194159.511000", "194159.515000", "194159.518000", "194159.521000", "194159.525000", "194159.528000", "194159.531000", "194159.534000", "194159.538000", "194159.541000", "194159.544000", "194159.548000", "194159.551000", "194159.554000", "194159.557000", "194239.471000", "194239.475000", "194239.478000", "194239.482000", "194239.485000", "194239.488000", "194239.491000", "194239.495000", "194239.498000", "194239.501000", "194239.505000", "194239.508000", "194239.511000", "194239.514000", "194239.518000", "194239.521000", "194239.524000", "194239.528000", "194239.531000", "194239.534000", "194239.538000", "194239.541000", "194239.544000", "194239.548000", "194239.551000", "194239.554000", "194239.558000", "194319.471000", "194319.475000", "194319.478000", "194319.482000", "194319.485000", "194319.488000", "194319.491000", "194319.495000", "194319.498000", "194319.501000", "194319.505000", "194319.508000", "194319.511000", "194319.515000", "194319.518000", "194319.521000", "194319.524000", "194319.528000", "194319.531000", "194319.534000", "194319.538000", "194319.541000", "194319.544000", "194319.547000", "194319.551000", "194319.554000", "194319.557000", "194359.471000", "194359.475000", "194359.478000", "194359.481000", "194359.485000", "194359.488000", "194359.491000", "194359.495000", "194359.498000", "194359.501000", "194359.505000", "194359.508000", "194359.511000", "194359.515000", "194359.518000", "194359.521000", "194359.524000", "194359.528000", "194359.531000", "194359.534000", "194359.538000", "194359.541000", "194359.544000", "194359.548000", "194359.551000", "194359.554000", "194359.558000", "194439.470000", "194439.474000", "194439.477000", "194439.481000", "194439.485000", "194439.488000", "194439.491000", "194439.495000", "194439.498000", "194439.501000", "194439.505000", "194439.508000", "194439.511000", "194439.514000", "194439.518000", "194439.521000", "194439.524000", "194439.527000", "194439.531000", "194439.534000", "194439.537000", "194439.541000", "194439.544000", "194439.547000", "194439.550000", "194439.554000", "194439.557000", "194519.471000", "194519.475000", "194519.478000", "194519.481000", "194519.485000", "194519.488000", "194519.491000", "194519.495000", "194519.498000", "194519.501000", "194519.505000", "194519.508000", "194519.511000", "194519.514000", "194519.518000", "194519.521000", "194519.524000", "194519.528000", "194519.531000", "194519.535000", "194519.538000", "194519.541000", "194519.545000", "194519.548000", "194519.552000", "194519.555000", "194559.471000", "194559.475000", "194559.478000", "194559.481000", "194559.485000", "194559.488000", "194559.491000", "194559.507000", "194559.511000", "194559.514000", "194559.517000", "194559.521000", "194559.524000", "194559.527000", "194559.530000", "194559.534000", "194559.537000", "194559.540000", "194559.544000", "194559.547000", "194559.550000", "194559.553000", "194559.557000", "194559.560000", "194559.563000", "194559.567000", "194559.570000", "194639.471000", "194639.475000", "194639.478000", "194639.482000", "194639.485000", "194639.488000", "194639.492000", "194639.495000", "194639.498000", "194639.501000", "194639.505000", "194639.508000", "194639.511000", "194639.515000", "194639.518000", "194639.521000", "194639.525000", "194639.528000", "194639.531000", "194639.534000", "194639.538000", "194639.541000", "194639.544000", "194639.548000", "194639.551000", "194639.554000", "194639.558000", "194719.472000", "194719.475000", "194719.478000", "194719.482000", "194719.485000", "194719.488000", "194719.492000", "194719.495000", "194719.498000", "194719.502000", "194719.505000", "194719.508000", "194719.511000", "194719.515000", "194719.518000", "194719.521000", "194719.525000", "194719.528000", "194719.531000", "194719.534000", "194719.538000", "194719.541000", "194719.544000", "194719.548000", "194719.551000", "194719.554000", "194719.557000", "194759.471000", "194759.475000", "194759.478000", "194759.482000", "194759.485000", "194759.488000", "194759.491000", "194759.495000", "194759.498000", "194759.501000", "194759.504000", "194759.516000", "194759.519000", "194759.523000", "194759.526000", "194759.529000", "194759.532000", "194759.536000", "194759.539000", "194759.543000", "194759.546000", "194759.549000", "194759.552000", "194759.556000", "194759.559000", "194759.562000", "194759.566000", "194839.471000", "194839.475000", "194839.478000", "194839.482000", "194839.485000", "194839.488000", "194839.492000", "194839.495000", "194839.498000", "194839.501000", "194839.505000", "194839.508000", "194839.511000", "194839.515000", "194839.518000", "194839.521000", "194839.524000", "194839.528000", "194839.531000", "194839.534000", "194839.537000", "194839.541000", "194839.544000", "194839.547000", "194839.551000", "194839.554000", "194839.557000", "194846.154000", "194846.157000", "194846.161000", "194846.164000"],
