{
  "AcquisitionMatrixPE": 104,
  "AcquisitionNumber": 1,
  "AcquisitionTime": "16:12:17.210000",
  "BandwidthPerPixelPhaseEncode": 17.17,
  "BaseResolution": 104,
  "BodyPartExamined": "BRAIN",
  "CoilCombinationMethod": "Sum of Squares",
  "ConsistencyInfo": "N4_VE11C_LATEST_20160120",
  "ConversionSoftware": "dcm2niix",
  "ConversionSoftwareVersion": "v1.0.20220505",
  "DerivedVendorReportedEchoSpacing": 0.000560011,
  "DeviceSerialNumber": "167006",
  "DwellTime": 2.1e-06,
  "EchoTime": 0.037,
  "EchoTime1": 0.037,
  "EchoTime2": 0.001,
  "EchoTrainLength": 104,
  "EffectiveEchoSpacing": 0.000560011,
  "FlipAngle": 52,
  "HeudiconvVersion": "0.5.3.post811+g6206e14",
  "ImageComments": "Unaliased MB4/PE3/LB",
  "ImageOrientationPatientDICOM": [0.999979, 0.00617039, -0.00191991, -0.00645766, 0.965269, -0.261178],
  "ImageOrientationText": "Tra>Cor(-15.1)>Sag(-0.0)",
  "ImageType": [
    "ORIGINAL",
    "PRIMARY",
    "P",
    "MB",
    "ND",
    "MOSAIC",
    "PHASE"
],
  "ImagingFrequency": 123.26,
  "InPlanePhaseEncodingDirectionDICOM": "COL",
  "InstitutionAddress": "Chemin Queen-Mary 4565,Montreal,District,CA,H3W 1W5",
  "InstitutionName": "IUGM",
  "InstitutionalDepartmentName": "Department",
  "MRAcquisitionType": "2D",
  "MagneticFieldStrength": 3,
  "Manufacturer": "Siemens",
  "ManufacturersModelName": "Prisma_fit",
  "MatrixCoilMode": "SENSE",
  "Modality": "MR",
  "MultibandAccelerationFactor": 4,
  "PartialFourier": 1,
  "PatientPosition": "HFS",
  "PercentPhaseFOV": 100,
  "PercentSampling": 100,
  "PhaseEncodingDirection": "j",
  "PhaseEncodingSteps": 104,
  "PhaseResolution": 1,
  "PixelBandwidth": 2290,
  "ProcedureStepDescription": "games^mario3",
  "ProtocolName": "func_task-mario3_run-03",
  "PulseSequenceDetails": "%CustomerSeq%\\cmrr_mbep2d_bold",
  "ReceiveCoilActiveElements": "HC1-7;NC1,2",
  "ReceiveCoilName": "HeadNeck_64",
  "ReconMatrixPE": 104,
  "RepetitionTime": 1.49,
  "SAR": 0.0581824,
  "ScanOptions": "FS",
  "ScanningSequence": "EP",
  "SequenceName": "epfid2d1_104",
  "SequenceVariant": "SK\\SS",
  "SeriesDescription": "func_task-mario3_run-03",
  "SeriesNumber": 17,
  "ShimSetting": [613, -7226, -8776, 686, 62, -75, 64, -10],
  "SliceThickness": 2,
  "SliceTiming": [0, 0.7825, 0.0975, 0.8825, 0.195, 0.98, 0.2925, 1.0775, 0.3925, 1.175, 0.49, 1.2725, 0.5875, 1.3725, 0.685, 0, 0.7825, 0.0975, 0.8825, 0.195, 0.98, 0.2925, 1.0775, 0.3925, 1.175, 0.49, 1.2725, 0.5875, 1.3725, 0.685, 0, 0.7825, 0.0975, 0.8825, 0.195, 0.98, 0.2925, 1.0775, 0.3925, 1.175, 0.49, 1.2725, 0.5875, 1.3725, 0.685, 0, 0.7825, 0.0975, 0.8825, 0.195, 0.98, 0.2925, 1.0775, 0.3925, 1.175, 0.49, 1.2725, 0.5875, 1.3725, 0.685],
  "SoftwareVersions": "syngo MR E11",
  "SpacingBetweenSlices": 2,
  "StationName": "MRC35049",
  "TaskName": "mario3",
  "TotalReadoutTime": 0.0576811,
  "TxRefAmp": 229.914,
  "WipMemBlock": "93db1adf-184b-4f91-b188-0ee7e8405abe||Sequence: R017 ve11c/master r/75a17815+; Jun 28 2022 16:32:11 by eja",
  "dcmmeta_affine": [
    [-1.9999582767486572, -0.012915311381220818, -0.0004833295533899218, 109.35244750976562],
    [-0.012340771034359932, 1.930538296699524, -0.5223693251609802, -73.38195037841797],
    [-0.003839824115857482, 0.5223554372787476, 1.9305776357650757, -57.357330322265625],
    [0.0, 0.0, 0.0, 1.0]
],
  "dcmmeta_reorient_transform": [
    [0.0, -1.0, 0.0, 103.0],
    [1.0, 0.0, 0.0, 0.0],
    [0.0, 0.0, 1.0, 0.0],
    [0.0, 0.0, 0.0, 1.0]
],
  "dcmmeta_shape": [104, 104, 60, 302],
  "dcmmeta_slice_dim": 2,
  "dcmmeta_version": 0.6,
  "global": {
    "const": {
      "AcquisitionMatrix": [104, 0, 0, 104],
      "AngioFlag": "N",
      "BitsAllocated": 16,
      "BitsStored": 16,
      "BodyPartExamined": "BRAIN",
      "Columns": 832,
      "EchoNumbers": 1,
      "EchoTime": 37.0,
      "EchoTrainLength": 104,
      "FlipAngle": 52.0,
      "HighBit": 15,
      "ImageOrientationPatient": [0.99997911992303, 0.0061703853581, -0.0019199121069, -0.0064576556194, 0.96526913479318, -0.261177709806],
      "ImagePositionPatient": [-831.30579641097, -832.67146143603, 187.98034559233],
      "ImageType": [
        "ORIGINAL",
        "PRIMARY",
        "P",
        "MB",
        "ND",
        "MOSAIC"
],
      "ImagedNucleus": "1H",
      "ImagingFrequency": 123.260208,
      "InPlanePhaseEncodingDirection": "COL",
      "LargestImagePixelValue": 4095,
      "MRAcquisitionType": "2D",
      "MagneticFieldStrength": 3.0,
      "Manufacturer": "SIEMENS",
      "ManufacturerModelName": "Prisma_fit",
      "Modality": "MR",
      "NumberOfAverages": 1.0,
      "NumberOfPhaseEncodingSteps": 104,
      "PercentPhaseFieldOfView": 100.0,
      "PercentSampling": 100.0,
      "PerformedProcedureStepStartTime": "153428.582000",
      "PhotometricInterpretation": "MONOCHROME2",
      "PixelBandwidth": 2290.0,
      "PixelRepresentation": 0,
      "PixelSpacing": [2.0, 2.0],
      "ProtocolName": "func_task-mario3_run-03",
      "RepetitionTime": 1490.0,
      "RescaleIntercept": -4096.0,
      "RescaleSlope": 2.0,
      "RescaleType": "US",
      "Rows": 832,
      "SAR": 0.05818240050453,
      "SamplesPerPixel": 1,
      "ScanOptions": "FS",
      "ScanningSequence": "EP",
      "SequenceName": "epfid2d1_104",
      "SequenceVariant": [
        "SK",
        "SS"
],
      "SeriesDescription": "func_task-mario3_run-03",
      "SeriesNumber": 17,
      "SeriesTime": "161321.942000",
      "SliceLocation": -36.226578192219,
      "SliceThickness": 2.0,
      "SmallestImagePixelValue": 0,
      "SoftwareVersions": "syngo MR E11",
      "SpacingBetweenSlices": 2.0000000006347,
      "SpecificCharacterSet": "ISO_IR 100",
      "StudyID": "1",
      "StudyTime": "153428.498000",
      "TransmitCoilName": "Body",
      "VariableFlipAngleFlag": "N",
      "WindowCenterWidthExplanation": "Algo1",
      "dBdt": 0.0},
    "slices": {}
  },
  "time": {
    "samples": {
      "AcquisitionNumber": [1, 2, 3, 4, 5, 6, 7, 8, 9, 10, 11, 12, 13, 14, 15, 16, 17, 18, 19, 20, 21, 22, 23, 24, 25, 26, 27, 28, 29, 30, 31, 32, 33, 34, 35, 36, 37, 38, 39, 40, 41, 42, 43, 44, 45, 46, 47, 48, 49, 50, 51, 52, 53, 54, 55, 56, 57, 58, 59, 60, 61, 62, 63, 64, 65, 66, 67, 68, 69, 70, 71, 72, 73, 74, 75, 76, 77, 78, 79, 80, 81, 82, 83, 84, 85, 86, 87, 88, 89, 90, 91, 92, 93, 94, 95, 96, 97, 98, 99, 100, 101, 102, 103, 104, 105, 106, 107, 108, 109, 110, 111, 112, 113, 114, 115, 116, 117, 118, 119, 120, 121, 122, 123, 124, 125, 126, 127, 128, 129, 130, 131, 132, 133, 134, 135, 136, 137, 138, 139, 140, 141, 142, 143, 144, 145, 146, 147, 148, 149, 150, 151, 152, 153, 154, 155, 156, 157, 158, 159, 160, 161, 162, 163, 164, 165, 166, 167, 168, 169, 170, 171, 172, 173, 174, 175, 176, 177, 178, 179, 180, 181, 182, 183, 184, 185, 186, 187, 188, 189, 190, 191, 192, 193, 194, 195, 196, 197, 198, 199, 200, 201, 202, 203, 204, 205, 206, 207, 208, 209, 210, 211, 212, 213, 214, 215, 216, 217, 218, 219, 220, 221, 222, 223, 224, 225, 226, 227, 228, 229, 230, 231, 232, 233, 234, 235, 236, 237, 238, 239, 240, 241, 242, 243, 244, 245, 246, 247, 248, 249, 250, 251, 252, 253, 254, 255, 256, 257, 258, 259, 260, 261, 262, 263, 264, 265, 266, 267, 268, 269, 270, 271, 272, 273, 274, 275, 276, 277, 278, 279, 280, 281, 282, 283, 284, 285, 286, 287, 288, 289, 290, 291, 292, 293, 294, 295, 296, 297, 298, 299, 300, 301, 302],
      "AcquisitionTime": ["161217.210000", "161218.700000", "161220.190000", "161221.680000", "161223.170000", "161224.660000", "161226.150000", "161227.640000", "161229.130000", "161230.620000", "161232.110000", "161233.600000", "161235.090000", "161236.580000", "161238.070000", "161239.560000", "161241.050000", "161242.540000", "161244.030000", "161245.520000", "161247.010000", "161248.500000", "161249.990000", "161251.480000", "161252.970000", "161254.460000", "161255.950000", "161257.440000", "161258.930000", "161300.420000", "161301.910000", "161303.400000", "161304.890000", "161306.380000", "161307.870000", "161309.360000", "161310.850000", "161312.340000", "161313.830000", "161315.320000", "161316.810000", "161318.300000", "161319.790000", "161321.280000", "161322.770000", "161324.260000", "161325.750000", "161327.240000", "161328.730000", "161330.220000", "161331.710000", "161333.200000", "161334.690000", "161336.180000", "161337.670000", "161339.160000", "161340.650000", "161342.140000", "161343.630000", "161345.120000", "161346.610000", "161348.100000", "161349.590000", "161351.080000", "161352.570000", "161354.060000", "161355.550000", "161357.040000", "161358.530000", "161400.020000", "161401.510000", "161403.000000", "161404.490000", "161405.980000", "161407.470000", "161408.960000", "161410.450000", "161411.940000", "161413.430000", "161414.920000", "161416.410000", "161417.900000", "161419.390000", "161420.880000", "161422.370000", "161423.860000", "161425.350000", "161426.840000", "161428.330000", "161429.820000", "161431.310000", "161432.800000", "161434.290000", "161435.780000", "161437.270000", "161438.760000", "161440.250000", "161441.740000", "161443.230000", "161444.720000", "161446.210000", "161447.700000", "161449.190000", "161450.680000", "161452.170000", "161453.660000", "161455.150000", "161456.640000", "161458.130000", "161459.620000", "161501.110000", "161502.600000", "161504.090000", "161505.580000", "161507.070000", "161508.560000", "161510.050000", "161511.540000", "161513.030000", "161514.520000", "161516.010000", "161517.500000", "161518.990000", "161520.480000", "161521.970000", "161523.460000", "161524.950000", "161526.440000", "161527.930000", "161529.420000", "161530.910000", "161532.400000", "161533.890000", "161535.380000", "161536.870000", "161538.360000", "161539.850000", "161541.340000", "161542.830000", "161544.320000", "161545.810000", "161547.300000", "161548.790000", "161550.280000", "161551.770000", "161553.260000", "161554.750000", "161556.240000", "161557.730000", "161559.220000", "161600.710000", "161602.200000", "161603.690000", "161605.180000", "161606.670000", "161608.160000", "161609.650000", "161611.140000", "161612.630000", "161614.120000", "161615.610000", "161617.100000", "161618.590000", "161620.080000", "161621.570000", "161623.060000", "161624.550000", "161626.040000", "161627.530000", "161629.020000", "161630.510000", "161632.000000", "161633.490000", "161634.980000", "161636.470000", "161637.960000", "161639.450000", "161640.940000", "161642.430000", "161643.920000", "161645.410000", "161646.900000", "161648.390000", "161649.880000", "161651.370000", "161652.860000", "161654.350000", "161655.840000", "161657.330000", "161658.820000", "161700.310000", "161701.800000", "161703.290000", "161704.780000", "161706.270000", "161707.760000", "161709.250000", "161710.740000", "161712.230000", "161713.720000", "161715.210000", "161716.700000", "161718.190000", "161719.680000", "161721.170000", "161722.660000", "161724.150000", "161725.640000", "161727.130000", "161728.620000", "161730.110000", "161731.600000", "161733.090000", "161734.580000", "161736.070000", "161737.560000", "161739.050000", "161740.540000", "161742.030000", "161743.520000", "161745.010000", "161746.500000", "161747.990000", "161749.480000", "161750.970000", "161752.460000", "161753.950000", "161755.440000", "161756.930000", "161758.420000", "161759.910000", "161801.400000", "161802.890000", "161804.380000", "161805.870000", "161807.360000", "161808.850000", "161810.340000", "161811.830000", "161813.320000", "161814.810000", "161816.300000", "161817.790000", "161819.280000", "161820.770000", "161822.260000", "161823.750000", "161825.240000", "161826.730000", "161828.220000", "161829.710000", "161831.200000", "161832.690000", "161834.180000", "161835.670000", "161837.160000", "161838.650000", "161840.140000", "161841.630000", "161843.120000", "161844.610000", "161846.100000", "161847.590000", "161849.080000", "161850.570000", "161852.060000", "161853.550000", "161855.040000", "161856.530000", "161858.020000", "161859.510000", "161901.000000", "161902.490000", "161903.980000", "161905.470000", "161906.960000", "161908.450000", "161909.940000", "161911.430000", "161912.920000", "161914.410000", "161915.900000", "161917.390000", "161918.880000", "161920.370000", "161921.860000", "161923.350000", "161924.840000", "161926.330000", "161927.820000", "161929.310000", "161930.800000", "161932.290000", "161933.780000", "161935.270000", "161936.760000", "161938.250000", "161939.740000", "161941.230000", "161942.720000", "161944.210000", "161945.700000"],
      "ContentTime": ["161321.944000", "161321.947000", "161321.949000", "161321.952000", "161321.954000", "161321.957000", "161321.959000", "161321.962000", "161321.964000", "161321.971000", "161321.973000", "161321.976000", "161321.978000", "161321.980000", "161321.983000", "161321.985000", "161341.922000", "161341.924000", "161341.927000", "161341.929000", "161341.932000", "161341.934000", "161341.937000", "161341.939000", "161341.941000", "161341.944000", "161341.947000", "161341.949000", "161341.951000", "161341.954000", "161341.956000", "161341.959000", "161341.961000", "161341.964000", "161341.966000", "161341.968000", "161401.921000", "161401.924000", "161401.926000", "161401.929000", "161401.931000", "161401.933000", "161401.936000", "161401.938000", "161401.941000", "161401.948000", "161401.950000", "161401.953000", "161401.955000", "161401.958000", "161401.960000", "161401.963000", "161401.965000", "161401.968000", "161401.970000", "161401.973000", "161401.975000", "161421.914000", "161421.923000", "161421.926000", "161421.928000", "161421.931000", "161421.933000", "161421.935000", "161421.938000", "161421.940000", "161421.943000", "161421.945000", "161421.948000", "161421.950000", "161421.953000", "161421.955000", "161421.958000", "161421.960000", "161421.963000", "161421.965000", "161421.968000", "161501.990000", "161501.992000", "161501.995000", "161501.997000", "161502.001000", "161502.003000", "161502.006000", "161502.008000", "161502.011000", "161502.013000", "161502.016000", "161502.018000", "161502.021000", "161502.023000", "161502.026000", "161502.028000", "161502.031000", "161502.033000", "161502.036000", "161502.038000", "161502.040000", "161502.043000", "161502.045000", "161502.048000", "161502.050000", "161502.053000", "161502.055000", "161502.058000", "161502.060000", "161502.063000", "161502.076000", "161502.078000", "161502.081000", "161541.960000", "161541.963000", "161541.966000", "161541.969000", "161541.971000", "161541.973000", "161541.976000", "161541.978000", "161541.981000", "161541.984000", "161541.986000", "161541.989000", "161541.991000", "161541.994000", "161541.996000", "161542.000000", "161542.002000", "161542.005000", "161542.007000", "161542.010000", "161542.012000", "161542.015000", "161542.017000", "161542.020000", "161542.022000", "161542.025000", "161621.967000", "161621.970000", "161621.972000", "161621.975000", "161621.977000", "161621.980000", "161621.982000", "161621.985000", "161621.987000", "161621.989000", "161621.992000", "161621.995000", "161621.997000", "161622.001000", "161622.003000", "161622.006000", "161622.008000", "161622.011000", "161622.013000", "161622.016000", "161622.019000", "161622.021000", "161622.024000", "161622.026000", "161622.029000", "161622.031000", "161622.033000", "161702.185000", "161702.188000", "161702.202000", "161702.204000", "161702.207000", "161702.209000", "161702.212000", "161702.214000", "161702.217000", "161702.220000", "161702.222000", "161702.225000", "161702.227000", "161702.230000", "161702.232000", "161702.235000", "161702.237000", "161702.240000", "161702.242000", "161702.245000", "161702.247000", "161702.250000", "161702.252000", "161702.255000", "161702.257000", "161702.260000", "161702.262000", "161741.949000", "161741.952000", "161741.954000", "161741.957000", "161741.960000", "161741.962000", "161741.965000", "161741.967000", "161741.970000", "161741.972000", "161741.975000", "161741.977000", "161741.980000", "161741.983000", "161741.985000", "161741.988000", "161741.990000", "161741.993000", "161741.995000", "161741.998000", "161742.001000", "161742.004000", "161742.006000", "161742.009000", "161742.011000", "161742.014000", "161742.016000", "161821.945000", "161821.948000", "161821.950000", "161821.953000", "161821.955000", "161821.958000", "161821.960000", "161821.963000", "161821.966000", "161821.968000", "161821.971000", "161821.973000", "161821.975000", "161821.978000", "161821.980000", "161821.983000", "161821.985000", "161821.988000", "161821.991000", "161821.993000", "161821.995000", "161821.998000", "161822.002000", "161822.004000", "161822.007000", "161822.009000", "161822.012000", "161901.976000", "161901.979000", "161901.981000", "161901.984000", "161901.986000", "161901.989000", "161901.991000", "161901.994000", "161901.996000", "161902.000000", "161902.002000", "161902.005000", "161902.007000", "161902.010000", "161902.012000", "161902.015000", "161902.017000", "161902.020000", "161902.022000", "161902.025000", "161902.027000", "161902.030000", "161902.032000", "161902.035000", "161902.037000", "161902.040000", "161902.042000", "161942.469000", "161942.472000", "161942.475000", "161942.477000", "161942.479000", "161942.482000", "161942.485000", "161942.487000", "161942.490000", "161942.492000", "161942.495000", "161942.497000", "161942.500000", "161942.502000", "161942.505000", "161942.507000", "161942.510000", "161942.512000", "161942.515000", "161942.517000", "161942.520000", "161942.522000", "161942.525000", "161942.527000", "161942.530000", "161942.532000", "161947.952000", "161947.955000", "161947.957000", "161947.960000", "161947.971000"],
      "InstanceCreationTime": ["161321.944000", "161321.947000", "161321.949000", "161321.952000", "161321.954000", "161321.957000", "161321.959000", "161321.962000", "161321.964000", "161321.971000", "161321.973000", "161321.976000", "161321.978000", "161321.980000", "161321.983000", "161321.985000", "161341.922000", "161341.924000", "161341.927000", "161341.929000", "161341.932000", "161341.934000", "161341.937000", "161341.939000", "161341.941000", "161341.944000", "161341.947000", "161341.949000", "161341.951000", "161341.954000", "161341.956000", "161341.959000", "161341.961000", "161341.964000", "161341.966000", "161341.968000", "161401.921000", "161401.924000", "161401.926000", "161401.929000", "161401.931000", "161401.933000", "161401.936000", "161401.938000", "161401.941000", "161401.948000", "161401.950000", "161401.953000", "161401.955000", "161401.958000", "161401.960000", "161401.963000", "161401.965000", "161401.968000", "161401.970000", "161401.973000", "161401.975000", "161421.914000", "161421.923000", "161421.926000", "161421.928000", "161421.931000", "161421.933000", "161421.935000", "161421.938000", "161421.940000", "161421.943000", "161421.945000", "161421.948000", "161421.950000", "161421.953000", "161421.955000", "161421.958000", "161421.960000", "161421.963000", "161421.965000", "161421.968000", "161501.990000", "161501.992000", "161501.995000", "161501.997000", "161502.001000", "161502.003000", "161502.006000", "161502.008000", "161502.011000", "161502.013000", "161502.016000", "161502.018000", "161502.021000", "161502.023000", "161502.026000", "161502.028000", "161502.031000", "161502.033000", "161502.036000", "161502.038000", "161502.040000", "161502.043000", "161502.045000", "161502.048000", "161502.050000", "161502.053000", "161502.055000", "161502.058000", "161502.060000", "161502.063000", "161502.076000", "161502.078000", "161502.081000", "161541.960000", "161541.963000", "161541.966000", "161541.969000", "161541.971000", "161541.973000", "161541.976000", "161541.978000", "161541.981000", "161541.984000", "161541.986000", "161541.989000", "161541.991000", "161541.994000", "161541.996000", "161542.000000", "161542.002000", "161542.005000", "161542.007000", "161542.010000", "161542.012000", "161542.015000", "161542.017000", "161542.020000", "161542.022000", "161542.025000", "161621.967000", "161621.970000", "161621.972000", "161621.975000", "161621.977000", "161621.980000", "161621.982000", "161621.985000", "161621.987000", "161621.989000", "161621.992000", "161621.995000", "161621.997000", "161622.001000", "161622.003000", "161622.006000", "161622.008000", "161622.011000", "161622.013000", "161622.016000", "161622.019000", "161622.021000", "161622.024000", "161622.026000", "161622.029000", "161622.031000", "161622.033000", "161702.185000", "161702.188000", "161702.202000", "161702.204000", "161702.207000", "161702.209000", "161702.212000", "161702.214000", "161702.217000", "161702.220000", "161702.222000", "161702.225000", "161702.227000", "161702.230000", "161702.232000", "161702.235000", "161702.237000", "161702.240000", "161702.242000", "161702.245000", "161702.247000", "161702.250000", "161702.252000", "161702.255000", "161702.257000", "161702.260000", "161702.262000", "161741.949000", "161741.952000", "161741.954000", "161741.957000", "161741.960000", "161741.962000", "161741.965000", "161741.967000", "161741.970000", "161741.972000", "161741.975000", "161741.977000", "161741.980000", "161741.983000", "161741.985000", "161741.988000", "161741.990000", "161741.993000", "161741.995000", "161741.998000", "161742.001000", "161742.004000", "161742.006000", "161742.009000", "161742.011000", "161742.014000", "161742.016000", "161821.945000", "161821.948000", "161821.950000", "161821.953000", "161821.955000", "161821.958000", "161821.960000", "161821.963000", "161821.966000", "161821.968000", "161821.971000", "161821.973000", "161821.975000", "161821.978000", "161821.980000", "161821.983000", "161821.985000", "161821.988000", "161821.991000", "161821.993000", "161821.995000", "161821.998000", "161822.002000", "161822.004000", "161822.007000", "161822.009000", "161822.012000", "161901.976000", "161901.979000", "161901.981000", "161901.984000", "161901.986000", "161901.989000", "161901.991000", "161901.994000", "161901.996000", "161902.000000", "161902.002000", "161902.005000", "161902.007000", "161902.010000", "161902.012000", "161902.015000", "161902.017000", "161902.020000", "161902.022000", "161902.025000", "161902.027000", "161902.030000", "161902.032000", "161902.035000", "161902.037000", "161902.040000", "161902.042000", "161942.469000", "161942.472000", "161942.475000", "161942.477000", "161942.479000", "161942.482000", "161942.485000", "161942.487000", "161942.490000", "161942.492000", "161942.495000", "161942.497000", "161942.500000", "161942.502000", "161942.505000", "161942.507000", "161942.510000", "161942.512000", "161942.515000", "161942.517000", "161942.520000", "161942.522000", "161942.525000", "161942.527000", "161942.530000", "161942.532000", "161947.952000", "161947.955000", "161947.957000", "161947.960000", "161947.971000"],
      "InstanceNumber": [1, 2, 3, 4, 5, 6, 7, 8, 9, 10, 11, 12, 13, 14, 15, 16, 17, 18, 19, 20, 21, 22, 23, 24, 25, 26, 27, 28, 29, 30, 31, 32, 33, 34, 35, 36, 37, 38, 39, 40, 41, 42, 43, 44, 45, 46, 47, 48, 49, 50, 51, 52, 53, 54, 55, 56, 57, 58, 59, 60, 61, 62, 63, 64, 65, 66, 67, 68, 69, 70, 71, 72, 73, 74, 75, 76, 77, 78, 79, 80, 81, 82, 83, 84, 85, 86, 87, 88, 89, 90, 91, 92, 93, 94, 95, 96, 97, 98, 99, 100, 101, 102, 103, 104, 105, 106, 107, 108, 109, 110, 111, 112, 113, 114, 115, 116, 117, 118, 119, 120, 121, 122, 123, 124, 125, 126, 127, 128, 129, 130, 131, 132, 133, 134, 135, 136, 137, 138, 139, 140, 141, 142, 143, 144, 145, 146, 147, 148, 149, 150, 151, 152, 153, 154, 155, 156, 157, 158, 159, 160, 161, 162, 163, 164, 165, 166, 167, 168, 169, 170, 171, 172, 173, 174, 175, 176, 177, 178, 179, 180, 181, 182, 183, 184, 185, 186, 187, 188, 189, 190, 191, 192, 193, 194, 195, 196, 197, 198, 199, 200, 201, 202, 203, 204, 205, 206, 207, 208, 209, 210, 211, 212, 213, 214, 215, 216, 217, 218, 219, 220, 221, 222, 223, 224, 225, 226, 227, 228, 229, 230, 231, 232, 233, 234, 235, 236, 237, 238, 239, 240, 241, 242, 243, 244, 245, 246, 247, 248, 249, 250, 251, 252, 253, 254, 255, 256, 257, 258, 259, 260, 261, 262, 263, 264, 265, 266, 267, 268, 269, 270, 271, 272, 273, 274, 275, 276, 277, 278, 279, 280, 281, 282, 283, 284, 285, 286, 287, 288, 289, 290, 291, 292, 293, 294, 295, 296, 297, 298, 299, 300, 301, 302],
      "WindowCenter": [4876.0, 4872.0, 4874.0, 4876.0, 4874.0, 4876.0, 4872.0, 4876.0, 4874.0, 4874.0, 4876.0, 4874.0, 4874.0, 4874.0, 4874.0, 4876.0, 4878.0, 4874.0, 4872.0, 4874.0, 4876.0, 4872.0, 4872.0, 4874.0, 4876.0, 4874.0, 4870.0, 4876.0, 4874.0, 4872.0, 4874.0, 4876.0, 4872.0, 4872.0, 4874.0, 4874.0, 4870.0, 4872.0, 4874.0, 4874.0, 4874.0, 4876.0, 4874.0, 4876.0, 4874.0, 4874.0, 4876.0, 4872.0, 4876.0, 4870.0, 4874.0, 4870.0, 4870.0, 4874.0, 4874.0, 4878.0, 4874.0, 4872.0, 4872.0, 4876.0, 4870.0, 4874.0, 4872.0, 4874.0, 4870.0, 4870.0, 4872.0, 4872.0, 4874.0, 4896.0, 4872.0, 4874.0, 4872.0, 4876.0, 4870.0, 4872.0, 4872.0, 4872.0, 4874.0, 4876.0, 4874.0, 4874.0, 4896.0, 4874.0, 4870.0, 4876.0, 4874.0, 4874.0, 4876.0, 4874.0, 4876.0, 4872.0, 4874.0, 4872.0, 4872.0, 4868.0, 4872.0, 4874.0, 4876.0, 4874.0, 4870.0, 4874.0, 4874.0, 4872.0, 4874.0, 4870.0, 4872.0, 4870.0, 4872.0, 4872.0, 4872.0, 4894.0, 4896.0, 4876.0, 4874.0, 4872.0, 4872.0, 4898.0, 4874.0, 4896.0, 4900.0, 4898.0, 4874.0, 4876.0, 4874.0, 4876.0, 4898.0, 4874.0, 4896.0, 4896.0, 4896.0, 4898.0, 4876.0, 4896.0, 4876.0, 4874.0, 4876.0, 4874.0, 4896.0, 4872.0, 4876.0, 4874.0, 4874.0, 4878.0, 4900.0, 4876.0, 4870.0, 4870.0, 4872.0, 4898.0, 4878.0, 4876.0, 4874.0, 4900.0, 4876.0, 4876.0, 4878.0, 4902.0, 4894.0, 4896.0, 4894.0, 4898.0, 4876.0, 4876.0, 4882.0, 4900.0, 4876.0, 4900.0, 4874.0, 4876.0, 4896.0, 4894.0, 4898.0, 4874.0, 4874.0, 4878.0, 4876.0, 4896.0, 4896.0, 4876.0, 4900.0, 4876.0, 4898.0, 4876.0, 4898.0, 4874.0, 4896.0, 4898.0, 4902.0, 4874.0, 4900.0, 4898.0, 4898.0, 4900.0, 4876.0, 4900.0, 4900.0, 4896.0, 4898.0, 4898.0, 4898.0, 4876.0, 4896.0, 4898.0, 4872.0, 4898.0, 4898.0, 4898.0, 4876.0, 4896.0, 4896.0, 4878.0, 4896.0, 4898.0, 4896.0, 4894.0, 4890.0, 4898.0, 4876.0, 4874.0, 4878.0, 4872.0, 4872.0, 4868.0, 4870.0, 4870.0, 4894.0, 4896.0, 4898.0, 4874.0, 4876.0, 4874.0, 4876.0, 4874.0, 4896.0, 4870.0, 4894.0, 4894.0, 4874.0, 4900.0, 4878.0, 4900.0, 4898.0, 4898.0, 4898.0, 4876.0, 4896.0, 4896.0, 4896.0, 4898.0, 4900.0, 4876.0, 4874.0, 4898.0, 4876.0, 4872.0, 4874.0, 4896.0, 4872.0, 4900.0, 4870.0, 4896.0, 4874.0, 4894.0, 4896.0, 4870.0, 4874.0, 4896.0, 4876.0, 4876.0, 4876.0, 4870.0, 4894.0, 4876.0, 4900.0, 4902.0, 4878.0, 4878.0, 4878.0, 4878.0, 4874.0, 4876.0, 4876.0, 4876.0, 4892.0, 4868.0, 4868.0, 4894.0, 4876.0, 4878.0, 4878.0, 4878.0, 4880.0, 4898.0, 4878.0, 4878.0, 4876.0, 4874.0, 4894.0, 4872.0, 4874.0, 4876.0],
      "WindowWidth": [18664.0, 18668.0, 18670.0, 18666.0, 18672.0, 18676.0, 18670.0, 18674.0, 18672.0, 18674.0, 18676.0, 18674.0, 18670.0, 18662.0, 18672.0, 18672.0, 18676.0, 18672.0, 18674.0, 18678.0, 18676.0, 18672.0, 18668.0, 18674.0, 18674.0, 18672.0, 18674.0, 18672.0, 18674.0, 18676.0, 18676.0, 18668.0, 18670.0, 18666.0, 18670.0, 18668.0, 18668.0, 18674.0, 18674.0, 18676.0, 18670.0, 18678.0, 18674.0, 18678.0, 18674.0, 18670.0, 18678.0, 18682.0, 18674.0, 18672.0, 18672.0, 18672.0, 18682.0, 18676.0, 18682.0, 18674.0, 18666.0, 18670.0, 18670.0, 18676.0, 18670.0, 18680.0, 18676.0, 18680.0, 18676.0, 18676.0, 18674.0, 18672.0, 18672.0, 18704.0, 18670.0, 18676.0, 18680.0, 18680.0, 18680.0, 18682.0, 18680.0, 18678.0, 18670.0, 18668.0, 18674.0, 18682.0, 18706.0, 18682.0, 18674.0, 18676.0, 18678.0, 18678.0, 18672.0, 18682.0, 18678.0, 18670.0, 18672.0, 18676.0, 18682.0, 18684.0, 18684.0, 18684.0, 18676.0, 18676.0, 18670.0, 18672.0, 18676.0, 18668.0, 18674.0, 18672.0, 18674.0, 18674.0, 18686.0, 18680.0, 18678.0, 18708.0, 18710.0, 18670.0, 18676.0, 18684.0, 18682.0, 18720.0, 18686.0, 18708.0, 18716.0, 18706.0, 18668.0, 18666.0, 18672.0, 18680.0, 18708.0, 18680.0, 18712.0, 18718.0, 18706.0, 18706.0, 18678.0, 18702.0, 18674.0, 18674.0, 18678.0, 18676.0, 18710.0, 18680.0, 18682.0, 18678.0, 18676.0, 18676.0, 18710.0, 18686.0, 18682.0, 18684.0, 18680.0, 18714.0, 18682.0, 18678.0, 18688.0, 18710.0, 18674.0, 18674.0, 18676.0, 18718.0, 18720.0, 18714.0, 18714.0, 18702.0, 18674.0, 18678.0, 18672.0, 18700.0, 18676.0, 18712.0, 18672.0, 18676.0, 18712.0, 18714.0, 18718.0, 18684.0, 18684.0, 18678.0, 18676.0, 18710.0, 18704.0, 18676.0, 18706.0, 18674.0, 18712.0, 18680.0, 18712.0, 18678.0, 18710.0, 18714.0, 18720.0, 18680.0, 18712.0, 18710.0, 18718.0, 18712.0, 18680.0, 18714.0, 18712.0, 18710.0, 18704.0, 18716.0, 18708.0, 18678.0, 18708.0, 18706.0, 18680.0, 18714.0, 18708.0, 18718.0, 18684.0, 18710.0, 18708.0, 18682.0, 18712.0, 18706.0, 18712.0, 18722.0, 18716.0, 18704.0, 18670.0, 18664.0, 18670.0, 18676.0, 18674.0, 18678.0, 18684.0, 18684.0, 18716.0, 18714.0, 18712.0, 18676.0, 18674.0, 18680.0, 18678.0, 18678.0, 18716.0, 18688.0, 18714.0, 18708.0, 18684.0, 18704.0, 18674.0, 18704.0, 18710.0, 18708.0, 18710.0, 18684.0, 18716.0, 18716.0, 18716.0, 18712.0, 18708.0, 18670.0, 18672.0, 18706.0, 18680.0, 18676.0, 18680.0, 18712.0, 18682.0, 18710.0, 18666.0, 18704.0, 18680.0, 18718.0, 18706.0, 18680.0, 18680.0, 18708.0, 18684.0, 18686.0, 18686.0, 18692.0, 18718.0, 18680.0, 18708.0, 18706.0, 18676.0, 18674.0, 18676.0, 18684.0, 18684.0, 18690.0, 18666.0, 18668.0, 18718.0, 18692.0, 18690.0, 18716.0, 18682.0, 18672.0, 18664.0, 18664.0, 18666.0, 18702.0, 18674.0, 18680.0, 18678.0, 18680.0, 18712.0, 18682.0, 18678.0, 18682.0]
    },
    "slices": {}
  }
}