{
  "AcquisitionMatrixPE": 104,
  "AcquisitionNumber": 1,
  "AcquisitionTime": "16:21:31.185000",
  "BandwidthPerPixelPhaseEncode": 17.17,
  "BaseResolution": 104,
  "BodyPartExamined": "BRAIN",
  "CoilCombinationMethod": "Sum of Squares",
  "ConsistencyInfo": "N4_VE11C_LATEST_20160120",
  "ConversionSoftware": "dcm2niix",
  "ConversionSoftwareVersion": "v1.0.20220505",
  "DerivedVendorReportedEchoSpacing": 0.000560011,
  "DeviceSerialNumber": "167006",
  "DwellTime": 2.1e-06,
  "EchoTime": 0.037,
  "EchoTrainLength": 104,
  "EffectiveEchoSpacing": 0.000560011,
  "FlipAngle": 52,
  "HeudiconvVersion": "0.5.3.post811+g6206e14",
  "ImageComments": "Unaliased MB4/PE3/LB",
  "ImageOrientationPatientDICOM": [0.999979, 0.00617039, -0.00191991, -0.00645766, 0.965269, -0.261178],
  "ImageOrientationText": "Tra>Cor(-15.1)>Sag(-0.0)",
  "ImageType": [
    "ORIGINAL",
    "PRIMARY",
    "M",
    "MB",
    "ND",
    "MOSAIC"
],
  "ImagingFrequency": 123.26,
  "InPlanePhaseEncodingDirectionDICOM": "COL",
  "InstitutionAddress": "Chemin Queen-Mary 4565,Montreal,District,CA,H3W 1W5",
  "InstitutionName": "IUGM",
  "InstitutionalDepartmentName": "Department",
  "MRAcquisitionType": "2D",
  "MagneticFieldStrength": 3,
  "Manufacturer": "Siemens",
  "ManufacturersModelName": "Prisma_fit",
  "MatrixCoilMode": "SENSE",
  "Modality": "MR",
  "MultibandAccelerationFactor": 4,
  "PartialFourier": 1,
  "PatientPosition": "HFS",
  "PercentPhaseFOV": 100,
  "PercentSampling": 100,
  "PhaseEncodingDirection": "j",
  "PhaseEncodingSteps": 104,
  "PhaseResolution": 1,
  "PixelBandwidth": 2290,
  "ProcedureStepDescription": "games^mario3",
  "ProtocolName": "func_task-mario3_run-04",
  "PulseSequenceDetails": "%CustomerSeq%\\cmrr_mbep2d_bold",
  "ReceiveCoilActiveElements": "HC1-7;NC1,2",
  "ReceiveCoilName": "HeadNeck_64",
  "ReconMatrixPE": 104,
  "RepetitionTime": 1.49,
  "SAR": 0.0581824,
  "ScanOptions": "FS",
  "ScanningSequence": "EP",
  "SequenceName": "epfid2d1_104",
  "SequenceVariant": "SK\\SS",
  "SeriesDescription": "func_task-mario3_run-04",
  "SeriesNumber": 19,
  "ShimSetting": [613, -7226, -8776, 686, 62, -75, 64, -10],
  "SliceThickness": 2,
  "SliceTiming": [0, 0.7825, 0.0975, 0.88, 0.195, 0.98, 0.2925, 1.0775, 0.39, 1.175, 0.49, 1.2725, 0.5875, 1.37, 0.685, 0, 0.7825, 0.0975, 0.88, 0.195, 0.98, 0.2925, 1.0775, 0.39, 1.175, 0.49, 1.2725, 0.5875, 1.37, 0.685, 0, 0.7825, 0.0975, 0.88, 0.195, 0.98, 0.2925, 1.0775, 0.39, 1.175, 0.49, 1.2725, 0.5875, 1.37, 0.685, 0, 0.7825, 0.0975, 0.88, 0.195, 0.98, 0.2925, 1.0775, 0.39, 1.175, 0.49, 1.2725, 0.5875, 1.37, 0.685],
  "SoftwareVersions": "syngo MR E11",
  "SpacingBetweenSlices": 2,
  "StationName": "MRC35049",
  "TaskName": "mario3",
  "TotalReadoutTime": 0.0576811,
  "TxRefAmp": 229.914,
  "WipMemBlock": "14e1e246-e5f2-46e0-ad8c-8514eb8dba61||Sequence: R017 ve11c/master r/75a17815+; Jun 28 2022 16:32:11 by eja",
  "dcmmeta_affine": [
    [-1.9999582767486572, -0.012915311381220818, -0.0004833295533899218, 109.35244750976562],
    [-0.012340771034359932, 1.930538296699524, -0.5223693251609802, -73.38195037841797],
    [-0.003839824115857482, 0.5223554372787476, 1.9305776357650757, -57.357330322265625],
    [0.0, 0.0, 0.0, 1.0]
],
  "dcmmeta_reorient_transform": [
    [0.0, -1.0, 0.0, 103.0],
    [1.0, 0.0, 0.0, 0.0],
    [0.0, 0.0, 1.0, 0.0],
    [0.0, 0.0, 0.0, 1.0]
],
  "dcmmeta_shape": [104, 104, 60, 366],
  "dcmmeta_slice_dim": 2,
  "dcmmeta_version": 0.6,
  "global": {
    "const": {
      "AcquisitionMatrix": [104, 0, 0, 104],
      "AngioFlag": "N",
      "BitsAllocated": 16,
      "BitsStored": 16,
      "BodyPartExamined": "BRAIN",
      "Columns": 832,
      "EchoNumbers": 1,
      "EchoTime": 37.0,
      "EchoTrainLength": 104,
      "FlipAngle": 52.0,
      "HighBit": 15,
      "ImageOrientationPatient": [0.99997911992303, 0.0061703853581, -0.0019199121069, -0.0064576556194, 0.96526913479318, -0.261177709806],
      "ImagePositionPatient": [-831.30579641097, -832.67146143603, 187.98034559233],
      "ImageType": [
        "ORIGINAL",
        "PRIMARY",
        "M",
        "MB",
        "ND",
        "MOSAIC"
],
      "ImagedNucleus": "1H",
      "ImagingFrequency": 123.260211,
      "InPlanePhaseEncodingDirection": "COL",
      "MRAcquisitionType": "2D",
      "MagneticFieldStrength": 3.0,
      "Manufacturer": "SIEMENS",
      "ManufacturerModelName": "Prisma_fit",
      "Modality": "MR",
      "NumberOfAverages": 1.0,
      "NumberOfPhaseEncodingSteps": 104,
      "PercentPhaseFieldOfView": 100.0,
      "PercentSampling": 100.0,
      "PerformedProcedureStepStartTime": "153428.582000",
      "PhotometricInterpretation": "MONOCHROME2",
      "PixelBandwidth": 2290.0,
      "PixelRepresentation": 0,
      "PixelSpacing": [2.0, 2.0],
      "ProtocolName": "func_task-mario3_run-04",
      "RepetitionTime": 1490.0,
      "Rows": 832,
      "SAR": 0.05818240050453,
      "SamplesPerPixel": 1,
      "ScanOptions": "FS",
      "ScanningSequence": "EP",
      "SequenceName": "epfid2d1_104",
      "SequenceVariant": [
        "SK",
        "SS"
],
      "SeriesDescription": "func_task-mario3_run-04",
      "SeriesNumber": 19,
      "SeriesTime": "162244.043000",
      "SliceLocation": -36.226578192219,
      "SliceThickness": 2.0,
      "SmallestImagePixelValue": 0,
      "SoftwareVersions": "syngo MR E11",
      "SpacingBetweenSlices": 2.0000000006347,
      "SpecificCharacterSet": "ISO_IR 100",
      "StudyID": "1",
      "StudyTime": "153428.498000",
      "TransmitCoilName": "Body",
      "VariableFlipAngleFlag": "N",
      "WindowCenterWidthExplanation": "Algo1",
      "dBdt": 0.0},
    "slices": {}
  },
  "time": {
    "samples": {
      "AcquisitionNumber": [1, 2, 3, 4, 5, 6, 7, 8, 9, 10, 11, 12, 13, 14, 15, 16, 17, 18, 19, 20, 21, 22, 23, 24, 25, 26, 27, 28, 29, 30, 31, 32, 33, 34, 35, 36, 37, 38, 39, 40, 41, 42, 43, 44, 45, 46, 47, 48, 49, 50, 51, 52, 53, 54, 55, 56, 57, 58, 59, 60, 61, 62, 63, 64, 65, 66, 67, 68, 69, 70, 71, 72, 73, 74, 75, 76, 77, 78, 79, 80, 81, 82, 83, 84, 85, 86, 87, 88, 89, 90, 91, 92, 93, 94, 95, 96, 97, 98, 99, 100, 101, 102, 103, 104, 105, 106, 107, 108, 109, 110, 111, 112, 113, 114, 115, 116, 117, 118, 119, 120, 121, 122, 123, 124, 125, 126, 127, 128, 129, 130, 131, 132, 133, 134, 135, 136, 137, 138, 139, 140, 141, 142, 143, 144, 145, 146, 147, 148, 149, 150, 151, 152, 153, 154, 155, 156, 157, 158, 159, 160, 161, 162, 163, 164, 165, 166, 167, 168, 169, 170, 171, 172, 173, 174, 175, 176, 177, 178, 179, 180, 181, 182, 183, 184, 185, 186, 187, 188, 189, 190, 191, 192, 193, 194, 195, 196, 197, 198, 199, 200, 201, 202, 203, 204, 205, 206, 207, 208, 209, 210, 211, 212, 213, 214, 215, 216, 217, 218, 219, 220, 221, 222, 223, 224, 225, 226, 227, 228, 229, 230, 231, 232, 233, 234, 235, 236, 237, 238, 239, 240, 241, 242, 243, 244, 245, 246, 247, 248, 249, 250, 251, 252, 253, 254, 255, 256, 257, 258, 259, 260, 261, 262, 263, 264, 265, 266, 267, 268, 269, 270, 271, 272, 273, 274, 275, 276, 277, 278, 279, 280, 281, 282, 283, 284, 285, 286, 287, 288, 289, 290, 291, 292, 293, 294, 295, 296, 297, 298, 299, 300, 301, 302, 303, 304, 305, 306, 307, 308, 309, 310, 311, 312, 313, 314, 315, 316, 317, 318, 319, 320, 321, 322, 323, 324, 325, 326, 327, 328, 329, 330, 331, 332, 333, 334, 335, 336, 337, 338, 339, 340, 341, 342, 343, 344, 345, 346, 347, 348, 349, 350, 351, 352, 353, 354, 355, 356, 357, 358, 359, 360, 361, 362, 363, 364, 365, 366],
      "AcquisitionTime": ["162131.185000", "162132.675000", "162134.165000", "162135.655000", "162137.145000", "162138.635000", "162140.125000", "162141.615000", "162143.105000", "162144.595000", "162146.085000", "162147.575000", "162149.065000", "162150.555000", "162152.045000", "162153.535000", "162155.025000", "162156.515000", "162158.005000", "162159.495000", "162200.985000", "162202.475000", "162203.965000", "162205.455000", "162206.945000", "162208.435000", "162209.925000", "162211.415000", "162212.905000", "162214.395000", "162215.885000", "162217.375000", "162218.865000", "162220.355000", "162221.845000", "162223.335000", "162224.825000", "162226.315000", "162227.805000", "162229.295000", "162230.785000", "162232.275000", "162233.765000", "162235.255000", "162236.745000", "162238.235000", "162239.725000", "162241.215000", "162242.705000", "162244.195000", "162245.685000", "162247.175000", "162248.665000", "162250.155000", "162251.645000", "162253.135000", "162254.625000", "162256.115000", "162257.605000", "162259.095000", "162300.585000", "162302.075000", "162303.565000", "162305.055000", "162306.545000", "162308.035000", "162309.525000", "162311.015000", "162312.505000", "162313.995000", "162315.485000", "162316.975000", "162318.465000", "162319.955000", "162321.445000", "162322.935000", "162324.425000", "162325.915000", "162327.405000", "162328.895000", "162330.385000", "162331.875000", "162333.365000", "162334.855000", "162336.345000", "162337.835000", "162339.325000", "162340.815000", "162342.305000", "162343.795000", "162345.285000", "162346.775000", "162348.265000", "162349.755000", "162351.245000", "162352.735000", "162354.225000", "162355.715000", "162357.205000", "162358.695000", "162400.185000", "162401.675000", "162403.165000", "162404.655000", "162406.145000", "162407.635000", "162409.125000", "162410.615000", "162412.105000", "162413.595000", "162415.085000", "162416.575000", "162418.065000", "162419.555000", "162421.045000", "162422.535000", "162424.025000", "162425.515000", "162427.005000", "162428.495000", "162429.985000", "162431.475000", "162432.965000", "162434.455000", "162435.945000", "162437.435000", "162438.925000", "162440.415000", "162441.905000", "162443.395000", "162444.885000", "162446.375000", "162447.865000", "162449.355000", "162450.845000", "162452.335000", "162453.825000", "162455.315000", "162456.805000", "162458.295000", "162459.785000", "162501.275000", "162502.765000", "162504.255000", "162505.745000", "162507.235000", "162508.725000", "162510.215000", "162511.705000", "162513.195000", "162514.685000", "162516.175000", "162517.665000", "162519.155000", "162520.645000", "162522.135000", "162523.625000", "162525.115000", "162526.605000", "162528.095000", "162529.585000", "162531.075000", "162532.565000", "162534.055000", "162535.545000", "162537.035000", "162538.525000", "162540.015000", "162541.505000", "162542.995000", "162544.485000", "162545.975000", "162547.465000", "162548.955000", "162550.445000", "162551.935000", "162553.425000", "162554.915000", "162556.405000", "162557.895000", "162559.385000", "162600.875000", "162602.365000", "162603.855000", "162605.345000", "162606.835000", "162608.325000", "162609.815000", "162611.305000", "162612.795000", "162614.285000", "162615.775000", "162617.265000", "162618.755000", "162620.245000", "162621.735000", "162623.225000", "162624.715000", "162626.205000", "162627.695000", "162629.185000", "162630.675000", "162632.165000", "162633.655000", "162635.145000", "162636.635000", "162638.125000", "162639.615000", "162641.105000", "162642.595000", "162644.085000", "162645.575000", "162647.065000", "162648.555000", "162650.045000", "162651.535000", "162653.025000", "162654.515000", "162656.005000", "162657.495000", "162658.985000", "162700.475000", "162701.965000", "162703.455000", "162704.945000", "162706.435000", "162707.925000", "162709.415000", "162710.905000", "162712.395000", "162713.885000", "162715.375000", "162716.865000", "162718.355000", "162719.845000", "162721.335000", "162722.825000", "162724.315000", "162725.805000", "162727.295000", "162728.785000", "162730.275000", "162731.765000", "162733.255000", "162734.745000", "162736.235000", "162737.725000", "162739.215000", "162740.705000", "162742.195000", "162743.685000", "162745.175000", "162746.665000", "162748.155000", "162749.645000", "162751.135000", "162752.625000", "162754.115000", "162755.605000", "162757.095000", "162758.585000", "162800.075000", "162801.565000", "162803.055000", "162804.545000", "162806.035000", "162807.525000", "162809.015000", "162810.505000", "162811.995000", "162813.485000", "162814.975000", "162816.465000", "162817.955000", "162819.445000", "162820.935000", "162822.425000", "162823.915000", "162825.405000", "162826.895000", "162828.385000", "162829.875000", "162831.365000", "162832.855000", "162834.345000", "162835.835000", "162837.325000", "162838.815000", "162840.305000", "162841.795000", "162843.285000", "162844.775000", "162846.265000", "162847.755000", "162849.245000", "162850.735000", "162852.225000", "162853.715000", "162855.205000", "162856.695000", "162858.185000", "162859.675000", "162901.165000", "162902.655000", "162904.145000", "162905.635000", "162907.125000", "162908.615000", "162910.105000", "162911.595000", "162913.085000", "162914.575000", "162916.065000", "162917.555000", "162919.045000", "162920.535000", "162922.025000", "162923.515000", "162925.005000", "162926.495000", "162927.985000", "162929.475000", "162930.965000", "162932.455000", "162933.945000", "162935.435000", "162936.925000", "162938.415000", "162939.905000", "162941.395000", "162942.885000", "162944.375000", "162945.865000", "162947.355000", "162948.845000", "162950.335000", "162951.825000", "162953.315000", "162954.805000", "162956.295000", "162957.785000", "162959.275000", "163000.765000", "163002.255000", "163003.745000", "163005.235000", "163006.725000", "163008.215000", "163009.705000", "163011.195000", "163012.685000", "163014.175000", "163015.665000", "163017.155000", "163018.645000", "163020.135000", "163021.625000", "163023.115000", "163024.605000", "163026.095000", "163027.585000", "163029.075000", "163030.565000", "163032.055000", "163033.545000", "163035.035000"],
      "ContentTime": ["162244.046000", "162244.049000", "162244.053000", "162244.056000", "162244.059000", "162244.063000", "162244.066000", "162244.069000", "162244.073000", "162244.083000", "162244.086000", "162244.089000", "162244.093000", "162244.111000", "162244.114000", "162244.117000", "162244.121000", "162244.124000", "162244.127000", "162244.130000", "162244.134000", "162244.137000", "162304.003000", "162304.007000", "162304.010000", "162304.021000", "162304.024000", "162304.027000", "162304.030000", "162304.034000", "162304.037000", "162304.040000", "162304.061000", "162304.064000", "162304.067000", "162304.074000", "162304.077000", "162304.080000", "162304.083000", "162304.087000", "162304.090000", "162304.093000", "162324.003000", "162324.007000", "162324.010000", "162324.013000", "162324.017000", "162324.020000", "162324.023000", "162324.026000", "162324.030000", "162324.033000", "162324.037000", "162324.040000", "162324.043000", "162324.047000", "162324.058000", "162324.061000", "162324.064000", "162324.068000", "162324.071000", "162324.074000", "162344.003000", "162344.007000", "162344.010000", "162344.014000", "162344.017000", "162344.020000", "162344.024000", "162344.027000", "162344.030000", "162344.033000", "162344.037000", "162344.040000", "162344.043000", "162344.047000", "162344.050000", "162344.053000", "162344.056000", "162344.060000", "162344.071000", "162344.074000", "162344.077000", "162424.004000", "162424.008000", "162424.011000", "162424.015000", "162424.018000", "162424.021000", "162424.024000", "162424.028000", "162424.031000", "162424.034000", "162424.051000", "162424.054000", "162424.058000", "162424.061000", "162424.064000", "162424.068000", "162424.071000", "162424.074000", "162424.077000", "162424.081000", "162424.084000", "162424.087000", "162424.090000", "162424.094000", "162424.097000", "162424.100000", "162424.104000", "162424.107000", "162424.110000", "162424.113000", "162424.117000", "162424.120000", "162504.003000", "162504.015000", "162504.018000", "162504.021000", "162504.025000", "162504.028000", "162504.031000", "162504.034000", "162504.038000", "162504.041000", "162504.044000", "162504.048000", "162504.051000", "162504.054000", "162504.057000", "162504.061000", "162504.081000", "162504.084000", "162504.087000", "162504.091000", "162504.094000", "162504.097000", "162504.100000", "162504.104000", "162504.107000", "162504.110000", "162504.114000", "162544.003000", "162544.007000", "162544.021000", "162544.024000", "162544.027000", "162544.031000", "162544.034000", "162544.037000", "162544.040000", "162544.044000", "162544.047000", "162544.050000", "162544.054000", "162544.057000", "162544.060000", "162544.063000", "162544.067000", "162544.070000", "162544.073000", "162544.077000", "162544.080000", "162544.084000", "162544.087000", "162544.090000", "162544.094000", "162544.098000", "162624.004000", "162624.008000", "162624.012000", "162624.015000", "162624.018000", "162624.021000", "162624.025000", "162624.028000", "162624.031000", "162624.035000", "162624.038000", "162624.048000", "162624.052000", "162624.055000", "162624.058000", "162624.062000", "162624.065000", "162624.068000", "162624.071000", "162624.075000", "162624.078000", "162624.081000", "162624.085000", "162624.088000", "162624.091000", "162624.095000", "162624.098000", "162704.003000", "162704.007000", "162704.010000", "162704.013000", "162704.017000", "162704.020000", "162704.023000", "162704.027000", "162704.030000", "162704.033000", "162704.036000", "162704.040000", "162704.043000", "162704.046000", "162704.049000", "162704.053000", "162704.064000", "162704.067000", "162704.070000", "162704.074000", "162704.077000", "162704.080000", "162704.083000", "162704.087000", "162704.090000", "162704.093000", "162704.097000", "162744.003000", "162744.007000", "162744.010000", "162744.013000", "162744.017000", "162744.020000", "162744.023000", "162744.026000", "162744.030000", "162744.033000", "162744.036000", "162744.040000", "162744.043000", "162744.046000", "162744.050000", "162744.053000", "162744.056000", "162744.059000", "162744.063000", "162744.066000", "162744.069000", "162744.073000", "162744.076000", "162744.079000", "162744.082000", "162744.085000", "162744.089000", "162824.003000", "162824.007000", "162824.010000", "162824.014000", "162824.017000", "162824.020000", "162824.024000", "162824.027000", "162824.030000", "162824.033000", "162824.037000", "162824.040000", "162824.043000", "162824.046000", "162824.055000", "162824.058000", "162824.061000", "162824.065000", "162824.068000", "162824.071000", "162824.075000", "162824.078000", "162824.081000", "162824.084000", "162824.089000", "162824.092000", "162824.095000", "162904.004000", "162904.008000", "162904.011000", "162904.014000", "162904.018000", "162904.021000", "162904.024000", "162904.028000", "162904.031000", "162904.034000", "162904.038000", "162904.041000", "162904.044000", "162904.047000", "162904.051000", "162904.054000", "162904.057000", "162904.061000", "162904.064000", "162904.067000", "162904.070000", "162904.074000", "162904.077000", "162904.080000", "162904.083000", "162904.087000", "162904.090000", "162944.003000", "162944.007000", "162944.011000", "162944.014000", "162944.017000", "162944.021000", "162944.024000", "162944.027000", "162944.031000", "162944.034000", "162944.037000", "162944.041000", "162944.044000", "162944.047000", "162944.051000", "162944.054000", "162944.057000", "162944.074000", "162944.077000", "162944.080000", "162944.084000", "162944.087000", "162944.090000", "162944.093000", "162944.097000", "162944.100000", "162944.103000", "163024.003000", "163024.007000", "163024.010000", "163024.014000", "163024.017000", "163024.020000", "163024.024000", "163024.027000", "163024.030000", "163024.034000", "163024.037000", "163024.040000", "163024.043000", "163024.047000", "163024.050000", "163024.053000", "163024.057000", "163024.060000", "163024.063000", "163024.067000", "163024.070000", "163024.074000", "163024.077000", "163024.081000", "163024.084000", "163024.087000", "163037.858000", "163037.862000", "163037.865000", "163037.869000", "163037.874000", "163037.877000", "163037.881000", "163037.884000", "163037.888000", "163037.891000"],
      "InstanceCreationTime": ["162244.046000", "162244.049000", "162244.053000", "162244.056000", "162244.059000", "162244.063000", "162244.066000", "162244.069000", "162244.073000", "162244.083000", "162244.086000", "162244.089000", "162244.093000", "162244.111000", "162244.114000", "162244.117000", "162244.121000", "162244.124000", "162244.127000", "162244.130000", "162244.134000", "162244.137000", "162304.003000", "162304.007000", "162304.010000", "162304.021000", "162304.024000", "162304.027000", "162304.030000", "162304.034000", "162304.037000", "162304.040000", "162304.061000", "162304.064000", "162304.067000", "162304.074000", "162304.077000", "162304.080000", "162304.083000", "162304.087000", "162304.090000", "162304.093000", "162324.003000", "162324.007000", "162324.010000", "162324.013000", "162324.017000", "162324.020000", "162324.023000", "162324.026000", "162324.030000", "162324.033000", "162324.037000", "162324.040000", "162324.043000", "162324.047000", "162324.058000", "162324.061000", "162324.064000", "162324.068000", "162324.071000", "162324.074000", "162344.003000", "162344.007000", "162344.010000", "162344.014000", "162344.017000", "162344.020000", "162344.024000", "162344.027000", "162344.030000", "162344.033000", "162344.037000", "162344.040000", "162344.043000", "162344.047000", "162344.050000", "162344.053000", "162344.056000", "162344.060000", "162344.071000", "162344.074000", "162344.077000", "162424.004000", "162424.008000", "162424.011000", "162424.015000", "162424.018000", "162424.021000", "162424.024000", "162424.028000", "162424.031000", "162424.034000", "162424.051000", "162424.054000", "162424.058000", "162424.061000", "162424.064000", "162424.068000", "162424.071000", "162424.074000", "162424.077000", "162424.081000", "162424.084000", "162424.087000", "162424.090000", "162424.094000", "162424.097000", "162424.100000", "162424.104000", "162424.107000", "162424.110000", "162424.113000", "162424.117000", "162424.120000", "162504.003000", "162504.015000", "162504.018000", "162504.021000", "162504.025000", "162504.028000", "162504.031000", "162504.034000", "162504.038000", "162504.041000", "162504.044000", "162504.048000", "162504.051000", "162504.054000", "162504.057000", "162504.061000", "162504.081000", "162504.084000", "162504.087000", "162504.091000", "162504.094000", "162504.097000", "162504.100000", "162504.104000", "162504.107000", "162504.110000", "162504.114000", "162544.003000", "162544.007000", "162544.021000", "162544.024000", "162544.027000", "162544.031000", "162544.034000", "162544.037000", "162544.040000", "162544.044000", "162544.047000", "162544.050000", "162544.054000", "162544.057000", "162544.060000", "162544.063000", "162544.067000", "162544.070000", "162544.073000", "162544.077000", "162544.080000", "162544.084000", "162544.087000", "162544.090000", "162544.094000", "162544.098000", "162624.004000", "162624.008000", "162624.012000", "162624.015000", "162624.018000", "162624.021000", "162624.025000", "162624.028000", "162624.031000", "162624.035000", "162624.038000", "162624.048000", "162624.052000", "162624.055000", "162624.058000", "162624.062000", "162624.065000", "162624.068000", "162624.071000", "162624.075000", "162624.078000", "162624.081000", "162624.085000", "162624.088000", "162624.091000", "162624.095000", "162624.098000", "162704.003000", "162704.007000", "162704.010000", "162704.013000", "162704.017000", "162704.020000", "162704.023000", "162704.027000", "162704.030000", "162704.033000", "162704.036000", "162704.040000", "162704.043000", "162704.046000", "162704.049000", "162704.053000", "162704.064000", "162704.067000", "162704.070000", "162704.074000", "162704.077000", "162704.080000", "162704.083000", "162704.087000", "162704.090000", "162704.093000", "162704.097000", "162744.003000", "162744.007000", "162744.010000", "162744.013000", "162744.017000", "162744.020000", "162744.023000", "162744.026000", "162744.030000", "162744.033000", "162744.036000", "162744.040000", "162744.043000", "162744.046000", "162744.050000", "162744.053000", "162744.056000", "162744.059000", "162744.063000", "162744.066000", "162744.069000", "162744.073000", "162744.076000", "162744.079000", "162744.082000", "162744.085000", "162744.089000", "162824.003000", "162824.007000", "162824.010000", "162824.014000", "162824.017000", "162824.020000", "162824.024000", "162824.027000", "162824.030000", "162824.033000", "162824.037000", "162824.040000", "162824.043000", "162824.046000", "162824.055000", "162824.058000", "162824.061000", "162824.065000", "162824.068000", "162824.071000", "162824.075000", "162824.078000", "162824.081000", "162824.084000", "162824.089000", "162824.092000", "162824.095000", "162904.004000", "162904.008000", "162904.011000", "162904.014000", "162904.018000", "162904.021000", "162904.024000", "162904.028000", "162904.031000", "162904.034000", "162904.038000", "162904.041000", "162904.044000", "162904.047000", "162904.051000", "162904.054000", "162904.057000", "162904.061000", "162904.064000", "162904.067000", "162904.070000", "162904.074000", "162904.077000", "162904.080000", "162904.083000", "162904.087000", "162904.090000", "162944.003000", "162944.007000", "162944.011000", "162944.014000", "162944.017000", "162944.021000", "162944.024000", "162944.027000", "162944.031000", "162944.034000", "162944.037000", "162944.041000", "162944.044000", "162944.047000", "162944.051000", "162944.054000", "162944.057000", "162944.074000", "162944.077000", "162944.080000", "162944.084000", "162944.087000", "162944.090000", "162944.093000", "162944.097000", "162944.100000", "162944.103000", "163024.003000", "163024.007000", "163024.010000", "163024.014000", "163024.017000", "163024.020000", "163024.024000", "163024.027000", "163024.030000", "163024.034000", "163024.037000", "163024.040000", "163024.043000", "163024.047000", "163024.050000", "163024.053000", "163024.057000", "163024.060000", "163024.063000", "163024.067000", "163024.070000", "163024.074000", "163024.077000", "163024.081000", "163024.084000", "163024.087000", "163037.858000", "163037.862000", "163037.865000", "163037.869000", "163037.874000", "163037.877000", "163037.881000", "163037.884000", "163037.888000", "163037.891000"],
      "InstanceNumber": [1, 2, 3, 4, 5, 6, 7, 8, 9, 10, 11, 12, 13, 14, 15, 16, 17, 18, 19, 20, 21, 22, 23, 24, 25, 26, 27, 28, 29, 30, 31, 32, 33, 34, 35, 36, 37, 38, 39, 40, 41, 42, 43, 44, 45, 46, 47, 48, 49, 50, 51, 52, 53, 54, 55, 56, 57, 58, 59, 60, 61, 62, 63, 64, 65, 66, 67, 68, 69, 70, 71, 72, 73, 74, 75, 76, 77, 78, 79, 80, 81, 82, 83, 84, 85, 86, 87, 88, 89, 90, 91, 92, 93, 94, 95, 96, 97, 98, 99, 100, 101, 102, 103, 104, 105, 106, 107, 108, 109, 110, 111, 112, 113, 114, 115, 116, 117, 118, 119, 120, 121, 122, 123, 124, 125, 126, 127, 128, 129, 130, 131, 132, 133, 134, 135, 136, 137, 138, 139, 140, 141, 142, 143, 144, 145, 146, 147, 148, 149, 150, 151, 152, 153, 154, 155, 156, 157, 158, 159, 160, 161, 162, 163, 164, 165, 166, 167, 168, 169, 170, 171, 172, 173, 174, 175, 176, 177, 178, 179, 180, 181, 182, 183, 184, 185, 186, 187, 188, 189, 190, 191, 192, 193, 194, 195, 196, 197, 198, 199, 200, 201, 202, 203, 204, 205, 206, 207, 208, 209, 210, 211, 212, 213, 214, 215, 216, 217, 218, 219, 220, 221, 222, 223, 224, 225, 226, 227, 228, 229, 230, 231, 232, 233, 234, 235, 236, 237, 238, 239, 240, 241, 242, 243, 244, 245, 246, 247, 248, 249, 250, 251, 252, 253, 254, 255, 256, 257, 258, 259, 260, 261, 262, 263, 264, 265, 266, 267, 268, 269, 270, 271, 272, 273, 274, 275, 276, 277, 278, 279, 280, 281, 282, 283, 284, 285, 286, 287, 288, 289, 290, 291, 292, 293, 294, 295, 296, 297, 298, 299, 300, 301, 302, 303, 304, 305, 306, 307, 308, 309, 310, 311, 312, 313, 314, 315, 316, 317, 318, 319, 320, 321, 322, 323, 324, 325, 326, 327, 328, 329, 330, 331, 332, 333, 334, 335, 336, 337, 338, 339, 340, 341, 342, 343, 344, 345, 346, 347, 348, 349, 350, 351, 352, 353, 354, 355, 356, 357, 358, 359, 360, 361, 362, 363, 364, 365, 366],
