{
  "AcquisitionMatrixPE": 104,
  "AcquisitionNumber": 1,
  "AcquisitionTime": "16:31:34.432500",
  "BandwidthPerPixelPhaseEncode": 17.17,
  "BaseResolution": 104,
  "BodyPartExamined": "BRAIN",
  "CoilCombinationMethod": "Sum of Squares",
  "ConsistencyInfo": "N4_VE11C_LATEST_20160120",
  "ConversionSoftware": "dcm2niix",
  "ConversionSoftwareVersion": "v1.0.20220505",
  "DerivedVendorReportedEchoSpacing": 0.000560011,
  "DeviceSerialNumber": "167006",
  "DwellTime": 2.1e-06,
  "EchoTime": 0.037,
  "EchoTrainLength": 104,
  "EffectiveEchoSpacing": 0.000560011,
  "FlipAngle": 52,
  "HeudiconvVersion": "0.5.3.post811+g6206e14",
  "ImageComments": "Unaliased MB4/PE3/LB",
  "ImageOrientationPatientDICOM": [0.999979, 0.00617039, -0.00191991, -0.00645766, 0.965269, -0.261178],
  "ImageOrientationText": "Tra>Cor(-15.1)>Sag(-0.0)",
  "ImageType": [
    "ORIGINAL",
    "PRIMARY",
    "M",
    "MB",
    "ND",
    "MOSAIC"
],
  "ImagingFrequency": 123.26,
  "InPlanePhaseEncodingDirectionDICOM": "COL",
  "InstitutionAddress": "Chemin Queen-Mary 4565,Montreal,District,CA,H3W 1W5",
  "InstitutionName": "IUGM",
  "InstitutionalDepartmentName": "Department",
  "MRAcquisitionType": "2D",
  "MagneticFieldStrength": 3,
  "Manufacturer": "Siemens",
  "ManufacturersModelName": "Prisma_fit",
  "MatrixCoilMode": "SENSE",
  "Modality": "MR",
  "MultibandAccelerationFactor": 4,
  "PartialFourier": 1,
  "PatientPosition": "HFS",
  "PercentPhaseFOV": 100,
  "PercentSampling": 100,
  "PhaseEncodingDirection": "j",
  "PhaseEncodingSteps": 104,
  "PhaseResolution": 1,
  "PixelBandwidth": 2290,
  "ProcedureStepDescription": "games^mario3",
  "ProtocolName": "func_task-mario3_run-05",
  "PulseSequenceDetails": "%CustomerSeq%\\cmrr_mbep2d_bold",
  "ReceiveCoilActiveElements": "HC1-7;NC1,2",
  "ReceiveCoilName": "HeadNeck_64",
  "ReconMatrixPE": 104,
  "RepetitionTime": 1.49,
  "SAR": 0.0581824,
  "ScanOptions": "FS",
  "ScanningSequence": "EP",
  "SequenceName": "epfid2d1_104",
  "SequenceVariant": "SK\\SS",
  "SeriesDescription": "func_task-mario3_run-05",
  "SeriesNumber": 22,
  "ShimSetting": [613, -7226, -8776, 686, 62, -75, 64, -10],
  "SliceThickness": 2,
  "SliceTiming": [0, 0.785, 0.1, 0.8825, 0.1975, 0.98, 0.295, 1.08, 0.3925, 1.1775, 0.49, 1.275, 0.59, 1.3725, 0.6875, 0, 0.785, 0.1, 0.8825, 0.1975, 0.98, 0.295, 1.08, 0.3925, 1.1775, 0.49, 1.275, 0.59, 1.3725, 0.6875, 0, 0.785, 0.1, 0.8825, 0.1975, 0.98, 0.295, 1.08, 0.3925, 1.1775, 0.49, 1.275, 0.59, 1.3725, 0.6875, 0, 0.785, 0.1, 0.8825, 0.1975, 0.98, 0.295, 1.08, 0.3925, 1.1775, 0.49, 1.275, 0.59, 1.3725, 0.6875],
  "SoftwareVersions": "syngo MR E11",
  "SpacingBetweenSlices": 2,
  "StationName": "MRC35049",
  "TaskName": "mario3",
  "TotalReadoutTime": 0.0576811,
  "TxRefAmp": 229.914,
  "WipMemBlock": "e0b5f078-3458-4c96-8c86-eb98c1d82742||Sequence: R017 ve11c/master r/75a17815+; Jun 28 2022 16:32:11 by eja",
  "dcmmeta_affine": [
    [-1.9999582767486572, -0.012915311381220818, -0.0004833295533899218, 109.35244750976562],
    [-0.012340771034359932, 1.930538296699524, -0.5223693251609802, -73.38195037841797],
    [-0.003839824115857482, 0.5223554372787476, 1.9305776357650757, -57.357330322265625],
    [0.0, 0.0, 0.0, 1.0]
],
  "dcmmeta_reorient_transform": [
    [0.0, -1.0, 0.0, 103.0],
    [1.0, 0.0, 0.0, 0.0],
    [0.0, 0.0, 1.0, 0.0],
    [0.0, 0.0, 0.0, 1.0]
],
  "dcmmeta_shape": [104, 104, 60, 326],
  "dcmmeta_slice_dim": 2,
  "dcmmeta_version": 0.6,
  "global": {
    "const": {
      "AcquisitionMatrix": [104, 0, 0, 104],
      "AngioFlag": "N",
      "BitsAllocated": 16,
      "BitsStored": 16,
      "BodyPartExamined": "BRAIN",
      "Columns": 832,
      "EchoNumbers": 1,
      "EchoTime": 37.0,
      "EchoTrainLength": 104,
      "FlipAngle": 52.0,
      "HighBit": 15,
      "ImageOrientationPatient": [0.99997911992303, 0.0061703853581, -0.0019199121069, -0.0064576556194, 0.96526913479318, -0.261177709806],
      "ImagePositionPatient": [-831.30579641097, -832.67146143603, 187.98034559233],
      "ImageType": [
        "ORIGINAL",
        "PRIMARY",
        "M",
        "MB",
        "ND",
        "MOSAIC"
],
      "ImagedNucleus": "1H",
      "ImagingFrequency": 123.260214,
      "InPlanePhaseEncodingDirection": "COL",
      "MRAcquisitionType": "2D",
      "MagneticFieldStrength": 3.0,
      "Manufacturer": "SIEMENS",
      "ManufacturerModelName": "Prisma_fit",
      "Modality": "MR",
      "NumberOfAverages": 1.0,
      "NumberOfPhaseEncodingSteps": 104,
      "PercentPhaseFieldOfView": 100.0,
      "PercentSampling": 100.0,
      "PerformedProcedureStepStartTime": "153428.582000",
      "PhotometricInterpretation": "MONOCHROME2",
      "PixelBandwidth": 2290.0,
      "PixelRepresentation": 0,
      "PixelSpacing": [2.0, 2.0],
      "ProtocolName": "func_task-mario3_run-05",
      "RepetitionTime": 1490.0,
      "Rows": 832,
      "SAR": 0.05818240050453,
      "SamplesPerPixel": 1,
      "ScanOptions": "FS",
      "ScanningSequence": "EP",
      "SequenceName": "epfid2d1_104",
      "SequenceVariant": [
        "SK",
        "SS"
],
      "SeriesDescription": "func_task-mario3_run-05",
      "SeriesNumber": 22,
      "SeriesTime": "163249.499000",
      "SliceLocation": -36.226578192219,
      "SliceThickness": 2.0,
      "SmallestImagePixelValue": 0,
      "SoftwareVersions": "syngo MR E11",
      "SpacingBetweenSlices": 2.0000000006347,
      "SpecificCharacterSet": "ISO_IR 100",
      "StudyID": "1",
      "StudyTime": "153428.498000",
      "TransmitCoilName": "Body",
      "VariableFlipAngleFlag": "N",
      "WindowCenterWidthExplanation": "Algo1",
      "dBdt": 0.0},
    "slices": {}
  },
  "time": {
    "samples": {
      "AcquisitionNumber": [1, 2, 3, 4, 5, 6, 7, 8, 9, 10, 11, 12, 13, 14, 15, 16, 17, 18, 19, 20, 21, 22, 23, 24, 25, 26, 27, 28, 29, 30, 31, 32, 33, 34, 35, 36, 37, 38, 39, 40, 41, 42, 43, 44, 45, 46, 47, 48, 49, 50, 51, 52, 53, 54, 55, 56, 57, 58, 59, 60, 61, 62, 63, 64, 65, 66, 67, 68, 69, 70, 71, 72, 73, 74, 75, 76, 77, 78, 79, 80, 81, 82, 83, 84, 85, 86, 87, 88, 89, 90, 91, 92, 93, 94, 95, 96, 97, 98, 99, 100, 101, 102, 103, 104, 105, 106, 107, 108, 109, 110, 111, 112, 113, 114, 115, 116, 117, 118, 119, 120, 121, 122, 123, 124, 125, 126, 127, 128, 129, 130, 131, 132, 133, 134, 135, 136, 137, 138, 139, 140, 141, 142, 143, 144, 145, 146, 147, 148, 149, 150, 151, 152, 153, 154, 155, 156, 157, 158, 159, 160, 161, 162, 163, 164, 165, 166, 167, 168, 169, 170, 171, 172, 173, 174, 175, 176, 177, 178, 179, 180, 181, 182, 183, 184, 185, 186, 187, 188, 189, 190, 191, 192, 193, 194, 195, 196, 197, 198, 199, 200, 201, 202, 203, 204, 205, 206, 207, 208, 209, 210, 211, 212, 213, 214, 215, 216, 217, 218, 219, 220, 221, 222, 223, 224, 225, 226, 227, 228, 229, 230, 231, 232, 233, 234, 235, 236, 237, 238, 239, 240, 241, 242, 243, 244, 245, 246, 247, 248, 249, 250, 251, 252, 253, 254, 255, 256, 257, 258, 259, 260, 261, 262, 263, 264, 265, 266, 267, 268, 269, 270, 271, 272, 273, 274, 275, 276, 277, 278, 279, 280, 281, 282, 283, 284, 285, 286, 287, 288, 289, 290, 291, 292, 293, 294, 295, 296, 297, 298, 299, 300, 301, 302, 303, 304, 305, 306, 307, 308, 309, 310, 311, 312, 313, 314, 315, 316, 317, 318, 319, 320, 321, 322, 323, 324, 325, 326],
      "AcquisitionTime": ["163134.432500", "163135.922500", "163137.412500", "163138.902500", "163140.392500", "163141.882500", "163143.372500", "163144.862500", "163146.352500", "163147.842500", "163149.332500", "163150.822500", "163152.312500", "163153.802500", "163155.292500", "163156.782500", "163158.272500", "163159.762500", "163201.252500", "163202.742500", "163204.232500", "163205.722500", "163207.212500", "163208.702500", "163210.192500", "163211.682500", "163213.172500", "163214.662500", "163216.152500", "163217.642500", "163219.132500", "163220.622500", "163222.112500", "163223.602500", "163225.092500", "163226.582500", "163228.072500", "163229.562500", "163231.052500", "163232.542500", "163234.032500", "163235.522500", "163237.012500", "163238.502500", "163239.992500", "163241.482500", "163242.972500", "163244.462500", "163245.952500", "163247.442500", "163248.932500", "163250.422500", "163251.912500", "163253.402500", "163254.892500", "163256.382500", "163257.872500", "163259.362500", "163300.852500", "163302.342500", "163303.832500", "163305.322500", "163306.812500", "163308.302500", "163309.792500", "163311.282500", "163312.772500", "163314.262500", "163315.752500", "163317.242500", "163318.732500", "163320.222500", "163321.712500", "163323.202500", "163324.692500", "163326.182500", "163327.672500", "163329.162500", "163330.652500", "163332.142500", "163333.632500", "163335.122500", "163336.612500", "163338.102500", "163339.592500", "163341.082500", "163342.572500", "163344.062500", "163345.552500", "163347.042500", "163348.532500", "163350.022500", "163351.512500", "163353.002500", "163354.492500", "163355.982500", "163357.472500", "163358.962500", "163400.452500", "163401.942500", "163403.432500", "163404.922500", "163406.412500", "163407.902500", "163409.392500", "163410.882500", "163412.372500", "163413.862500", "163415.352500", "163416.842500", "163418.332500", "163419.822500", "163421.312500", "163422.802500", "163424.292500", "163425.782500", "163427.272500", "163428.762500", "163430.252500", "163431.742500", "163433.232500", "163434.722500", "163436.212500", "163437.702500", "163439.192500", "163440.682500", "163442.172500", "163443.662500", "163445.152500", "163446.642500", "163448.132500", "163449.622500", "163451.112500", "163452.602500", "163454.092500", "163455.582500", "163457.072500", "163458.562500", "163500.052500", "163501.542500", "163503.032500", "163504.522500", "163506.012500", "163507.502500", "163508.992500", "163510.482500", "163511.972500", "163513.462500", "163514.952500", "163516.442500", "163517.932500", "163519.422500", "163520.912500", "163522.402500", "163523.892500", "163525.382500", "163526.872500", "163528.362500", "163529.852500", "163531.342500", "163532.832500", "163534.322500", "163535.812500", "163537.302500", "163538.792500", "163540.282500", "163541.772500", "163543.262500", "163544.752500", "163546.242500", "163547.732500", "163549.222500", "163550.712500", "163552.202500", "163553.692500", "163555.182500", "163556.672500", "163558.162500", "163559.652500", "163601.142500", "163602.632500", "163604.122500", "163605.612500", "163607.102500", "163608.592500", "163610.082500", "163611.572500", "163613.062500", "163614.552500", "163616.042500", "163617.532500", "163619.022500", "163620.512500", "163622.002500", "163623.492500", "163624.982500", "163626.472500", "163627.962500", "163629.452500", "163630.942500", "163632.432500", "163633.922500", "163635.412500", "163636.902500", "163638.392500", "163639.882500", "163641.372500", "163642.862500", "163644.352500", "163645.842500", "163647.332500", "163648.822500", "163650.312500", "163651.802500", "163653.292500", "163654.782500", "163656.272500", "163657.762500", "163659.252500", "163700.742500", "163702.232500", "163703.722500", "163705.212500", "163706.702500", "163708.192500", "163709.682500", "163711.172500", "163712.662500", "163714.152500", "163715.642500", "163717.132500", "163718.622500", "163720.112500", "163721.602500", "163723.092500", "163724.582500", "163726.072500", "163727.562500", "163729.052500", "163730.542500", "163732.032500", "163733.522500", "163735.012500", "163736.502500", "163737.992500", "163739.482500", "163740.972500", "163742.462500", "163743.952500", "163745.442500", "163746.932500", "163748.422500", "163749.912500", "163751.402500", "163752.892500", "163754.382500", "163755.872500", "163757.362500", "163758.852500", "163800.342500", "163801.832500", "163803.322500", "163804.812500", "163806.302500", "163807.792500", "163809.282500", "163810.772500", "163812.262500", "163813.752500", "163815.242500", "163816.732500", "163818.222500", "163819.712500", "163821.202500", "163822.692500", "163824.182500", "163825.672500", "163827.162500", "163828.652500", "163830.142500", "163831.632500", "163833.122500", "163834.612500", "163836.102500", "163837.592500", "163839.082500", "163840.572500", "163842.062500", "163843.552500", "163845.042500", "163846.532500", "163848.022500", "163849.512500", "163851.002500", "163852.492500", "163853.982500", "163855.472500", "163856.962500", "163858.452500", "163859.942500", "163901.432500", "163902.922500", "163904.412500", "163905.902500", "163907.392500", "163908.882500", "163910.372500", "163911.862500", "163913.352500", "163914.842500", "163916.332500", "163917.822500", "163919.312500", "163920.802500", "163922.292500", "163923.782500", "163925.272500", "163926.762500", "163928.252500", "163929.742500", "163931.232500", "163932.722500", "163934.212500", "163935.702500", "163937.192500", "163938.682500"],
      "ContentTime": ["163249.503000", "163249.506000", "163249.510000", "163249.522000", "163249.525000", "163249.528000", "163249.531000", "163249.535000", "163249.538000", "163249.541000", "163249.544000", "163249.548000", "163249.551000", "163249.555000", "163249.558000", "163249.561000", "163249.565000", "163249.568000", "163249.571000", "163249.574000", "163249.578000", "163249.581000", "163249.584000", "163249.592000", "163249.595000", "163249.599000", "163309.469000", "163309.473000", "163309.476000", "163309.479000", "163309.483000", "163309.486000", "163309.502000", "163309.505000", "163309.509000", "163309.512000", "163309.515000", "163309.518000", "163309.521000", "163309.525000", "163309.528000", "163309.531000", "163309.535000", "163309.538000", "163309.541000", "163309.544000", "163329.469000", "163329.473000", "163329.476000", "163329.480000", "163329.483000", "163329.486000", "163329.489000", "163329.493000", "163329.496000", "163329.499000", "163329.502000", "163329.506000", "163329.509000", "163329.512000", "163329.515000", "163329.519000", "163329.522000", "163329.525000", "163329.528000", "163329.532000", "163329.535000", "163349.468000", "163349.472000", "163349.475000", "163349.478000", "163349.481000", "163349.485000", "163349.488000", "163349.491000", "163349.494000", "163349.498000", "163349.501000", "163349.504000", "163349.508000", "163349.511000", "163349.514000", "163349.517000", "163349.521000", "163349.524000", "163349.527000", "163349.530000", "163429.468000", "163429.472000", "163429.475000", "163429.479000", "163429.482000", "163429.485000", "163429.489000", "163429.492000", "163429.495000", "163429.499000", "163429.503000", "163429.506000", "163429.509000", "163429.513000", "163429.518000", "163429.522000", "163429.526000", "163429.530000", "163429.534000", "163429.537000", "163429.540000", "163429.544000", "163429.547000", "163429.551000", "163429.554000", "163429.558000", "163429.561000", "163429.564000", "163429.567000", "163509.469000", "163509.473000", "163509.476000", "163509.480000", "163509.483000", "163509.486000", "163509.490000", "163509.493000", "163509.496000", "163509.499000", "163509.503000", "163509.506000", "163509.509000", "163509.512000", "163509.525000", "163509.528000", "163509.531000", "163509.535000", "163509.538000", "163509.541000", "163509.545000", "163509.548000", "163509.551000", "163509.555000", "163509.558000", "163509.561000", "163509.569000", "163549.469000", "163549.473000", "163549.476000", "163549.479000", "163549.483000", "163549.486000", "163549.489000", "163549.493000", "163549.496000", "163549.499000", "163549.503000", "163549.506000", "163549.509000", "163549.513000", "163549.516000", "163549.519000", "163549.528000", "163549.532000", "163549.535000", "163549.538000", "163549.542000", "163549.545000", "163549.548000", "163549.552000", "163549.555000", "163549.558000", "163549.561000", "163629.468000", "163629.472000", "163629.475000", "163629.479000", "163629.482000", "163629.486000", "163629.489000", "163629.492000", "163629.495000", "163629.499000", "163629.502000", "163629.505000", "163629.509000", "163629.512000", "163629.515000", "163629.519000", "163629.522000", "163629.525000", "163629.529000", "163629.532000", "163629.535000", "163629.539000", "163629.542000", "163629.545000", "163629.549000", "163629.552000", "163629.555000", "163709.468000", "163709.472000", "163709.481000", "163709.485000", "163709.488000", "163709.491000", "163709.495000", "163709.498000", "163709.501000", "163709.505000", "163709.508000", "163709.512000", "163709.515000", "163709.518000", "163709.521000", "163709.525000", "163709.528000", "163709.531000", "163709.535000", "163709.538000", "163709.541000", "163709.545000", "163709.548000", "163709.551000", "163709.554000", "163709.558000", "163709.561000", "163749.469000", "163749.473000", "163749.476000", "163749.480000", "163749.483000", "163749.486000", "163749.490000", "163749.493000", "163749.496000", "163749.500000", "163749.503000", "163749.506000", "163749.509000", "163749.513000", "163749.516000", "163749.527000", "163749.530000", "163749.534000", "163749.537000", "163749.540000", "163749.543000", "163749.547000", "163749.550000", "163749.553000", "163749.557000", "163749.560000", "163749.563000", "163829.469000", "163829.472000", "163829.475000", "163829.484000", "163829.488000", "163829.491000", "163829.494000", "163829.498000", "163829.501000", "163829.504000", "163829.508000", "163829.511000", "163829.514000", "163829.518000", "163829.521000", "163829.524000", "163829.528000", "163829.531000", "163829.534000", "163829.538000", "163829.541000", "163829.544000", "163829.547000", "163829.551000", "163829.554000", "163829.557000", "163829.560000", "163909.468000", "163909.472000", "163909.475000", "163909.489000", "163909.493000", "163909.497000", "163909.500000", "163909.504000", "163909.507000", "163909.510000", "163909.514000", "163909.517000", "163909.520000", "163909.524000", "163909.527000", "163909.530000", "163909.534000", "163909.537000", "163909.540000", "163909.543000", "163909.547000", "163909.550000", "163909.554000", "163909.557000", "163909.560000", "163909.564000", "163942.323000", "163942.327000", "163942.331000", "163942.334000", "163942.337000", "163942.341000", "163942.344000", "163942.347000", "163942.351000", "163942.354000", "163942.357000", "163942.361000", "163942.364000", "163942.367000", "163942.371000", "163942.398000", "163942.401000", "163942.405000", "163942.408000", "163942.411000", "163942.415000", "163942.418000"],
      "InstanceCreationTime": ["163249.503000", "163249.506000", "163249.510000", "163249.522000", "163249.525000", "163249.528000", "163249.531000", "163249.535000", "163249.538000", "163249.541000", "163249.544000", "163249.548000", "163249.551000", "163249.555000", "163249.558000", "163249.561000", "163249.565000", "163249.568000", "163249.571000", "163249.574000", "163249.578000", "163249.581000", "163249.584000", "163249.592000", "163249.595000", "163249.599000", "163309.469000", "163309.473000", "163309.476000", "163309.479000", "163309.483000", "163309.486000", "163309.502000", "163309.505000", "163309.509000", "163309.512000", "163309.515000", "163309.518000", "163309.521000", "163309.525000", "163309.528000", "163309.531000", "163309.535000", "163309.538000", "163309.541000", "163309.544000", "163329.469000", "163329.473000", "163329.476000", "163329.480000", "163329.483000", "163329.486000", "163329.489000", "163329.493000", "163329.496000", "163329.499000", "163329.502000", "163329.506000", "163329.509000", "163329.512000", "163329.515000", "163329.519000", "163329.522000", "163329.525000", "163329.528000", "163329.532000", "163329.535000", "163349.468000", "163349.472000", "163349.475000", "163349.478000", "163349.481000", "163349.485000", "163349.488000", "163349.491000", "163349.494000", "163349.498000", "163349.501000", "163349.504000", "163349.508000", "163349.511000", "163349.514000", "163349.517000", "163349.521000", "163349.524000", "163349.527000", "163349.530000", "163429.468000", "163429.472000", "163429.475000", "163429.479000", "163429.482000", "163429.485000", "163429.489000", "163429.492000", "163429.495000", "163429.499000", "163429.503000", "163429.506000", "163429.509000", "163429.513000", "163429.518000", "163429.522000", "163429.526000", "163429.530000", "163429.534000", "163429.537000", "163429.540000", "163429.544000", "163429.547000", "163429.551000", "163429.554000", "163429.558000", "163429.561000", "163429.564000", "163429.567000", "163509.469000", "163509.473000", "163509.476000", "163509.480000", "163509.483000", "163509.486000", "163509.490000", "163509.493000", "163509.496000", "163509.499000", "163509.503000", "163509.506000", "163509.509000", "163509.512000", "163509.525000", "163509.528000", "163509.531000", "163509.535000", "163509.538000", "163509.541000", "163509.545000", "163509.548000", "163509.551000", "163509.555000", "163509.558000", "163509.561000", "163509.569000", "163549.469000", "163549.473000", "163549.476000", "163549.479000", "163549.483000", "163549.486000", "163549.489000", "163549.493000", "163549.496000", "163549.499000", "163549.503000", "163549.506000", "163549.509000", "163549.513000", "163549.516000", "163549.519000", "163549.528000", "163549.532000", "163549.535000", "163549.538000", "163549.542000", "163549.545000", "163549.548000", "163549.552000", "163549.555000", "163549.558000", "163549.561000", "163629.468000", "163629.472000", "163629.475000", "163629.479000", "163629.482000", "163629.486000", "163629.489000", "163629.492000", "163629.495000", "163629.499000", "163629.502000", "163629.505000", "163629.509000", "163629.512000", "163629.515000", "163629.519000", "163629.522000", "163629.525000", "163629.529000", "163629.532000", "163629.535000", "163629.539000", "163629.542000", "163629.545000", "163629.549000", "163629.552000", "163629.555000", "163709.468000", "163709.472000", "163709.481000", "163709.485000", "163709.488000", "163709.491000", "163709.495000", "163709.498000", "163709.501000", "163709.505000", "163709.508000", "163709.512000", "163709.515000", "163709.518000", "163709.521000", "163709.525000", "163709.528000", "163709.531000", "163709.535000", "163709.538000", "163709.541000", "163709.545000", "163709.548000", "163709.551000", "163709.554000", "163709.558000", "163709.561000", "163749.469000", "163749.473000", "163749.476000", "163749.480000", "163749.483000", "163749.486000", "163749.490000", "163749.493000", "163749.496000", "163749.500000", "163749.503000", "163749.506000", "163749.509000", "163749.513000", "163749.516000", "163749.527000", "163749.530000", "163749.534000", "163749.537000", "163749.540000", "163749.543000", "163749.547000", "163749.550000", "163749.553000", "163749.557000", "163749.560000", "163749.563000", "163829.469000", "163829.472000", "163829.475000", "163829.484000", "163829.488000", "163829.491000", "163829.494000", "163829.498000", "163829.501000", "163829.504000", "163829.508000", "163829.511000", "163829.514000", "163829.518000", "163829.521000", "163829.524000", "163829.528000", "163829.531000", "163829.534000", "163829.538000", "163829.541000", "163829.544000", "163829.547000", "163829.551000", "163829.554000", "163829.557000", "163829.560000", "163909.468000", "163909.472000", "163909.475000", "163909.489000", "163909.493000", "163909.497000", "163909.500000", "163909.504000", "163909.507000", "163909.510000", "163909.514000", "163909.517000", "163909.520000", "163909.524000", "163909.527000", "163909.530000", "163909.534000", "163909.537000", "163909.540000", "163909.543000", "163909.547000", "163909.550000", "163909.554000", "163909.557000", "163909.560000", "163909.564000", "163942.323000", "163942.327000", "163942.331000", "163942.334000", "163942.337000", "163942.341000", "163942.344000", "163942.347000", "163942.351000", "163942.354000", "163942.357000", "163942.361000", "163942.364000", "163942.367000", "163942.371000", "163942.398000", "163942.401000", "163942.405000", "163942.408000", "163942.411000", "163942.415000", "163942.418000"],
      "InstanceNumber": [1, 2, 3, 4, 5, 6, 7, 8, 9, 10, 11, 12, 13, 14, 15, 16, 17, 18, 19, 20, 21, 22, 23, 24, 25, 26, 27, 28, 29, 30, 31, 32, 33, 34, 35, 36, 37, 38, 39, 40, 41, 42, 43, 44, 45, 46, 47, 48, 49, 50, 51, 52, 53, 54, 55, 56, 57, 58, 59, 60, 61, 62, 63, 64, 65, 66, 67, 68, 69, 70, 71, 72, 73, 74, 75, 76, 77, 78, 79, 80, 81, 82, 83, 84, 85, 86, 87, 88, 89, 90, 91, 92, 93, 94, 95, 96, 97, 98, 99, 100, 101, 102, 103, 104, 105, 106, 107, 108, 109, 110, 111, 112, 113, 114, 115, 116, 117, 118, 119, 120, 121, 122, 123, 124, 125, 126, 127, 128, 129, 130, 131, 132, 133, 134, 135, 136, 137, 138, 139, 140, 141, 142, 143, 144, 145, 146, 147, 148, 149, 150, 151, 152, 153, 154, 155, 156, 157, 158, 159, 160, 161, 162, 163, 164, 165, 166, 167, 168, 169, 170, 171, 172, 173, 174, 175, 176, 177, 178, 179, 180, 181, 182, 183, 184, 185, 186, 187, 188, 189, 190, 191, 192, 193, 194, 195, 196, 197, 198, 199, 200, 201, 202, 203, 204, 205, 206, 207, 208, 209, 210, 211, 212, 213, 214, 215, 216, 217, 218, 219, 220, 221, 222, 223, 224, 225, 226, 227, 228, 229, 230, 231, 232, 233, 234, 235, 236, 237, 238, 239, 240, 241, 242, 243, 244, 245, 246, 247, 248, 249, 250, 251, 252, 253, 254, 255, 256, 257, 258, 259, 260, 261, 262, 263, 264, 265, 266, 267, 268, 269, 270, 271, 272, 273, 274, 275, 276, 277, 278, 279, 280, 281, 282, 283, 284, 285, 286, 287, 288, 289, 290, 291, 292, 293, 294, 295, 296, 297, 298, 299, 300, 301, 302, 303, 304, 305, 306, 307, 308, 309, 310, 311, 312, 313, 314, 315, 316, 317, 318, 319, 320, 321, 322, 323, 324, 325, 326],
      "LargestImagePixelValue": [41092, 40324, 40047, 38912, 38945, 38997, 38559, 38658, 38677, 38146, 38429, 38474, 38818, 38217, 37912, 40141, 39307, 38808, 39067, 38901, 39041, 39182, 38841, 38964, 40036, 38926, 38761, 39072, 38998, 38928, 38829, 39846, 39963, 39067, 38484, 38635, 37994, 38670, 38589, 39552, 39477, 38499, 38864, 39012, 38955, 38695, 38697, 38423, 39998, 38963, 39110, 38680, 38845, 39010, 38489, 37870, 38634, 38417, 38448, 38548, 37702, 38250, 38218, 38518, 38061, 38488, 38283, 38491, 38482, 38479, 37733, 39075, 38896, 39002, 38280, 38578, 38789, 38616, 38943, 38962, 39054, 38242, 39372, 38994, 39650, 40015, 38757, 39001, 39670, 39227, 39133, 39620, 39550, 39129, 38703, 38496, 38578, 38984, 38587, 38857, 39684, 38391, 40122, 39470, 39367, 39019, 39589, 38557, 38813, 40034, 39648, 39538, 38223, 38883, 38430, 38752, 38735, 39107, 39298, 38526, 38598, 38978, 38375, 38957, 39494, 39697, 38878, 38452, 39046, 38878, 38122, 38390, 38395, 38743, 38519, 38138, 38021, 38732, 39015, 39156, 38846, 39256, 38885, 39050, 38804, 39272, 38881, 39106, 38951, 38607, 38565, 38952, 38470, 38647, 38631, 38632, 39314, 38613, 38505, 38371, 38747, 38717, 38716, 38467, 39072, 39136, 38806, 39095, 38950, 40137, 38035, 39835, 38529, 39025, 38779, 38401, 38459, 38372, 39217, 38859, 38356, 38592, 39133, 38557, 38736, 38724, 38713, 39287, 38696, 39266, 38948, 38608, 38975, 38770, 39038, 38622, 39105, 38289, 38844, 38946, 38626, 38955, 39663, 39598, 39142, 39072, 39392, 39347, 39860, 39274, 39045, 38775, 39064, 39458, 39444, 39905, 39480, 39502, 39455, 39120, 38883, 38765, 39578, 39050, 39363, 38565, 38806, 38602, 39224, 39013, 39220, 39122, 39306, 39665, 39211, 38989, 38866, 38875, 39400, 39325, 38777, 39169, 39463, 38966, 39737, 39514, 39508, 38846, 38935, 38410, 38822, 39477, 39441, 39072, 39322, 39369, 39224, 39407, 39222, 39041, 38531, 38449, 39003, 38603, 39120, 39015, 39216, 39064, 38835, 38926, 39258, 38830, 39068, 39075, 38647, 39031, 39157, 39407, 38935, 39104, 39243, 39230, 39573, 39318, 38990, 39175, 38819, 39194, 39169, 39248, 38802, 38576, 38939, 40228, 38988, 39155, 39213, 39553, 39364, 38556, 39198, 39053, 39286, 39704, 39237, 38768, 38612, 38925, 38726, 38949, 38859, 39038, 38833, 38840, 39167, 37939, 37779, 38190, 38317, 38189, 38157, 38467, 37975, 38109, 38258, 38051],
