{
  "AcquisitionMatrixPE": 104,
  "AcquisitionNumber": 1,
  "AcquisitionTime": "16:01:49.685000",
  "BandwidthPerPixelPhaseEncode": 17.17,
  "BaseResolution": 104,
  "BodyPartExamined": "BRAIN",
  "CoilCombinationMethod": "Sum of Squares",
  "ConsistencyInfo": "N4_VE11C_LATEST_20160120",
  "ConversionSoftware": "dcm2niix",
  "ConversionSoftwareVersion": "v1.0.20220505",
  "DerivedVendorReportedEchoSpacing": 0.000560011,
  "DeviceSerialNumber": "167006",
  "DwellTime": 2.1e-06,
  "EchoTime": 0.037,
  "EchoTrainLength": 104,
  "EffectiveEchoSpacing": 0.000560011,
  "FlipAngle": 52,
  "HeudiconvVersion": "0.5.3.post811+g6206e14",
  "ImageComments": "Unaliased MB4/PE3/LB",
  "ImageOrientationPatientDICOM": [0.999979, 0.00617039, -0.00191991, -0.00645766, 0.965269, -0.261178],
  "ImageOrientationText": "Tra>Cor(-15.1)>Sag(-0.0)",
  "ImageType": [
    "ORIGINAL",
    "PRIMARY",
    "M",
    "MB",
    "ND",
    "MOSAIC"
],
  "ImagingFrequency": 123.26,
  "InPlanePhaseEncodingDirectionDICOM": "COL",
  "InstitutionAddress": "Chemin Queen-Mary 4565,Montreal,District,CA,H3W 1W5",
  "InstitutionName": "IUGM",
  "InstitutionalDepartmentName": "Department",
  "MRAcquisitionType": "2D",
  "MagneticFieldStrength": 3,
  "Manufacturer": "Siemens",
  "ManufacturersModelName": "Prisma_fit",
  "MatrixCoilMode": "SENSE",
  "Modality": "MR",
  "MultibandAccelerationFactor": 4,
  "PartialFourier": 1,
  "PatientPosition": "HFS",
  "PercentPhaseFOV": 100,
  "PercentSampling": 100,
  "PhaseEncodingDirection": "j",
  "PhaseEncodingSteps": 104,
  "PhaseResolution": 1,
  "PixelBandwidth": 2290,
  "ProcedureStepDescription": "games^mario3",
  "ProtocolName": "func_task-mario3_run-02",
  "PulseSequenceDetails": "%CustomerSeq%\\cmrr_mbep2d_bold",
  "ReceiveCoilActiveElements": "HC1-7;NC1,2",
  "ReceiveCoilName": "HeadNeck_64",
  "ReconMatrixPE": 104,
  "RepetitionTime": 1.49,
  "SAR": 0.0581824,
  "ScanOptions": "FS",
  "ScanningSequence": "EP",
  "SequenceName": "epfid2d1_104",
  "SequenceVariant": "SK\\SS",
  "SeriesDescription": "func_task-mario3_run-02",
  "SeriesNumber": 13,
  "ShimSetting": [613, -7226, -8776, 686, 62, -75, 64, -10],
  "SliceThickness": 2,
  "SliceTiming": [0, 0.785, 0.0975, 0.8825, 0.1975, 0.98, 0.295, 1.0775, 0.3925, 1.1775, 0.49, 1.275, 0.5875, 1.3725, 0.6875, 0, 0.785, 0.0975, 0.8825, 0.1975, 0.98, 0.295, 1.0775, 0.3925, 1.1775, 0.49, 1.275, 0.5875, 1.3725, 0.6875, 0, 0.785, 0.0975, 0.8825, 0.1975, 0.98, 0.295, 1.0775, 0.3925, 1.1775, 0.49, 1.275, 0.5875, 1.3725, 0.6875, 0, 0.785, 0.0975, 0.8825, 0.1975, 0.98, 0.295, 1.0775, 0.3925, 1.1775, 0.49, 1.275, 0.5875, 1.3725, 0.6875],
  "SoftwareVersions": "syngo MR E11",
  "SpacingBetweenSlices": 2,
  "StationName": "MRC35049",
  "TaskName": "mario3",
  "TotalReadoutTime": 0.0576811,
  "TxRefAmp": 229.914,
  "WipMemBlock": "13f4b991-790e-48ed-a0bc-6da35a84ad66||Sequence: R017 ve11c/master r/75a17815+; Jun 28 2022 16:32:11 by eja",
  "dcmmeta_affine": [
    [-1.9999582767486572, -0.012915311381220818, -0.0004833295533899218, 109.35244750976562],
    [-0.012340771034359932, 1.930538296699524, -0.5223693251609802, -73.38195037841797],
    [-0.003839824115857482, 0.5223554372787476, 1.9305776357650757, -57.357330322265625],
    [0.0, 0.0, 0.0, 1.0]
],
  "dcmmeta_reorient_transform": [
    [0.0, -1.0, 0.0, 103.0],
    [1.0, 0.0, 0.0, 0.0],
    [0.0, 0.0, 1.0, 0.0],
    [0.0, 0.0, 0.0, 1.0]
],
  "dcmmeta_shape": [104, 104, 60, 347],
  "dcmmeta_slice_dim": 2,
  "dcmmeta_version": 0.6,
  "global": {
    "const": {
      "AcquisitionMatrix": [104, 0, 0, 104],
      "AngioFlag": "N",
      "BitsAllocated": 16,
      "BitsStored": 16,
      "BodyPartExamined": "BRAIN",
      "Columns": 832,
      "EchoNumbers": 1,
      "EchoTime": 37.0,
      "EchoTrainLength": 104,
      "FlipAngle": 52.0,
      "HighBit": 15,
      "ImageOrientationPatient": [0.99997911992303, 0.0061703853581, -0.0019199121069, -0.0064576556194, 0.96526913479318, -0.261177709806],
      "ImagePositionPatient": [-831.30579641097, -832.67146143603, 187.98034559233],
      "ImageType": [
        "ORIGINAL",
        "PRIMARY",
        "M",
        "MB",
        "ND",
        "MOSAIC"
],
      "ImagedNucleus": "1H",
      "ImagingFrequency": 123.260203,
      "InPlanePhaseEncodingDirection": "COL",
      "MRAcquisitionType": "2D",
      "MagneticFieldStrength": 3.0,
      "Manufacturer": "SIEMENS",
      "ManufacturerModelName": "Prisma_fit",
      "Modality": "MR",
      "NumberOfAverages": 1.0,
      "NumberOfPhaseEncodingSteps": 104,
      "PercentPhaseFieldOfView": 100.0,
      "PercentSampling": 100.0,
      "PerformedProcedureStepStartTime": "153428.582000",
      "PhotometricInterpretation": "MONOCHROME2",
      "PixelBandwidth": 2290.0,
      "PixelRepresentation": 0,
      "PixelSpacing": [2.0, 2.0],
      "ProtocolName": "func_task-mario3_run-02",
      "RepetitionTime": 1490.0,
      "Rows": 832,
      "SAR": 0.05818240050453,
      "SamplesPerPixel": 1,
      "ScanOptions": "FS",
      "ScanningSequence": "EP",
      "SequenceName": "epfid2d1_104",
      "SequenceVariant": [
        "SK",
        "SS"
],
      "SeriesDescription": "func_task-mario3_run-02",
      "SeriesNumber": 13,
      "SeriesTime": "160309.510000",
      "SliceLocation": -36.226578192219,
      "SliceThickness": 2.0,
      "SmallestImagePixelValue": 0,
      "SoftwareVersions": "syngo MR E11",
      "SpacingBetweenSlices": 2.0000000006347,
      "SpecificCharacterSet": "ISO_IR 100",
      "StudyID": "1",
      "StudyTime": "153428.498000",
      "TransmitCoilName": "Body",
      "VariableFlipAngleFlag": "N",
      "WindowCenterWidthExplanation": "Algo1",
      "dBdt": 0.0},
    "slices": {}
  },
  "time": {
    "samples": {
      "AcquisitionNumber": [1, 2, 3, 4, 5, 6, 7, 8, 9, 10, 11, 12, 13, 14, 15, 16, 17, 18, 19, 20, 21, 22, 23, 24, 25, 26, 27, 28, 29, 30, 31, 32, 33, 34, 35, 36, 37, 38, 39, 40, 41, 42, 43, 44, 45, 46, 47, 48, 49, 50, 51, 52, 53, 54, 55, 56, 57, 58, 59, 60, 61, 62, 63, 64, 65, 66, 67, 68, 69, 70, 71, 72, 73, 74, 75, 76, 77, 78, 79, 80, 81, 82, 83, 84, 85, 86, 87, 88, 89, 90, 91, 92, 93, 94, 95, 96, 97, 98, 99, 100, 101, 102, 103, 104, 105, 106, 107, 108, 109, 110, 111, 112, 113, 114, 115, 116, 117, 118, 119, 120, 121, 122, 123, 124, 125, 126, 127, 128, 129, 130, 131, 132, 133, 134, 135, 136, 137, 138, 139, 140, 141, 142, 143, 144, 145, 146, 147, 148, 149, 150, 151, 152, 153, 154, 155, 156, 157, 158, 159, 160, 161, 162, 163, 164, 165, 166, 167, 168, 169, 170, 171, 172, 173, 174, 175, 176, 177, 178, 179, 180, 181, 182, 183, 184, 185, 186, 187, 188, 189, 190, 191, 192, 193, 194, 195, 196, 197, 198, 199, 200, 201, 202, 203, 204, 205, 206, 207, 208, 209, 210, 211, 212, 213, 214, 215, 216, 217, 218, 219, 220, 221, 222, 223, 224, 225, 226, 227, 228, 229, 230, 231, 232, 233, 234, 235, 236, 237, 238, 239, 240, 241, 242, 243, 244, 245, 246, 247, 248, 249, 250, 251, 252, 253, 254, 255, 256, 257, 258, 259, 260, 261, 262, 263, 264, 265, 266, 267, 268, 269, 270, 271, 272, 273, 274, 275, 276, 277, 278, 279, 280, 281, 282, 283, 284, 285, 286, 287, 288, 289, 290, 291, 292, 293, 294, 295, 296, 297, 298, 299, 300, 301, 302, 303, 304, 305, 306, 307, 308, 309, 310, 311, 312, 313, 314, 315, 316, 317, 318, 319, 320, 321, 322, 323, 324, 325, 326, 327, 328, 329, 330, 331, 332, 333, 334, 335, 336, 337, 338, 339, 340, 341, 342, 343, 344, 345, 346, 347],
      "AcquisitionTime": ["160149.685000", "160151.175000", "160152.665000", "160154.155000", "160155.645000", "160157.135000", "160158.625000", "160200.115000", "160201.605000", "160203.095000", "160204.585000", "160206.075000", "160207.565000", "160209.055000", "160210.545000", "160212.035000", "160213.525000", "160215.015000", "160216.505000", "160217.995000", "160219.485000", "160220.975000", "160222.465000", "160223.955000", "160225.445000", "160226.935000", "160228.425000", "160229.915000", "160231.405000", "160232.895000", "160234.385000", "160235.875000", "160237.365000", "160238.855000", "160240.345000", "160241.835000", "160243.325000", "160244.815000", "160246.305000", "160247.795000", "160249.285000", "160250.775000", "160252.265000", "160253.755000", "160255.245000", "160256.735000", "160258.225000", "160259.715000", "160301.205000", "160302.695000", "160304.185000", "160305.675000", "160307.165000", "160308.655000", "160310.145000", "160311.635000", "160313.125000", "160314.615000", "160316.105000", "160317.595000", "160319.085000", "160320.575000", "160322.065000", "160323.555000", "160325.045000", "160326.535000", "160328.025000", "160329.515000", "160331.005000", "160332.495000", "160333.985000", "160335.475000", "160336.965000", "160338.455000", "160339.945000", "160341.435000", "160342.925000", "160344.415000", "160345.905000", "160347.395000", "160348.885000", "160350.375000", "160351.865000", "160353.355000", "160354.845000", "160356.335000", "160357.825000", "160359.315000", "160400.805000", "160402.295000", "160403.785000", "160405.275000", "160406.765000", "160408.255000", "160409.745000", "160411.235000", "160412.725000", "160414.215000", "160415.705000", "160417.195000", "160418.685000", "160420.175000", "160421.665000", "160423.155000", "160424.645000", "160426.135000", "160427.625000", "160429.115000", "160430.605000", "160432.095000", "160433.585000", "160435.075000", "160436.565000", "160438.055000", "160439.545000", "160441.035000", "160442.525000", "160444.015000", "160445.505000", "160446.995000", "160448.485000", "160449.975000", "160451.465000", "160452.955000", "160454.445000", "160455.935000", "160457.425000", "160458.915000", "160500.405000", "160501.895000", "160503.385000", "160504.875000", "160506.365000", "160507.855000", "160509.345000", "160510.835000", "160512.325000", "160513.815000", "160515.305000", "160516.795000", "160518.285000", "160519.775000", "160521.265000", "160522.755000", "160524.245000", "160525.735000", "160527.225000", "160528.715000", "160530.205000", "160531.695000", "160533.185000", "160534.675000", "160536.165000", "160537.655000", "160539.145000", "160540.635000", "160542.125000", "160543.615000", "160545.105000", "160546.595000", "160548.085000", "160549.575000", "160551.065000", "160552.555000", "160554.045000", "160555.535000", "160557.025000", "160558.515000", "160600.005000", "160601.495000", "160602.985000", "160604.475000", "160605.965000", "160607.455000", "160608.945000", "160610.435000", "160611.925000", "160613.415000", "160614.905000", "160616.395000", "160617.885000", "160619.375000", "160620.865000", "160622.355000", "160623.845000", "160625.335000", "160626.825000", "160628.315000", "160629.805000", "160631.295000", "160632.785000", "160634.275000", "160635.765000", "160637.255000", "160638.745000", "160640.235000", "160641.725000", "160643.215000", "160644.705000", "160646.195000", "160647.685000", "160649.175000", "160650.665000", "160652.155000", "160653.645000", "160655.135000", "160656.625000", "160658.115000", "160659.605000", "160701.095000", "160702.585000", "160704.075000", "160705.565000", "160707.055000", "160708.545000", "160710.035000", "160711.525000", "160713.015000", "160714.505000", "160715.995000", "160717.485000", "160718.975000", "160720.465000", "160721.955000", "160723.445000", "160724.935000", "160726.425000", "160727.915000", "160729.405000", "160730.895000", "160732.385000", "160733.875000", "160735.365000", "160736.855000", "160738.345000", "160739.835000", "160741.325000", "160742.815000", "160744.305000", "160745.795000", "160747.285000", "160748.775000", "160750.265000", "160751.755000", "160753.245000", "160754.735000", "160756.225000", "160757.715000", "160759.205000", "160800.695000", "160802.185000", "160803.675000", "160805.165000", "160806.655000", "160808.145000", "160809.635000", "160811.125000", "160812.615000", "160814.105000", "160815.595000", "160817.085000", "160818.575000", "160820.065000", "160821.555000", "160823.045000", "160824.535000", "160826.025000", "160827.515000", "160829.005000", "160830.495000", "160831.985000", "160833.475000", "160834.965000", "160836.455000", "160837.945000", "160839.435000", "160840.925000", "160842.415000", "160843.905000", "160845.395000", "160846.885000", "160848.375000", "160849.865000", "160851.355000", "160852.845000", "160854.335000", "160855.825000", "160857.315000", "160858.805000", "160900.295000", "160901.785000", "160903.275000", "160904.765000", "160906.255000", "160907.745000", "160909.235000", "160910.725000", "160912.215000", "160913.705000", "160915.195000", "160916.685000", "160918.175000", "160919.665000", "160921.155000", "160922.645000", "160924.135000", "160925.625000", "160927.115000", "160928.605000", "160930.095000", "160931.585000", "160933.075000", "160934.565000", "160936.055000", "160937.545000", "160939.035000", "160940.525000", "160942.015000", "160943.505000", "160944.995000", "160946.485000", "160947.975000", "160949.465000", "160950.955000", "160952.445000", "160953.935000", "160955.425000", "160956.915000", "160958.405000", "160959.895000", "161001.385000", "161002.875000", "161004.365000", "161005.855000", "161007.345000", "161008.835000", "161010.325000", "161011.815000", "161013.305000", "161014.795000", "161016.285000", "161017.775000", "161019.265000", "161020.755000", "161022.245000", "161023.735000", "161025.225000"],
      "ContentTime": ["160309.513000", "160309.517000", "160309.520000", "160309.523000", "160309.526000", "160309.530000", "160309.533000", "160309.536000", "160309.540000", "160309.543000", "160309.546000", "160309.549000", "160309.553000", "160309.556000", "160309.559000", "160309.571000", "160309.574000", "160309.577000", "160309.581000", "160309.585000", "160309.588000", "160309.592000", "160309.595000", "160309.598000", "160309.619000", "160309.622000", "160309.625000", "160309.628000", "160309.643000", "160309.647000", "160329.469000", "160329.473000", "160329.476000", "160329.489000", "160329.492000", "160329.496000", "160329.499000", "160329.502000", "160329.505000", "160329.509000", "160329.512000", "160329.515000", "160329.518000", "160329.521000", "160329.525000", "160329.528000", "160329.531000", "160329.534000", "160329.538000", "160329.541000", "160349.468000", "160349.472000", "160349.475000", "160349.478000", "160349.481000", "160349.485000", "160349.488000", "160349.491000", "160349.494000", "160349.498000", "160349.506000", "160349.509000", "160349.512000", "160349.516000", "160349.519000", "160349.522000", "160349.525000", "160349.529000", "160349.532000", "160349.535000", "160409.468000", "160409.472000", "160409.475000", "160409.478000", "160409.482000", "160409.485000", "160409.488000", "160409.491000", "160409.495000", "160409.498000", "160409.501000", "160409.504000", "160409.508000", "160409.511000", "160409.523000", "160409.526000", "160409.546000", "160409.549000", "160409.552000", "160409.555000", "160409.559000", "160449.469000", "160449.473000", "160449.476000", "160449.479000", "160449.483000", "160449.495000", "160449.498000", "160449.501000", "160449.504000", "160449.508000", "160449.511000", "160449.514000", "160449.518000", "160449.521000", "160449.524000", "160449.528000", "160449.531000", "160449.534000", "160449.537000", "160449.541000", "160449.545000", "160449.550000", "160449.553000", "160449.557000", "160449.561000", "160449.564000", "160449.568000", "160449.571000", "160529.469000", "160529.473000", "160529.476000", "160529.479000", "160529.505000", "160529.509000", "160529.516000", "160529.519000", "160529.522000", "160529.526000", "160529.529000", "160529.532000", "160529.536000", "160529.539000", "160529.542000", "160529.545000", "160529.548000", "160529.552000", "160529.555000", "160529.558000", "160529.561000", "160529.565000", "160529.568000", "160529.571000", "160529.574000", "160529.578000", "160529.581000", "160609.468000", "160609.472000", "160609.475000", "160609.478000", "160609.482000", "160609.485000", "160609.488000", "160609.491000", "160609.495000", "160609.503000", "160609.507000", "160609.510000", "160609.513000", "160609.516000", "160609.520000", "160609.523000", "160609.526000", "160609.529000", "160609.533000", "160609.536000", "160609.539000", "160609.542000", "160609.546000", "160609.549000", "160609.552000", "160609.555000", "160609.559000", "160649.468000", "160649.472000", "160649.475000", "160649.479000", "160649.482000", "160649.485000", "160649.488000", "160649.492000", "160649.495000", "160649.498000", "160649.501000", "160649.505000", "160649.508000", "160649.511000", "160649.514000", "160649.518000", "160649.521000", "160649.524000", "160649.528000", "160649.531000", "160649.542000", "160649.545000", "160649.548000", "160649.552000", "160649.555000", "160649.558000", "160649.561000", "160729.469000", "160729.473000", "160729.476000", "160729.479000", "160729.483000", "160729.486000", "160729.489000", "160729.492000", "160729.496000", "160729.499000", "160729.502000", "160729.505000", "160729.509000", "160729.512000", "160729.515000", "160729.519000", "160729.522000", "160729.525000", "160729.528000", "160729.532000", "160729.535000", "160729.538000", "160729.542000", "160729.555000", "160729.559000", "160729.562000", "160729.565000", "160809.469000", "160809.473000", "160809.476000", "160809.479000", "160809.483000", "160809.486000", "160809.489000", "160809.493000", "160809.496000", "160809.500000", "160809.503000", "160809.506000", "160809.510000", "160809.513000", "160809.516000", "160809.520000", "160809.523000", "160809.526000", "160809.540000", "160809.543000", "160809.546000", "160809.550000", "160809.553000", "160809.556000", "160809.559000", "160809.563000", "160809.566000", "160849.469000", "160849.472000", "160849.476000", "160849.479000", "160849.482000", "160849.485000", "160849.489000", "160849.492000", "160849.495000", "160849.499000", "160849.502000", "160849.505000", "160849.508000", "160849.512000", "160849.515000", "160849.518000", "160849.521000", "160849.525000", "160849.528000", "160849.531000", "160849.535000", "160849.538000", "160849.541000", "160849.544000", "160849.548000", "160849.551000", "160849.554000", "160929.469000", "160929.473000", "160929.476000", "160929.479000", "160929.483000", "160929.486000", "160929.489000", "160929.493000", "160929.496000", "160929.499000", "160929.502000", "160929.506000", "160929.509000", "160929.512000", "160929.516000", "160929.519000", "160929.522000", "160929.526000", "160929.532000", "160929.536000", "160929.539000", "160929.542000", "160929.546000", "160929.549000", "160929.552000", "160929.555000", "161009.469000", "161009.473000", "161009.476000", "161009.479000", "161009.483000", "161009.486000", "161009.489000", "161009.493000", "161009.496000", "161009.499000", "161009.502000", "161009.506000", "161009.518000", "161009.521000", "161009.524000", "161009.537000", "161009.540000", "161009.544000", "161009.547000", "161009.550000", "161009.553000", "161009.557000", "161009.560000", "161009.563000", "161009.567000", "161009.570000", "161009.573000", "161028.684000", "161028.687000", "161028.691000", "161028.694000", "161028.698000", "161028.701000", "161028.705000", "161028.708000", "161028.712000", "161028.715000", "161028.719000", "161028.722000", "161028.726000"],
      "InstanceCreationTime": ["160309.513000", "160309.517000", "160309.520000", "160309.523000", "160309.526000", "160309.530000", "160309.533000", "160309.536000", "160309.540000", "160309.543000", "160309.546000", "160309.549000", "160309.553000", "160309.556000", "160309.559000", "160309.571000", "160309.574000", "160309.577000", "160309.581000", "160309.585000", "160309.588000", "160309.592000", "160309.595000", "160309.598000", "160309.619000", "160309.622000", "160309.625000", "160309.628000", "160309.643000", "160309.647000", "160329.469000", "160329.473000", "160329.476000", "160329.489000", "160329.492000", "160329.496000", "160329.499000", "160329.502000", "160329.505000", "160329.509000", "160329.512000", "160329.515000", "160329.518000", "160329.521000", "160329.525000", "160329.528000", "160329.531000", "160329.534000", "160329.538000", "160329.541000", "160349.468000", "160349.472000", "160349.475000", "160349.478000", "160349.481000", "160349.485000", "160349.488000", "160349.491000", "160349.494000", "160349.498000", "160349.506000", "160349.509000", "160349.512000", "160349.516000", "160349.519000", "160349.522000", "160349.525000", "160349.529000", "160349.532000", "160349.535000", "160409.468000", "160409.472000", "160409.475000", "160409.478000", "160409.482000", "160409.485000", "160409.488000", "160409.491000", "160409.495000", "160409.498000", "160409.501000", "160409.504000", "160409.508000", "160409.511000", "160409.523000", "160409.526000", "160409.546000", "160409.549000", "160409.552000", "160409.555000", "160409.559000", "160449.469000", "160449.473000", "160449.476000", "160449.479000", "160449.483000", "160449.495000", "160449.498000", "160449.501000", "160449.504000", "160449.508000", "160449.511000", "160449.514000", "160449.518000", "160449.521000", "160449.524000", "160449.528000", "160449.531000", "160449.534000", "160449.537000", "160449.541000", "160449.545000", "160449.550000", "160449.553000", "160449.557000", "160449.561000", "160449.564000", "160449.568000", "160449.571000", "160529.469000", "160529.473000", "160529.476000", "160529.479000", "160529.505000", "160529.509000", "160529.516000", "160529.519000", "160529.522000", "160529.526000", "160529.529000", "160529.532000", "160529.536000", "160529.539000", "160529.542000", "160529.545000", "160529.548000", "160529.552000", "160529.555000", "160529.558000", "160529.561000", "160529.565000", "160529.568000", "160529.571000", "160529.574000", "160529.578000", "160529.581000", "160609.468000", "160609.472000", "160609.475000", "160609.478000", "160609.482000", "160609.485000", "160609.488000", "160609.491000", "160609.495000", "160609.503000", "160609.507000", "160609.510000", "160609.513000", "160609.516000", "160609.520000", "160609.523000", "160609.526000", "160609.529000", "160609.533000", "160609.536000", "160609.539000", "160609.542000", "160609.546000", "160609.549000", "160609.552000", "160609.555000", "160609.559000", "160649.468000", "160649.472000", "160649.475000", "160649.479000", "160649.482000", "160649.485000", "160649.488000", "160649.492000", "160649.495000", "160649.498000", "160649.501000", "160649.505000", "160649.508000", "160649.511000", "160649.514000", "160649.518000", "160649.521000", "160649.524000", "160649.528000", "160649.531000", "160649.542000", "160649.545000", "160649.548000", "160649.552000", "160649.555000", "160649.558000", "160649.561000", "160729.469000", "160729.473000", "160729.476000", "160729.479000", "160729.483000", "160729.486000", "160729.489000", "160729.492000", "160729.496000", "160729.499000", "160729.502000", "160729.505000", "160729.509000", "160729.512000", "160729.515000", "160729.519000", "160729.522000", "160729.525000", "160729.528000", "160729.532000", "160729.535000", "160729.538000", "160729.542000", "160729.555000", "160729.559000", "160729.562000", "160729.565000", "160809.469000", "160809.473000", "160809.476000", "160809.479000", "160809.483000", "160809.486000", "160809.489000", "160809.493000", "160809.496000", "160809.500000", "160809.503000", "160809.506000", "160809.510000", "160809.513000", "160809.516000", "160809.520000", "160809.523000", "160809.526000", "160809.540000", "160809.543000", "160809.546000", "160809.550000", "160809.553000", "160809.556000", "160809.559000", "160809.563000", "160809.566000", "160849.469000", "160849.472000", "160849.476000", "160849.479000", "160849.482000", "160849.485000", "160849.489000", "160849.492000", "160849.495000", "160849.499000", "160849.502000", "160849.505000", "160849.508000", "160849.512000", "160849.515000", "160849.518000", "160849.521000", "160849.525000", "160849.528000", "160849.531000", "160849.535000", "160849.538000", "160849.541000", "160849.544000", "160849.548000", "160849.551000", "160849.554000", "160929.469000", "160929.473000", "160929.476000", "160929.479000", "160929.483000", "160929.486000", "160929.489000", "160929.493000", "160929.496000", "160929.499000", "160929.502000", "160929.506000", "160929.509000", "160929.512000", "160929.516000", "160929.519000", "160929.522000", "160929.526000", "160929.532000", "160929.536000", "160929.539000", "160929.542000", "160929.546000", "160929.549000", "160929.552000", "160929.555000", "161009.469000", "161009.473000", "161009.476000", "161009.479000", "161009.483000", "161009.486000", "161009.489000", "161009.493000", "161009.496000", "161009.499000", "161009.502000", "161009.506000", "161009.518000", "161009.521000", "161009.524000", "161009.537000", "161009.540000", "161009.544000", "161009.547000", "161009.550000", "161009.553000", "161009.557000", "161009.560000", "161009.563000", "161009.567000", "161009.570000", "161009.573000", "161028.684000", "161028.687000", "161028.691000", "161028.694000", "161028.698000", "161028.701000", "161028.705000", "161028.708000", "161028.712000", "161028.715000", "161028.719000", "161028.722000", "161028.726000"],
      "InstanceNumber": [1, 2, 3, 4, 5, 6, 7, 8, 9, 10, 11, 12, 13, 14, 15, 16, 17, 18, 19, 20, 21, 22, 23, 24, 25, 26, 27, 28, 29, 30, 31, 32, 33, 34, 35, 36, 37, 38, 39, 40, 41, 42, 43, 44, 45, 46, 47, 48, 49, 50, 51, 52, 53, 54, 55, 56, 57, 58, 59, 60, 61, 62, 63, 64, 65, 66, 67, 68, 69, 70, 71, 72, 73, 74, 75, 76, 77, 78, 79, 80, 81, 82, 83, 84, 85, 86, 87, 88, 89, 90, 91, 92, 93, 94, 95, 96, 97, 98, 99, 100, 101, 102, 103, 104, 105, 106, 107, 108, 109, 110, 111, 112, 113, 114, 115, 116, 117, 118, 119, 120, 121, 122, 123, 124, 125, 126, 127, 128, 129, 130, 131, 132, 133, 134, 135, 136, 137, 138, 139, 140, 141, 142, 143, 144, 145, 146, 147, 148, 149, 150, 151, 152, 153, 154, 155, 156, 157, 158, 159, 160, 161, 162, 163, 164, 165, 166, 167, 168, 169, 170, 171, 172, 173, 174, 175, 176, 177, 178, 179, 180, 181, 182, 183, 184, 185, 186, 187, 188, 189, 190, 191, 192, 193, 194, 195, 196, 197, 198, 199, 200, 201, 202, 203, 204, 205, 206, 207, 208, 209, 210, 211, 212, 213, 214, 215, 216, 217, 218, 219, 220, 221, 222, 223, 224, 225, 226, 227, 228, 229, 230, 231, 232, 233, 234, 235, 236, 237, 238, 239, 240, 241, 242, 243, 244, 245, 246, 247, 248, 249, 250, 251, 252, 253, 254, 255, 256, 257, 258, 259, 260, 261, 262, 263, 264, 265, 266, 267, 268, 269, 270, 271, 272, 273, 274, 275, 276, 277, 278, 279, 280, 281, 282, 283, 284, 285, 286, 287, 288, 289, 290, 291, 292, 293, 294, 295, 296, 297, 298, 299, 300, 301, 302, 303, 304, 305, 306, 307, 308, 309, 310, 311, 312, 313, 314, 315, 316, 317, 318, 319, 320, 321, 322, 323, 324, 325, 326, 327, 328, 329, 330, 331, 332, 333, 334, 335, 336, 337, 338, 339, 340, 341, 342, 343, 344, 345, 346, 347],
      "LargestImagePixelValue": [42158, 41094, 40048, 40148, 40174, 40082, 40218, 39938, 40240, 39757, 39758, 39780, 39931, 39799, 39946, 39913, 40071, 39721, 40063, 39788, 39926, 39733, 40049, 39922, 40001, 39664, 39700, 39965, 39483, 40196, 39342, 39555, 40092, 39857, 39635, 39489, 39244, 40082, 40232, 39838, 39683, 39476, 39750, 39759, 39018, 39529, 39904, 39965, 40066, 40336, 40231, 40065, 40053, 40412, 40317, 40009, 39737, 39436, 39440, 40055, 39842, 40192, 39781, 40005, 39836, 39771, 39552, 39555, 40221, 39844, 40292, 39833, 40102, 40560, 40586, 39874, 39929, 39668, 40047, 39704, 39432, 39391, 39779, 39381, 39405, 39609, 39904, 39397, 39556, 39772, 38942, 39467, 39614, 39548, 39237, 39321, 39432, 40104, 40035, 39918, 39639, 39232, 39876, 39810, 39795, 40358, 39895, 40422, 39685, 40156, 39404, 39540, 39419, 39234, 39945, 39639, 39697, 39650, 39638, 39923, 39915, 40263, 40280, 40222, 39568, 39035, 39798, 39974, 40074, 40322, 39867, 39843, 40216, 40365, 39464, 39973, 39657, 39712, 40460, 39985, 40087, 39805, 39644, 39680, 39945, 39853, 39719, 39864, 39549, 39981, 40103, 40089, 39489, 39755, 39701, 39554, 39633, 39224, 39408, 39839, 39994, 37685, 39997, 38798, 38737, 39375, 39536, 39757, 39919, 39763, 39818, 39606, 39874, 40227, 39568, 39603, 39446, 39451, 39538, 39239, 39338, 39242, 39031, 39518, 38983, 39201, 39216, 39469, 38962, 39095, 39076, 39257, 39409, 39335, 38709, 39020, 39260, 39786, 39718, 39445, 39221, 39191, 39356, 39384, 39889, 39084, 39750, 39181, 39366, 39599, 39541, 39847, 40184, 40212, 39572, 39718, 39346, 39092, 39139, 39325, 39256, 39744, 39377, 38941, 39933, 39804, 40023, 38273, 38654, 39111, 39238, 39487, 38913, 40207, 39683, 40240, 40053, 40171, 39682, 40117, 38937, 38679, 38595, 38890, 38966, 39352, 39080, 38964, 38759, 39353, 38860, 38608, 38512, 38879, 39014, 38842, 38721, 39381, 38990, 39136, 38942, 38836, 38623, 39133, 38903, 39025, 38893, 38950, 39629, 39093, 38575, 38901, 39636, 39132, 39164, 39258, 39264, 38835, 39371, 39660, 39574, 39265, 39167, 38506, 38880, 38989, 39165, 38723, 38684, 38788, 38581, 38661, 38729, 38858, 38803, 38593, 38974, 38701, 38632, 38650, 38966, 38903, 38699, 38769, 38877, 39473, 38517, 38990, 38671, 38616, 38488, 38405, 38942, 38795, 38809, 38450, 38404, 38633, 38333, 38333, 38669, 38323, 38511, 38566, 39241, 38905, 38640, 38844, 38936, 39230, 38919, 37811, 37862, 38697, 38041, 37863, 38781, 39105, 38893, 38492, 38836, 38755, 39248, 39193, 38112, 38578, 38166],
