{
  "AcquisitionMatrixPE": 104,
  "AcquisitionNumber": 1,
  "AcquisitionTime": "16:21:31.185000",
  "BandwidthPerPixelPhaseEncode": 17.17,
  "BaseResolution": 104,
  "BodyPartExamined": "BRAIN",
  "CoilCombinationMethod": "Sum of Squares",
  "ConsistencyInfo": "N4_VE11C_LATEST_20160120",
  "ConversionSoftware": "dcm2niix",
  "ConversionSoftwareVersion": "v1.0.20220505",
  "DerivedVendorReportedEchoSpacing": 0.000560011,
  "DeviceSerialNumber": "167006",
  "DwellTime": 2.1e-06,
  "EchoTime": 0.037,
  "EchoTime1": 0.037,
  "EchoTime2": 0.001,
  "EchoTrainLength": 104,
  "EffectiveEchoSpacing": 0.000560011,
  "FlipAngle": 52,
  "HeudiconvVersion": "0.5.3.post811+g6206e14",
  "ImageComments": "Unaliased MB4/PE3/LB",
  "ImageOrientationPatientDICOM": [0.999979, 0.00617039, -0.00191991, -0.00645766, 0.965269, -0.261178],
  "ImageOrientationText": "Tra>Cor(-15.1)>Sag(-0.0)",
  "ImageType": [
    "ORIGINAL",
    "PRIMARY",
    "P",
    "MB",
    "ND",
    "MOSAIC",
    "PHASE"
],
  "ImagingFrequency": 123.26,
  "InPlanePhaseEncodingDirectionDICOM": "COL",
  "InstitutionAddress": "Chemin Queen-Mary 4565,Montreal,District,CA,H3W 1W5",
  "InstitutionName": "IUGM",
  "InstitutionalDepartmentName": "Department",
  "MRAcquisitionType": "2D",
  "MagneticFieldStrength": 3,
  "Manufacturer": "Siemens",
  "ManufacturersModelName": "Prisma_fit",
  "MatrixCoilMode": "SENSE",
  "Modality": "MR",
  "MultibandAccelerationFactor": 4,
  "PartialFourier": 1,
  "PatientPosition": "HFS",
  "PercentPhaseFOV": 100,
  "PercentSampling": 100,
  "PhaseEncodingDirection": "j",
  "PhaseEncodingSteps": 104,
  "PhaseResolution": 1,
  "PixelBandwidth": 2290,
  "ProcedureStepDescription": "games^mario3",
  "ProtocolName": "func_task-mario3_run-04",
  "PulseSequenceDetails": "%CustomerSeq%\\cmrr_mbep2d_bold",
  "ReceiveCoilActiveElements": "HC1-7;NC1,2",
  "ReceiveCoilName": "HeadNeck_64",
  "ReconMatrixPE": 104,
  "RepetitionTime": 1.49,
  "SAR": 0.0581824,
  "ScanOptions": "FS",
  "ScanningSequence": "EP",
  "SequenceName": "epfid2d1_104",
  "SequenceVariant": "SK\\SS",
  "SeriesDescription": "func_task-mario3_run-04",
  "SeriesNumber": 20,
  "ShimSetting": [613, -7226, -8776, 686, 62, -75, 64, -10],
  "SliceThickness": 2,
  "SliceTiming": [0, 0.7825, 0.0975, 0.88, 0.195, 0.98, 0.2925, 1.0775, 0.39, 1.175, 0.49, 1.2725, 0.5875, 1.37, 0.685, 0, 0.7825, 0.0975, 0.88, 0.195, 0.98, 0.2925, 1.0775, 0.39, 1.175, 0.49, 1.2725, 0.5875, 1.37, 0.685, 0, 0.7825, 0.0975, 0.88, 0.195, 0.98, 0.2925, 1.0775, 0.39, 1.175, 0.49, 1.2725, 0.5875, 1.37, 0.685, 0, 0.7825, 0.0975, 0.88, 0.195, 0.98, 0.2925, 1.0775, 0.39, 1.175, 0.49, 1.2725, 0.5875, 1.37, 0.685],
  "SoftwareVersions": "syngo MR E11",
  "SpacingBetweenSlices": 2,
  "StationName": "MRC35049",
  "TaskName": "mario3",
  "TotalReadoutTime": 0.0576811,
  "TxRefAmp": 229.914,
  "WipMemBlock": "14e1e246-e5f2-46e0-ad8c-8514eb8dba61||Sequence: R017 ve11c/master r/75a17815+; Jun 28 2022 16:32:11 by eja",
  "dcmmeta_affine": [
    [-1.9999582767486572, -0.012915311381220818, -0.0004833295533899218, 109.35244750976562],
    [-0.012340771034359932, 1.930538296699524, -0.5223693251609802, -73.38195037841797],
    [-0.003839824115857482, 0.5223554372787476, 1.9305776357650757, -57.357330322265625],
    [0.0, 0.0, 0.0, 1.0]
],
  "dcmmeta_reorient_transform": [
    [0.0, -1.0, 0.0, 103.0],
    [1.0, 0.0, 0.0, 0.0],
    [0.0, 0.0, 1.0, 0.0],
    [0.0, 0.0, 0.0, 1.0]
],
  "dcmmeta_shape": [104, 104, 60, 366],
  "dcmmeta_slice_dim": 2,
  "dcmmeta_version": 0.6,
  "global": {
    "const": {
      "AcquisitionMatrix": [104, 0, 0, 104],
      "AngioFlag": "N",
      "BitsAllocated": 16,
      "BitsStored": 16,
      "BodyPartExamined": "BRAIN",
      "Columns": 832,
      "EchoNumbers": 1,
      "EchoTime": 37.0,
      "EchoTrainLength": 104,
      "FlipAngle": 52.0,
      "HighBit": 15,
      "ImageOrientationPatient": [0.99997911992303, 0.0061703853581, -0.0019199121069, -0.0064576556194, 0.96526913479318, -0.261177709806],
      "ImagePositionPatient": [-831.30579641097, -832.67146143603, 187.98034559233],
      "ImageType": [
        "ORIGINAL",
        "PRIMARY",
        "P",
        "MB",
        "ND",
        "MOSAIC"
],
      "ImagedNucleus": "1H",
      "ImagingFrequency": 123.260211,
      "InPlanePhaseEncodingDirection": "COL",
      "LargestImagePixelValue": 4095,
      "MRAcquisitionType": "2D",
      "MagneticFieldStrength": 3.0,
      "Manufacturer": "SIEMENS",
      "ManufacturerModelName": "Prisma_fit",
      "Modality": "MR",
      "NumberOfAverages": 1.0,
      "NumberOfPhaseEncodingSteps": 104,
      "PercentPhaseFieldOfView": 100.0,
      "PercentSampling": 100.0,
      "PerformedProcedureStepStartTime": "153428.582000",
      "PhotometricInterpretation": "MONOCHROME2",
      "PixelBandwidth": 2290.0,
      "PixelRepresentation": 0,
      "PixelSpacing": [2.0, 2.0],
      "ProtocolName": "func_task-mario3_run-04",
      "RepetitionTime": 1490.0,
      "RescaleIntercept": -4096.0,
      "RescaleSlope": 2.0,
      "RescaleType": "US",
      "Rows": 832,
      "SAR": 0.05818240050453,
      "SamplesPerPixel": 1,
      "ScanOptions": "FS",
      "ScanningSequence": "EP",
      "SequenceName": "epfid2d1_104",
      "SequenceVariant": [
        "SK",
        "SS"
],
      "SeriesDescription": "func_task-mario3_run-04",
      "SeriesNumber": 20,
      "SeriesTime": "162244.182000",
      "SliceLocation": -36.226578192219,
      "SliceThickness": 2.0,
      "SmallestImagePixelValue": 0,
      "SoftwareVersions": "syngo MR E11",
      "SpacingBetweenSlices": 2.0000000006347,
      "SpecificCharacterSet": "ISO_IR 100",
      "StudyID": "1",
      "StudyTime": "153428.498000",
      "TransmitCoilName": "Body",
      "VariableFlipAngleFlag": "N",
      "WindowCenterWidthExplanation": "Algo1",
      "dBdt": 0.0},
    "slices": {}
  },
  "time": {
    "samples": {
      "AcquisitionNumber": [1, 2, 3, 4, 5, 6, 7, 8, 9, 10, 11, 12, 13, 14, 15, 16, 17, 18, 19, 20, 21, 22, 23, 24, 25, 26, 27, 28, 29, 30, 31, 32, 33, 34, 35, 36, 37, 38, 39, 40, 41, 42, 43, 44, 45, 46, 47, 48, 49, 50, 51, 52, 53, 54, 55, 56, 57, 58, 59, 60, 61, 62, 63, 64, 65, 66, 67, 68, 69, 70, 71, 72, 73, 74, 75, 76, 77, 78, 79, 80, 81, 82, 83, 84, 85, 86, 87, 88, 89, 90, 91, 92, 93, 94, 95, 96, 97, 98, 99, 100, 101, 102, 103, 104, 105, 106, 107, 108, 109, 110, 111, 112, 113, 114, 115, 116, 117, 118, 119, 120, 121, 122, 123, 124, 125, 126, 127, 128, 129, 130, 131, 132, 133, 134, 135, 136, 137, 138, 139, 140, 141, 142, 143, 144, 145, 146, 147, 148, 149, 150, 151, 152, 153, 154, 155, 156, 157, 158, 159, 160, 161, 162, 163, 164, 165, 166, 167, 168, 169, 170, 171, 172, 173, 174, 175, 176, 177, 178, 179, 180, 181, 182, 183, 184, 185, 186, 187, 188, 189, 190, 191, 192, 193, 194, 195, 196, 197, 198, 199, 200, 201, 202, 203, 204, 205, 206, 207, 208, 209, 210, 211, 212, 213, 214, 215, 216, 217, 218, 219, 220, 221, 222, 223, 224, 225, 226, 227, 228, 229, 230, 231, 232, 233, 234, 235, 236, 237, 238, 239, 240, 241, 242, 243, 244, 245, 246, 247, 248, 249, 250, 251, 252, 253, 254, 255, 256, 257, 258, 259, 260, 261, 262, 263, 264, 265, 266, 267, 268, 269, 270, 271, 272, 273, 274, 275, 276, 277, 278, 279, 280, 281, 282, 283, 284, 285, 286, 287, 288, 289, 290, 291, 292, 293, 294, 295, 296, 297, 298, 299, 300, 301, 302, 303, 304, 305, 306, 307, 308, 309, 310, 311, 312, 313, 314, 315, 316, 317, 318, 319, 320, 321, 322, 323, 324, 325, 326, 327, 328, 329, 330, 331, 332, 333, 334, 335, 336, 337, 338, 339, 340, 341, 342, 343, 344, 345, 346, 347, 348, 349, 350, 351, 352, 353, 354, 355, 356, 357, 358, 359, 360, 361, 362, 363, 364, 365, 366],
      "AcquisitionTime": ["162131.185000", "162132.675000", "162134.165000", "162135.655000", "162137.145000", "162138.635000", "162140.125000", "162141.615000", "162143.105000", "162144.595000", "162146.085000", "162147.575000", "162149.065000", "162150.555000", "162152.045000", "162153.535000", "162155.025000", "162156.515000", "162158.005000", "162159.495000", "162200.985000", "162202.475000", "162203.965000", "162205.455000", "162206.945000", "162208.435000", "162209.925000", "162211.415000", "162212.905000", "162214.395000", "162215.885000", "162217.375000", "162218.865000", "162220.355000", "162221.845000", "162223.335000", "162224.825000", "162226.315000", "162227.805000", "162229.295000", "162230.785000", "162232.275000", "162233.765000", "162235.255000", "162236.745000", "162238.235000", "162239.725000", "162241.215000", "162242.705000", "162244.195000", "162245.685000", "162247.175000", "162248.665000", "162250.155000", "162251.645000", "162253.135000", "162254.625000", "162256.115000", "162257.605000", "162259.095000", "162300.585000", "162302.075000", "162303.565000", "162305.055000", "162306.545000", "162308.035000", "162309.525000", "162311.015000", "162312.505000", "162313.995000", "162315.485000", "162316.975000", "162318.465000", "162319.955000", "162321.445000", "162322.935000", "162324.425000", "162325.915000", "162327.405000", "162328.895000", "162330.385000", "162331.875000", "162333.365000", "162334.855000", "162336.345000", "162337.835000", "162339.325000", "162340.815000", "162342.305000", "162343.795000", "162345.285000", "162346.775000", "162348.265000", "162349.755000", "162351.245000", "162352.735000", "162354.225000", "162355.715000", "162357.205000", "162358.695000", "162400.185000", "162401.675000", "162403.165000", "162404.655000", "162406.145000", "162407.635000", "162409.125000", "162410.615000", "162412.105000", "162413.595000", "162415.085000", "162416.575000", "162418.065000", "162419.555000", "162421.045000", "162422.535000", "162424.025000", "162425.515000", "162427.005000", "162428.495000", "162429.985000", "162431.475000", "162432.965000", "162434.455000", "162435.945000", "162437.435000", "162438.925000", "162440.415000", "162441.905000", "162443.395000", "162444.885000", "162446.375000", "162447.865000", "162449.355000", "162450.845000", "162452.335000", "162453.825000", "162455.315000", "162456.805000", "162458.295000", "162459.785000", "162501.275000", "162502.765000", "162504.255000", "162505.745000", "162507.235000", "162508.725000", "162510.215000", "162511.705000", "162513.195000", "162514.685000", "162516.175000", "162517.665000", "162519.155000", "162520.645000", "162522.135000", "162523.625000", "162525.115000", "162526.605000", "162528.095000", "162529.585000", "162531.075000", "162532.565000", "162534.055000", "162535.545000", "162537.035000", "162538.525000", "162540.015000", "162541.505000", "162542.995000", "162544.485000", "162545.975000", "162547.465000", "162548.955000", "162550.445000", "162551.935000", "162553.425000", "162554.915000", "162556.405000", "162557.895000", "162559.385000", "162600.875000", "162602.365000", "162603.855000", "162605.345000", "162606.835000", "162608.325000", "162609.815000", "162611.305000", "162612.795000", "162614.285000", "162615.775000", "162617.265000", "162618.755000", "162620.245000", "162621.735000", "162623.225000", "162624.715000", "162626.205000", "162627.695000", "162629.185000", "162630.675000", "162632.165000", "162633.655000", "162635.145000", "162636.635000", "162638.125000", "162639.615000", "162641.105000", "162642.595000", "162644.085000", "162645.575000", "162647.065000", "162648.555000", "162650.045000", "162651.535000", "162653.025000", "162654.515000", "162656.005000", "162657.495000", "162658.985000", "162700.475000", "162701.965000", "162703.455000", "162704.945000", "162706.435000", "162707.925000", "162709.415000", "162710.905000", "162712.395000", "162713.885000", "162715.375000", "162716.865000", "162718.355000", "162719.845000", "162721.335000", "162722.825000", "162724.315000", "162725.805000", "162727.295000", "162728.785000", "162730.275000", "162731.765000", "162733.255000", "162734.745000", "162736.235000", "162737.725000", "162739.215000", "162740.705000", "162742.195000", "162743.685000", "162745.175000", "162746.665000", "162748.155000", "162749.645000", "162751.135000", "162752.625000", "162754.115000", "162755.605000", "162757.095000", "162758.585000", "162800.075000", "162801.565000", "162803.055000", "162804.545000", "162806.035000", "162807.525000", "162809.015000", "162810.505000", "162811.995000", "162813.485000", "162814.975000", "162816.465000", "162817.955000", "162819.445000", "162820.935000", "162822.425000", "162823.915000", "162825.405000", "162826.895000", "162828.385000", "162829.875000", "162831.365000", "162832.855000", "162834.345000", "162835.835000", "162837.325000", "162838.815000", "162840.305000", "162841.795000", "162843.285000", "162844.775000", "162846.265000", "162847.755000", "162849.245000", "162850.735000", "162852.225000", "162853.715000", "162855.205000", "162856.695000", "162858.185000", "162859.675000", "162901.165000", "162902.655000", "162904.145000", "162905.635000", "162907.125000", "162908.615000", "162910.105000", "162911.595000", "162913.085000", "162914.575000", "162916.065000", "162917.555000", "162919.045000", "162920.535000", "162922.025000", "162923.515000", "162925.005000", "162926.495000", "162927.985000", "162929.475000", "162930.965000", "162932.455000", "162933.945000", "162935.435000", "162936.925000", "162938.415000", "162939.905000", "162941.395000", "162942.885000", "162944.375000", "162945.865000", "162947.355000", "162948.845000", "162950.335000", "162951.825000", "162953.315000", "162954.805000", "162956.295000", "162957.785000", "162959.275000", "163000.765000", "163002.255000", "163003.745000", "163005.235000", "163006.725000", "163008.215000", "163009.705000", "163011.195000", "163012.685000", "163014.175000", "163015.665000", "163017.155000", "163018.645000", "163020.135000", "163021.625000", "163023.115000", "163024.605000", "163026.095000", "163027.585000", "163029.075000", "163030.565000", "163032.055000", "163033.545000", "163035.035000"],
      "ContentTime": ["162244.184000", "162244.187000", "162244.190000", "162244.192000", "162244.195000", "162244.197000", "162244.200000", "162244.202000", "162244.205000", "162244.207000", "162244.210000", "162244.212000", "162244.215000", "162244.217000", "162244.220000", "162244.222000", "162244.225000", "162244.227000", "162244.230000", "162244.232000", "162244.235000", "162244.237000", "162304.140000", "162304.143000", "162304.146000", "162304.148000", "162304.151000", "162304.153000", "162304.156000", "162304.158000", "162304.161000", "162304.163000", "162304.166000", "162304.168000", "162304.171000", "162304.173000", "162304.176000", "162304.178000", "162304.181000", "162304.183000", "162304.186000", "162304.188000", "162324.129000", "162324.132000", "162324.135000", "162324.137000", "162324.140000", "162324.155000", "162324.157000", "162324.160000", "162324.162000", "162324.165000", "162324.167000", "162324.170000", "162324.172000", "162324.174000", "162324.177000", "162324.179000", "162324.182000", "162324.184000", "162324.187000", "162324.189000", "162344.122000", "162344.124000", "162344.127000", "162344.129000", "162344.132000", "162344.134000", "162344.137000", "162344.139000", "162344.142000", "162344.145000", "162344.147000", "162344.149000", "162344.152000", "162344.154000", "162344.157000", "162344.159000", "162344.162000", "162344.164000", "162344.167000", "162344.169000", "162344.171000", "162424.194000", "162424.197000", "162424.199000", "162424.202000", "162424.204000", "162424.207000", "162424.209000", "162424.212000", "162424.214000", "162424.217000", "162424.219000", "162424.222000", "162424.224000", "162424.227000", "162424.229000", "162424.232000", "162424.234000", "162424.237000", "162424.239000", "162424.242000", "162424.244000", "162424.247000", "162424.249000", "162424.251000", "162424.254000", "162424.256000", "162424.259000", "162424.262000", "162424.264000", "162424.267000", "162424.269000", "162424.272000", "162504.173000", "162504.175000", "162504.178000", "162504.180000", "162504.183000", "162504.185000", "162504.188000", "162504.190000", "162504.193000", "162504.196000", "162504.198000", "162504.201000", "162504.203000", "162504.206000", "162504.208000", "162504.210000", "162504.213000", "162504.215000", "162504.218000", "162504.220000", "162504.223000", "162504.225000", "162504.228000", "162504.230000", "162504.233000", "162504.235000", "162504.238000", "162544.157000", "162544.160000", "162544.163000", "162544.165000", "162544.168000", "162544.170000", "162544.173000", "162544.175000", "162544.178000", "162544.180000", "162544.183000", "162544.185000", "162544.187000", "162544.190000", "162544.192000", "162544.195000", "162544.198000", "162544.200000", "162544.203000", "162544.205000", "162544.208000", "162544.210000", "162544.212000", "162544.215000", "162544.217000", "162544.220000", "162624.148000", "162624.151000", "162624.154000", "162624.156000", "162624.159000", "162624.161000", "162624.164000", "162624.166000", "162624.169000", "162624.171000", "162624.174000", "162624.176000", "162624.179000", "162624.181000", "162624.184000", "162624.186000", "162624.190000", "162624.193000", "162624.195000", "162624.198000", "162624.201000", "162624.203000", "162624.206000", "162624.208000", "162624.211000", "162624.213000", "162624.215000", "162704.150000", "162704.153000", "162704.156000", "162704.158000", "162704.161000", "162704.163000", "162704.166000", "162704.168000", "162704.171000", "162704.173000", "162704.176000", "162704.178000", "162704.181000", "162704.194000", "162704.196000", "162704.199000", "162704.201000", "162704.204000", "162704.206000", "162704.209000", "162704.211000", "162704.214000", "162704.216000", "162704.219000", "162704.221000", "162704.224000", "162704.226000", "162744.147000", "162744.150000", "162744.152000", "162744.155000", "162744.157000", "162744.160000", "162744.162000", "162744.165000", "162744.167000", "162744.170000", "162744.172000", "162744.175000", "162744.177000", "162744.180000", "162744.182000", "162744.184000", "162744.187000", "162744.189000", "162744.192000", "162744.194000", "162744.197000", "162744.205000", "162744.207000", "162744.210000", "162744.213000", "162744.215000", "162744.218000", "162824.149000", "162824.152000", "162824.155000", "162824.157000", "162824.160000", "162824.162000", "162824.164000", "162824.167000", "162824.169000", "162824.172000", "162824.174000", "162824.177000", "162824.179000", "162824.182000", "162824.184000", "162824.187000", "162824.189000", "162824.192000", "162824.194000", "162824.197000", "162824.200000", "162824.202000", "162824.205000", "162824.207000", "162824.209000", "162824.212000", "162824.215000", "162904.141000", "162904.143000", "162904.146000", "162904.148000", "162904.151000", "162904.153000", "162904.156000", "162904.158000", "162904.161000", "162904.163000", "162904.166000", "162904.168000", "162904.171000", "162904.173000", "162904.176000", "162904.178000", "162904.181000", "162904.183000", "162904.186000", "162904.188000", "162904.191000", "162904.193000", "162904.195000", "162904.198000", "162904.200000", "162904.203000", "162904.205000", "162944.160000", "162944.163000", "162944.165000", "162944.168000", "162944.170000", "162944.173000", "162944.175000", "162944.178000", "162944.180000", "162944.183000", "162944.185000", "162944.188000", "162944.190000", "162944.193000", "162944.195000", "162944.198000", "162944.200000", "162944.203000", "162944.205000", "162944.208000", "162944.210000", "162944.213000", "162944.215000", "162944.218000", "162944.220000", "162944.223000", "163024.140000", "163024.142000", "163024.145000", "163024.147000", "163024.150000", "163024.152000", "163024.155000", "163024.157000", "163024.160000", "163024.162000", "163024.165000", "163024.167000", "163024.170000", "163024.173000", "163024.175000", "163024.178000", "163024.180000", "163024.183000", "163024.185000", "163024.188000", "163024.190000", "163024.193000", "163024.195000", "163024.198000", "163024.200000", "163024.203000", "163024.205000", "163037.927000", "163037.930000", "163037.933000", "163037.935000", "163037.938000", "163037.940000", "163037.943000", "163037.945000", "163037.948000", "163037.951000"],
      "InstanceCreationTime": ["162244.184000", "162244.187000", "162244.190000", "162244.192000", "162244.195000", "162244.197000", "162244.200000", "162244.202000", "162244.205000", "162244.207000", "162244.210000", "162244.212000", "162244.215000", "162244.217000", "162244.220000", "162244.222000", "162244.225000", "162244.227000", "162244.230000", "162244.232000", "162244.235000", "162244.237000", "162304.140000", "162304.143000", "162304.146000", "162304.148000", "162304.151000", "162304.153000", "162304.156000", "162304.158000", "162304.161000", "162304.163000", "162304.166000", "162304.168000", "162304.171000", "162304.173000", "162304.176000", "162304.178000", "162304.181000", "162304.183000", "162304.186000", "162304.188000", "162324.129000", "162324.132000", "162324.135000", "162324.137000", "162324.140000", "162324.155000", "162324.157000", "162324.160000", "162324.162000", "162324.165000", "162324.167000", "162324.170000", "162324.172000", "162324.174000", "162324.177000", "162324.179000", "162324.182000", "162324.184000", "162324.187000", "162324.189000", "162344.122000", "162344.124000", "162344.127000", "162344.129000", "162344.132000", "162344.134000", "162344.137000", "162344.139000", "162344.142000", "162344.145000", "162344.147000", "162344.149000", "162344.152000", "162344.154000", "162344.157000", "162344.159000", "162344.162000", "162344.164000", "162344.167000", "162344.169000", "162344.171000", "162424.194000", "162424.197000", "162424.199000", "162424.202000", "162424.204000", "162424.207000", "162424.209000", "162424.212000", "162424.214000", "162424.217000", "162424.219000", "162424.222000", "162424.224000", "162424.227000", "162424.229000", "162424.232000", "162424.234000", "162424.237000", "162424.239000", "162424.242000", "162424.244000", "162424.247000", "162424.249000", "162424.251000", "162424.254000", "162424.256000", "162424.259000", "162424.262000", "162424.264000", "162424.267000", "162424.269000", "162424.272000", "162504.173000", "162504.175000", "162504.178000", "162504.180000", "162504.183000", "162504.185000", "162504.188000", "162504.190000", "162504.193000", "162504.196000", "162504.198000", "162504.201000", "162504.203000", "162504.206000", "162504.208000", "162504.210000", "162504.213000", "162504.215000", "162504.218000", "162504.220000", "162504.223000", "162504.225000", "162504.228000", "162504.230000", "162504.233000", "162504.235000", "162504.238000", "162544.157000", "162544.160000", "162544.163000", "162544.165000", "162544.168000", "162544.170000", "162544.173000", "162544.175000", "162544.178000", "162544.180000", "162544.183000", "162544.185000", "162544.187000", "162544.190000", "162544.192000", "162544.195000", "162544.198000", "162544.200000", "162544.203000", "162544.205000", "162544.208000", "162544.210000", "162544.212000", "162544.215000", "162544.217000", "162544.220000", "162624.148000", "162624.151000", "162624.154000", "162624.156000", "162624.159000", "162624.161000", "162624.164000", "162624.166000", "162624.169000", "162624.171000", "162624.174000", "162624.176000", "162624.179000", "162624.181000", "162624.184000", "162624.186000", "162624.190000", "162624.193000", "162624.195000", "162624.198000", "162624.201000", "162624.203000", "162624.206000", "162624.208000", "162624.211000", "162624.213000", "162624.215000", "162704.150000", "162704.153000", "162704.156000", "162704.158000", "162704.161000", "162704.163000", "162704.166000", "162704.168000", "162704.171000", "162704.173000", "162704.176000", "162704.178000", "162704.181000", "162704.194000", "162704.196000", "162704.199000", "162704.201000", "162704.204000", "162704.206000", "162704.209000", "162704.211000", "162704.214000", "162704.216000", "162704.219000", "162704.221000", "162704.224000", "162704.226000", "162744.147000", "162744.150000", "162744.152000", "162744.155000", "162744.157000", "162744.160000", "162744.162000", "162744.165000", "162744.167000", "162744.170000", "162744.172000", "162744.175000", "162744.177000", "162744.180000", "162744.182000", "162744.184000", "162744.187000", "162744.189000", "162744.192000", "162744.194000", "162744.197000", "162744.205000", "162744.207000", "162744.210000", "162744.213000", "162744.215000", "162744.218000", "162824.149000", "162824.152000", "162824.155000", "162824.157000", "162824.160000", "162824.162000", "162824.164000", "162824.167000", "162824.169000", "162824.172000", "162824.174000", "162824.177000", "162824.179000", "162824.182000", "162824.184000", "162824.187000", "162824.189000", "162824.192000", "162824.194000", "162824.197000", "162824.200000", "162824.202000", "162824.205000", "162824.207000", "162824.209000", "162824.212000", "162824.215000", "162904.141000", "162904.143000", "162904.146000", "162904.148000", "162904.151000", "162904.153000", "162904.156000", "162904.158000", "162904.161000", "162904.163000", "162904.166000", "162904.168000", "162904.171000", "162904.173000", "162904.176000", "162904.178000", "162904.181000", "162904.183000", "162904.186000", "162904.188000", "162904.191000", "162904.193000", "162904.195000", "162904.198000", "162904.200000", "162904.203000", "162904.205000", "162944.160000", "162944.163000", "162944.165000", "162944.168000", "162944.170000", "162944.173000", "162944.175000", "162944.178000", "162944.180000", "162944.183000", "162944.185000", "162944.188000", "162944.190000", "162944.193000", "162944.195000", "162944.198000", "162944.200000", "162944.203000", "162944.205000", "162944.208000", "162944.210000", "162944.213000", "162944.215000", "162944.218000", "162944.220000", "162944.223000", "163024.140000", "163024.142000", "163024.145000", "163024.147000", "163024.150000", "163024.152000", "163024.155000", "163024.157000", "163024.160000", "163024.162000", "163024.165000", "163024.167000", "163024.170000", "163024.173000", "163024.175000", "163024.178000", "163024.180000", "163024.183000", "163024.185000", "163024.188000", "163024.190000", "163024.193000", "163024.195000", "163024.198000", "163024.200000", "163024.203000", "163024.205000", "163037.927000", "163037.930000", "163037.933000", "163037.935000", "163037.938000", "163037.940000", "163037.943000", "163037.945000", "163037.948000", "163037.951000"],
      "InstanceNumber": [1, 2, 3, 4, 5, 6, 7, 8, 9, 10, 11, 12, 13, 14, 15, 16, 17, 18, 19, 20, 21, 22, 23, 24, 25, 26, 27, 28, 29, 30, 31, 32, 33, 34, 35, 36, 37, 38, 39, 40, 41, 42, 43, 44, 45, 46, 47, 48, 49, 50, 51, 52, 53, 54, 55, 56, 57, 58, 59, 60, 61, 62, 63, 64, 65, 66, 67, 68, 69, 70, 71, 72, 73, 74, 75, 76, 77, 78, 79, 80, 81, 82, 83, 84, 85, 86, 87, 88, 89, 90, 91, 92, 93, 94, 95, 96, 97, 98, 99, 100, 101, 102, 103, 104, 105, 106, 107, 108, 109, 110, 111, 112, 113, 114, 115, 116, 117, 118, 119, 120, 121, 122, 123, 124, 125, 126, 127, 128, 129, 130, 131, 132, 133, 134, 135, 136, 137, 138, 139, 140, 141, 142, 143, 144, 145, 146, 147, 148, 149, 150, 151, 152, 153, 154, 155, 156, 157, 158, 159, 160, 161, 162, 163, 164, 165, 166, 167, 168, 169, 170, 171, 172, 173, 174, 175, 176, 177, 178, 179, 180, 181, 182, 183, 184, 185, 186, 187, 188, 189, 190, 191, 192, 193, 194, 195, 196, 197, 198, 199, 200, 201, 202, 203, 204, 205, 206, 207, 208, 209, 210, 211, 212, 213, 214, 215, 216, 217, 218, 219, 220, 221, 222, 223, 224, 225, 226, 227, 228, 229, 230, 231, 232, 233, 234, 235, 236, 237, 238, 239, 240, 241, 242, 243, 244, 245, 246, 247, 248, 249, 250, 251, 252, 253, 254, 255, 256, 257, 258, 259, 260, 261, 262, 263, 264, 265, 266, 267, 268, 269, 270, 271, 272, 273, 274, 275, 276, 277, 278, 279, 280, 281, 282, 283, 284, 285, 286, 287, 288, 289, 290, 291, 292, 293, 294, 295, 296, 297, 298, 299, 300, 301, 302, 303, 304, 305, 306, 307, 308, 309, 310, 311, 312, 313, 314, 315, 316, 317, 318, 319, 320, 321, 322, 323, 324, 325, 326, 327, 328, 329, 330, 331, 332, 333, 334, 335, 336, 337, 338, 339, 340, 341, 342, 343, 344, 345, 346, 347, 348, 349, 350, 351, 352, 353, 354, 355, 356, 357, 358, 359, 360, 361, 362, 363, 364, 365, 366],
