{
  "AcquisitionMatrixPE": 104,
  "AcquisitionNumber": 1,
  "AcquisitionTime": "15:47:32.790000",
  "BandwidthPerPixelPhaseEncode": 17.17,
  "BaseResolution": 104,
  "BodyPartExamined": "BRAIN",
  "CoilCombinationMethod": "Sum of Squares",
  "ConsistencyInfo": "N4_VE11C_LATEST_20160120",
  "ConversionSoftware": "dcm2niix",
  "ConversionSoftwareVersion": "v1.0.20220505",
  "DerivedVendorReportedEchoSpacing": 0.000560011,
  "DeviceSerialNumber": "167006",
  "DwellTime": 2.1e-06,
  "EchoTime": 0.037,
  "EchoTime1": 0.037,
  "EchoTime2": 0.001,
  "EchoTrainLength": 104,
  "EffectiveEchoSpacing": 0.000560011,
  "FlipAngle": 52,
  "HeudiconvVersion": "0.5.3.post811+g6206e14",
  "ImageComments": "Unaliased MB4/PE3/LB",
  "ImageOrientationPatientDICOM": [0.999979, 0.00617039, -0.00191991, -0.00645766, 0.965269, -0.261178],
  "ImageOrientationText": "Tra>Cor(-15.1)>Sag(-0.0)",
  "ImageType": [
    "ORIGINAL",
    "PRIMARY",
    "P",
    "MB",
    "ND",
    "MOSAIC",
    "PHASE"
],
  "ImagingFrequency": 123.26,
  "InPlanePhaseEncodingDirectionDICOM": "COL",
  "InstitutionAddress": "Chemin Queen-Mary 4565,Montreal,District,CA,H3W 1W5",
  "InstitutionName": "IUGM",
  "InstitutionalDepartmentName": "Department",
  "MRAcquisitionType": "2D",
  "MagneticFieldStrength": 3,
  "Manufacturer": "Siemens",
  "ManufacturersModelName": "Prisma_fit",
  "MatrixCoilMode": "SENSE",
  "Modality": "MR",
  "MultibandAccelerationFactor": 4,
  "PartialFourier": 1,
  "PatientPosition": "HFS",
  "PercentPhaseFOV": 100,
  "PercentSampling": 100,
  "PhaseEncodingDirection": "j",
  "PhaseEncodingSteps": 104,
  "PhaseResolution": 1,
  "PixelBandwidth": 2290,
  "ProcedureStepDescription": "games^mario3",
  "ProtocolName": "func_task-mario3_run-01",
  "PulseSequenceDetails": "%CustomerSeq%\\cmrr_mbep2d_bold",
  "ReceiveCoilActiveElements": "HC1-7;NC1,2",
  "ReceiveCoilName": "HeadNeck_64",
  "ReconMatrixPE": 104,
  "RepetitionTime": 1.49,
  "SAR": 0.0581824,
  "ScanOptions": "FS",
  "ScanningSequence": "EP",
  "SequenceName": "epfid2d1_104",
  "SequenceVariant": "SK\\SS",
  "SeriesDescription": "func_task-mario3_run-01",
  "SeriesNumber": 11,
  "ShimSetting": [613, -7226, -8776, 686, 62, -75, 64, -10],
  "SliceThickness": 2,
  "SliceTiming": [0, 0.7825, 0.0975, 0.88, 0.195, 0.98, 0.2925, 1.0775, 0.39, 1.175, 0.49, 1.2725, 0.5875, 1.37, 0.685, 0, 0.7825, 0.0975, 0.88, 0.195, 0.98, 0.2925, 1.0775, 0.39, 1.175, 0.49, 1.2725, 0.5875, 1.37, 0.685, 0, 0.7825, 0.0975, 0.88, 0.195, 0.98, 0.2925, 1.0775, 0.39, 1.175, 0.49, 1.2725, 0.5875, 1.37, 0.685, 0, 0.7825, 0.0975, 0.88, 0.195, 0.98, 0.2925, 1.0775, 0.39, 1.175, 0.49, 1.2725, 0.5875, 1.37, 0.685],
  "SoftwareVersions": "syngo MR E11",
  "SpacingBetweenSlices": 2,
  "StationName": "MRC35049",
  "TaskName": "mario3",
  "TotalReadoutTime": 0.0576811,
  "TxRefAmp": 229.914,
  "WipMemBlock": "b3719347-1300-4cf0-941c-66ac0a5bb80e||Sequence: R017 ve11c/master r/75a17815+; Jun 28 2022 16:32:11 by eja",
  "dcmmeta_affine": [
    [-1.9999582767486572, -0.012915311381220818, -0.0004833295533899218, 109.35244750976562],
    [-0.012340771034359932, 1.930538296699524, -0.5223693251609802, -73.38195037841797],
    [-0.003839824115857482, 0.5223554372787476, 1.9305776357650757, -57.357330322265625],
    [0.0, 0.0, 0.0, 1.0]
],
  "dcmmeta_reorient_transform": [
    [0.0, -1.0, 0.0, 103.0],
    [1.0, 0.0, 0.0, 0.0],
    [0.0, 0.0, 1.0, 0.0],
    [0.0, 0.0, 0.0, 1.0]
],
  "dcmmeta_shape": [104, 104, 60, 496],
  "dcmmeta_slice_dim": 2,
  "dcmmeta_version": 0.6,
  "global": {
    "const": {
      "AcquisitionMatrix": [104, 0, 0, 104],
      "AngioFlag": "N",
      "BitsAllocated": 16,
      "BitsStored": 16,
      "BodyPartExamined": "BRAIN",
      "Columns": 832,
      "EchoNumbers": 1,
      "EchoTime": 37.0,
      "EchoTrainLength": 104,
      "FlipAngle": 52.0,
      "HighBit": 15,
      "ImageOrientationPatient": [0.99997911992303, 0.0061703853581, -0.0019199121069, -0.0064576556194, 0.96526913479318, -0.261177709806],
      "ImagePositionPatient": [-831.30579641097, -832.67146143603, 187.98034559233],
      "ImageType": [
        "ORIGINAL",
        "PRIMARY",
        "P",
        "MB",
        "ND",
        "MOSAIC"
],
      "ImagedNucleus": "1H",
      "ImagingFrequency": 123.26019,
      "InPlanePhaseEncodingDirection": "COL",
      "LargestImagePixelValue": 4095,
      "MRAcquisitionType": "2D",
      "MagneticFieldStrength": 3.0,
      "Manufacturer": "SIEMENS",
      "ManufacturerModelName": "Prisma_fit",
      "Modality": "MR",
      "NumberOfAverages": 1.0,
      "NumberOfPhaseEncodingSteps": 104,
      "PercentPhaseFieldOfView": 100.0,
      "PercentSampling": 100.0,
      "PerformedProcedureStepStartTime": "153428.582000",
      "PhotometricInterpretation": "MONOCHROME2",
      "PixelBandwidth": 2290.0,
      "PixelRepresentation": 0,
      "PixelSpacing": [2.0, 2.0],
      "ProtocolName": "func_task-mario3_run-01",
      "RepetitionTime": 1490.0,
      "RescaleIntercept": -4096.0,
      "RescaleSlope": 2.0,
      "RescaleType": "US",
      "Rows": 832,
      "SAR": 0.05818240050453,
      "SamplesPerPixel": 1,
      "ScanOptions": "FS",
      "ScanningSequence": "EP",
      "SequenceName": "epfid2d1_104",
      "SequenceVariant": [
        "SK",
        "SS"
],
      "SeriesDescription": "func_task-mario3_run-01",
      "SeriesNumber": 11,
      "SeriesTime": "154844.168000",
      "SliceLocation": -36.226578192219,
      "SliceThickness": 2.0,
      "SmallestImagePixelValue": 0,
      "SoftwareVersions": "syngo MR E11",
      "SpacingBetweenSlices": 2.0000000006347,
      "SpecificCharacterSet": "ISO_IR 100",
      "StudyID": "1",
      "StudyTime": "153428.498000",
      "TransmitCoilName": "Body",
      "VariableFlipAngleFlag": "N",
      "WindowCenterWidthExplanation": "Algo1",
      "dBdt": 0.0},
    "slices": {}
  },
  "time": {
    "samples": {
      "AcquisitionNumber": [1, 2, 3, 4, 5, 6, 7, 8, 9, 10, 11, 12, 13, 14, 15, 16, 17, 18, 19, 20, 21, 22, 23, 24, 25, 26, 27, 28, 29, 30, 31, 32, 33, 34, 35, 36, 37, 38, 39, 40, 41, 42, 43, 44, 45, 46, 47, 48, 49, 50, 51, 52, 53, 54, 55, 56, 57, 58, 59, 60, 61, 62, 63, 64, 65, 66, 67, 68, 69, 70, 71, 72, 73, 74, 75, 76, 77, 78, 79, 80, 81, 82, 83, 84, 85, 86, 87, 88, 89, 90, 91, 92, 93, 94, 95, 96, 97, 98, 99, 100, 101, 102, 103, 104, 105, 106, 107, 108, 109, 110, 111, 112, 113, 114, 115, 116, 117, 118, 119, 120, 121, 122, 123, 124, 125, 126, 127, 128, 129, 130, 131, 132, 133, 134, 135, 136, 137, 138, 139, 140, 141, 142, 143, 144, 145, 146, 147, 148, 149, 150, 151, 152, 153, 154, 155, 156, 157, 158, 159, 160, 161, 162, 163, 164, 165, 166, 167, 168, 169, 170, 171, 172, 173, 174, 175, 176, 177, 178, 179, 180, 181, 182, 183, 184, 185, 186, 187, 188, 189, 190, 191, 192, 193, 194, 195, 196, 197, 198, 199, 200, 201, 202, 203, 204, 205, 206, 207, 208, 209, 210, 211, 212, 213, 214, 215, 216, 217, 218, 219, 220, 221, 222, 223, 224, 225, 226, 227, 228, 229, 230, 231, 232, 233, 234, 235, 236, 237, 238, 239, 240, 241, 242, 243, 244, 245, 246, 247, 248, 249, 250, 251, 252, 253, 254, 255, 256, 257, 258, 259, 260, 261, 262, 263, 264, 265, 266, 267, 268, 269, 270, 271, 272, 273, 274, 275, 276, 277, 278, 279, 280, 281, 282, 283, 284, 285, 286, 287, 288, 289, 290, 291, 292, 293, 294, 295, 296, 297, 298, 299, 300, 301, 302, 303, 304, 305, 306, 307, 308, 309, 310, 311, 312, 313, 314, 315, 316, 317, 318, 319, 320, 321, 322, 323, 324, 325, 326, 327, 328, 329, 330, 331, 332, 333, 334, 335, 336, 337, 338, 339, 340, 341, 342, 343, 344, 345, 346, 347, 348, 349, 350, 351, 352, 353, 354, 355, 356, 357, 358, 359, 360, 361, 362, 363, 364, 365, 366, 367, 368, 369, 370, 371, 372, 373, 374, 375, 376, 377, 378, 379, 380, 381, 382, 383, 384, 385, 386, 387, 388, 389, 390, 391, 392, 393, 394, 395, 396, 397, 398, 399, 400, 401, 402, 403, 404, 405, 406, 407, 408, 409, 410, 411, 412, 413, 414, 415, 416, 417, 418, 419, 420, 421, 422, 423, 424, 425, 426, 427, 428, 429, 430, 431, 432, 433, 434, 435, 436, 437, 438, 439, 440, 441, 442, 443, 444, 445, 446, 447, 448, 449, 450, 451, 452, 453, 454, 455, 456, 457, 458, 459, 460, 461, 462, 463, 464, 465, 466, 467, 468, 469, 470, 471, 472, 473, 474, 475, 476, 477, 478, 479, 480, 481, 482, 483, 484, 485, 486, 487, 488, 489, 490, 491, 492, 493, 494, 495, 496],
      "AcquisitionTime": ["154732.790000", "154734.280000", "154735.770000", "154737.260000", "154738.750000", "154740.240000", "154741.730000", "154743.220000", "154744.710000", "154746.200000", "154747.690000", "154749.180000", "154750.670000", "154752.160000", "154753.650000", "154755.140000", "154756.630000", "154758.120000", "154759.610000", "154801.100000", "154802.590000", "154804.080000", "154805.570000", "154807.060000", "154808.550000", "154810.040000", "154811.530000", "154813.020000", "154814.510000", "154816.000000", "154817.490000", "154818.980000", "154820.470000", "154821.960000", "154823.450000", "154824.940000", "154826.430000", "154827.920000", "154829.410000", "154830.900000", "154832.390000", "154833.880000", "154835.370000", "154836.860000", "154838.350000", "154839.840000", "154841.330000", "154842.820000", "154844.310000", "154845.800000", "154847.290000", "154848.780000", "154850.270000", "154851.760000", "154853.250000", "154854.740000", "154856.230000", "154857.720000", "154859.210000", "154900.700000", "154902.190000", "154903.680000", "154905.170000", "154906.660000", "154908.150000", "154909.640000", "154911.130000", "154912.620000", "154914.110000", "154915.600000", "154917.090000", "154918.580000", "154920.070000", "154921.560000", "154923.050000", "154924.540000", "154926.030000", "154927.520000", "154929.010000", "154930.500000", "154931.990000", "154933.480000", "154934.970000", "154936.460000", "154937.950000", "154939.440000", "154940.930000", "154942.420000", "154943.910000", "154945.400000", "154946.890000", "154948.380000", "154949.870000", "154951.360000", "154952.850000", "154954.340000", "154955.830000", "154957.320000", "154958.810000", "155000.300000", "155001.790000", "155003.280000", "155004.770000", "155006.260000", "155007.750000", "155009.240000", "155010.730000", "155012.220000", "155013.710000", "155015.200000", "155016.690000", "155018.180000", "155019.670000", "155021.160000", "155022.650000", "155024.140000", "155025.630000", "155027.120000", "155028.610000", "155030.100000", "155031.590000", "155033.080000", "155034.570000", "155036.060000", "155037.550000", "155039.040000", "155040.530000", "155042.020000", "155043.510000", "155045.000000", "155046.490000", "155047.980000", "155049.470000", "155050.960000", "155052.450000", "155053.940000", "155055.430000", "155056.920000", "155058.410000", "155059.900000", "155101.390000", "155102.880000", "155104.370000", "155105.860000", "155107.350000", "155108.840000", "155110.330000", "155111.820000", "155113.310000", "155114.800000", "155116.290000", "155117.780000", "155119.270000", "155120.760000", "155122.250000", "155123.740000", "155125.230000", "155126.720000", "155128.210000", "155129.700000", "155131.190000", "155132.680000", "155134.170000", "155135.660000", "155137.150000", "155138.640000", "155140.130000", "155141.620000", "155143.110000", "155144.600000", "155146.090000", "155147.580000", "155149.070000", "155150.560000", "155152.050000", "155153.540000", "155155.030000", "155156.520000", "155158.010000", "155159.500000", "155200.990000", "155202.480000", "155203.970000", "155205.460000", "155206.950000", "155208.440000", "155209.930000", "155211.420000", "155212.910000", "155214.400000", "155215.890000", "155217.380000", "155218.870000", "155220.360000", "155221.850000", "155223.340000", "155224.830000", "155226.320000", "155227.810000", "155229.300000", "155230.790000", "155232.280000", "155233.770000", "155235.260000", "155236.750000", "155238.240000", "155239.730000", "155241.220000", "155242.710000", "155244.200000", "155245.690000", "155247.180000", "155248.670000", "155250.160000", "155251.650000", "155253.140000", "155254.630000", "155256.120000", "155257.610000", "155259.100000", "155300.590000", "155302.080000", "155303.570000", "155305.060000", "155306.550000", "155308.040000", "155309.530000", "155311.020000", "155312.510000", "155314.000000", "155315.490000", "155316.980000", "155318.470000", "155319.960000", "155321.450000", "155322.940000", "155324.430000", "155325.920000", "155327.410000", "155328.900000", "155330.390000", "155331.880000", "155333.370000", "155334.860000", "155336.350000", "155337.840000", "155339.330000", "155340.820000", "155342.310000", "155343.800000", "155345.290000", "155346.780000", "155348.270000", "155349.760000", "155351.250000", "155352.740000", "155354.230000", "155355.720000", "155357.210000", "155358.700000", "155400.190000", "155401.680000", "155403.170000", "155404.660000", "155406.150000", "155407.640000", "155409.130000", "155410.620000", "155412.110000", "155413.600000", "155415.090000", "155416.580000", "155418.070000", "155419.560000", "155421.050000", "155422.540000", "155424.030000", "155425.520000", "155427.010000", "155428.500000", "155429.990000", "155431.480000", "155432.970000", "155434.460000", "155435.950000", "155437.440000", "155438.930000", "155440.420000", "155441.910000", "155443.400000", "155444.890000", "155446.380000", "155447.870000", "155449.360000", "155450.850000", "155452.340000", "155453.830000", "155455.320000", "155456.810000", "155458.300000", "155459.790000", "155501.280000", "155502.770000", "155504.260000", "155505.750000", "155507.240000", "155508.730000", "155510.220000", "155511.710000", "155513.200000", "155514.690000", "155516.180000", "155517.670000", "155519.160000", "155520.650000", "155522.140000", "155523.630000", "155525.120000", "155526.610000", "155528.100000", "155529.590000", "155531.080000", "155532.570000", "155534.060000", "155535.550000", "155537.040000", "155538.530000", "155540.020000", "155541.510000", "155543.000000", "155544.490000", "155545.980000", "155547.470000", "155548.960000", "155550.450000", "155551.940000", "155553.430000", "155554.920000", "155556.410000", "155557.900000", "155559.390000", "155600.880000", "155602.370000", "155603.860000", "155605.350000", "155606.840000", "155608.330000", "155609.820000", "155611.310000", "155612.800000", "155614.290000", "155615.780000", "155617.270000", "155618.760000", "155620.250000", "155621.740000", "155623.230000", "155624.720000", "155626.210000", "155627.700000", "155629.190000", "155630.680000", "155632.170000", "155633.660000", "155635.150000", "155636.640000", "155638.130000", "155639.620000", "155641.110000", "155642.600000", "155644.090000", "155645.580000", "155647.070000", "155648.560000", "155650.050000", "155651.540000", "155653.030000", "155654.520000", "155656.010000", "155657.500000", "155658.990000", "155700.480000", "155701.970000", "155703.460000", "155704.950000", "155706.440000", "155707.930000", "155709.420000", "155710.910000", "155712.400000", "155713.890000", "155715.380000", "155716.870000", "155718.360000", "155719.850000", "155721.340000", "155722.830000", "155724.320000", "155725.810000", "155727.300000", "155728.790000", "155730.280000", "155731.770000", "155733.260000", "155734.750000", "155736.240000", "155737.730000", "155739.220000", "155740.710000", "155742.200000", "155743.690000", "155745.180000", "155746.670000", "155748.160000", "155749.650000", "155751.140000", "155752.630000", "155754.120000", "155755.610000", "155757.100000", "155758.590000", "155800.080000", "155801.570000", "155803.060000", "155804.550000", "155806.040000", "155807.530000", "155809.020000", "155810.510000", "155812.000000", "155813.490000", "155814.980000", "155816.470000", "155817.960000", "155819.450000", "155820.940000", "155822.430000", "155823.920000", "155825.410000", "155826.900000", "155828.390000", "155829.880000", "155831.370000", "155832.860000", "155834.350000", "155835.840000", "155837.330000", "155838.820000", "155840.310000", "155841.800000", "155843.290000", "155844.780000", "155846.270000", "155847.760000", "155849.250000", "155850.740000", "155852.230000", "155853.720000", "155855.210000", "155856.700000", "155858.190000", "155859.680000", "155901.170000", "155902.660000", "155904.150000", "155905.640000", "155907.130000", "155908.620000", "155910.110000", "155911.600000", "155913.090000", "155914.580000", "155916.070000", "155917.560000", "155919.050000", "155920.540000", "155922.030000", "155923.520000", "155925.010000", "155926.500000", "155927.990000", "155929.480000", "155930.970000", "155932.460000", "155933.950000", "155935.440000", "155936.930000", "155938.420000", "155939.910000", "155941.400000", "155942.890000", "155944.380000", "155945.870000", "155947.360000", "155948.850000", "155950.340000"],
      "ContentTime": ["154844.170000", "154844.173000", "154844.176000", "154844.178000", "154844.180000", "154844.183000", "154844.185000", "154844.188000", "154844.190000", "154844.193000", "154844.195000", "154844.205000", "154844.207000", "154844.210000", "154844.212000", "154844.215000", "154844.217000", "154844.220000", "154844.222000", "154844.225000", "154844.227000", "154844.230000", "154844.232000", "154904.116000", "154904.119000", "154904.121000", "154904.129000", "154904.131000", "154904.133000", "154904.136000", "154904.139000", "154904.141000", "154904.143000", "154904.146000", "154904.149000", "154904.151000", "154904.154000", "154904.156000", "154904.159000", "154904.161000", "154904.163000", "154904.166000", "154904.169000", "154924.128000", "154924.130000", "154924.133000", "154924.135000", "154924.138000", "154924.140000", "154924.143000", "154924.145000", "154924.148000", "154924.150000", "154924.153000", "154924.155000", "154924.158000", "154924.160000", "154924.163000", "154924.165000", "154924.167000", "154924.170000", "154924.172000", "154924.175000", "154944.121000", "154944.123000", "154944.126000", "154944.128000", "154944.131000", "154944.133000", "154944.136000", "154944.144000", "154944.147000", "154944.149000", "154944.152000", "154944.154000", "154944.157000", "154944.159000", "154944.162000", "154944.164000", "154944.167000", "154944.169000", "154944.172000", "154944.174000", "155024.175000", "155024.177000", "155024.180000", "155024.182000", "155024.185000", "155024.187000", "155024.190000", "155024.192000", "155024.195000", "155024.197000", "155024.200000", "155024.203000", "155024.205000", "155024.208000", "155024.210000", "155024.212000", "155024.215000", "155024.217000", "155024.220000", "155024.222000", "155024.225000", "155024.227000", "155024.230000", "155024.232000", "155024.235000", "155024.237000", "155024.240000", "155024.242000", "155024.245000", "155024.247000", "155024.250000", "155104.165000", "155104.168000", "155104.170000", "155104.173000", "155104.175000", "155104.178000", "155104.180000", "155104.183000", "155104.185000", "155104.188000", "155104.190000", "155104.193000", "155104.195000", "155104.198000", "155104.200000", "155104.203000", "155104.205000", "155104.208000", "155104.210000", "155104.213000", "155104.215000", "155104.218000", "155104.220000", "155104.222000", "155104.225000", "155104.227000", "155104.230000", "155144.145000", "155144.147000", "155144.150000", "155144.152000", "155144.164000", "155144.167000", "155144.169000", "155144.172000", "155144.174000", "155144.177000", "155144.179000", "155144.182000", "155144.184000", "155144.187000", "155144.189000", "155144.192000", "155144.194000", "155144.196000", "155144.199000", "155144.201000", "155144.204000", "155144.206000", "155144.209000", "155144.211000", "155144.214000", "155144.216000", "155224.158000", "155224.161000", "155224.163000", "155224.166000", "155224.168000", "155224.171000", "155224.173000", "155224.176000", "155224.178000", "155224.181000", "155224.183000", "155224.186000", "155224.188000", "155224.191000", "155224.193000", "155224.196000", "155224.198000", "155224.201000", "155224.204000", "155224.208000", "155224.210000", "155224.213000", "155224.215000", "155224.218000", "155224.221000", "155224.223000", "155224.226000", "155304.143000", "155304.146000", "155304.148000", "155304.151000", "155304.153000", "155304.156000", "155304.158000", "155304.161000", "155304.163000", "155304.166000", "155304.168000", "155304.171000", "155304.173000", "155304.176000", "155304.178000", "155304.181000", "155304.183000", "155304.186000", "155304.188000", "155304.190000", "155304.193000", "155304.196000", "155304.198000", "155304.201000", "155304.203000", "155304.206000", "155304.208000", "155324.084000", "155324.087000", "155324.089000", "155324.091000", "155324.094000", "155324.096000", "155324.099000", "155324.101000", "155324.104000", "155324.106000", "155324.109000", "155324.111000", "155324.115000", "155324.117000", "155404.138000", "155404.141000", "155404.144000", "155404.146000", "155404.149000", "155404.151000", "155404.154000", "155404.156000", "155404.159000", "155404.161000", "155404.164000", "155404.166000", "155404.169000", "155404.171000", "155404.173000", "155404.176000", "155404.178000", "155404.181000", "155404.183000", "155404.186000", "155404.188000", "155404.191000", "155404.193000", "155404.196000", "155404.199000", "155404.201000", "155444.147000", "155444.150000", "155444.152000", "155444.155000", "155444.157000", "155444.160000", "155444.162000", "155444.165000", "155444.167000", "155444.170000", "155444.172000", "155444.175000", "155444.177000", "155444.180000", "155444.182000", "155444.185000", "155444.187000", "155444.190000", "155444.192000", "155444.195000", "155444.197000", "155444.200000", "155444.202000", "155444.205000", "155444.207000", "155444.210000", "155444.212000", "155524.148000", "155524.150000", "155524.153000", "155524.155000", "155524.158000", "155524.161000", "155524.163000", "155524.166000", "155524.168000", "155524.171000", "155524.173000", "155524.176000", "155524.178000", "155524.181000", "155524.183000", "155524.186000", "155524.188000", "155524.191000", "155524.194000", "155524.196000", "155524.199000", "155524.201000", "155524.204000", "155524.207000", "155524.209000", "155524.211000", "155524.214000", "155604.144000", "155604.147000", "155604.149000", "155604.152000", "155604.154000", "155604.157000", "155604.159000", "155604.162000", "155604.165000", "155604.167000", "155604.170000", "155604.172000", "155604.180000", "155604.183000", "155604.185000", "155604.188000", "155604.190000", "155604.193000", "155604.196000", "155604.198000", "155604.201000", "155604.203000", "155604.206000", "155604.208000", "155604.211000", "155604.213000", "155604.215000", "155644.147000", "155644.150000", "155644.153000", "155644.155000", "155644.158000", "155644.160000", "155644.163000", "155644.165000", "155644.168000", "155644.170000", "155644.173000", "155644.175000", "155644.178000", "155644.180000", "155644.183000", "155644.185000", "155644.188000", "155644.190000", "155644.193000", "155644.195000", "155644.198000", "155644.200000", "155644.203000", "155644.205000", "155644.208000", "155644.210000", "155644.213000", "155724.138000", "155724.141000", "155724.143000", "155724.146000", "155724.148000", "155724.151000", "155724.153000", "155724.156000", "155724.158000", "155724.161000", "155724.163000", "155724.166000", "155724.168000", "155724.171000", "155724.173000", "155724.176000", "155724.178000", "155724.181000", "155724.184000", "155724.186000", "155724.189000", "155724.191000", "155724.194000", "155724.196000", "155724.199000", "155724.201000", "155724.204000", "155804.129000", "155804.132000", "155804.135000", "155804.137000", "155804.140000", "155804.150000", "155804.152000", "155804.155000", "155804.157000", "155804.160000", "155804.162000", "155804.165000", "155804.167000", "155804.170000", "155804.172000", "155804.175000", "155804.177000", "155804.180000", "155804.182000", "155804.185000", "155804.187000", "155804.190000", "155804.192000", "155804.195000", "155804.197000", "155804.199000", "155804.202000", "155844.127000", "155844.130000", "155844.132000", "155844.135000", "155844.137000", "155844.140000", "155844.142000", "155844.145000", "155844.147000", "155844.150000", "155844.153000", "155844.155000", "155844.158000", "155844.160000", "155844.163000", "155844.166000", "155844.169000", "155844.172000", "155844.175000", "155844.187000", "155844.190000", "155844.193000", "155844.195000", "155844.198000", "155844.200000", "155844.203000", "155924.210000", "155924.213000", "155924.215000", "155924.218000", "155924.220000", "155924.223000", "155924.225000", "155924.228000", "155924.230000", "155924.233000", "155924.235000", "155924.238000", "155924.240000", "155924.243000", "155924.258000", "155924.261000", "155924.263000", "155924.266000", "155924.268000", "155924.271000", "155924.273000", "155924.276000", "155924.278000", "155924.281000", "155924.283000", "155924.286000", "155924.289000", "155953.262000", "155953.265000", "155953.274000", "155953.276000", "155953.279000", "155953.282000", "155953.284000", "155953.287000", "155953.289000", "155953.292000", "155953.295000", "155953.297000", "155953.300000", "155953.302000", "155953.305000", "155953.307000", "155953.310000", "155953.313000", "155953.315000", "155953.318000"],
