{
  "AcquisitionMatrixPE": 104,
  "AcquisitionNumber": 1,
  "AcquisitionTime": "15:45:23.717500",
  "BandwidthPerPixelPhaseEncode": 17.17,
  "BaseResolution": 104,
  "BodyPartExamined": "BRAIN",
  "CoilCombinationMethod": "Sum of Squares",
  "ConsistencyInfo": "N4_VE11C_LATEST_20160120",
  "ConversionSoftware": "dcm2niix",
  "ConversionSoftwareVersion": "v1.0.20220505",
  "DerivedVendorReportedEchoSpacing": 0.000560011,
  "DeviceSerialNumber": "167006",
  "DwellTime": 2.1e-06,
  "EchoTime": 0.037,
  "EchoTrainLength": 104,
  "EffectiveEchoSpacing": 0.000560011,
  "FlipAngle": 52,
  "HeudiconvVersion": "0.5.3.post811+g6206e14",
  "ImageComments": "Unaliased MB4/PE3/LB",
  "ImageOrientationPatientDICOM": [0.998815, -0.0479163, 0.00857337, 0.0479766, 0.93927, -0.339809],
  "ImageOrientationText": "Tra>Cor(-19.9)>Sag(-0.5)",
  "ImageType": [
    "ORIGINAL",
    "PRIMARY",
    "M",
    "MB",
    "ND",
    "MOSAIC"
],
  "ImagingFrequency": 123.259,
  "InPlanePhaseEncodingDirectionDICOM": "COL",
  "InstitutionAddress": "Chemin Queen-Mary 4565,Montreal,District,CA,H3W 1W5",
  "InstitutionName": "IUGM",
  "InstitutionalDepartmentName": "Department",
  "MRAcquisitionType": "2D",
  "MagneticFieldStrength": 3,
  "Manufacturer": "Siemens",
  "ManufacturersModelName": "Prisma_fit",
  "MatrixCoilMode": "SENSE",
  "Modality": "MR",
  "MultibandAccelerationFactor": 4,
  "PartialFourier": 1,
  "PatientPosition": "HFS",
  "PercentPhaseFOV": 100,
  "PercentSampling": 100,
  "PhaseEncodingDirection": "j",
  "PhaseEncodingSteps": 104,
  "PhaseResolution": 1,
  "PixelBandwidth": 2290,
  "ProcedureStepDescription": "games^mario3",
  "ProtocolName": "func_task-mario3_run-01",
  "PulseSequenceDetails": "%CustomerSeq%\\cmrr_mbep2d_bold",
  "ReceiveCoilActiveElements": "HC1-7;NC1,2",
  "ReceiveCoilName": "HeadNeck_64",
  "ReconMatrixPE": 104,
  "RepetitionTime": 1.49,
  "SAR": 0.0398897,
  "ScanOptions": "FS",
  "ScanningSequence": "EP",
  "SequenceName": "epfid2d1_104",
  "SequenceVariant": "SK\\SS",
  "SeriesDescription": "func_task-mario3_run-01",
  "SeriesNumber": 10,
  "ShimSetting": [630, -7272, -8825, 509, -6, -206, -67, -15],
  "SliceThickness": 2,
  "SliceTiming": [0, 0.785, 0.0975, 0.8825, 0.195, 0.98, 0.295, 1.0775, 0.3925, 1.175, 0.49, 1.275, 0.5875, 1.3725, 0.685, 0, 0.785, 0.0975, 0.8825, 0.195, 0.98, 0.295, 1.0775, 0.3925, 1.175, 0.49, 1.275, 0.5875, 1.3725, 0.685, 0, 0.785, 0.0975, 0.8825, 0.195, 0.98, 0.295, 1.0775, 0.3925, 1.175, 0.49, 1.275, 0.5875, 1.3725, 0.685, 0, 0.785, 0.0975, 0.8825, 0.195, 0.98, 0.295, 1.0775, 0.3925, 1.175, 0.49, 1.275, 0.5875, 1.3725, 0.685],
  "SoftwareVersions": "syngo MR E11",
  "SpacingBetweenSlices": 2,
  "StationName": "MRC35049",
  "TaskName": "mario3",
  "TotalReadoutTime": 0.0576811,
  "TxRefAmp": 227.25,
  "WipMemBlock": "ff16ca15-eecd-404a-85c1-bfee0ac84bd9||Sequence: R017 ve11c/master r/75a17815+; Jun 28 2022 16:32:11 by eja",
  "dcmmeta_affine": [
    [-1.997629165649414, 0.09595312178134918, -0.016459424048662186, 102.44859313964844],
    [0.0958326905965805, 1.878539800643921, -0.6796355843544006, -70.59066009521484],
    [0.01714673824608326, 0.6796185970306396, 1.8809105157852173, -63.92596435546875],
    [0.0, 0.0, 0.0, 1.0]
],
  "dcmmeta_reorient_transform": [
    [0.0, -1.0, 0.0, 103.0],
    [1.0, 0.0, 0.0, 0.0],
    [0.0, 0.0, 1.0, 0.0],
    [0.0, 0.0, 0.0, 1.0]
],
  "dcmmeta_shape": [104, 104, 60, 360],
  "dcmmeta_slice_dim": 2,
  "dcmmeta_version": 0.6,
  "global": {
    "const": {
      "AcquisitionMatrix": [104, 0, 0, 104],
      "AngioFlag": "N",
      "BitsAllocated": 16,
      "BitsStored": 16,
      "BodyPartExamined": "BRAIN",
      "Columns": 832,
      "EchoNumbers": 1,
      "EchoTime": 37.0,
      "EchoTrainLength": 104,
      "FlipAngle": 52.0,
      "HighBit": 15,
      "ImageOrientationPatient": [0.99881455801201, -0.0479163442054, 0.00857336930646, 0.04797656246995, 0.93926987074362, -0.3398092985291],
      "ImagePositionPatient": [-874.39570067483, -771.80430378806, 247.2145080943],
      "ImageType": [
        "ORIGINAL",
        "PRIMARY",
        "M",
        "MB",
        "ND",
        "MOSAIC"
],
      "ImagedNucleus": "1H",
      "ImagingFrequency": 123.258756,
      "InPlanePhaseEncodingDirection": "COL",
      "MRAcquisitionType": "2D",
      "MagneticFieldStrength": 3.0,
      "Manufacturer": "SIEMENS",
      "ManufacturerModelName": "Prisma_fit",
      "Modality": "MR",
      "NumberOfAverages": 1.0,
      "NumberOfPhaseEncodingSteps": 104,
      "PercentPhaseFieldOfView": 100.0,
      "PercentSampling": 100.0,
      "PerformedProcedureStepStartTime": "154136.264000",
      "PhotometricInterpretation": "MONOCHROME2",
      "PixelBandwidth": 2290.0,
      "PixelRepresentation": 0,
      "PixelSpacing": [2.0, 2.0],
      "ProtocolName": "func_task-mario3_run-01",
      "RepetitionTime": 1490.0,
      "Rows": 832,
      "SAR": 0.03988973876479,
      "SamplesPerPixel": 1,
      "ScanOptions": "FS",
      "ScanningSequence": "EP",
      "SequenceName": "epfid2d1_104",
      "SequenceVariant": [
        "SK",
        "SS"
],
      "SeriesDescription": "func_task-mario3_run-01",
      "SeriesNumber": 10,
      "SeriesTime": "154647.037000",
      "SliceLocation": -36.974671417062,
      "SliceThickness": 2.0,
      "SmallestImagePixelValue": 0,
      "SoftwareVersions": "syngo MR E11",
      "SpacingBetweenSlices": 1.9999999886095,
      "SpecificCharacterSet": "ISO_IR 100",
      "StudyID": "1",
      "StudyTime": "154136.192000",
      "TransmitCoilName": "Body",
      "VariableFlipAngleFlag": "N",
      "WindowCenterWidthExplanation": "Algo1",
      "dBdt": 0.0},
    "slices": {}
  },
  "time": {
    "samples": {
      "AcquisitionNumber": [1, 2, 3, 4, 5, 6, 7, 8, 9, 10, 11, 12, 13, 14, 15, 16, 17, 18, 19, 20, 21, 22, 23, 24, 25, 26, 27, 28, 29, 30, 31, 32, 33, 34, 35, 36, 37, 38, 39, 40, 41, 42, 43, 44, 45, 46, 47, 48, 49, 50, 51, 52, 53, 54, 55, 56, 57, 58, 59, 60, 61, 62, 63, 64, 65, 66, 67, 68, 69, 70, 71, 72, 73, 74, 75, 76, 77, 78, 79, 80, 81, 82, 83, 84, 85, 86, 87, 88, 89, 90, 91, 92, 93, 94, 95, 96, 97, 98, 99, 100, 101, 102, 103, 104, 105, 106, 107, 108, 109, 110, 111, 112, 113, 114, 115, 116, 117, 118, 119, 120, 121, 122, 123, 124, 125, 126, 127, 128, 129, 130, 131, 132, 133, 134, 135, 136, 137, 138, 139, 140, 141, 142, 143, 144, 145, 146, 147, 148, 149, 150, 151, 152, 153, 154, 155, 156, 157, 158, 159, 160, 161, 162, 163, 164, 165, 166, 167, 168, 169, 170, 171, 172, 173, 174, 175, 176, 177, 178, 179, 180, 181, 182, 183, 184, 185, 186, 187, 188, 189, 190, 191, 192, 193, 194, 195, 196, 197, 198, 199, 200, 201, 202, 203, 204, 205, 206, 207, 208, 209, 210, 211, 212, 213, 214, 215, 216, 217, 218, 219, 220, 221, 222, 223, 224, 225, 226, 227, 228, 229, 230, 231, 232, 233, 234, 235, 236, 237, 238, 239, 240, 241, 242, 243, 244, 245, 246, 247, 248, 249, 250, 251, 252, 253, 254, 255, 256, 257, 258, 259, 260, 261, 262, 263, 264, 265, 266, 267, 268, 269, 270, 271, 272, 273, 274, 275, 276, 277, 278, 279, 280, 281, 282, 283, 284, 285, 286, 287, 288, 289, 290, 291, 292, 293, 294, 295, 296, 297, 298, 299, 300, 301, 302, 303, 304, 305, 306, 307, 308, 309, 310, 311, 312, 313, 314, 315, 316, 317, 318, 319, 320, 321, 322, 323, 324, 325, 326, 327, 328, 329, 330, 331, 332, 333, 334, 335, 336, 337, 338, 339, 340, 341, 342, 343, 344, 345, 346, 347, 348, 349, 350, 351, 352, 353, 354, 355, 356, 357, 358, 359, 360],
      "AcquisitionTime": ["154523.717500", "154525.207500", "154526.697500", "154528.187500", "154529.677500", "154531.167500", "154532.657500", "154534.147500", "154535.637500", "154537.127500", "154538.617500", "154540.107500", "154541.597500", "154543.087500", "154544.577500", "154546.067500", "154547.557500", "154549.047500", "154550.537500", "154552.027500", "154553.517500", "154555.007500", "154556.497500", "154557.987500", "154559.477500", "154600.967500", "154602.457500", "154603.947500", "154605.437500", "154606.927500", "154608.417500", "154609.907500", "154611.397500", "154612.887500", "154614.377500", "154615.867500", "154617.357500", "154618.847500", "154620.337500", "154621.827500", "154623.317500", "154624.807500", "154626.297500", "154627.787500", "154629.277500", "154630.767500", "154632.257500", "154633.747500", "154635.237500", "154636.727500", "154638.217500", "154639.707500", "154641.197500", "154642.687500", "154644.177500", "154645.667500", "154647.157500", "154648.647500", "154650.137500", "154651.627500", "154653.117500", "154654.607500", "154656.097500", "154657.587500", "154659.077500", "154700.567500", "154702.057500", "154703.547500", "154705.037500", "154706.527500", "154708.017500", "154709.507500", "154710.997500", "154712.487500", "154713.977500", "154715.467500", "154716.957500", "154718.447500", "154719.937500", "154721.427500", "154722.917500", "154724.407500", "154725.897500", "154727.387500", "154728.877500", "154730.367500", "154731.857500", "154733.347500", "154734.837500", "154736.327500", "154737.817500", "154739.307500", "154740.797500", "154742.287500", "154743.777500", "154745.267500", "154746.757500", "154748.247500", "154749.737500", "154751.227500", "154752.717500", "154754.207500", "154755.697500", "154757.187500", "154758.677500", "154800.167500", "154801.657500", "154803.147500", "154804.637500", "154806.127500", "154807.617500", "154809.107500", "154810.597500", "154812.087500", "154813.577500", "154815.067500", "154816.557500", "154818.047500", "154819.537500", "154821.027500", "154822.517500", "154824.007500", "154825.497500", "154826.987500", "154828.477500", "154829.967500", "154831.457500", "154832.947500", "154834.437500", "154835.927500", "154837.417500", "154838.907500", "154840.397500", "154841.887500", "154843.377500", "154844.867500", "154846.357500", "154847.847500", "154849.337500", "154850.827500", "154852.317500", "154853.807500", "154855.297500", "154856.787500", "154858.277500", "154859.767500", "154901.257500", "154902.747500", "154904.237500", "154905.727500", "154907.217500", "154908.707500", "154910.197500", "154911.687500", "154913.177500", "154914.667500", "154916.157500", "154917.647500", "154919.137500", "154920.627500", "154922.117500", "154923.607500", "154925.097500", "154926.587500", "154928.077500", "154929.567500", "154931.057500", "154932.547500", "154934.037500", "154935.527500", "154937.017500", "154938.507500", "154939.997500", "154941.487500", "154942.977500", "154944.467500", "154945.957500", "154947.447500", "154948.937500", "154950.427500", "154951.917500", "154953.407500", "154954.897500", "154956.387500", "154957.877500", "154959.367500", "155000.857500", "155002.347500", "155003.837500", "155005.327500", "155006.817500", "155008.307500", "155009.797500", "155011.287500", "155012.777500", "155014.267500", "155015.757500", "155017.247500", "155018.737500", "155020.227500", "155021.717500", "155023.207500", "155024.697500", "155026.187500", "155027.677500", "155029.167500", "155030.657500", "155032.147500", "155033.637500", "155035.127500", "155036.617500", "155038.107500", "155039.597500", "155041.087500", "155042.577500", "155044.067500", "155045.557500", "155047.047500", "155048.537500", "155050.027500", "155051.517500", "155053.007500", "155054.497500", "155055.987500", "155057.477500", "155058.967500", "155100.457500", "155101.947500", "155103.437500", "155104.927500", "155106.417500", "155107.907500", "155109.397500", "155110.887500", "155112.377500", "155113.867500", "155115.357500", "155116.847500", "155118.337500", "155119.827500", "155121.317500", "155122.807500", "155124.297500", "155125.787500", "155127.277500", "155128.767500", "155130.257500", "155131.747500", "155133.237500", "155134.727500", "155136.217500", "155137.707500", "155139.197500", "155140.687500", "155142.177500", "155143.667500", "155145.157500", "155146.647500", "155148.137500", "155149.627500", "155151.117500", "155152.607500", "155154.097500", "155155.587500", "155157.077500", "155158.567500", "155200.057500", "155201.547500", "155203.037500", "155204.527500", "155206.017500", "155207.507500", "155208.997500", "155210.487500", "155211.977500", "155213.467500", "155214.957500", "155216.447500", "155217.937500", "155219.427500", "155220.917500", "155222.407500", "155223.897500", "155225.387500", "155226.877500", "155228.367500", "155229.857500", "155231.347500", "155232.837500", "155234.327500", "155235.817500", "155237.307500", "155238.797500", "155240.287500", "155241.777500", "155243.267500", "155244.757500", "155246.247500", "155247.737500", "155249.227500", "155250.717500", "155252.207500", "155253.697500", "155255.187500", "155256.677500", "155258.167500", "155259.657500", "155301.147500", "155302.637500", "155304.127500", "155305.617500", "155307.107500", "155308.597500", "155310.087500", "155311.577500", "155313.067500", "155314.557500", "155316.047500", "155317.537500", "155319.027500", "155320.517500", "155322.007500", "155323.497500", "155324.987500", "155326.477500", "155327.967500", "155329.457500", "155330.947500", "155332.437500", "155333.927500", "155335.417500", "155336.907500", "155338.397500", "155339.887500", "155341.377500", "155342.867500", "155344.357500", "155345.847500", "155347.337500", "155348.827500", "155350.317500", "155351.807500", "155353.297500", "155354.787500", "155356.277500", "155357.767500", "155359.257500", "155400.747500", "155402.237500", "155403.727500", "155405.217500", "155406.707500", "155408.197500", "155409.687500", "155411.177500", "155412.667500", "155414.157500", "155415.647500", "155417.137500", "155418.627500"],
      "ContentTime": ["154647.040000", "154647.044000", "154647.047000", "154647.051000", "154647.054000", "154647.058000", "154647.061000", "154647.065000", "154647.068000", "154647.071000", "154647.075000", "154647.078000", "154647.082000", "154647.085000", "154647.088000", "154647.092000", "154647.095000", "154647.098000", "154647.102000", "154647.105000", "154647.108000", "154647.112000", "154647.115000", "154647.138000", "154647.187000", "154647.190000", "154647.194000", "154647.197000", "154647.222000", "154647.225000", "154647.229000", "154647.232000", "154647.235000", "154706.977000", "154707.623000", "154707.627000", "154707.630000", "154707.633000", "154707.637000", "154707.640000", "154707.643000", "154707.647000", "154707.650000", "154707.653000", "154707.657000", "154707.660000", "154707.664000", "154707.667000", "154707.670000", "154707.674000", "154707.677000", "154707.680000", "154707.683000", "154726.976000", "154726.980000", "154726.983000", "154726.986000", "154726.990000", "154726.993000", "154726.997000", "154727.001000", "154727.004000", "154727.008000", "154727.011000", "154727.014000", "154727.018000", "154727.021000", "154727.024000", "154727.028000", "154727.031000", "154727.034000", "154727.038000", "154727.041000", "154746.976000", "154746.980000", "154746.983000", "154746.987000", "154746.990000", "154746.994000", "154746.997000", "154747.002000", "154747.005000", "154747.009000", "154747.012000", "154747.015000", "154747.019000", "154747.022000", "154747.025000", "154747.029000", "154747.032000", "154747.036000", "154747.039000", "154747.042000", "154747.046000", "154826.976000", "154826.980000", "154826.983000", "154826.987000", "154826.990000", "154826.993000", "154826.997000", "154827.001000", "154827.004000", "154827.008000", "154827.011000", "154827.015000", "154827.018000", "154827.022000", "154827.025000", "154827.028000", "154827.032000", "154827.035000", "154827.038000", "154827.042000", "154827.045000", "154827.048000", "154827.052000", "154827.055000", "154827.059000", "154827.062000", "154827.065000", "154827.069000", "154906.977000", "154906.981000", "154906.984000", "154906.988000", "154906.991000", "154906.995000", "154906.998000", "154907.002000", "154907.006000", "154907.009000", "154907.013000", "154907.016000", "154907.019000", "154907.023000", "154907.026000", "154907.030000", "154907.033000", "154907.036000", "154907.040000", "154907.043000", "154907.046000", "154907.050000", "154907.053000", "154907.056000", "154907.060000", "154907.063000", "154907.066000", "154926.977000", "154926.981000", "154926.984000", "154926.988000", "154926.991000", "154926.995000", "154926.998000", "154927.002000", "154927.006000", "154927.009000", "154927.013000", "154927.016000", "154927.019000", "155006.976000", "155007.413000", "155007.416000", "155007.420000", "155007.423000", "155007.427000", "155007.430000", "155007.433000", "155007.437000", "155007.440000", "155007.443000", "155007.447000", "155007.450000", "155007.453000", "155007.457000", "155007.460000", "155007.464000", "155007.467000", "155007.470000", "155007.474000", "155007.477000", "155007.480000", "155007.484000", "155007.487000", "155007.490000", "155007.494000", "155007.497000", "155046.976000", "155046.980000", "155046.984000", "155046.987000", "155046.990000", "155046.994000", "155046.997000", "155047.002000", "155047.005000", "155047.008000", "155047.012000", "155047.015000", "155047.018000", "155047.022000", "155047.025000", "155047.029000", "155047.032000", "155047.035000", "155047.039000", "155047.042000", "155047.053000", "155047.056000", "155047.060000", "155047.063000", "155047.066000", "155047.070000", "155047.073000", "155126.977000", "155126.981000", "155126.984000", "155126.988000", "155126.991000", "155126.994000", "155126.998000", "155127.002000", "155127.006000", "155127.009000", "155127.012000", "155127.015000", "155127.019000", "155127.022000", "155127.026000", "155127.029000", "155127.032000", "155127.036000", "155127.039000", "155127.042000", "155127.046000", "155127.049000", "155127.052000", "155127.055000", "155127.059000", "155127.062000", "155127.065000", "155206.976000", "155206.980000", "155206.983000", "155206.987000", "155206.990000", "155206.993000", "155206.997000", "155207.001000", "155207.004000", "155207.008000", "155207.011000", "155207.015000", "155207.018000", "155207.021000", "155207.025000", "155207.028000", "155207.031000", "155207.035000", "155207.038000", "155207.041000", "155207.045000", "155207.048000", "155207.051000", "155207.055000", "155207.058000", "155207.061000", "155207.065000", "155246.976000", "155246.980000", "155246.983000", "155246.987000", "155246.990000", "155246.993000", "155246.997000", "155247.001000", "155247.004000", "155247.008000", "155247.011000", "155247.015000", "155247.018000", "155247.021000", "155247.025000", "155247.028000", "155247.031000", "155247.035000", "155247.038000", "155247.041000", "155247.045000", "155247.048000", "155247.051000", "155247.055000", "155247.058000", "155247.061000", "155247.065000", "155326.977000", "155326.990000", "155326.993000", "155326.996000", "155327.000000", "155327.003000", "155327.007000", "155327.010000", "155327.013000", "155327.016000", "155327.020000", "155327.023000", "155327.027000", "155327.030000", "155327.033000", "155327.036000", "155327.040000", "155327.043000", "155327.046000", "155327.050000", "155327.053000", "155327.056000", "155327.060000", "155327.064000", "155327.068000", "155327.071000", "155406.977000", "155406.981000", "155406.984000", "155406.988000", "155406.991000", "155406.994000", "155406.998000", "155407.002000", "155407.006000", "155407.009000", "155407.013000", "155407.016000", "155407.019000", "155407.023000", "155407.026000", "155407.029000", "155407.033000", "155407.036000", "155407.039000", "155407.043000", "155407.046000", "155407.050000", "155407.053000", "155407.056000", "155407.060000", "155407.063000", "155407.066000", "155420.956000", "155420.960000", "155420.964000", "155420.967000", "155420.971000", "155420.974000", "155420.977000", "155420.981000", "155420.984000", "155420.988000"],
      "InstanceCreationTime": ["154647.040000", "154647.044000", "154647.047000", "154647.051000", "154647.054000", "154647.058000", "154647.061000", "154647.065000", "154647.068000", "154647.071000", "154647.075000", "154647.078000", "154647.082000", "154647.085000", "154647.088000", "154647.092000", "154647.095000", "154647.098000", "154647.102000", "154647.105000", "154647.108000", "154647.112000", "154647.115000", "154647.138000", "154647.187000", "154647.190000", "154647.194000", "154647.197000", "154647.222000", "154647.225000", "154647.229000", "154647.232000", "154647.235000", "154706.977000", "154707.623000", "154707.627000", "154707.630000", "154707.633000", "154707.637000", "154707.640000", "154707.643000", "154707.647000", "154707.650000", "154707.653000", "154707.657000", "154707.660000", "154707.664000", "154707.667000", "154707.670000", "154707.674000", "154707.677000", "154707.680000", "154707.683000", "154726.976000", "154726.980000", "154726.983000", "154726.986000", "154726.990000", "154726.993000", "154726.997000", "154727.001000", "154727.004000", "154727.008000", "154727.011000", "154727.014000", "154727.018000", "154727.021000", "154727.024000", "154727.028000", "154727.031000", "154727.034000", "154727.038000", "154727.041000", "154746.976000", "154746.980000", "154746.983000", "154746.987000", "154746.990000", "154746.994000", "154746.997000", "154747.002000", "154747.005000", "154747.009000", "154747.012000", "154747.015000", "154747.019000", "154747.022000", "154747.025000", "154747.029000", "154747.032000", "154747.036000", "154747.039000", "154747.042000", "154747.046000", "154826.976000", "154826.980000", "154826.983000", "154826.987000", "154826.990000", "154826.993000", "154826.997000", "154827.001000", "154827.004000", "154827.008000", "154827.011000", "154827.015000", "154827.018000", "154827.022000", "154827.025000", "154827.028000", "154827.032000", "154827.035000", "154827.038000", "154827.042000", "154827.045000", "154827.048000", "154827.052000", "154827.055000", "154827.059000", "154827.062000", "154827.065000", "154827.069000", "154906.977000", "154906.981000", "154906.984000", "154906.988000", "154906.991000", "154906.995000", "154906.998000", "154907.002000", "154907.006000", "154907.009000", "154907.013000", "154907.016000", "154907.019000", "154907.023000", "154907.026000", "154907.030000", "154907.033000", "154907.036000", "154907.040000", "154907.043000", "154907.046000", "154907.050000", "154907.053000", "154907.056000", "154907.060000", "154907.063000", "154907.066000", "154926.977000", "154926.981000", "154926.984000", "154926.988000", "154926.991000", "154926.995000", "154926.998000", "154927.002000", "154927.006000", "154927.009000", "154927.013000", "154927.016000", "154927.019000", "155006.976000", "155007.413000", "155007.416000", "155007.420000", "155007.423000", "155007.427000", "155007.430000", "155007.433000", "155007.437000", "155007.440000", "155007.443000", "155007.447000", "155007.450000", "155007.453000", "155007.457000", "155007.460000", "155007.464000", "155007.467000", "155007.470000", "155007.474000", "155007.477000", "155007.480000", "155007.484000", "155007.487000", "155007.490000", "155007.494000", "155007.497000", "155046.976000", "155046.980000", "155046.984000", "155046.987000", "155046.990000", "155046.994000", "155046.997000", "155047.002000", "155047.005000", "155047.008000", "155047.012000", "155047.015000", "155047.018000", "155047.022000", "155047.025000", "155047.029000", "155047.032000", "155047.035000", "155047.039000", "155047.042000", "155047.053000", "155047.056000", "155047.060000", "155047.063000", "155047.066000", "155047.070000", "155047.073000", "155126.977000", "155126.981000", "155126.984000", "155126.988000", "155126.991000", "155126.994000", "155126.998000", "155127.002000", "155127.006000", "155127.009000", "155127.012000", "155127.015000", "155127.019000", "155127.022000", "155127.026000", "155127.029000", "155127.032000", "155127.036000", "155127.039000", "155127.042000", "155127.046000", "155127.049000", "155127.052000", "155127.055000", "155127.059000", "155127.062000", "155127.065000", "155206.976000", "155206.980000", "155206.983000", "155206.987000", "155206.990000", "155206.993000", "155206.997000", "155207.001000", "155207.004000", "155207.008000", "155207.011000", "155207.015000", "155207.018000", "155207.021000", "155207.025000", "155207.028000", "155207.031000", "155207.035000", "155207.038000", "155207.041000", "155207.045000", "155207.048000", "155207.051000", "155207.055000", "155207.058000", "155207.061000", "155207.065000", "155246.976000", "155246.980000", "155246.983000", "155246.987000", "155246.990000", "155246.993000", "155246.997000", "155247.001000", "155247.004000", "155247.008000", "155247.011000", "155247.015000", "155247.018000", "155247.021000", "155247.025000", "155247.028000", "155247.031000", "155247.035000", "155247.038000", "155247.041000", "155247.045000", "155247.048000", "155247.051000", "155247.055000", "155247.058000", "155247.061000", "155247.065000", "155326.977000", "155326.990000", "155326.993000", "155326.996000", "155327.000000", "155327.003000", "155327.007000", "155327.010000", "155327.013000", "155327.016000", "155327.020000", "155327.023000", "155327.027000", "155327.030000", "155327.033000", "155327.036000", "155327.040000", "155327.043000", "155327.046000", "155327.050000", "155327.053000", "155327.056000", "155327.060000", "155327.064000", "155327.068000", "155327.071000", "155406.977000", "155406.981000", "155406.984000", "155406.988000", "155406.991000", "155406.994000", "155406.998000", "155407.002000", "155407.006000", "155407.009000", "155407.013000", "155407.016000", "155407.019000", "155407.023000", "155407.026000", "155407.029000", "155407.033000", "155407.036000", "155407.039000", "155407.043000", "155407.046000", "155407.050000", "155407.053000", "155407.056000", "155407.060000", "155407.063000", "155407.066000", "155420.956000", "155420.960000", "155420.964000", "155420.967000", "155420.971000", "155420.974000", "155420.977000", "155420.981000", "155420.984000", "155420.988000"],
      "InstanceNumber": [1, 2, 3, 4, 5, 6, 7, 8, 9, 10, 11, 12, 13, 14, 15, 16, 17, 18, 19, 20, 21, 22, 23, 24, 25, 26, 27, 28, 29, 30, 31, 32, 33, 34, 35, 36, 37, 38, 39, 40, 41, 42, 43, 44, 45, 46, 47, 48, 49, 50, 51, 52, 53, 54, 55, 56, 57, 58, 59, 60, 61, 62, 63, 64, 65, 66, 67, 68, 69, 70, 71, 72, 73, 74, 75, 76, 77, 78, 79, 80, 81, 82, 83, 84, 85, 86, 87, 88, 89, 90, 91, 92, 93, 94, 95, 96, 97, 98, 99, 100, 101, 102, 103, 104, 105, 106, 107, 108, 109, 110, 111, 112, 113, 114, 115, 116, 117, 118, 119, 120, 121, 122, 123, 124, 125, 126, 127, 128, 129, 130, 131, 132, 133, 134, 135, 136, 137, 138, 139, 140, 141, 142, 143, 144, 145, 146, 147, 148, 149, 150, 151, 152, 153, 154, 155, 156, 157, 158, 159, 160, 161, 162, 163, 164, 165, 166, 167, 168, 169, 170, 171, 172, 173, 174, 175, 176, 177, 178, 179, 180, 181, 182, 183, 184, 185, 186, 187, 188, 189, 190, 191, 192, 193, 194, 195, 196, 197, 198, 199, 200, 201, 202, 203, 204, 205, 206, 207, 208, 209, 210, 211, 212, 213, 214, 215, 216, 217, 218, 219, 220, 221, 222, 223, 224, 225, 226, 227, 228, 229, 230, 231, 232, 233, 234, 235, 236, 237, 238, 239, 240, 241, 242, 243, 244, 245, 246, 247, 248, 249, 250, 251, 252, 253, 254, 255, 256, 257, 258, 259, 260, 261, 262, 263, 264, 265, 266, 267, 268, 269, 270, 271, 272, 273, 274, 275, 276, 277, 278, 279, 280, 281, 282, 283, 284, 285, 286, 287, 288, 289, 290, 291, 292, 293, 294, 295, 296, 297, 298, 299, 300, 301, 302, 303, 304, 305, 306, 307, 308, 309, 310, 311, 312, 313, 314, 315, 316, 317, 318, 319, 320, 321, 322, 323, 324, 325, 326, 327, 328, 329, 330, 331, 332, 333, 334, 335, 336, 337, 338, 339, 340, 341, 342, 343, 344, 345, 346, 347, 348, 349, 350, 351, 352, 353, 354, 355, 356, 357, 358, 359, 360],
