{
  "AcquisitionMatrixPE": 104,
  "AcquisitionNumber": 1,
  "AcquisitionTime": "15:45:23.717500",
  "BandwidthPerPixelPhaseEncode": 17.17,
  "BaseResolution": 104,
  "BodyPartExamined": "BRAIN",
  "CoilCombinationMethod": "Sum of Squares",
  "ConsistencyInfo": "N4_VE11C_LATEST_20160120",
  "ConversionSoftware": "dcm2niix",
  "ConversionSoftwareVersion": "v1.0.20220505",
  "DerivedVendorReportedEchoSpacing": 0.000560011,
  "DeviceSerialNumber": "167006",
  "DwellTime": 2.1e-06,
  "EchoTime": 0.037,
  "EchoTime1": 0.037,
  "EchoTime2": 0.001,
  "EchoTrainLength": 104,
  "EffectiveEchoSpacing": 0.000560011,
  "FlipAngle": 52,
  "HeudiconvVersion": "0.5.3.post811+g6206e14",
  "ImageComments": "Unaliased MB4/PE3/LB",
  "ImageOrientationPatientDICOM": [0.998815, -0.0479163, 0.00857337, 0.0479766, 0.93927, -0.339809],
  "ImageOrientationText": "Tra>Cor(-19.9)>Sag(-0.5)",
  "ImageType": [
    "ORIGINAL",
    "PRIMARY",
    "P",
    "MB",
    "ND",
    "MOSAIC",
    "PHASE"
],
  "ImagingFrequency": 123.259,
  "InPlanePhaseEncodingDirectionDICOM": "COL",
  "InstitutionAddress": "Chemin Queen-Mary 4565,Montreal,District,CA,H3W 1W5",
  "InstitutionName": "IUGM",
  "InstitutionalDepartmentName": "Department",
  "MRAcquisitionType": "2D",
  "MagneticFieldStrength": 3,
  "Manufacturer": "Siemens",
  "ManufacturersModelName": "Prisma_fit",
  "MatrixCoilMode": "SENSE",
  "Modality": "MR",
  "MultibandAccelerationFactor": 4,
  "PartialFourier": 1,
  "PatientPosition": "HFS",
  "PercentPhaseFOV": 100,
  "PercentSampling": 100,
  "PhaseEncodingDirection": "j",
  "PhaseEncodingSteps": 104,
  "PhaseResolution": 1,
  "PixelBandwidth": 2290,
  "ProcedureStepDescription": "games^mario3",
  "ProtocolName": "func_task-mario3_run-01",
  "PulseSequenceDetails": "%CustomerSeq%\\cmrr_mbep2d_bold",
  "ReceiveCoilActiveElements": "HC1-7;NC1,2",
  "ReceiveCoilName": "HeadNeck_64",
  "ReconMatrixPE": 104,
  "RepetitionTime": 1.49,
  "SAR": 0.0398897,
  "ScanOptions": "FS",
  "ScanningSequence": "EP",
  "SequenceName": "epfid2d1_104",
  "SequenceVariant": "SK\\SS",
  "SeriesDescription": "func_task-mario3_run-01",
  "SeriesNumber": 11,
  "ShimSetting": [630, -7272, -8825, 509, -6, -206, -67, -15],
  "SliceThickness": 2,
  "SliceTiming": [0, 0.785, 0.0975, 0.8825, 0.195, 0.98, 0.295, 1.0775, 0.3925, 1.175, 0.49, 1.275, 0.5875, 1.3725, 0.685, 0, 0.785, 0.0975, 0.8825, 0.195, 0.98, 0.295, 1.0775, 0.3925, 1.175, 0.49, 1.275, 0.5875, 1.3725, 0.685, 0, 0.785, 0.0975, 0.8825, 0.195, 0.98, 0.295, 1.0775, 0.3925, 1.175, 0.49, 1.275, 0.5875, 1.3725, 0.685, 0, 0.785, 0.0975, 0.8825, 0.195, 0.98, 0.295, 1.0775, 0.3925, 1.175, 0.49, 1.275, 0.5875, 1.3725, 0.685],
  "SoftwareVersions": "syngo MR E11",
  "SpacingBetweenSlices": 2,
  "StationName": "MRC35049",
  "TaskName": "mario3",
  "TotalReadoutTime": 0.0576811,
  "TxRefAmp": 227.25,
  "WipMemBlock": "ff16ca15-eecd-404a-85c1-bfee0ac84bd9||Sequence: R017 ve11c/master r/75a17815+; Jun 28 2022 16:32:11 by eja",
  "dcmmeta_affine": [
    [-1.997629165649414, 0.09595312178134918, -0.016459424048662186, 102.44859313964844],
    [0.0958326905965805, 1.878539800643921, -0.6796355843544006, -70.59066009521484],
    [0.01714673824608326, 0.6796185970306396, 1.8809105157852173, -63.92596435546875],
    [0.0, 0.0, 0.0, 1.0]
],
  "dcmmeta_reorient_transform": [
    [0.0, -1.0, 0.0, 103.0],
    [1.0, 0.0, 0.0, 0.0],
    [0.0, 0.0, 1.0, 0.0],
    [0.0, 0.0, 0.0, 1.0]
],
  "dcmmeta_shape": [104, 104, 60, 360],
  "dcmmeta_slice_dim": 2,
  "dcmmeta_version": 0.6,
  "global": {
    "const": {
      "AcquisitionMatrix": [104, 0, 0, 104],
      "AngioFlag": "N",
      "BitsAllocated": 16,
      "BitsStored": 16,
      "BodyPartExamined": "BRAIN",
      "Columns": 832,
      "EchoNumbers": 1,
      "EchoTime": 37.0,
      "EchoTrainLength": 104,
      "FlipAngle": 52.0,
      "HighBit": 15,
      "ImageOrientationPatient": [0.99881455801201, -0.0479163442054, 0.00857336930646, 0.04797656246995, 0.93926987074362, -0.3398092985291],
      "ImagePositionPatient": [-874.39570067483, -771.80430378806, 247.2145080943],
      "ImageType": [
        "ORIGINAL",
        "PRIMARY",
        "P",
        "MB",
        "ND",
        "MOSAIC"
],
      "ImagedNucleus": "1H",
      "ImagingFrequency": 123.258756,
      "InPlanePhaseEncodingDirection": "COL",
      "LargestImagePixelValue": 4095,
      "MRAcquisitionType": "2D",
      "MagneticFieldStrength": 3.0,
      "Manufacturer": "SIEMENS",
      "ManufacturerModelName": "Prisma_fit",
      "Modality": "MR",
      "NumberOfAverages": 1.0,
      "NumberOfPhaseEncodingSteps": 104,
      "PercentPhaseFieldOfView": 100.0,
      "PercentSampling": 100.0,
      "PerformedProcedureStepStartTime": "154136.264000",
      "PhotometricInterpretation": "MONOCHROME2",
      "PixelBandwidth": 2290.0,
      "PixelRepresentation": 0,
      "PixelSpacing": [2.0, 2.0],
      "ProtocolName": "func_task-mario3_run-01",
      "RepetitionTime": 1490.0,
      "RescaleIntercept": -4096.0,
      "RescaleSlope": 2.0,
      "RescaleType": "US",
      "Rows": 832,
      "SAR": 0.03988973876479,
      "SamplesPerPixel": 1,
      "ScanOptions": "FS",
      "ScanningSequence": "EP",
      "SequenceName": "epfid2d1_104",
      "SequenceVariant": [
        "SK",
        "SS"
],
      "SeriesDescription": "func_task-mario3_run-01",
      "SeriesNumber": 11,
      "SeriesTime": "154647.287000",
      "SliceLocation": -36.974671417062,
      "SliceThickness": 2.0,
      "SmallestImagePixelValue": 0,
      "SoftwareVersions": "syngo MR E11",
      "SpacingBetweenSlices": 1.9999999886095,
      "SpecificCharacterSet": "ISO_IR 100",
      "StudyID": "1",
      "StudyTime": "154136.192000",
      "TransmitCoilName": "Body",
      "VariableFlipAngleFlag": "N",
      "WindowCenterWidthExplanation": "Algo1",
      "dBdt": 0.0},
    "slices": {}
  },
  "time": {
    "samples": {
      "AcquisitionNumber": [1, 2, 3, 4, 5, 6, 7, 8, 9, 10, 11, 12, 13, 14, 15, 16, 17, 18, 19, 20, 21, 22, 23, 24, 25, 26, 27, 28, 29, 30, 31, 32, 33, 34, 35, 36, 37, 38, 39, 40, 41, 42, 43, 44, 45, 46, 47, 48, 49, 50, 51, 52, 53, 54, 55, 56, 57, 58, 59, 60, 61, 62, 63, 64, 65, 66, 67, 68, 69, 70, 71, 72, 73, 74, 75, 76, 77, 78, 79, 80, 81, 82, 83, 84, 85, 86, 87, 88, 89, 90, 91, 92, 93, 94, 95, 96, 97, 98, 99, 100, 101, 102, 103, 104, 105, 106, 107, 108, 109, 110, 111, 112, 113, 114, 115, 116, 117, 118, 119, 120, 121, 122, 123, 124, 125, 126, 127, 128, 129, 130, 131, 132, 133, 134, 135, 136, 137, 138, 139, 140, 141, 142, 143, 144, 145, 146, 147, 148, 149, 150, 151, 152, 153, 154, 155, 156, 157, 158, 159, 160, 161, 162, 163, 164, 165, 166, 167, 168, 169, 170, 171, 172, 173, 174, 175, 176, 177, 178, 179, 180, 181, 182, 183, 184, 185, 186, 187, 188, 189, 190, 191, 192, 193, 194, 195, 196, 197, 198, 199, 200, 201, 202, 203, 204, 205, 206, 207, 208, 209, 210, 211, 212, 213, 214, 215, 216, 217, 218, 219, 220, 221, 222, 223, 224, 225, 226, 227, 228, 229, 230, 231, 232, 233, 234, 235, 236, 237, 238, 239, 240, 241, 242, 243, 244, 245, 246, 247, 248, 249, 250, 251, 252, 253, 254, 255, 256, 257, 258, 259, 260, 261, 262, 263, 264, 265, 266, 267, 268, 269, 270, 271, 272, 273, 274, 275, 276, 277, 278, 279, 280, 281, 282, 283, 284, 285, 286, 287, 288, 289, 290, 291, 292, 293, 294, 295, 296, 297, 298, 299, 300, 301, 302, 303, 304, 305, 306, 307, 308, 309, 310, 311, 312, 313, 314, 315, 316, 317, 318, 319, 320, 321, 322, 323, 324, 325, 326, 327, 328, 329, 330, 331, 332, 333, 334, 335, 336, 337, 338, 339, 340, 341, 342, 343, 344, 345, 346, 347, 348, 349, 350, 351, 352, 353, 354, 355, 356, 357, 358, 359, 360],
      "AcquisitionTime": ["154523.717500", "154525.207500", "154526.697500", "154528.187500", "154529.677500", "154531.167500", "154532.657500", "154534.147500", "154535.637500", "154537.127500", "154538.617500", "154540.107500", "154541.597500", "154543.087500", "154544.577500", "154546.067500", "154547.557500", "154549.047500", "154550.537500", "154552.027500", "154553.517500", "154555.007500", "154556.497500", "154557.987500", "154559.477500", "154600.967500", "154602.457500", "154603.947500", "154605.437500", "154606.927500", "154608.417500", "154609.907500", "154611.397500", "154612.887500", "154614.377500", "154615.867500", "154617.357500", "154618.847500", "154620.337500", "154621.827500", "154623.317500", "154624.807500", "154626.297500", "154627.787500", "154629.277500", "154630.767500", "154632.257500", "154633.747500", "154635.237500", "154636.727500", "154638.217500", "154639.707500", "154641.197500", "154642.687500", "154644.177500", "154645.667500", "154647.157500", "154648.647500", "154650.137500", "154651.627500", "154653.117500", "154654.607500", "154656.097500", "154657.587500", "154659.077500", "154700.567500", "154702.057500", "154703.547500", "154705.037500", "154706.527500", "154708.017500", "154709.507500", "154710.997500", "154712.487500", "154713.977500", "154715.467500", "154716.957500", "154718.447500", "154719.937500", "154721.427500", "154722.917500", "154724.407500", "154725.897500", "154727.387500", "154728.877500", "154730.367500", "154731.857500", "154733.347500", "154734.837500", "154736.327500", "154737.817500", "154739.307500", "154740.797500", "154742.287500", "154743.777500", "154745.267500", "154746.757500", "154748.247500", "154749.737500", "154751.227500", "154752.717500", "154754.207500", "154755.697500", "154757.187500", "154758.677500", "154800.167500", "154801.657500", "154803.147500", "154804.637500", "154806.127500", "154807.617500", "154809.107500", "154810.597500", "154812.087500", "154813.577500", "154815.067500", "154816.557500", "154818.047500", "154819.537500", "154821.027500", "154822.517500", "154824.007500", "154825.497500", "154826.987500", "154828.477500", "154829.967500", "154831.457500", "154832.947500", "154834.437500", "154835.927500", "154837.417500", "154838.907500", "154840.397500", "154841.887500", "154843.377500", "154844.867500", "154846.357500", "154847.847500", "154849.337500", "154850.827500", "154852.317500", "154853.807500", "154855.297500", "154856.787500", "154858.277500", "154859.767500", "154901.257500", "154902.747500", "154904.237500", "154905.727500", "154907.217500", "154908.707500", "154910.197500", "154911.687500", "154913.177500", "154914.667500", "154916.157500", "154917.647500", "154919.137500", "154920.627500", "154922.117500", "154923.607500", "154925.097500", "154926.587500", "154928.077500", "154929.567500", "154931.057500", "154932.547500", "154934.037500", "154935.527500", "154937.017500", "154938.507500", "154939.997500", "154941.487500", "154942.977500", "154944.467500", "154945.957500", "154947.447500", "154948.937500", "154950.427500", "154951.917500", "154953.407500", "154954.897500", "154956.387500", "154957.877500", "154959.367500", "155000.857500", "155002.347500", "155003.837500", "155005.327500", "155006.817500", "155008.307500", "155009.797500", "155011.287500", "155012.777500", "155014.267500", "155015.757500", "155017.247500", "155018.737500", "155020.227500", "155021.717500", "155023.207500", "155024.697500", "155026.187500", "155027.677500", "155029.167500", "155030.657500", "155032.147500", "155033.637500", "155035.127500", "155036.617500", "155038.107500", "155039.597500", "155041.087500", "155042.577500", "155044.067500", "155045.557500", "155047.047500", "155048.537500", "155050.027500", "155051.517500", "155053.007500", "155054.497500", "155055.987500", "155057.477500", "155058.967500", "155100.457500", "155101.947500", "155103.437500", "155104.927500", "155106.417500", "155107.907500", "155109.397500", "155110.887500", "155112.377500", "155113.867500", "155115.357500", "155116.847500", "155118.337500", "155119.827500", "155121.317500", "155122.807500", "155124.297500", "155125.787500", "155127.277500", "155128.767500", "155130.257500", "155131.747500", "155133.237500", "155134.727500", "155136.217500", "155137.707500", "155139.197500", "155140.687500", "155142.177500", "155143.667500", "155145.157500", "155146.647500", "155148.137500", "155149.627500", "155151.117500", "155152.607500", "155154.097500", "155155.587500", "155157.077500", "155158.567500", "155200.057500", "155201.547500", "155203.037500", "155204.527500", "155206.017500", "155207.507500", "155208.997500", "155210.487500", "155211.977500", "155213.467500", "155214.957500", "155216.447500", "155217.937500", "155219.427500", "155220.917500", "155222.407500", "155223.897500", "155225.387500", "155226.877500", "155228.367500", "155229.857500", "155231.347500", "155232.837500", "155234.327500", "155235.817500", "155237.307500", "155238.797500", "155240.287500", "155241.777500", "155243.267500", "155244.757500", "155246.247500", "155247.737500", "155249.227500", "155250.717500", "155252.207500", "155253.697500", "155255.187500", "155256.677500", "155258.167500", "155259.657500", "155301.147500", "155302.637500", "155304.127500", "155305.617500", "155307.107500", "155308.597500", "155310.087500", "155311.577500", "155313.067500", "155314.557500", "155316.047500", "155317.537500", "155319.027500", "155320.517500", "155322.007500", "155323.497500", "155324.987500", "155326.477500", "155327.967500", "155329.457500", "155330.947500", "155332.437500", "155333.927500", "155335.417500", "155336.907500", "155338.397500", "155339.887500", "155341.377500", "155342.867500", "155344.357500", "155345.847500", "155347.337500", "155348.827500", "155350.317500", "155351.807500", "155353.297500", "155354.787500", "155356.277500", "155357.767500", "155359.257500", "155400.747500", "155402.237500", "155403.727500", "155405.217500", "155406.707500", "155408.197500", "155409.687500", "155411.177500", "155412.667500", "155414.157500", "155415.647500", "155417.137500", "155418.627500"],
      "ContentTime": ["154647.290000", "154647.292000", "154647.295000", "154647.298000", "154647.300000", "154647.303000", "154647.305000", "154647.308000", "154647.310000", "154647.313000", "154647.316000", "154647.318000", "154647.321000", "154647.323000", "154647.326000", "154647.328000", "154647.331000", "154647.342000", "154647.345000", "154647.347000", "154647.350000", "154647.353000", "154647.356000", "154647.359000", "154647.361000", "154647.364000", "154647.366000", "154647.369000", "154647.371000", "154647.374000", "154647.376000", "154647.379000", "154647.381000", "154707.738000", "154707.740000", "154707.743000", "154707.745000", "154707.748000", "154707.750000", "154707.753000", "154707.755000", "154707.758000", "154707.760000", "154707.763000", "154707.765000", "154707.768000", "154707.770000", "154707.773000", "154707.775000", "154707.778000", "154707.780000", "154707.783000", "154707.786000", "154727.095000", "154727.098000", "154727.100000", "154727.103000", "154727.107000", "154727.110000", "154727.113000", "154727.115000", "154727.118000", "154727.122000", "154727.125000", "154727.128000", "154727.130000", "154727.133000", "154727.136000", "154727.138000", "154727.141000", "154727.144000", "154727.146000", "154727.149000", "154747.112000", "154747.115000", "154747.117000", "154747.120000", "154747.122000", "154747.125000", "154747.127000", "154747.130000", "154747.132000", "154747.135000", "154747.137000", "154747.140000", "154747.142000", "154747.145000", "154747.147000", "154747.150000", "154747.152000", "154747.155000", "154747.158000", "154747.160000", "154747.163000", "154827.123000", "154827.126000", "154827.129000", "154827.131000", "154827.134000", "154827.136000", "154827.139000", "154827.141000", "154827.144000", "154827.146000", "154827.149000", "154827.151000", "154827.154000", "154827.157000", "154827.159000", "154827.162000", "154827.164000", "154827.167000", "154827.169000", "154827.172000", "154827.174000", "154827.177000", "154827.179000", "154827.182000", "154827.184000", "154827.187000", "154827.189000", "154827.192000", "154907.117000", "154907.120000", "154907.122000", "154907.125000", "154907.127000", "154907.130000", "154907.132000", "154907.135000", "154907.137000", "154907.140000", "154907.143000", "154907.145000", "154907.148000", "154907.150000", "154907.153000", "154907.156000", "154907.158000", "154907.161000", "154907.163000", "154907.166000", "154907.169000", "154907.171000", "154907.174000", "154907.177000", "154907.179000", "154907.182000", "154907.184000", "154927.101000", "154927.104000", "154927.107000", "154927.109000", "154927.112000", "154927.114000", "154927.117000", "154927.119000", "154927.122000", "154927.125000", "154927.127000", "154927.130000", "154927.132000", "155007.555000", "155007.559000", "155007.562000", "155007.566000", "155007.568000", "155007.571000", "155007.574000", "155007.577000", "155007.579000", "155007.582000", "155007.585000", "155007.587000", "155007.590000", "155007.593000", "155007.595000", "155007.598000", "155007.600000", "155007.603000", "155007.605000", "155007.608000", "155007.610000", "155007.613000", "155007.615000", "155007.618000", "155007.621000", "155007.623000", "155007.626000", "155047.123000", "155047.126000", "155047.129000", "155047.131000", "155047.134000", "155047.136000", "155047.139000", "155047.141000", "155047.144000", "155047.146000", "155047.149000", "155047.151000", "155047.154000", "155047.156000", "155047.159000", "155047.161000", "155047.164000", "155047.167000", "155047.169000", "155047.172000", "155047.174000", "155047.177000", "155047.179000", "155047.182000", "155047.184000", "155047.187000", "155047.189000", "155127.110000", "155127.112000", "155127.115000", "155127.117000", "155127.120000", "155127.122000", "155127.125000", "155127.127000", "155127.130000", "155127.132000", "155127.135000", "155127.138000", "155127.140000", "155127.143000", "155127.145000", "155127.148000", "155127.150000", "155127.153000", "155127.155000", "155127.158000", "155127.160000", "155127.163000", "155127.165000", "155127.168000", "155127.171000", "155127.173000", "155127.176000", "155207.129000", "155207.131000", "155207.134000", "155207.136000", "155207.139000", "155207.142000", "155207.144000", "155207.147000", "155207.149000", "155207.152000", "155207.154000", "155207.157000", "155207.159000", "155207.162000", "155207.164000", "155207.167000", "155207.169000", "155207.172000", "155207.175000", "155207.177000", "155207.180000", "155207.182000", "155207.185000", "155207.187000", "155207.190000", "155207.192000", "155207.195000", "155247.125000", "155247.128000", "155247.131000", "155247.133000", "155247.136000", "155247.138000", "155247.141000", "155247.143000", "155247.146000", "155247.148000", "155247.151000", "155247.153000", "155247.156000", "155247.158000", "155247.161000", "155247.163000", "155247.166000", "155247.168000", "155247.171000", "155247.173000", "155247.176000", "155247.178000", "155247.181000", "155247.183000", "155247.186000", "155247.188000", "155327.123000", "155327.126000", "155327.128000", "155327.131000", "155327.133000", "155327.136000", "155327.138000", "155327.141000", "155327.143000", "155327.146000", "155327.148000", "155327.151000", "155327.154000", "155327.156000", "155327.159000", "155327.161000", "155327.164000", "155327.166000", "155327.169000", "155327.171000", "155327.174000", "155327.176000", "155327.179000", "155327.181000", "155327.184000", "155327.186000", "155327.189000", "155407.113000", "155407.116000", "155407.119000", "155407.121000", "155407.124000", "155407.126000", "155407.129000", "155407.131000", "155407.134000", "155407.136000", "155407.139000", "155407.142000", "155407.144000", "155407.147000", "155407.149000", "155407.152000", "155407.154000", "155407.157000", "155407.159000", "155407.162000", "155407.164000", "155407.167000", "155407.169000", "155407.172000", "155407.174000", "155407.177000", "155407.179000", "155421.031000", "155421.034000", "155421.037000", "155421.040000", "155421.042000", "155421.045000", "155421.047000", "155421.050000", "155421.052000", "155421.055000"],
      "InstanceCreationTime": ["154647.290000", "154647.292000", "154647.295000", "154647.298000", "154647.300000", "154647.303000", "154647.305000", "154647.308000", "154647.310000", "154647.313000", "154647.316000", "154647.318000", "154647.321000", "154647.323000", "154647.326000", "154647.328000", "154647.331000", "154647.342000", "154647.345000", "154647.347000", "154647.350000", "154647.353000", "154647.356000", "154647.359000", "154647.361000", "154647.364000", "154647.366000", "154647.369000", "154647.371000", "154647.374000", "154647.376000", "154647.379000", "154647.381000", "154707.738000", "154707.740000", "154707.743000", "154707.745000", "154707.748000", "154707.750000", "154707.753000", "154707.755000", "154707.758000", "154707.760000", "154707.763000", "154707.765000", "154707.768000", "154707.770000", "154707.773000", "154707.775000", "154707.778000", "154707.780000", "154707.783000", "154707.786000", "154727.095000", "154727.098000", "154727.100000", "154727.103000", "154727.107000", "154727.110000", "154727.113000", "154727.115000", "154727.118000", "154727.122000", "154727.125000", "154727.128000", "154727.130000", "154727.133000", "154727.136000", "154727.138000", "154727.141000", "154727.144000", "154727.146000", "154727.149000", "154747.112000", "154747.115000", "154747.117000", "154747.120000", "154747.122000", "154747.125000", "154747.127000", "154747.130000", "154747.132000", "154747.135000", "154747.137000", "154747.140000", "154747.142000", "154747.145000", "154747.147000", "154747.150000", "154747.152000", "154747.155000", "154747.158000", "154747.160000", "154747.163000", "154827.123000", "154827.126000", "154827.129000", "154827.131000", "154827.134000", "154827.136000", "154827.139000", "154827.141000", "154827.144000", "154827.146000", "154827.149000", "154827.151000", "154827.154000", "154827.157000", "154827.159000", "154827.162000", "154827.164000", "154827.167000", "154827.169000", "154827.172000", "154827.174000", "154827.177000", "154827.179000", "154827.182000", "154827.184000", "154827.187000", "154827.189000", "154827.192000", "154907.117000", "154907.120000", "154907.122000", "154907.125000", "154907.127000", "154907.130000", "154907.132000", "154907.135000", "154907.137000", "154907.140000", "154907.143000", "154907.145000", "154907.148000", "154907.150000", "154907.153000", "154907.156000", "154907.158000", "154907.161000", "154907.163000", "154907.166000", "154907.169000", "154907.171000", "154907.174000", "154907.177000", "154907.179000", "154907.182000", "154907.184000", "154927.101000", "154927.104000", "154927.107000", "154927.109000", "154927.112000", "154927.114000", "154927.117000", "154927.119000", "154927.122000", "154927.125000", "154927.127000", "154927.130000", "154927.132000", "155007.555000", "155007.559000", "155007.562000", "155007.566000", "155007.568000", "155007.571000", "155007.574000", "155007.577000", "155007.579000", "155007.582000", "155007.585000", "155007.587000", "155007.590000", "155007.593000", "155007.595000", "155007.598000", "155007.600000", "155007.603000", "155007.605000", "155007.608000", "155007.610000", "155007.613000", "155007.615000", "155007.618000", "155007.621000", "155007.623000", "155007.626000", "155047.123000", "155047.126000", "155047.129000", "155047.131000", "155047.134000", "155047.136000", "155047.139000", "155047.141000", "155047.144000", "155047.146000", "155047.149000", "155047.151000", "155047.154000", "155047.156000", "155047.159000", "155047.161000", "155047.164000", "155047.167000", "155047.169000", "155047.172000", "155047.174000", "155047.177000", "155047.179000", "155047.182000", "155047.184000", "155047.187000", "155047.189000", "155127.110000", "155127.112000", "155127.115000", "155127.117000", "155127.120000", "155127.122000", "155127.125000", "155127.127000", "155127.130000", "155127.132000", "155127.135000", "155127.138000", "155127.140000", "155127.143000", "155127.145000", "155127.148000", "155127.150000", "155127.153000", "155127.155000", "155127.158000", "155127.160000", "155127.163000", "155127.165000", "155127.168000", "155127.171000", "155127.173000", "155127.176000", "155207.129000", "155207.131000", "155207.134000", "155207.136000", "155207.139000", "155207.142000", "155207.144000", "155207.147000", "155207.149000", "155207.152000", "155207.154000", "155207.157000", "155207.159000", "155207.162000", "155207.164000", "155207.167000", "155207.169000", "155207.172000", "155207.175000", "155207.177000", "155207.180000", "155207.182000", "155207.185000", "155207.187000", "155207.190000", "155207.192000", "155207.195000", "155247.125000", "155247.128000", "155247.131000", "155247.133000", "155247.136000", "155247.138000", "155247.141000", "155247.143000", "155247.146000", "155247.148000", "155247.151000", "155247.153000", "155247.156000", "155247.158000", "155247.161000", "155247.163000", "155247.166000", "155247.168000", "155247.171000", "155247.173000", "155247.176000", "155247.178000", "155247.181000", "155247.183000", "155247.186000", "155247.188000", "155327.123000", "155327.126000", "155327.128000", "155327.131000", "155327.133000", "155327.136000", "155327.138000", "155327.141000", "155327.143000", "155327.146000", "155327.148000", "155327.151000", "155327.154000", "155327.156000", "155327.159000", "155327.161000", "155327.164000", "155327.166000", "155327.169000", "155327.171000", "155327.174000", "155327.176000", "155327.179000", "155327.181000", "155327.184000", "155327.186000", "155327.189000", "155407.113000", "155407.116000", "155407.119000", "155407.121000", "155407.124000", "155407.126000", "155407.129000", "155407.131000", "155407.134000", "155407.136000", "155407.139000", "155407.142000", "155407.144000", "155407.147000", "155407.149000", "155407.152000", "155407.154000", "155407.157000", "155407.159000", "155407.162000", "155407.164000", "155407.167000", "155407.169000", "155407.172000", "155407.174000", "155407.177000", "155407.179000", "155421.031000", "155421.034000", "155421.037000", "155421.040000", "155421.042000", "155421.045000", "155421.047000", "155421.050000", "155421.052000", "155421.055000"],
      "InstanceNumber": [1, 2, 3, 4, 5, 6, 7, 8, 9, 10, 11, 12, 13, 14, 15, 16, 17, 18, 19, 20, 21, 22, 23, 24, 25, 26, 27, 28, 29, 30, 31, 32, 33, 34, 35, 36, 37, 38, 39, 40, 41, 42, 43, 44, 45, 46, 47, 48, 49, 50, 51, 52, 53, 54, 55, 56, 57, 58, 59, 60, 61, 62, 63, 64, 65, 66, 67, 68, 69, 70, 71, 72, 73, 74, 75, 76, 77, 78, 79, 80, 81, 82, 83, 84, 85, 86, 87, 88, 89, 90, 91, 92, 93, 94, 95, 96, 97, 98, 99, 100, 101, 102, 103, 104, 105, 106, 107, 108, 109, 110, 111, 112, 113, 114, 115, 116, 117, 118, 119, 120, 121, 122, 123, 124, 125, 126, 127, 128, 129, 130, 131, 132, 133, 134, 135, 136, 137, 138, 139, 140, 141, 142, 143, 144, 145, 146, 147, 148, 149, 150, 151, 152, 153, 154, 155, 156, 157, 158, 159, 160, 161, 162, 163, 164, 165, 166, 167, 168, 169, 170, 171, 172, 173, 174, 175, 176, 177, 178, 179, 180, 181, 182, 183, 184, 185, 186, 187, 188, 189, 190, 191, 192, 193, 194, 195, 196, 197, 198, 199, 200, 201, 202, 203, 204, 205, 206, 207, 208, 209, 210, 211, 212, 213, 214, 215, 216, 217, 218, 219, 220, 221, 222, 223, 224, 225, 226, 227, 228, 229, 230, 231, 232, 233, 234, 235, 236, 237, 238, 239, 240, 241, 242, 243, 244, 245, 246, 247, 248, 249, 250, 251, 252, 253, 254, 255, 256, 257, 258, 259, 260, 261, 262, 263, 264, 265, 266, 267, 268, 269, 270, 271, 272, 273, 274, 275, 276, 277, 278, 279, 280, 281, 282, 283, 284, 285, 286, 287, 288, 289, 290, 291, 292, 293, 294, 295, 296, 297, 298, 299, 300, 301, 302, 303, 304, 305, 306, 307, 308, 309, 310, 311, 312, 313, 314, 315, 316, 317, 318, 319, 320, 321, 322, 323, 324, 325, 326, 327, 328, 329, 330, 331, 332, 333, 334, 335, 336, 337, 338, 339, 340, 341, 342, 343, 344, 345, 346, 347, 348, 349, 350, 351, 352, 353, 354, 355, 356, 357, 358, 359, 360],
