{
  "AcquisitionMatrixPE": 104,
  "AcquisitionNumber": 1,
  "AcquisitionTime": "15:57:13.727500",
  "BandwidthPerPixelPhaseEncode": 17.17,
  "BaseResolution": 104,
  "BodyPartExamined": "BRAIN",
  "CoilCombinationMethod": "Sum of Squares",
  "ConsistencyInfo": "N4_VE11C_LATEST_20160120",
  "ConversionSoftware": "dcm2niix",
  "ConversionSoftwareVersion": "v1.0.20220505",
  "DerivedVendorReportedEchoSpacing": 0.000560011,
  "DeviceSerialNumber": "167006",
  "DwellTime": 2.1e-06,
  "EchoTime": 0.037,
  "EchoTrainLength": 104,
  "EffectiveEchoSpacing": 0.000560011,
  "FlipAngle": 52,
  "HeudiconvVersion": "0.5.3.post811+g6206e14",
  "ImageComments": "Unaliased MB4/PE3/LB",
  "ImageOrientationPatientDICOM": [0.998815, -0.0479163, 0.00857337, 0.0479766, 0.93927, -0.339809],
  "ImageOrientationText": "Tra>Cor(-19.9)>Sag(-0.5)",
  "ImageType": [
    "ORIGINAL",
    "PRIMARY",
    "M",
    "MB",
    "ND",
    "MOSAIC"
],
  "ImagingFrequency": 123.259,
  "InPlanePhaseEncodingDirectionDICOM": "COL",
  "InstitutionAddress": "Chemin Queen-Mary 4565,Montreal,District,CA,H3W 1W5",
  "InstitutionName": "IUGM",
  "InstitutionalDepartmentName": "Department",
  "MRAcquisitionType": "2D",
  "MagneticFieldStrength": 3,
  "Manufacturer": "Siemens",
  "ManufacturersModelName": "Prisma_fit",
  "MatrixCoilMode": "SENSE",
  "Modality": "MR",
  "MultibandAccelerationFactor": 4,
  "PartialFourier": 1,
  "PatientPosition": "HFS",
  "PercentPhaseFOV": 100,
  "PercentSampling": 100,
  "PhaseEncodingDirection": "j",
  "PhaseEncodingSteps": 104,
  "PhaseResolution": 1,
  "PixelBandwidth": 2290,
  "ProcedureStepDescription": "games^mario3",
  "ProtocolName": "func_task-mario3_run-02",
  "PulseSequenceDetails": "%CustomerSeq%\\cmrr_mbep2d_bold",
  "ReceiveCoilActiveElements": "HC1-7;NC1,2",
  "ReceiveCoilName": "HeadNeck_64",
  "ReconMatrixPE": 104,
  "RepetitionTime": 1.49,
  "SAR": 0.0398897,
  "ScanOptions": "FS",
  "ScanningSequence": "EP",
  "SequenceName": "epfid2d1_104",
  "SequenceVariant": "SK\\SS",
  "SeriesDescription": "func_task-mario3_run-02",
  "SeriesNumber": 13,
  "ShimSetting": [630, -7272, -8825, 509, -6, -206, -67, -15],
  "SliceThickness": 2,
  "SliceTiming": [0, 0.7825, 0.0975, 0.8825, 0.195, 0.98, 0.2925, 1.0775, 0.3925, 1.175, 0.49, 1.2725, 0.5875, 1.3725, 0.685, 0, 0.7825, 0.0975, 0.8825, 0.195, 0.98, 0.2925, 1.0775, 0.3925, 1.175, 0.49, 1.2725, 0.5875, 1.3725, 0.685, 0, 0.7825, 0.0975, 0.8825, 0.195, 0.98, 0.2925, 1.0775, 0.3925, 1.175, 0.49, 1.2725, 0.5875, 1.3725, 0.685, 0, 0.7825, 0.0975, 0.8825, 0.195, 0.98, 0.2925, 1.0775, 0.3925, 1.175, 0.49, 1.2725, 0.5875, 1.3725, 0.685],
  "SoftwareVersions": "syngo MR E11",
  "SpacingBetweenSlices": 2,
  "StationName": "MRC35049",
  "TaskName": "mario3",
  "TotalReadoutTime": 0.0576811,
  "TxRefAmp": 227.25,
  "WipMemBlock": "dcd6a33f-11aa-469f-8d5c-6a240be424e6||Sequence: R017 ve11c/master r/75a17815+; Jun 28 2022 16:32:11 by eja",
  "dcmmeta_affine": [
    [-1.997629165649414, 0.09595312178134918, -0.016459424048662186, 102.44859313964844],
    [0.0958326905965805, 1.878539800643921, -0.6796355843544006, -70.59066009521484],
    [0.01714673824608326, 0.6796185970306396, 1.8809105157852173, -63.92596435546875],
    [0.0, 0.0, 0.0, 1.0]
],
  "dcmmeta_reorient_transform": [
    [0.0, -1.0, 0.0, 103.0],
    [1.0, 0.0, 0.0, 0.0],
    [0.0, 0.0, 1.0, 0.0],
    [0.0, 0.0, 0.0, 1.0]
],
  "dcmmeta_shape": [104, 104, 60, 340],
  "dcmmeta_slice_dim": 2,
  "dcmmeta_version": 0.6,
  "global": {
    "const": {
      "AcquisitionMatrix": [104, 0, 0, 104],
      "AngioFlag": "N",
      "BitsAllocated": 16,
      "BitsStored": 16,
      "BodyPartExamined": "BRAIN",
      "Columns": 832,
      "EchoNumbers": 1,
      "EchoTime": 37.0,
      "EchoTrainLength": 104,
      "FlipAngle": 52.0,
      "HighBit": 15,
      "ImageOrientationPatient": [0.99881455801201, -0.0479163442054, 0.00857336930646, 0.04797656246995, 0.93926987074362, -0.3398092985291],
      "ImagePositionPatient": [-874.39570067483, -771.80430378806, 247.2145080943],
      "ImageType": [
        "ORIGINAL",
        "PRIMARY",
        "M",
        "MB",
        "ND",
        "MOSAIC"
],
      "ImagedNucleus": "1H",
      "ImagingFrequency": 123.258763,
      "InPlanePhaseEncodingDirection": "COL",
      "MRAcquisitionType": "2D",
      "MagneticFieldStrength": 3.0,
      "Manufacturer": "SIEMENS",
      "ManufacturerModelName": "Prisma_fit",
      "Modality": "MR",
      "NumberOfAverages": 1.0,
      "NumberOfPhaseEncodingSteps": 104,
      "PercentPhaseFieldOfView": 100.0,
      "PercentSampling": 100.0,
      "PerformedProcedureStepStartTime": "154136.264000",
      "PhotometricInterpretation": "MONOCHROME2",
      "PixelBandwidth": 2290.0,
      "PixelRepresentation": 0,
      "PixelSpacing": [2.0, 2.0],
      "ProtocolName": "func_task-mario3_run-02",
      "RepetitionTime": 1490.0,
      "Rows": 832,
      "SAR": 0.03988973876479,
      "SamplesPerPixel": 1,
      "ScanOptions": "FS",
      "ScanningSequence": "EP",
      "SequenceName": "epfid2d1_104",
      "SequenceVariant": [
        "SK",
        "SS"
],
      "SeriesDescription": "func_task-mario3_run-02",
      "SeriesNumber": 13,
      "SeriesTime": "155838.122000",
      "SliceLocation": -36.974671417062,
      "SliceThickness": 2.0,
      "SmallestImagePixelValue": 0,
      "SoftwareVersions": "syngo MR E11",
      "SpacingBetweenSlices": 1.9999999886095,
      "SpecificCharacterSet": "ISO_IR 100",
      "StudyID": "1",
      "StudyTime": "154136.192000",
      "TransmitCoilName": "Body",
      "VariableFlipAngleFlag": "N",
      "WindowCenterWidthExplanation": "Algo1",
      "dBdt": 0.0},
    "slices": {}
  },
  "time": {
    "samples": {
      "AcquisitionNumber": [1, 2, 3, 4, 5, 6, 7, 8, 9, 10, 11, 12, 13, 14, 15, 16, 17, 18, 19, 20, 21, 22, 23, 24, 25, 26, 27, 28, 29, 30, 31, 32, 33, 34, 35, 36, 37, 38, 39, 40, 41, 42, 43, 44, 45, 46, 47, 48, 49, 50, 51, 52, 53, 54, 55, 56, 57, 58, 59, 60, 61, 62, 63, 64, 65, 66, 67, 68, 69, 70, 71, 72, 73, 74, 75, 76, 77, 78, 79, 80, 81, 82, 83, 84, 85, 86, 87, 88, 89, 90, 91, 92, 93, 94, 95, 96, 97, 98, 99, 100, 101, 102, 103, 104, 105, 106, 107, 108, 109, 110, 111, 112, 113, 114, 115, 116, 117, 118, 119, 120, 121, 122, 123, 124, 125, 126, 127, 128, 129, 130, 131, 132, 133, 134, 135, 136, 137, 138, 139, 140, 141, 142, 143, 144, 145, 146, 147, 148, 149, 150, 151, 152, 153, 154, 155, 156, 157, 158, 159, 160, 161, 162, 163, 164, 165, 166, 167, 168, 169, 170, 171, 172, 173, 174, 175, 176, 177, 178, 179, 180, 181, 182, 183, 184, 185, 186, 187, 188, 189, 190, 191, 192, 193, 194, 195, 196, 197, 198, 199, 200, 201, 202, 203, 204, 205, 206, 207, 208, 209, 210, 211, 212, 213, 214, 215, 216, 217, 218, 219, 220, 221, 222, 223, 224, 225, 226, 227, 228, 229, 230, 231, 232, 233, 234, 235, 236, 237, 238, 239, 240, 241, 242, 243, 244, 245, 246, 247, 248, 249, 250, 251, 252, 253, 254, 255, 256, 257, 258, 259, 260, 261, 262, 263, 264, 265, 266, 267, 268, 269, 270, 271, 272, 273, 274, 275, 276, 277, 278, 279, 280, 281, 282, 283, 284, 285, 286, 287, 288, 289, 290, 291, 292, 293, 294, 295, 296, 297, 298, 299, 300, 301, 302, 303, 304, 305, 306, 307, 308, 309, 310, 311, 312, 313, 314, 315, 316, 317, 318, 319, 320, 321, 322, 323, 324, 325, 326, 327, 328, 329, 330, 331, 332, 333, 334, 335, 336, 337, 338, 339, 340],
      "AcquisitionTime": ["155713.727500", "155715.217500", "155716.707500", "155718.197500", "155719.687500", "155721.177500", "155722.667500", "155724.157500", "155725.647500", "155727.137500", "155728.627500", "155730.117500", "155731.607500", "155733.097500", "155734.587500", "155736.077500", "155737.567500", "155739.057500", "155740.547500", "155742.037500", "155743.527500", "155745.017500", "155746.507500", "155747.997500", "155749.487500", "155750.977500", "155752.467500", "155753.957500", "155755.447500", "155756.937500", "155758.427500", "155759.917500", "155801.407500", "155802.897500", "155804.387500", "155805.877500", "155807.367500", "155808.857500", "155810.347500", "155811.837500", "155813.327500", "155814.817500", "155816.307500", "155817.797500", "155819.287500", "155820.777500", "155822.267500", "155823.757500", "155825.247500", "155826.737500", "155828.227500", "155829.717500", "155831.207500", "155832.697500", "155834.187500", "155835.677500", "155837.167500", "155838.657500", "155840.147500", "155841.637500", "155843.127500", "155844.617500", "155846.107500", "155847.597500", "155849.087500", "155850.577500", "155852.067500", "155853.557500", "155855.047500", "155856.537500", "155858.027500", "155859.517500", "155901.007500", "155902.497500", "155903.987500", "155905.477500", "155906.967500", "155908.457500", "155909.947500", "155911.437500", "155912.927500", "155914.417500", "155915.907500", "155917.397500", "155918.887500", "155920.377500", "155921.867500", "155923.357500", "155924.847500", "155926.337500", "155927.827500", "155929.317500", "155930.807500", "155932.297500", "155933.787500", "155935.277500", "155936.767500", "155938.257500", "155939.747500", "155941.237500", "155942.727500", "155944.217500", "155945.707500", "155947.197500", "155948.687500", "155950.177500", "155951.667500", "155953.157500", "155954.647500", "155956.137500", "155957.627500", "155959.117500", "160000.607500", "160002.097500", "160003.587500", "160005.077500", "160006.567500", "160008.057500", "160009.547500", "160011.037500", "160012.527500", "160014.017500", "160015.507500", "160016.997500", "160018.487500", "160019.977500", "160021.467500", "160022.957500", "160024.447500", "160025.937500", "160027.427500", "160028.917500", "160030.407500", "160031.897500", "160033.387500", "160034.877500", "160036.367500", "160037.857500", "160039.347500", "160040.837500", "160042.327500", "160043.817500", "160045.307500", "160046.797500", "160048.287500", "160049.777500", "160051.267500", "160052.757500", "160054.247500", "160055.737500", "160057.227500", "160058.717500", "160100.207500", "160101.697500", "160103.187500", "160104.677500", "160106.167500", "160107.657500", "160109.147500", "160110.637500", "160112.127500", "160113.617500", "160115.107500", "160116.597500", "160118.087500", "160119.577500", "160121.067500", "160122.557500", "160124.047500", "160125.537500", "160127.027500", "160128.517500", "160130.007500", "160131.497500", "160132.987500", "160134.477500", "160135.967500", "160137.457500", "160138.947500", "160140.437500", "160141.927500", "160143.417500", "160144.907500", "160146.397500", "160147.887500", "160149.377500", "160150.867500", "160152.357500", "160153.847500", "160155.337500", "160156.827500", "160158.317500", "160159.807500", "160201.297500", "160202.787500", "160204.277500", "160205.767500", "160207.257500", "160208.747500", "160210.237500", "160211.727500", "160213.217500", "160214.707500", "160216.197500", "160217.687500", "160219.177500", "160220.667500", "160222.157500", "160223.647500", "160225.137500", "160226.627500", "160228.117500", "160229.607500", "160231.097500", "160232.587500", "160234.077500", "160235.567500", "160237.057500", "160238.547500", "160240.037500", "160241.527500", "160243.017500", "160244.507500", "160245.997500", "160247.487500", "160248.977500", "160250.467500", "160251.957500", "160253.447500", "160254.937500", "160256.427500", "160257.917500", "160259.407500", "160300.897500", "160302.387500", "160303.877500", "160305.367500", "160306.857500", "160308.347500", "160309.837500", "160311.327500", "160312.817500", "160314.307500", "160315.797500", "160317.287500", "160318.777500", "160320.267500", "160321.757500", "160323.247500", "160324.737500", "160326.227500", "160327.717500", "160329.207500", "160330.697500", "160332.187500", "160333.677500", "160335.167500", "160336.657500", "160338.147500", "160339.637500", "160341.127500", "160342.617500", "160344.107500", "160345.597500", "160347.087500", "160348.577500", "160350.067500", "160351.557500", "160353.047500", "160354.537500", "160356.027500", "160357.517500", "160359.007500", "160400.497500", "160401.987500", "160403.477500", "160404.967500", "160406.457500", "160407.947500", "160409.437500", "160410.927500", "160412.417500", "160413.907500", "160415.397500", "160416.887500", "160418.377500", "160419.867500", "160421.357500", "160422.847500", "160424.337500", "160425.827500", "160427.317500", "160428.807500", "160430.297500", "160431.787500", "160433.277500", "160434.767500", "160436.257500", "160437.747500", "160439.237500", "160440.727500", "160442.217500", "160443.707500", "160445.197500", "160446.687500", "160448.177500", "160449.667500", "160451.157500", "160452.647500", "160454.137500", "160455.627500", "160457.117500", "160458.607500", "160500.097500", "160501.587500", "160503.077500", "160504.567500", "160506.057500", "160507.547500", "160509.037500", "160510.527500", "160512.017500", "160513.507500", "160514.997500", "160516.487500", "160517.977500", "160519.467500", "160520.957500", "160522.447500", "160523.937500", "160525.427500", "160526.917500", "160528.407500", "160529.897500", "160531.387500", "160532.877500", "160534.367500", "160535.857500", "160537.347500", "160538.837500"],
      "ContentTime": ["155838.125000", "155838.129000", "155838.133000", "155838.136000", "155838.139000", "155838.143000", "155838.146000", "155838.149000", "155838.153000", "155838.156000", "155838.159000", "155838.163000", "155838.166000", "155838.169000", "155838.173000", "155838.176000", "155838.179000", "155838.183000", "155838.186000", "155838.189000", "155838.193000", "155838.222000", "155838.226000", "155838.229000", "155838.233000", "155838.236000", "155838.244000", "155838.247000", "155838.250000", "155838.254000", "155838.257000", "155838.260000", "155838.264000", "155838.267000", "155838.270000", "155858.078000", "155858.082000", "155858.085000", "155858.089000", "155858.092000", "155858.095000", "155858.099000", "155858.102000", "155858.105000", "155858.108000", "155858.112000", "155858.115000", "155858.119000", "155858.122000", "155858.125000", "155858.129000", "155858.132000", "155858.135000", "155858.139000", "155858.142000", "155918.079000", "155918.083000", "155918.087000", "155918.090000", "155918.094000", "155918.097000", "155918.100000", "155918.104000", "155918.107000", "155918.110000", "155918.114000", "155918.117000", "155918.120000", "155918.124000", "155918.127000", "155918.130000", "155918.134000", "155918.137000", "155918.140000", "155918.144000", "155938.079000", "155938.083000", "155938.086000", "155938.090000", "155938.093000", "155938.096000", "155938.100000", "155938.103000", "155938.106000", "155938.110000", "155938.113000", "155938.116000", "155938.120000", "155938.123000", "155938.126000", "155938.130000", "155938.133000", "155938.136000", "155938.140000", "155938.143000", "160018.079000", "160018.083000", "160018.086000", "160018.090000", "160018.093000", "160018.096000", "160018.100000", "160018.103000", "160018.106000", "160018.110000", "160018.113000", "160018.117000", "160018.120000", "160018.123000", "160018.127000", "160018.130000", "160018.133000", "160018.137000", "160018.140000", "160018.143000", "160018.147000", "160018.150000", "160018.153000", "160018.157000", "160018.160000", "160018.163000", "160018.167000", "160018.170000", "160058.079000", "160058.083000", "160058.087000", "160058.091000", "160058.094000", "160058.098000", "160058.101000", "160058.104000", "160058.108000", "160058.111000", "160058.114000", "160058.118000", "160058.121000", "160058.124000", "160058.128000", "160058.131000", "160058.135000", "160058.138000", "160058.141000", "160058.144000", "160058.148000", "160058.151000", "160058.155000", "160058.158000", "160058.161000", "160058.164000", "160058.168000", "160138.079000", "160138.083000", "160138.086000", "160138.090000", "160138.093000", "160138.097000", "160138.100000", "160138.103000", "160138.107000", "160138.110000", "160138.113000", "160138.117000", "160138.120000", "160138.123000", "160138.127000", "160138.130000", "160138.133000", "160138.137000", "160138.140000", "160138.143000", "160138.148000", "160138.151000", "160138.155000", "160138.158000", "160138.161000", "160138.165000", "160218.079000", "160218.083000", "160218.086000", "160218.090000", "160218.093000", "160218.097000", "160218.100000", "160218.103000", "160218.107000", "160218.110000", "160218.113000", "160218.117000", "160218.120000", "160218.123000", "160218.127000", "160218.130000", "160218.133000", "160218.137000", "160218.140000", "160218.143000", "160218.147000", "160218.150000", "160218.153000", "160218.157000", "160218.160000", "160218.163000", "160218.167000", "160258.079000", "160258.083000", "160258.086000", "160258.090000", "160258.093000", "160258.097000", "160258.100000", "160258.103000", "160258.107000", "160258.110000", "160258.113000", "160258.117000", "160258.128000", "160258.131000", "160258.134000", "160258.138000", "160258.141000", "160258.145000", "160258.148000", "160258.151000", "160258.155000", "160258.158000", "160258.161000", "160258.165000", "160258.168000", "160258.172000", "160258.175000", "160338.078000", "160338.082000", "160338.085000", "160338.089000", "160338.092000", "160338.095000", "160338.099000", "160338.102000", "160338.105000", "160338.109000", "160338.112000", "160338.116000", "160338.119000", "160338.122000", "160338.126000", "160338.129000", "160338.132000", "160338.136000", "160338.139000", "160338.142000", "160338.146000", "160338.149000", "160338.152000", "160338.155000", "160338.159000", "160338.162000", "160338.166000", "160418.079000", "160418.083000", "160418.086000", "160418.090000", "160418.093000", "160418.097000", "160418.100000", "160418.103000", "160418.107000", "160418.110000", "160418.113000", "160418.117000", "160418.120000", "160418.123000", "160418.127000", "160418.130000", "160418.133000", "160418.137000", "160418.140000", "160418.143000", "160418.147000", "160418.150000", "160418.153000", "160418.157000", "160418.160000", "160418.163000", "160418.167000", "160458.079000", "160458.083000", "160458.087000", "160458.090000", "160458.093000", "160458.097000", "160458.100000", "160458.103000", "160458.107000", "160458.110000", "160458.113000", "160458.117000", "160458.120000", "160458.123000", "160458.127000", "160458.130000", "160458.134000", "160458.137000", "160458.140000", "160458.144000", "160458.147000", "160458.150000", "160458.154000", "160458.174000", "160458.178000", "160458.181000", "160458.184000", "160538.080000", "160538.084000", "160538.088000", "160538.092000", "160538.096000", "160538.099000", "160538.103000", "160538.106000", "160538.110000", "160538.113000", "160538.116000", "160538.120000", "160538.123000", "160538.127000", "160538.130000", "160538.133000", "160538.137000", "160538.149000", "160538.152000", "160538.157000", "160538.161000", "160538.164000", "160538.168000", "160538.172000", "160538.176000", "160538.179000", "160541.880000", "160541.884000", "160541.887000"],
      "InstanceCreationTime": ["155838.125000", "155838.129000", "155838.133000", "155838.136000", "155838.139000", "155838.143000", "155838.146000", "155838.149000", "155838.153000", "155838.156000", "155838.159000", "155838.163000", "155838.166000", "155838.169000", "155838.173000", "155838.176000", "155838.179000", "155838.183000", "155838.186000", "155838.189000", "155838.193000", "155838.222000", "155838.226000", "155838.229000", "155838.233000", "155838.236000", "155838.244000", "155838.247000", "155838.250000", "155838.254000", "155838.257000", "155838.260000", "155838.264000", "155838.267000", "155838.270000", "155858.078000", "155858.082000", "155858.085000", "155858.089000", "155858.092000", "155858.095000", "155858.099000", "155858.102000", "155858.105000", "155858.108000", "155858.112000", "155858.115000", "155858.119000", "155858.122000", "155858.125000", "155858.129000", "155858.132000", "155858.135000", "155858.139000", "155858.142000", "155918.079000", "155918.083000", "155918.087000", "155918.090000", "155918.094000", "155918.097000", "155918.100000", "155918.104000", "155918.107000", "155918.110000", "155918.114000", "155918.117000", "155918.120000", "155918.124000", "155918.127000", "155918.130000", "155918.134000", "155918.137000", "155918.140000", "155918.144000", "155938.079000", "155938.083000", "155938.086000", "155938.090000", "155938.093000", "155938.096000", "155938.100000", "155938.103000", "155938.106000", "155938.110000", "155938.113000", "155938.116000", "155938.120000", "155938.123000", "155938.126000", "155938.130000", "155938.133000", "155938.136000", "155938.140000", "155938.143000", "160018.079000", "160018.083000", "160018.086000", "160018.090000", "160018.093000", "160018.096000", "160018.100000", "160018.103000", "160018.106000", "160018.110000", "160018.113000", "160018.117000", "160018.120000", "160018.123000", "160018.127000", "160018.130000", "160018.133000", "160018.137000", "160018.140000", "160018.143000", "160018.147000", "160018.150000", "160018.153000", "160018.157000", "160018.160000", "160018.163000", "160018.167000", "160018.170000", "160058.079000", "160058.083000", "160058.087000", "160058.091000", "160058.094000", "160058.098000", "160058.101000", "160058.104000", "160058.108000", "160058.111000", "160058.114000", "160058.118000", "160058.121000", "160058.124000", "160058.128000", "160058.131000", "160058.135000", "160058.138000", "160058.141000", "160058.144000", "160058.148000", "160058.151000", "160058.155000", "160058.158000", "160058.161000", "160058.164000", "160058.168000", "160138.079000", "160138.083000", "160138.086000", "160138.090000", "160138.093000", "160138.097000", "160138.100000", "160138.103000", "160138.107000", "160138.110000", "160138.113000", "160138.117000", "160138.120000", "160138.123000", "160138.127000", "160138.130000", "160138.133000", "160138.137000", "160138.140000", "160138.143000", "160138.148000", "160138.151000", "160138.155000", "160138.158000", "160138.161000", "160138.165000", "160218.079000", "160218.083000", "160218.086000", "160218.090000", "160218.093000", "160218.097000", "160218.100000", "160218.103000", "160218.107000", "160218.110000", "160218.113000", "160218.117000", "160218.120000", "160218.123000", "160218.127000", "160218.130000", "160218.133000", "160218.137000", "160218.140000", "160218.143000", "160218.147000", "160218.150000", "160218.153000", "160218.157000", "160218.160000", "160218.163000", "160218.167000", "160258.079000", "160258.083000", "160258.086000", "160258.090000", "160258.093000", "160258.097000", "160258.100000", "160258.103000", "160258.107000", "160258.110000", "160258.113000", "160258.117000", "160258.128000", "160258.131000", "160258.134000", "160258.138000", "160258.141000", "160258.145000", "160258.148000", "160258.151000", "160258.155000", "160258.158000", "160258.161000", "160258.165000", "160258.168000", "160258.172000", "160258.175000", "160338.078000", "160338.082000", "160338.085000", "160338.089000", "160338.092000", "160338.095000", "160338.099000", "160338.102000", "160338.105000", "160338.109000", "160338.112000", "160338.116000", "160338.119000", "160338.122000", "160338.126000", "160338.129000", "160338.132000", "160338.136000", "160338.139000", "160338.142000", "160338.146000", "160338.149000", "160338.152000", "160338.155000", "160338.159000", "160338.162000", "160338.166000", "160418.079000", "160418.083000", "160418.086000", "160418.090000", "160418.093000", "160418.097000", "160418.100000", "160418.103000", "160418.107000", "160418.110000", "160418.113000", "160418.117000", "160418.120000", "160418.123000", "160418.127000", "160418.130000", "160418.133000", "160418.137000", "160418.140000", "160418.143000", "160418.147000", "160418.150000", "160418.153000", "160418.157000", "160418.160000", "160418.163000", "160418.167000", "160458.079000", "160458.083000", "160458.087000", "160458.090000", "160458.093000", "160458.097000", "160458.100000", "160458.103000", "160458.107000", "160458.110000", "160458.113000", "160458.117000", "160458.120000", "160458.123000", "160458.127000", "160458.130000", "160458.134000", "160458.137000", "160458.140000", "160458.144000", "160458.147000", "160458.150000", "160458.154000", "160458.174000", "160458.178000", "160458.181000", "160458.184000", "160538.080000", "160538.084000", "160538.088000", "160538.092000", "160538.096000", "160538.099000", "160538.103000", "160538.106000", "160538.110000", "160538.113000", "160538.116000", "160538.120000", "160538.123000", "160538.127000", "160538.130000", "160538.133000", "160538.137000", "160538.149000", "160538.152000", "160538.157000", "160538.161000", "160538.164000", "160538.168000", "160538.172000", "160538.176000", "160538.179000", "160541.880000", "160541.884000", "160541.887000"],
      "InstanceNumber": [1, 2, 3, 4, 5, 6, 7, 8, 9, 10, 11, 12, 13, 14, 15, 16, 17, 18, 19, 20, 21, 22, 23, 24, 25, 26, 27, 28, 29, 30, 31, 32, 33, 34, 35, 36, 37, 38, 39, 40, 41, 42, 43, 44, 45, 46, 47, 48, 49, 50, 51, 52, 53, 54, 55, 56, 57, 58, 59, 60, 61, 62, 63, 64, 65, 66, 67, 68, 69, 70, 71, 72, 73, 74, 75, 76, 77, 78, 79, 80, 81, 82, 83, 84, 85, 86, 87, 88, 89, 90, 91, 92, 93, 94, 95, 96, 97, 98, 99, 100, 101, 102, 103, 104, 105, 106, 107, 108, 109, 110, 111, 112, 113, 114, 115, 116, 117, 118, 119, 120, 121, 122, 123, 124, 125, 126, 127, 128, 129, 130, 131, 132, 133, 134, 135, 136, 137, 138, 139, 140, 141, 142, 143, 144, 145, 146, 147, 148, 149, 150, 151, 152, 153, 154, 155, 156, 157, 158, 159, 160, 161, 162, 163, 164, 165, 166, 167, 168, 169, 170, 171, 172, 173, 174, 175, 176, 177, 178, 179, 180, 181, 182, 183, 184, 185, 186, 187, 188, 189, 190, 191, 192, 193, 194, 195, 196, 197, 198, 199, 200, 201, 202, 203, 204, 205, 206, 207, 208, 209, 210, 211, 212, 213, 214, 215, 216, 217, 218, 219, 220, 221, 222, 223, 224, 225, 226, 227, 228, 229, 230, 231, 232, 233, 234, 235, 236, 237, 238, 239, 240, 241, 242, 243, 244, 245, 246, 247, 248, 249, 250, 251, 252, 253, 254, 255, 256, 257, 258, 259, 260, 261, 262, 263, 264, 265, 266, 267, 268, 269, 270, 271, 272, 273, 274, 275, 276, 277, 278, 279, 280, 281, 282, 283, 284, 285, 286, 287, 288, 289, 290, 291, 292, 293, 294, 295, 296, 297, 298, 299, 300, 301, 302, 303, 304, 305, 306, 307, 308, 309, 310, 311, 312, 313, 314, 315, 316, 317, 318, 319, 320, 321, 322, 323, 324, 325, 326, 327, 328, 329, 330, 331, 332, 333, 334, 335, 336, 337, 338, 339, 340],
      "LargestImagePixelValue": [39463, 37248, 36479, 37635, 36684, 36202, 36076, 35328, 35075, 35382, 35127, 35130, 35202, 35215, 35217, 35728, 35827, 34712, 34792, 35345, 36034, 35647, 34903, 35582, 34787, 35797, 36677, 36787, 34897, 35426, 35827, 35805, 35918, 36032, 36124, 36001, 36089, 35647, 35880, 36159, 37010, 35953, 35316, 35094, 36045, 35988, 35303, 36541, 36731, 36843, 37241, 35961, 35389, 35482, 36412, 37161, 37177, 36994, 37181, 36083, 35492, 35525, 35480, 37234, 37456, 37217, 36795, 37329, 37349, 35549, 37061, 37089, 36280, 36915, 36720, 37469, 36010, 36707, 36462, 36510, 35803, 35817, 35926, 35092, 35170, 35352, 35813, 36229, 35749, 35416, 35189, 35255, 36042, 36115, 36778, 36288, 35617, 36006, 36017, 35984, 35934, 36895, 36553, 36434, 36933, 36645, 37042, 35726, 36600, 36960, 35964, 35647, 36360, 35989, 36827, 36460, 36554, 36287, 36180, 36880, 36036, 35897, 35605, 37094, 36170, 37314, 36352, 37113, 36892, 36911, 36725, 35862, 36601, 36874, 36411, 36823, 36650, 36671, 36238, 37557, 35623, 35973, 37058, 37193, 37166, 37394, 36845, 36516, 36303, 36581, 37643, 37284, 36831, 37533, 37133, 37241, 37543, 37687, 38170, 37378, 36352, 35846, 37100, 33758, 34485, 35392, 35817, 35065, 35200, 36810, 35929, 36748, 37609, 35174, 35374, 36636, 37320, 37311, 37106, 36670, 36942, 37219, 37461, 37248, 36795, 35031, 34902, 35758, 36866, 37071, 36872, 36773, 37266, 37673, 37532, 37490, 37345, 37028, 37130, 37536, 36885, 37617, 36926, 37179, 37119, 37081, 37118, 36394, 36928, 36084, 36734, 36962, 36287, 36086, 35830, 35705, 36106, 36211, 35363, 35739, 35100, 34973, 35102, 35940, 35940, 36501, 35658, 34569, 35254, 36183, 36316, 36122, 35959, 35916, 35483, 34083, 34459, 36385, 35160, 36070, 36280, 36004, 35266, 34302, 34155, 34321, 35073, 34521, 34257, 34341, 34748, 34771, 35902, 34365, 34304, 35520, 34948, 35328, 35875, 36057, 36714, 34687, 34388, 34686, 36224, 35520, 34923, 35714, 34921, 35002, 35389, 34971, 35230, 35613, 35411, 35209, 34580, 35369, 35584, 35978, 35759, 36458, 34353, 34447, 34472, 34919, 35781, 37078, 35469, 34384, 35621, 35276, 35968, 35613, 35911, 35277, 33912, 35074, 36028, 36578, 34841, 35928, 36065, 37101, 36302, 35778, 36522, 34982, 35772, 35407, 35845, 36035, 36193, 35930, 36376, 36426, 35573, 37061, 36445, 36631, 36823, 36667, 36106, 36373, 36646, 36890, 36938, 37491, 35450, 34981, 35819, 36078, 36220, 35901, 36215, 36818, 36596, 35382, 35235, 35684],
