{
  "AcquisitionMatrixPE": 104,
  "AcquisitionNumber": 1,
  "AcquisitionTime": "18:44:22.557500",
  "BandwidthPerPixelPhaseEncode": 17.17,
  "BaseResolution": 104,
  "BodyPartExamined": "BRAIN",
  "CoilCombinationMethod": "Sum of Squares",
  "ConsistencyInfo": "N4_VE11C_LATEST_20160120",
  "ConversionSoftware": "dcm2niix",
  "ConversionSoftwareVersion": "v1.0.20220505",
  "DerivedVendorReportedEchoSpacing": 0.000560011,
  "DeviceSerialNumber": "167006",
  "DwellTime": 2.1e-06,
  "EchoTime": 0.037,
  "EchoTime1": 0.037,
  "EchoTime2": 0.001,
  "EchoTrainLength": 104,
  "EffectiveEchoSpacing": 0.000560011,
  "FlipAngle": 52,
  "HeudiconvVersion": "0.5.3.post811+g6206e14",
  "ImageComments": "Unaliased MB4/PE3/LB",
  "ImageOrientationPatientDICOM": [0.997011, 0.0768685, 0.00781709, -0.0690184, 0.931508, -0.357112],
  "ImageOrientationText": "Tra>Cor(-20.8)>Sag(2.0)",
  "ImageType": [
    "ORIGINAL",
    "PRIMARY",
    "P",
    "MB",
    "ND",
    "MOSAIC",
    "PHASE"
],
  "ImagingFrequency": 123.259,
  "InPlanePhaseEncodingDirectionDICOM": "COL",
  "InstitutionAddress": "Chemin Queen-Mary 4565,Montreal,District,CA,H3W 1W5",
  "InstitutionName": "IUGM",
  "InstitutionalDepartmentName": "Department",
  "MRAcquisitionType": "2D",
  "MagneticFieldStrength": 3,
  "Manufacturer": "Siemens",
  "ManufacturersModelName": "Prisma_fit",
  "MatrixCoilMode": "SENSE",
  "Modality": "MR",
  "MultibandAccelerationFactor": 4,
  "PartialFourier": 1,
  "PatientPosition": "HFS",
  "PercentPhaseFOV": 100,
  "PercentSampling": 100,
  "PhaseEncodingDirection": "j",
  "PhaseEncodingSteps": 104,
  "PhaseResolution": 1,
  "PixelBandwidth": 2290,
  "ProcedureStepDescription": "games^mario3",
  "ProtocolName": "func_task-mario3_run-01",
  "PulseSequenceDetails": "%CustomerSeq%\\cmrr_mbep2d_bold",
  "ReceiveCoilActiveElements": "HC1-7;NC1,2",
  "ReceiveCoilName": "HeadNeck_64",
  "ReconMatrixPE": 104,
  "RepetitionTime": 1.49,
  "SAR": 0.0459403,
  "ScanOptions": "FS",
  "ScanningSequence": "EP",
  "SequenceName": "epfid2d1_104",
  "SequenceVariant": "SK\\SS",
  "SeriesDescription": "func_task-mario3_run-01",
  "SeriesNumber": 11,
  "ShimSetting": [622, -7194, -8810, 631, 81, 16, -45, -5],
  "SliceThickness": 2,
  "SliceTiming": [0, 0.7825, 0.0975, 0.8825, 0.195, 0.98, 0.295, 1.0775, 0.3925, 1.175, 0.49, 1.2725, 0.5875, 1.3725, 0.685, 0, 0.7825, 0.0975, 0.8825, 0.195, 0.98, 0.295, 1.0775, 0.3925, 1.175, 0.49, 1.2725, 0.5875, 1.3725, 0.685, 0, 0.7825, 0.0975, 0.8825, 0.195, 0.98, 0.295, 1.0775, 0.3925, 1.175, 0.49, 1.2725, 0.5875, 1.3725, 0.685, 0, 0.7825, 0.0975, 0.8825, 0.195, 0.98, 0.295, 1.0775, 0.3925, 1.175, 0.49, 1.2725, 0.5875, 1.3725, 0.685],
  "SoftwareVersions": "syngo MR E11",
  "SpacingBetweenSlices": 2,
  "StationName": "MRC35049",
  "TaskName": "mario3",
  "TotalReadoutTime": 0.0576811,
  "TxRefAmp": 249.116,
  "WipMemBlock": "dbd58dcf-d11d-4b1e-b3b1-2c15ffb3cb73||Sequence: R017 ve11c/master r/75a17815+; Jun 28 2022 16:32:11 by eja",
  "dcmmeta_affine": [
    [-1.9940211772918701, -0.13803672790527344, 0.06946469843387604, 110.95624542236328],
    [-0.15373696386814117, 1.8630162477493286, -0.7110100388526917, -52.16655349731445],
    [0.01563418097794056, 0.7142242193222046, 1.8680577278137207, -59.22541427612305],
    [0.0, 0.0, 0.0, 1.0]
],
  "dcmmeta_reorient_transform": [
    [0.0, -1.0, 0.0, 103.0],
    [1.0, 0.0, 0.0, 0.0],
    [0.0, 0.0, 1.0, 0.0],
    [0.0, 0.0, 0.0, 1.0]
],
  "dcmmeta_shape": [104, 104, 60, 314],
  "dcmmeta_slice_dim": 2,
  "dcmmeta_version": 0.6,
  "global": {
    "const": {
      "AcquisitionMatrix": [104, 0, 0, 104],
      "AngioFlag": "N",
      "BitsAllocated": 16,
      "BitsStored": 16,
      "BodyPartExamined": "BRAIN",
      "Columns": 832,
      "EchoNumbers": 1,
      "EchoTime": 37.0,
      "EchoTrainLength": 104,
      "FlipAngle": 52.0,
      "HighBit": 15,
      "ImageOrientationPatient": [0.99701059643775, 0.07686848300886, 0.00781709093924, -0.0690183637188, 0.93150814092855, -0.3571120956414],
      "ImagePositionPatient": [-772.31680813593, -873.82230598042, 268.6264405858],
      "ImageType": [
        "ORIGINAL",
        "PRIMARY",
        "P",
        "MB",
        "ND",
        "MOSAIC"
],
      "ImagedNucleus": "1H",
      "ImagingFrequency": 123.258803,
      "InPlanePhaseEncodingDirection": "COL",
      "LargestImagePixelValue": 4095,
      "MRAcquisitionType": "2D",
      "MagneticFieldStrength": 3.0,
      "Manufacturer": "SIEMENS",
      "ManufacturerModelName": "Prisma_fit",
      "Modality": "MR",
      "NumberOfAverages": 1.0,
      "NumberOfPhaseEncodingSteps": 104,
      "PercentPhaseFieldOfView": 100.0,
      "PercentSampling": 100.0,
      "PerformedProcedureStepStartTime": "184017.187000",
      "PhotometricInterpretation": "MONOCHROME2",
      "PixelBandwidth": 2290.0,
      "PixelRepresentation": 0,
      "PixelSpacing": [2.0, 2.0],
      "ProtocolName": "func_task-mario3_run-01",
      "RepetitionTime": 1490.0,
      "RescaleIntercept": -4096.0,
      "RescaleSlope": 2.0,
      "RescaleType": "US",
      "Rows": 832,
      "SAR": 0.04594028022303,
      "SamplesPerPixel": 1,
      "ScanOptions": "FS",
      "ScanningSequence": "EP",
      "SequenceName": "epfid2d1_104",
      "SequenceVariant": [
        "SK",
        "SS"
],
      "SeriesDescription": "func_task-mario3_run-01",
      "SeriesNumber": 11,
      "SeriesTime": "184548.583000",
      "SliceLocation": -32.919001662154,
      "SliceThickness": 2.0,
      "SmallestImagePixelValue": 0,
      "SoftwareVersions": "syngo MR E11",
      "SpacingBetweenSlices": 2.0000000381298,
      "SpecificCharacterSet": "ISO_IR 100",
      "StudyID": "1",
      "StudyTime": "184017.114000",
      "TransmitCoilName": "Body",
      "VariableFlipAngleFlag": "N",
      "WindowCenterWidthExplanation": "Algo1",
      "dBdt": 0.0},
    "slices": {}
  },
  "time": {
    "samples": {
      "AcquisitionNumber": [1, 2, 3, 4, 5, 6, 7, 8, 9, 10, 11, 12, 13, 14, 15, 16, 17, 18, 19, 20, 21, 22, 23, 24, 25, 26, 27, 28, 29, 30, 31, 32, 33, 34, 35, 36, 37, 38, 39, 40, 41, 42, 43, 44, 45, 46, 47, 48, 49, 50, 51, 52, 53, 54, 55, 56, 57, 58, 59, 60, 61, 62, 63, 64, 65, 66, 67, 68, 69, 70, 71, 72, 73, 74, 75, 76, 77, 78, 79, 80, 81, 82, 83, 84, 85, 86, 87, 88, 89, 90, 91, 92, 93, 94, 95, 96, 97, 98, 99, 100, 101, 102, 103, 104, 105, 106, 107, 108, 109, 110, 111, 112, 113, 114, 115, 116, 117, 118, 119, 120, 121, 122, 123, 124, 125, 126, 127, 128, 129, 130, 131, 132, 133, 134, 135, 136, 137, 138, 139, 140, 141, 142, 143, 144, 145, 146, 147, 148, 149, 150, 151, 152, 153, 154, 155, 156, 157, 158, 159, 160, 161, 162, 163, 164, 165, 166, 167, 168, 169, 170, 171, 172, 173, 174, 175, 176, 177, 178, 179, 180, 181, 182, 183, 184, 185, 186, 187, 188, 189, 190, 191, 192, 193, 194, 195, 196, 197, 198, 199, 200, 201, 202, 203, 204, 205, 206, 207, 208, 209, 210, 211, 212, 213, 214, 215, 216, 217, 218, 219, 220, 221, 222, 223, 224, 225, 226, 227, 228, 229, 230, 231, 232, 233, 234, 235, 236, 237, 238, 239, 240, 241, 242, 243, 244, 245, 246, 247, 248, 249, 250, 251, 252, 253, 254, 255, 256, 257, 258, 259, 260, 261, 262, 263, 264, 265, 266, 267, 268, 269, 270, 271, 272, 273, 274, 275, 276, 277, 278, 279, 280, 281, 282, 283, 284, 285, 286, 287, 288, 289, 290, 291, 292, 293, 294, 295, 296, 297, 298, 299, 300, 301, 302, 303, 304, 305, 306, 307, 308, 309, 310, 311, 312, 313, 314],
      "AcquisitionTime": ["184422.557500", "184424.047500", "184425.537500", "184427.027500", "184428.517500", "184430.007500", "184431.497500", "184432.987500", "184434.477500", "184435.967500", "184437.457500", "184438.947500", "184440.437500", "184441.927500", "184443.417500", "184444.907500", "184446.397500", "184447.887500", "184449.377500", "184450.867500", "184452.357500", "184453.847500", "184455.337500", "184456.827500", "184458.317500", "184459.807500", "184501.297500", "184502.787500", "184504.277500", "184505.767500", "184507.257500", "184508.747500", "184510.237500", "184511.727500", "184513.217500", "184514.707500", "184516.197500", "184517.687500", "184519.177500", "184520.667500", "184522.157500", "184523.647500", "184525.137500", "184526.627500", "184528.117500", "184529.607500", "184531.097500", "184532.587500", "184534.077500", "184535.567500", "184537.057500", "184538.547500", "184540.037500", "184541.527500", "184543.017500", "184544.507500", "184545.997500", "184547.487500", "184548.977500", "184550.467500", "184551.957500", "184553.447500", "184554.937500", "184556.427500", "184557.917500", "184559.407500", "184600.897500", "184602.387500", "184603.877500", "184605.367500", "184606.857500", "184608.347500", "184609.837500", "184611.327500", "184612.817500", "184614.307500", "184615.797500", "184617.287500", "184618.777500", "184620.267500", "184621.757500", "184623.247500", "184624.737500", "184626.227500", "184627.717500", "184629.207500", "184630.697500", "184632.187500", "184633.677500", "184635.167500", "184636.657500", "184638.147500", "184639.637500", "184641.127500", "184642.617500", "184644.107500", "184645.597500", "184647.087500", "184648.577500", "184650.067500", "184651.557500", "184653.047500", "184654.537500", "184656.027500", "184657.517500", "184659.007500", "184700.497500", "184701.987500", "184703.477500", "184704.967500", "184706.457500", "184707.947500", "184709.437500", "184710.927500", "184712.417500", "184713.907500", "184715.397500", "184716.887500", "184718.377500", "184719.867500", "184721.357500", "184722.847500", "184724.337500", "184725.827500", "184727.317500", "184728.807500", "184730.297500", "184731.787500", "184733.277500", "184734.767500", "184736.257500", "184737.747500", "184739.237500", "184740.727500", "184742.217500", "184743.707500", "184745.197500", "184746.687500", "184748.177500", "184749.667500", "184751.157500", "184752.647500", "184754.137500", "184755.627500", "184757.117500", "184758.607500", "184800.097500", "184801.587500", "184803.077500", "184804.567500", "184806.057500", "184807.547500", "184809.037500", "184810.527500", "184812.017500", "184813.507500", "184814.997500", "184816.487500", "184817.977500", "184819.467500", "184820.957500", "184822.447500", "184823.937500", "184825.427500", "184826.917500", "184828.407500", "184829.897500", "184831.387500", "184832.877500", "184834.367500", "184835.857500", "184837.347500", "184838.837500", "184840.327500", "184841.817500", "184843.307500", "184844.797500", "184846.287500", "184847.777500", "184849.267500", "184850.757500", "184852.247500", "184853.737500", "184855.227500", "184856.717500", "184858.207500", "184859.697500", "184901.187500", "184902.677500", "184904.167500", "184905.657500", "184907.147500", "184908.637500", "184910.127500", "184911.617500", "184913.107500", "184914.597500", "184916.087500", "184917.577500", "184919.067500", "184920.557500", "184922.047500", "184923.537500", "184925.027500", "184926.517500", "184928.007500", "184929.497500", "184930.987500", "184932.477500", "184933.967500", "184935.457500", "184936.947500", "184938.437500", "184939.927500", "184941.417500", "184942.907500", "184944.397500", "184945.887500", "184947.377500", "184948.867500", "184950.357500", "184951.847500", "184953.337500", "184954.827500", "184956.317500", "184957.807500", "184959.297500", "185000.787500", "185002.277500", "185003.767500", "185005.257500", "185006.747500", "185008.237500", "185009.727500", "185011.217500", "185012.707500", "185014.197500", "185015.687500", "185017.177500", "185018.667500", "185020.157500", "185021.647500", "185023.137500", "185024.627500", "185026.117500", "185027.607500", "185029.097500", "185030.587500", "185032.077500", "185033.567500", "185035.057500", "185036.547500", "185038.037500", "185039.527500", "185041.017500", "185042.507500", "185043.997500", "185045.487500", "185046.977500", "185048.467500", "185049.957500", "185051.447500", "185052.937500", "185054.427500", "185055.917500", "185057.407500", "185058.897500", "185100.387500", "185101.877500", "185103.367500", "185104.857500", "185106.347500", "185107.837500", "185109.327500", "185110.817500", "185112.307500", "185113.797500", "185115.287500", "185116.777500", "185118.267500", "185119.757500", "185121.247500", "185122.737500", "185124.227500", "185125.717500", "185127.207500", "185128.697500", "185130.187500", "185131.677500", "185133.167500", "185134.657500", "185136.147500", "185137.637500", "185139.127500", "185140.617500", "185142.107500", "185143.597500", "185145.087500", "185146.577500", "185148.067500", "185149.557500", "185151.047500", "185152.537500", "185154.027500", "185155.517500", "185157.007500", "185158.497500", "185159.987500", "185201.477500", "185202.967500", "185204.457500", "185205.947500", "185207.437500", "185208.927500"],
      "ContentTime": ["184548.585000", "184548.588000", "184548.598000", "184548.600000", "184548.603000", "184548.605000", "184548.608000", "184548.611000", "184548.614000", "184548.616000", "184548.619000", "184548.621000", "184548.624000", "184548.626000", "184548.629000", "184548.631000", "184548.634000", "184548.636000", "184548.639000", "184548.641000", "184548.644000", "184548.646000", "184548.649000", "184548.651000", "184548.654000", "184548.657000", "184548.659000", "184548.662000", "184548.664000", "184548.667000", "184548.669000", "184548.672000", "184548.674000", "184548.677000", "184548.679000", "184548.682000", "184548.684000", "184548.687000", "184608.486000", "184608.488000", "184608.491000", "184608.493000", "184608.496000", "184608.499000", "184608.501000", "184608.504000", "184608.506000", "184608.509000", "184608.511000", "184608.514000", "184608.516000", "184608.519000", "184608.521000", "184608.524000", "184608.526000", "184608.529000", "184608.532000", "184608.534000", "184628.468000", "184628.471000", "184628.473000", "184628.476000", "184628.478000", "184628.481000", "184628.483000", "184628.486000", "184628.489000", "184628.491000", "184628.494000", "184628.497000", "184628.499000", "184628.502000", "184628.504000", "184628.507000", "184628.509000", "184628.512000", "184628.514000", "184628.517000", "184708.540000", "184708.543000", "184708.545000", "184708.548000", "184708.562000", "184708.565000", "184708.567000", "184708.570000", "184708.572000", "184708.575000", "184708.578000", "184708.580000", "184708.583000", "184708.585000", "184708.588000", "184708.591000", "184708.593000", "184708.596000", "184708.598000", "184708.601000", "184708.604000", "184708.606000", "184708.609000", "184708.611000", "184708.614000", "184708.616000", "184708.619000", "184708.621000", "184708.624000", "184708.626000", "184708.629000", "184708.632000", "184708.634000", "184728.434000", "184728.437000", "184728.440000", "184728.443000", "184728.445000", "184728.448000", "184728.451000", "184728.453000", "184728.456000", "184728.458000", "184728.461000", "184728.463000", "184728.466000", "184808.517000", "184808.520000", "184808.522000", "184808.525000", "184808.527000", "184808.530000", "184808.532000", "184808.535000", "184808.537000", "184808.540000", "184808.542000", "184808.545000", "184808.547000", "184808.550000", "184808.553000", "184808.555000", "184808.558000", "184808.560000", "184808.563000", "184808.565000", "184808.568000", "184808.570000", "184808.573000", "184808.576000", "184808.578000", "184808.581000", "184808.583000", "184848.503000", "184848.506000", "184848.508000", "184848.511000", "184848.513000", "184848.516000", "184848.518000", "184848.521000", "184848.523000", "184848.526000", "184848.529000", "184848.531000", "184848.534000", "184848.536000", "184848.539000", "184848.541000", "184848.544000", "184848.549000", "184848.551000", "184848.554000", "184848.557000", "184848.559000", "184848.562000", "184848.564000", "184848.567000", "184848.569000", "184848.572000", "184928.510000", "184928.513000", "184928.515000", "184928.518000", "184928.521000", "184928.523000", "184928.526000", "184928.528000", "184928.531000", "184928.533000", "184928.536000", "184928.538000", "184928.541000", "184928.543000", "184928.546000", "184928.549000", "184928.551000", "184928.554000", "184928.556000", "184928.559000", "184928.561000", "184928.564000", "184928.566000", "184928.569000", "184928.571000", "184928.574000", "184928.577000", "185008.500000", "185008.503000", "185008.506000", "185008.508000", "185008.511000", "185008.513000", "185008.516000", "185008.519000", "185008.521000", "185008.524000", "185008.526000", "185008.529000", "185008.531000", "185008.534000", "185008.537000", "185008.539000", "185008.542000", "185008.544000", "185008.547000", "185008.549000", "185008.552000", "185008.554000", "185008.557000", "185008.559000", "185008.562000", "185008.565000", "185048.502000", "185048.505000", "185048.508000", "185048.510000", "185048.513000", "185048.515000", "185048.518000", "185048.520000", "185048.523000", "185048.526000", "185048.528000", "185048.532000", "185048.534000", "185048.537000", "185048.539000", "185048.542000", "185048.544000", "185048.547000", "185048.549000", "185048.552000", "185048.554000", "185048.557000", "185048.559000", "185048.562000", "185048.565000", "185048.567000", "185048.570000", "185128.499000", "185128.502000", "185128.504000", "185128.507000", "185128.509000", "185128.512000", "185128.514000", "185128.517000", "185128.520000", "185128.522000", "185128.525000", "185128.527000", "185128.530000", "185128.533000", "185128.535000", "185128.538000", "185128.540000", "185128.543000", "185128.545000", "185128.548000", "185128.550000", "185128.553000", "185128.555000", "185128.558000", "185128.560000", "185128.563000", "185128.566000", "185208.500000", "185208.503000", "185208.506000", "185208.508000", "185208.511000", "185208.514000", "185208.516000", "185208.519000", "185208.521000", "185208.524000", "185208.527000", "185208.529000", "185208.532000", "185208.534000", "185208.537000", "185208.539000", "185208.542000", "185208.545000", "185208.547000", "185208.550000", "185208.552000", "185208.555000", "185208.558000", "185208.560000", "185208.563000", "185208.566000", "185208.568000", "185210.975000", "185210.978000"],
      "InstanceCreationTime": ["184548.585000", "184548.588000", "184548.598000", "184548.600000", "184548.603000", "184548.605000", "184548.608000", "184548.611000", "184548.614000", "184548.616000", "184548.619000", "184548.621000", "184548.624000", "184548.626000", "184548.629000", "184548.631000", "184548.634000", "184548.636000", "184548.639000", "184548.641000", "184548.644000", "184548.646000", "184548.649000", "184548.651000", "184548.654000", "184548.657000", "184548.659000", "184548.662000", "184548.664000", "184548.667000", "184548.669000", "184548.672000", "184548.674000", "184548.677000", "184548.679000", "184548.682000", "184548.684000", "184548.687000", "184608.486000", "184608.488000", "184608.491000", "184608.493000", "184608.496000", "184608.499000", "184608.501000", "184608.504000", "184608.506000", "184608.509000", "184608.511000", "184608.514000", "184608.516000", "184608.519000", "184608.521000", "184608.524000", "184608.526000", "184608.529000", "184608.532000", "184608.534000", "184628.468000", "184628.471000", "184628.473000", "184628.476000", "184628.478000", "184628.481000", "184628.483000", "184628.486000", "184628.489000", "184628.491000", "184628.494000", "184628.497000", "184628.499000", "184628.502000", "184628.504000", "184628.507000", "184628.509000", "184628.512000", "184628.514000", "184628.517000", "184708.540000", "184708.543000", "184708.545000", "184708.548000", "184708.562000", "184708.565000", "184708.567000", "184708.570000", "184708.572000", "184708.575000", "184708.578000", "184708.580000", "184708.583000", "184708.585000", "184708.588000", "184708.591000", "184708.593000", "184708.596000", "184708.598000", "184708.601000", "184708.604000", "184708.606000", "184708.609000", "184708.611000", "184708.614000", "184708.616000", "184708.619000", "184708.621000", "184708.624000", "184708.626000", "184708.629000", "184708.632000", "184708.634000", "184728.434000", "184728.437000", "184728.440000", "184728.443000", "184728.445000", "184728.448000", "184728.451000", "184728.453000", "184728.456000", "184728.458000", "184728.461000", "184728.463000", "184728.466000", "184808.517000", "184808.520000", "184808.522000", "184808.525000", "184808.527000", "184808.530000", "184808.532000", "184808.535000", "184808.537000", "184808.540000", "184808.542000", "184808.545000", "184808.547000", "184808.550000", "184808.553000", "184808.555000", "184808.558000", "184808.560000", "184808.563000", "184808.565000", "184808.568000", "184808.570000", "184808.573000", "184808.576000", "184808.578000", "184808.581000", "184808.583000", "184848.503000", "184848.506000", "184848.508000", "184848.511000", "184848.513000", "184848.516000", "184848.518000", "184848.521000", "184848.523000", "184848.526000", "184848.529000", "184848.531000", "184848.534000", "184848.536000", "184848.539000", "184848.541000", "184848.544000", "184848.549000", "184848.551000", "184848.554000", "184848.557000", "184848.559000", "184848.562000", "184848.564000", "184848.567000", "184848.569000", "184848.572000", "184928.510000", "184928.513000", "184928.515000", "184928.518000", "184928.521000", "184928.523000", "184928.526000", "184928.528000", "184928.531000", "184928.533000", "184928.536000", "184928.538000", "184928.541000", "184928.543000", "184928.546000", "184928.549000", "184928.551000", "184928.554000", "184928.556000", "184928.559000", "184928.561000", "184928.564000", "184928.566000", "184928.569000", "184928.571000", "184928.574000", "184928.577000", "185008.500000", "185008.503000", "185008.506000", "185008.508000", "185008.511000", "185008.513000", "185008.516000", "185008.519000", "185008.521000", "185008.524000", "185008.526000", "185008.529000", "185008.531000", "185008.534000", "185008.537000", "185008.539000", "185008.542000", "185008.544000", "185008.547000", "185008.549000", "185008.552000", "185008.554000", "185008.557000", "185008.559000", "185008.562000", "185008.565000", "185048.502000", "185048.505000", "185048.508000", "185048.510000", "185048.513000", "185048.515000", "185048.518000", "185048.520000", "185048.523000", "185048.526000", "185048.528000", "185048.532000", "185048.534000", "185048.537000", "185048.539000", "185048.542000", "185048.544000", "185048.547000", "185048.549000", "185048.552000", "185048.554000", "185048.557000", "185048.559000", "185048.562000", "185048.565000", "185048.567000", "185048.570000", "185128.499000", "185128.502000", "185128.504000", "185128.507000", "185128.509000", "185128.512000", "185128.514000", "185128.517000", "185128.520000", "185128.522000", "185128.525000", "185128.527000", "185128.530000", "185128.533000", "185128.535000", "185128.538000", "185128.540000", "185128.543000", "185128.545000", "185128.548000", "185128.550000", "185128.553000", "185128.555000", "185128.558000", "185128.560000", "185128.563000", "185128.566000", "185208.500000", "185208.503000", "185208.506000", "185208.508000", "185208.511000", "185208.514000", "185208.516000", "185208.519000", "185208.521000", "185208.524000", "185208.527000", "185208.529000", "185208.532000", "185208.534000", "185208.537000", "185208.539000", "185208.542000", "185208.545000", "185208.547000", "185208.550000", "185208.552000", "185208.555000", "185208.558000", "185208.560000", "185208.563000", "185208.566000", "185208.568000", "185210.975000", "185210.978000"],
      "InstanceNumber": [1, 2, 3, 4, 5, 6, 7, 8, 9, 10, 11, 12, 13, 14, 15, 16, 17, 18, 19, 20, 21, 22, 23, 24, 25, 26, 27, 28, 29, 30, 31, 32, 33, 34, 35, 36, 37, 38, 39, 40, 41, 42, 43, 44, 45, 46, 47, 48, 49, 50, 51, 52, 53, 54, 55, 56, 57, 58, 59, 60, 61, 62, 63, 64, 65, 66, 67, 68, 69, 70, 71, 72, 73, 74, 75, 76, 77, 78, 79, 80, 81, 82, 83, 84, 85, 86, 87, 88, 89, 90, 91, 92, 93, 94, 95, 96, 97, 98, 99, 100, 101, 102, 103, 104, 105, 106, 107, 108, 109, 110, 111, 112, 113, 114, 115, 116, 117, 118, 119, 120, 121, 122, 123, 124, 125, 126, 127, 128, 129, 130, 131, 132, 133, 134, 135, 136, 137, 138, 139, 140, 141, 142, 143, 144, 145, 146, 147, 148, 149, 150, 151, 152, 153, 154, 155, 156, 157, 158, 159, 160, 161, 162, 163, 164, 165, 166, 167, 168, 169, 170, 171, 172, 173, 174, 175, 176, 177, 178, 179, 180, 181, 182, 183, 184, 185, 186, 187, 188, 189, 190, 191, 192, 193, 194, 195, 196, 197, 198, 199, 200, 201, 202, 203, 204, 205, 206, 207, 208, 209, 210, 211, 212, 213, 214, 215, 216, 217, 218, 219, 220, 221, 222, 223, 224, 225, 226, 227, 228, 229, 230, 231, 232, 233, 234, 235, 236, 237, 238, 239, 240, 241, 242, 243, 244, 245, 246, 247, 248, 249, 250, 251, 252, 253, 254, 255, 256, 257, 258, 259, 260, 261, 262, 263, 264, 265, 266, 267, 268, 269, 270, 271, 272, 273, 274, 275, 276, 277, 278, 279, 280, 281, 282, 283, 284, 285, 286, 287, 288, 289, 290, 291, 292, 293, 294, 295, 296, 297, 298, 299, 300, 301, 302, 303, 304, 305, 306, 307, 308, 309, 310, 311, 312, 313, 314],
      "WindowCenter": [4824.0, 4818.0, 4820.0, 4820.0, 4822.0, 4820.0, 4820.0, 4826.0, 4822.0, 4820.0, 4822.0, 4820.0, 4816.0, 4816.0, 4820.0, 4822.0, 4820.0, 4822.0, 4820.0, 4822.0, 4822.0, 4820.0, 4822.0, 4818.0, 4818.0, 4818.0, 4822.0, 4822.0, 4820.0, 4820.0, 4846.0, 4820.0, 4824.0, 4818.0, 4820.0, 4816.0, 4816.0, 4816.0, 4822.0, 4850.0, 4848.0, 4824.0, 4820.0, 4848.0, 4822.0, 4818.0, 4820.0, 4820.0, 4820.0, 4818.0, 4820.0, 4820.0, 4824.0, 4820.0, 4822.0, 4822.0, 4818.0, 4822.0, 4822.0, 4820.0, 4820.0, 4820.0, 4820.0, 4820.0, 4818.0, 4822.0, 4820.0, 4822.0, 4846.0, 4820.0, 4850.0, 4844.0, 4820.0, 4822.0, 4816.0, 4818.0, 4818.0, 4818.0, 4824.0, 4850.0, 4848.0, 4820.0, 4818.0, 4816.0, 4816.0, 4816.0, 4818.0, 4820.0, 4820.0, 4822.0, 4844.0, 4820.0, 4818.0, 4820.0, 4820.0, 4818.0, 4818.0, 4818.0, 4816.0, 4844.0, 4844.0, 4844.0, 4844.0, 4842.0, 4844.0, 4842.0, 4820.0, 4820.0, 4818.0, 4820.0, 4820.0, 4840.0, 4842.0, 4846.0, 4842.0, 4816.0, 4844.0, 4816.0, 4818.0, 4842.0, 4818.0, 4816.0, 4816.0, 4820.0, 4818.0, 4818.0, 4818.0, 4840.0, 4842.0, 4820.0, 4842.0, 4818.0, 4842.0, 4816.0, 4842.0, 4820.0, 4842.0, 4818.0, 4842.0, 4840.0, 4820.0, 4842.0, 4818.0, 4842.0, 4818.0, 4818.0, 4820.0, 4816.0, 4818.0, 4840.0, 4820.0, 4842.0, 4840.0, 4818.0, 4840.0, 4842.0, 4842.0, 4842.0, 4820.0, 4816.0, 4816.0, 4842.0, 4844.0, 4820.0, 4838.0, 4818.0, 4818.0, 4818.0, 4816.0, 4838.0, 4842.0, 4820.0, 4818.0, 4816.0, 4842.0, 4840.0, 4820.0, 4818.0, 4838.0, 4844.0, 4840.0, 4840.0, 4840.0, 4818.0, 4842.0, 4818.0, 4818.0, 4840.0, 4840.0, 4842.0, 4842.0, 4840.0, 4842.0, 4818.0, 4818.0, 4840.0, 4820.0, 4842.0, 4844.0, 4840.0, 4840.0, 4816.0, 4820.0, 4842.0, 4840.0, 4818.0, 4844.0, 4842.0, 4840.0, 4840.0, 4840.0, 4840.0, 4842.0, 4816.0, 4840.0, 4818.0, 4818.0, 4840.0, 4844.0, 4842.0, 4844.0, 4818.0, 4842.0, 4840.0, 4820.0, 4838.0, 4816.0, 4842.0, 4842.0, 4818.0, 4842.0, 4842.0, 4840.0, 4842.0, 4840.0, 4818.0, 4816.0, 4840.0, 4840.0, 4840.0, 4842.0, 4838.0, 4842.0, 4844.0, 4840.0, 4840.0, 4842.0, 4816.0, 4842.0, 4840.0, 4842.0, 4840.0, 4840.0, 4840.0, 4840.0, 4840.0, 4840.0, 4842.0, 4838.0, 4840.0, 4838.0, 4842.0, 4840.0, 4818.0, 4838.0, 4842.0, 4818.0, 4842.0, 4840.0, 4840.0, 4818.0, 4838.0, 4842.0, 4816.0, 4842.0, 4840.0, 4814.0, 4838.0, 4838.0, 4838.0, 4838.0, 4816.0, 4838.0, 4842.0, 4840.0, 4818.0, 4840.0, 4836.0, 4840.0, 4842.0, 4838.0, 4814.0, 4840.0, 4818.0, 4842.0, 4820.0, 4844.0, 4840.0, 4842.0, 4842.0, 4842.0, 4816.0, 4814.0, 4814.0, 4820.0, 4842.0, 4818.0, 4840.0, 4842.0, 4820.0, 4842.0, 4844.0, 4822.0, 4820.0],
