{
  "AcquisitionMatrixPE": 104,
  "AcquisitionNumber": 1,
  "AcquisitionTime": "18:53:18.812500",
  "BandwidthPerPixelPhaseEncode": 17.17,
  "BaseResolution": 104,
  "BodyPartExamined": "BRAIN",
  "CoilCombinationMethod": "Sum of Squares",
  "ConsistencyInfo": "N4_VE11C_LATEST_20160120",
  "ConversionSoftware": "dcm2niix",
  "ConversionSoftwareVersion": "v1.0.20220505",
  "DerivedVendorReportedEchoSpacing": 0.000560011,
  "DeviceSerialNumber": "167006",
  "DwellTime": 2.1e-06,
  "EchoTime": 0.037,
  "EchoTrainLength": 104,
  "EffectiveEchoSpacing": 0.000560011,
  "FlipAngle": 52,
  "HeudiconvVersion": "0.5.3.post811+g6206e14",
  "ImageComments": "Unaliased MB4/PE3/LB",
  "ImageOrientationPatientDICOM": [0.997011, 0.0768685, 0.00781709, -0.0690184, 0.931508, -0.357112],
  "ImageOrientationText": "Tra>Cor(-20.8)>Sag(2.0)",
  "ImageType": [
    "ORIGINAL",
    "PRIMARY",
    "M",
    "MB",
    "ND",
    "MOSAIC"
],
  "ImagingFrequency": 123.259,
  "InPlanePhaseEncodingDirectionDICOM": "COL",
  "InstitutionAddress": "Chemin Queen-Mary 4565,Montreal,District,CA,H3W 1W5",
  "InstitutionName": "IUGM",
  "InstitutionalDepartmentName": "Department",
  "MRAcquisitionType": "2D",
  "MagneticFieldStrength": 3,
  "Manufacturer": "Siemens",
  "ManufacturersModelName": "Prisma_fit",
  "MatrixCoilMode": "SENSE",
  "Modality": "MR",
  "MultibandAccelerationFactor": 4,
  "PartialFourier": 1,
  "PatientPosition": "HFS",
  "PercentPhaseFOV": 100,
  "PercentSampling": 100,
  "PhaseEncodingDirection": "j",
  "PhaseEncodingSteps": 104,
  "PhaseResolution": 1,
  "PixelBandwidth": 2290,
  "ProcedureStepDescription": "games^mario3",
  "ProtocolName": "func_task-mario3_run-02",
  "PulseSequenceDetails": "%CustomerSeq%\\cmrr_mbep2d_bold",
  "ReceiveCoilActiveElements": "HC1-7;NC1,2",
  "ReceiveCoilName": "HeadNeck_64",
  "ReconMatrixPE": 104,
  "RepetitionTime": 1.49,
  "SAR": 0.0459403,
  "ScanOptions": "FS",
  "ScanningSequence": "EP",
  "SequenceName": "epfid2d1_104",
  "SequenceVariant": "SK\\SS",
  "SeriesDescription": "func_task-mario3_run-02",
  "SeriesNumber": 13,
  "ShimSetting": [622, -7194, -8810, 631, 81, 16, -45, -5],
  "SliceThickness": 2,
  "SliceTiming": [0, 0.785, 0.1, 0.8825, 0.1975, 0.98, 0.295, 1.08, 0.3925, 1.1775, 0.49, 1.275, 0.59, 1.3725, 0.6875, 0, 0.785, 0.1, 0.8825, 0.1975, 0.98, 0.295, 1.08, 0.3925, 1.1775, 0.49, 1.275, 0.59, 1.3725, 0.6875, 0, 0.785, 0.1, 0.8825, 0.1975, 0.98, 0.295, 1.08, 0.3925, 1.1775, 0.49, 1.275, 0.59, 1.3725, 0.6875, 0, 0.785, 0.1, 0.8825, 0.1975, 0.98, 0.295, 1.08, 0.3925, 1.1775, 0.49, 1.275, 0.59, 1.3725, 0.6875],
  "SoftwareVersions": "syngo MR E11",
  "SpacingBetweenSlices": 2,
  "StationName": "MRC35049",
  "TaskName": "mario3",
  "TotalReadoutTime": 0.0576811,
  "TxRefAmp": 249.116,
  "WipMemBlock": "df6c19f7-c189-4b5e-966a-d8ab057d416e||Sequence: R017 ve11c/master r/75a17815+; Jun 28 2022 16:32:11 by eja",
  "dcmmeta_affine": [
    [-1.9940211772918701, -0.13803672790527344, 0.06946469843387604, 110.95624542236328],
    [-0.15373696386814117, 1.8630162477493286, -0.7110100388526917, -52.16655349731445],
    [0.01563418097794056, 0.7142242193222046, 1.8680577278137207, -59.22541427612305],
    [0.0, 0.0, 0.0, 1.0]
],
  "dcmmeta_reorient_transform": [
    [0.0, -1.0, 0.0, 103.0],
    [1.0, 0.0, 0.0, 0.0],
    [0.0, 0.0, 1.0, 0.0],
    [0.0, 0.0, 0.0, 1.0]
],
  "dcmmeta_shape": [104, 104, 60, 317],
  "dcmmeta_slice_dim": 2,
  "dcmmeta_version": 0.6,
  "global": {
    "const": {
      "AcquisitionMatrix": [104, 0, 0, 104],
      "AngioFlag": "N",
      "BitsAllocated": 16,
      "BitsStored": 16,
      "BodyPartExamined": "BRAIN",
      "Columns": 832,
      "EchoNumbers": 1,
      "EchoTime": 37.0,
      "EchoTrainLength": 104,
      "FlipAngle": 52.0,
      "HighBit": 15,
      "ImageOrientationPatient": [0.99701059643775, 0.07686848300886, 0.00781709093924, -0.0690183637188, 0.93150814092855, -0.3571120956414],
      "ImagePositionPatient": [-772.31680813593, -873.82230598042, 268.6264405858],
      "ImageType": [
        "ORIGINAL",
        "PRIMARY",
        "M",
        "MB",
        "ND",
        "MOSAIC"
],
      "ImagedNucleus": "1H",
      "ImagingFrequency": 123.258807,
      "InPlanePhaseEncodingDirection": "COL",
      "MRAcquisitionType": "2D",
      "MagneticFieldStrength": 3.0,
      "Manufacturer": "SIEMENS",
      "ManufacturerModelName": "Prisma_fit",
      "Modality": "MR",
      "NumberOfAverages": 1.0,
      "NumberOfPhaseEncodingSteps": 104,
      "PercentPhaseFieldOfView": 100.0,
      "PercentSampling": 100.0,
      "PerformedProcedureStepStartTime": "184017.187000",
      "PhotometricInterpretation": "MONOCHROME2",
      "PixelBandwidth": 2290.0,
      "PixelRepresentation": 0,
      "PixelSpacing": [2.0, 2.0],
      "ProtocolName": "func_task-mario3_run-02",
      "RepetitionTime": 1490.0,
      "Rows": 832,
      "SAR": 0.04594028022303,
      "SamplesPerPixel": 1,
      "ScanOptions": "FS",
      "ScanningSequence": "EP",
      "SequenceName": "epfid2d1_104",
      "SequenceVariant": [
        "SK",
        "SS"
],
      "SeriesDescription": "func_task-mario3_run-02",
      "SeriesNumber": 13,
      "SeriesTime": "185438.352000",
      "SliceLocation": -32.919001662154,
      "SliceThickness": 2.0,
      "SmallestImagePixelValue": 0,
      "SoftwareVersions": "syngo MR E11",
      "SpacingBetweenSlices": 2.0000000381298,
      "SpecificCharacterSet": "ISO_IR 100",
      "StudyID": "1",
      "StudyTime": "184017.114000",
      "TransmitCoilName": "Body",
      "VariableFlipAngleFlag": "N",
      "WindowCenterWidthExplanation": "Algo1",
      "dBdt": 0.0},
    "slices": {}
  },
  "time": {
    "samples": {
      "AcquisitionNumber": [1, 2, 3, 4, 5, 6, 7, 8, 9, 10, 11, 12, 13, 14, 15, 16, 17, 18, 19, 20, 21, 22, 23, 24, 25, 26, 27, 28, 29, 30, 31, 32, 33, 34, 35, 36, 37, 38, 39, 40, 41, 42, 43, 44, 45, 46, 47, 48, 49, 50, 51, 52, 53, 54, 55, 56, 57, 58, 59, 60, 61, 62, 63, 64, 65, 66, 67, 68, 69, 70, 71, 72, 73, 74, 75, 76, 77, 78, 79, 80, 81, 82, 83, 84, 85, 86, 87, 88, 89, 90, 91, 92, 93, 94, 95, 96, 97, 98, 99, 100, 101, 102, 103, 104, 105, 106, 107, 108, 109, 110, 111, 112, 113, 114, 115, 116, 117, 118, 119, 120, 121, 122, 123, 124, 125, 126, 127, 128, 129, 130, 131, 132, 133, 134, 135, 136, 137, 138, 139, 140, 141, 142, 143, 144, 145, 146, 147, 148, 149, 150, 151, 152, 153, 154, 155, 156, 157, 158, 159, 160, 161, 162, 163, 164, 165, 166, 167, 168, 169, 170, 171, 172, 173, 174, 175, 176, 177, 178, 179, 180, 181, 182, 183, 184, 185, 186, 187, 188, 189, 190, 191, 192, 193, 194, 195, 196, 197, 198, 199, 200, 201, 202, 203, 204, 205, 206, 207, 208, 209, 210, 211, 212, 213, 214, 215, 216, 217, 218, 219, 220, 221, 222, 223, 224, 225, 226, 227, 228, 229, 230, 231, 232, 233, 234, 235, 236, 237, 238, 239, 240, 241, 242, 243, 244, 245, 246, 247, 248, 249, 250, 251, 252, 253, 254, 255, 256, 257, 258, 259, 260, 261, 262, 263, 264, 265, 266, 267, 268, 269, 270, 271, 272, 273, 274, 275, 276, 277, 278, 279, 280, 281, 282, 283, 284, 285, 286, 287, 288, 289, 290, 291, 292, 293, 294, 295, 296, 297, 298, 299, 300, 301, 302, 303, 304, 305, 306, 307, 308, 309, 310, 311, 312, 313, 314, 315, 316, 317],
      "AcquisitionTime": ["185318.812500", "185320.302500", "185321.792500", "185323.282500", "185324.772500", "185326.262500", "185327.752500", "185329.242500", "185330.732500", "185332.222500", "185333.712500", "185335.202500", "185336.692500", "185338.182500", "185339.672500", "185341.162500", "185342.652500", "185344.142500", "185345.632500", "185347.122500", "185348.612500", "185350.102500", "185351.592500", "185353.082500", "185354.572500", "185356.062500", "185357.552500", "185359.042500", "185400.532500", "185402.022500", "185403.512500", "185405.002500", "185406.492500", "185407.982500", "185409.472500", "185410.962500", "185412.452500", "185413.942500", "185415.432500", "185416.922500", "185418.412500", "185419.902500", "185421.392500", "185422.882500", "185424.372500", "185425.862500", "185427.352500", "185428.842500", "185430.332500", "185431.822500", "185433.312500", "185434.802500", "185436.292500", "185437.782500", "185439.272500", "185440.762500", "185442.252500", "185443.742500", "185445.232500", "185446.722500", "185448.212500", "185449.702500", "185451.192500", "185452.682500", "185454.172500", "185455.662500", "185457.152500", "185458.642500", "185500.132500", "185501.622500", "185503.112500", "185504.602500", "185506.092500", "185507.582500", "185509.072500", "185510.562500", "185512.052500", "185513.542500", "185515.032500", "185516.522500", "185518.012500", "185519.502500", "185520.992500", "185522.482500", "185523.972500", "185525.462500", "185526.952500", "185528.442500", "185529.932500", "185531.422500", "185532.912500", "185534.402500", "185535.892500", "185537.382500", "185538.872500", "185540.362500", "185541.852500", "185543.342500", "185544.832500", "185546.322500", "185547.812500", "185549.302500", "185550.792500", "185552.282500", "185553.772500", "185555.262500", "185556.752500", "185558.242500", "185559.732500", "185601.222500", "185602.712500", "185604.202500", "185605.692500", "185607.182500", "185608.672500", "185610.162500", "185611.652500", "185613.142500", "185614.632500", "185616.122500", "185617.612500", "185619.102500", "185620.592500", "185622.082500", "185623.572500", "185625.062500", "185626.552500", "185628.042500", "185629.532500", "185631.022500", "185632.512500", "185634.002500", "185635.492500", "185636.982500", "185638.472500", "185639.962500", "185641.452500", "185642.942500", "185644.432500", "185645.922500", "185647.412500", "185648.902500", "185650.392500", "185651.882500", "185653.372500", "185654.862500", "185656.352500", "185657.842500", "185659.332500", "185700.822500", "185702.312500", "185703.802500", "185705.292500", "185706.782500", "185708.272500", "185709.762500", "185711.252500", "185712.742500", "185714.232500", "185715.722500", "185717.212500", "185718.702500", "185720.192500", "185721.682500", "185723.172500", "185724.662500", "185726.152500", "185727.642500", "185729.132500", "185730.622500", "185732.112500", "185733.602500", "185735.092500", "185736.582500", "185738.072500", "185739.562500", "185741.052500", "185742.542500", "185744.032500", "185745.522500", "185747.012500", "185748.502500", "185749.992500", "185751.482500", "185752.972500", "185754.462500", "185755.952500", "185757.442500", "185758.932500", "185800.422500", "185801.912500", "185803.402500", "185804.892500", "185806.382500", "185807.872500", "185809.362500", "185810.852500", "185812.342500", "185813.832500", "185815.322500", "185816.812500", "185818.302500", "185819.792500", "185821.282500", "185822.772500", "185824.262500", "185825.752500", "185827.242500", "185828.732500", "185830.222500", "185831.712500", "185833.202500", "185834.692500", "185836.182500", "185837.672500", "185839.162500", "185840.652500", "185842.142500", "185843.632500", "185845.122500", "185846.612500", "185848.102500", "185849.592500", "185851.082500", "185852.572500", "185854.062500", "185855.552500", "185857.042500", "185858.532500", "185900.022500", "185901.512500", "185903.002500", "185904.492500", "185905.982500", "185907.472500", "185908.962500", "185910.452500", "185911.942500", "185913.432500", "185914.922500", "185916.412500", "185917.902500", "185919.392500", "185920.882500", "185922.372500", "185923.862500", "185925.352500", "185926.842500", "185928.332500", "185929.822500", "185931.312500", "185932.802500", "185934.292500", "185935.782500", "185937.272500", "185938.762500", "185940.252500", "185941.742500", "185943.232500", "185944.722500", "185946.212500", "185947.702500", "185949.192500", "185950.682500", "185952.172500", "185953.662500", "185955.152500", "185956.642500", "185958.132500", "185959.622500", "190001.112500", "190002.602500", "190004.092500", "190005.582500", "190007.072500", "190008.562500", "190010.052500", "190011.542500", "190013.032500", "190014.522500", "190016.012500", "190017.502500", "190018.992500", "190020.482500", "190021.972500", "190023.462500", "190024.952500", "190026.442500", "190027.932500", "190029.422500", "190030.912500", "190032.402500", "190033.892500", "190035.382500", "190036.872500", "190038.362500", "190039.852500", "190041.342500", "190042.832500", "190044.322500", "190045.812500", "190047.302500", "190048.792500", "190050.282500", "190051.772500", "190053.262500", "190054.752500", "190056.242500", "190057.732500", "190059.222500", "190100.712500", "190102.202500", "190103.692500", "190105.182500", "190106.672500", "190108.162500", "190109.652500"],
      "ContentTime": ["185438.355000", "185438.359000", "185438.363000", "185438.366000", "185438.377000", "185438.380000", "185438.389000", "185438.393000", "185438.397000", "185438.400000", "185438.404000", "185438.407000", "185438.411000", "185438.414000", "185438.418000", "185438.421000", "185438.424000", "185438.428000", "185438.431000", "185438.435000", "185438.438000", "185438.442000", "185438.445000", "185438.449000", "185438.452000", "185438.455000", "185438.459000", "185438.463000", "185438.466000", "185438.470000", "185438.473000", "185438.477000", "185458.322000", "185458.326000", "185458.329000", "185458.333000", "185458.336000", "185458.340000", "185458.343000", "185458.347000", "185458.350000", "185458.354000", "185458.357000", "185458.360000", "185458.364000", "185458.367000", "185458.371000", "185458.374000", "185458.378000", "185458.381000", "185458.384000", "185458.388000", "185518.322000", "185518.326000", "185518.330000", "185518.333000", "185518.336000", "185518.340000", "185518.343000", "185518.347000", "185518.350000", "185518.353000", "185518.357000", "185518.360000", "185518.364000", "185518.367000", "185518.371000", "185518.374000", "185518.380000", "185518.383000", "185518.387000", "185518.391000", "185538.322000", "185538.326000", "185538.330000", "185538.333000", "185538.336000", "185538.340000", "185538.343000", "185538.347000", "185538.350000", "185538.354000", "185538.357000", "185538.361000", "185538.364000", "185538.367000", "185538.371000", "185538.374000", "185538.378000", "185538.381000", "185538.384000", "185538.388000", "185538.391000", "185618.322000", "185618.326000", "185618.330000", "185618.333000", "185618.337000", "185618.340000", "185618.343000", "185618.347000", "185618.351000", "185618.354000", "185618.359000", "185618.363000", "185618.366000", "185618.370000", "185618.394000", "185618.397000", "185618.401000", "185618.404000", "185618.408000", "185618.411000", "185618.415000", "185618.418000", "185618.422000", "185618.425000", "185618.429000", "185618.432000", "185658.322000", "185658.326000", "185658.329000", "185658.333000", "185658.337000", "185658.340000", "185658.343000", "185658.347000", "185658.350000", "185658.354000", "185658.357000", "185658.360000", "185658.364000", "185658.367000", "185658.371000", "185658.374000", "185658.378000", "185658.381000", "185658.385000", "185658.388000", "185658.392000", "185658.395000", "185658.399000", "185658.402000", "185658.406000", "185658.409000", "185658.412000", "185738.322000", "185738.326000", "185738.330000", "185738.333000", "185738.337000", "185738.340000", "185738.344000", "185738.347000", "185738.351000", "185738.354000", "185738.357000", "185738.361000", "185738.364000", "185738.368000", "185738.371000", "185738.375000", "185738.378000", "185738.381000", "185738.385000", "185738.388000", "185738.392000", "185738.395000", "185738.399000", "185738.402000", "185738.406000", "185738.409000", "185738.413000", "185818.322000", "185818.326000", "185818.330000", "185818.333000", "185818.337000", "185818.340000", "185818.343000", "185818.347000", "185818.351000", "185818.354000", "185818.357000", "185818.361000", "185818.364000", "185818.368000", "185818.371000", "185818.375000", "185818.378000", "185818.381000", "185818.385000", "185818.388000", "185818.392000", "185818.395000", "185818.398000", "185818.402000", "185818.405000", "185818.409000", "185818.412000", "185858.322000", "185858.326000", "185858.329000", "185858.333000", "185858.336000", "185858.340000", "185858.356000", "185858.359000", "185858.363000", "185858.366000", "185858.369000", "185858.373000", "185858.376000", "185858.379000", "185858.383000", "185858.386000", "185858.390000", "185858.393000", "185858.396000", "185858.400000", "185858.403000", "185858.407000", "185858.410000", "185858.413000", "185858.417000", "185858.420000", "185858.424000", "185938.322000", "185938.326000", "185938.329000", "185938.333000", "185938.336000", "185938.340000", "185938.343000", "185938.347000", "185938.350000", "185938.353000", "185938.357000", "185938.360000", "185938.364000", "185938.367000", "185938.371000", "185938.374000", "185938.377000", "185938.387000", "185938.391000", "185938.394000", "185938.398000", "185938.401000", "185938.404000", "185938.408000", "185938.411000", "185938.415000", "185938.418000", "190018.322000", "190018.326000", "190018.329000", "190018.333000", "190018.336000", "190018.340000", "190018.343000", "190018.347000", "190018.350000", "190018.353000", "190018.357000", "190018.360000", "190018.364000", "190018.367000", "190018.370000", "190018.374000", "190018.377000", "190018.381000", "190018.384000", "190018.388000", "190018.391000", "190018.394000", "190018.398000", "190018.401000", "190018.405000", "190018.408000", "190018.411000", "190058.322000", "190058.326000", "190058.330000", "190058.333000", "190058.336000", "190058.341000", "190058.345000", "190058.348000", "190058.351000", "190058.355000", "190058.358000", "190058.362000", "190058.365000", "190058.368000", "190058.372000", "190058.375000", "190058.379000", "190058.382000", "190058.385000", "190058.389000", "190058.402000", "190058.406000", "190058.410000", "190058.413000", "190058.416000", "190058.420000", "190112.498000", "190112.502000", "190112.506000", "190112.509000", "190112.512000", "190112.516000", "190112.519000", "190112.523000", "190112.526000", "190112.529000"],
      "InstanceCreationTime": ["185438.355000", "185438.359000", "185438.363000", "185438.366000", "185438.377000", "185438.380000", "185438.389000", "185438.393000", "185438.397000", "185438.400000", "185438.404000", "185438.407000", "185438.411000", "185438.414000", "185438.418000", "185438.421000", "185438.424000", "185438.428000", "185438.431000", "185438.435000", "185438.438000", "185438.442000", "185438.445000", "185438.449000", "185438.452000", "185438.455000", "185438.459000", "185438.463000", "185438.466000", "185438.470000", "185438.473000", "185438.477000", "185458.322000", "185458.326000", "185458.329000", "185458.333000", "185458.336000", "185458.340000", "185458.343000", "185458.347000", "185458.350000", "185458.354000", "185458.357000", "185458.360000", "185458.364000", "185458.367000", "185458.371000", "185458.374000", "185458.378000", "185458.381000", "185458.384000", "185458.388000", "185518.322000", "185518.326000", "185518.330000", "185518.333000", "185518.336000", "185518.340000", "185518.343000", "185518.347000", "185518.350000", "185518.353000", "185518.357000", "185518.360000", "185518.364000", "185518.367000", "185518.371000", "185518.374000", "185518.380000", "185518.383000", "185518.387000", "185518.391000", "185538.322000", "185538.326000", "185538.330000", "185538.333000", "185538.336000", "185538.340000", "185538.343000", "185538.347000", "185538.350000", "185538.354000", "185538.357000", "185538.361000", "185538.364000", "185538.367000", "185538.371000", "185538.374000", "185538.378000", "185538.381000", "185538.384000", "185538.388000", "185538.391000", "185618.322000", "185618.326000", "185618.330000", "185618.333000", "185618.337000", "185618.340000", "185618.343000", "185618.347000", "185618.351000", "185618.354000", "185618.359000", "185618.363000", "185618.366000", "185618.370000", "185618.394000", "185618.397000", "185618.401000", "185618.404000", "185618.408000", "185618.411000", "185618.415000", "185618.418000", "185618.422000", "185618.425000", "185618.429000", "185618.432000", "185658.322000", "185658.326000", "185658.329000", "185658.333000", "185658.337000", "185658.340000", "185658.343000", "185658.347000", "185658.350000", "185658.354000", "185658.357000", "185658.360000", "185658.364000", "185658.367000", "185658.371000", "185658.374000", "185658.378000", "185658.381000", "185658.385000", "185658.388000", "185658.392000", "185658.395000", "185658.399000", "185658.402000", "185658.406000", "185658.409000", "185658.412000", "185738.322000", "185738.326000", "185738.330000", "185738.333000", "185738.337000", "185738.340000", "185738.344000", "185738.347000", "185738.351000", "185738.354000", "185738.357000", "185738.361000", "185738.364000", "185738.368000", "185738.371000", "185738.375000", "185738.378000", "185738.381000", "185738.385000", "185738.388000", "185738.392000", "185738.395000", "185738.399000", "185738.402000", "185738.406000", "185738.409000", "185738.413000", "185818.322000", "185818.326000", "185818.330000", "185818.333000", "185818.337000", "185818.340000", "185818.343000", "185818.347000", "185818.351000", "185818.354000", "185818.357000", "185818.361000", "185818.364000", "185818.368000", "185818.371000", "185818.375000", "185818.378000", "185818.381000", "185818.385000", "185818.388000", "185818.392000", "185818.395000", "185818.398000", "185818.402000", "185818.405000", "185818.409000", "185818.412000", "185858.322000", "185858.326000", "185858.329000", "185858.333000", "185858.336000", "185858.340000", "185858.356000", "185858.359000", "185858.363000", "185858.366000", "185858.369000", "185858.373000", "185858.376000", "185858.379000", "185858.383000", "185858.386000", "185858.390000", "185858.393000", "185858.396000", "185858.400000", "185858.403000", "185858.407000", "185858.410000", "185858.413000", "185858.417000", "185858.420000", "185858.424000", "185938.322000", "185938.326000", "185938.329000", "185938.333000", "185938.336000", "185938.340000", "185938.343000", "185938.347000", "185938.350000", "185938.353000", "185938.357000", "185938.360000", "185938.364000", "185938.367000", "185938.371000", "185938.374000", "185938.377000", "185938.387000", "185938.391000", "185938.394000", "185938.398000", "185938.401000", "185938.404000", "185938.408000", "185938.411000", "185938.415000", "185938.418000", "190018.322000", "190018.326000", "190018.329000", "190018.333000", "190018.336000", "190018.340000", "190018.343000", "190018.347000", "190018.350000", "190018.353000", "190018.357000", "190018.360000", "190018.364000", "190018.367000", "190018.370000", "190018.374000", "190018.377000", "190018.381000", "190018.384000", "190018.388000", "190018.391000", "190018.394000", "190018.398000", "190018.401000", "190018.405000", "190018.408000", "190018.411000", "190058.322000", "190058.326000", "190058.330000", "190058.333000", "190058.336000", "190058.341000", "190058.345000", "190058.348000", "190058.351000", "190058.355000", "190058.358000", "190058.362000", "190058.365000", "190058.368000", "190058.372000", "190058.375000", "190058.379000", "190058.382000", "190058.385000", "190058.389000", "190058.402000", "190058.406000", "190058.410000", "190058.413000", "190058.416000", "190058.420000", "190112.498000", "190112.502000", "190112.506000", "190112.509000", "190112.512000", "190112.516000", "190112.519000", "190112.523000", "190112.526000", "190112.529000"],
      "InstanceNumber": [1, 2, 3, 4, 5, 6, 7, 8, 9, 10, 11, 12, 13, 14, 15, 16, 17, 18, 19, 20, 21, 22, 23, 24, 25, 26, 27, 28, 29, 30, 31, 32, 33, 34, 35, 36, 37, 38, 39, 40, 41, 42, 43, 44, 45, 46, 47, 48, 49, 50, 51, 52, 53, 54, 55, 56, 57, 58, 59, 60, 61, 62, 63, 64, 65, 66, 67, 68, 69, 70, 71, 72, 73, 74, 75, 76, 77, 78, 79, 80, 81, 82, 83, 84, 85, 86, 87, 88, 89, 90, 91, 92, 93, 94, 95, 96, 97, 98, 99, 100, 101, 102, 103, 104, 105, 106, 107, 108, 109, 110, 111, 112, 113, 114, 115, 116, 117, 118, 119, 120, 121, 122, 123, 124, 125, 126, 127, 128, 129, 130, 131, 132, 133, 134, 135, 136, 137, 138, 139, 140, 141, 142, 143, 144, 145, 146, 147, 148, 149, 150, 151, 152, 153, 154, 155, 156, 157, 158, 159, 160, 161, 162, 163, 164, 165, 166, 167, 168, 169, 170, 171, 172, 173, 174, 175, 176, 177, 178, 179, 180, 181, 182, 183, 184, 185, 186, 187, 188, 189, 190, 191, 192, 193, 194, 195, 196, 197, 198, 199, 200, 201, 202, 203, 204, 205, 206, 207, 208, 209, 210, 211, 212, 213, 214, 215, 216, 217, 218, 219, 220, 221, 222, 223, 224, 225, 226, 227, 228, 229, 230, 231, 232, 233, 234, 235, 236, 237, 238, 239, 240, 241, 242, 243, 244, 245, 246, 247, 248, 249, 250, 251, 252, 253, 254, 255, 256, 257, 258, 259, 260, 261, 262, 263, 264, 265, 266, 267, 268, 269, 270, 271, 272, 273, 274, 275, 276, 277, 278, 279, 280, 281, 282, 283, 284, 285, 286, 287, 288, 289, 290, 291, 292, 293, 294, 295, 296, 297, 298, 299, 300, 301, 302, 303, 304, 305, 306, 307, 308, 309, 310, 311, 312, 313, 314, 315, 316, 317],
      "LargestImagePixelValue": [40726, 40582, 38217, 38265, 38064, 37507, 37157, 37040, 37451, 37414, 37957, 38159, 38463, 38125, 37459, 37695, 37895, 37656, 38301, 37856, 38737, 38332, 37679, 38246, 37481, 37744, 37888, 37577, 38506, 38616, 37524, 38282, 38470, 38173, 37920, 38464, 37851, 37762, 38169, 37835, 37672, 38274, 37564, 37593, 38330, 38388, 38295, 38413, 37957, 37914, 38667, 38066, 37954, 38488, 38798, 38245, 39503, 39299, 38962, 38788, 39773, 40542, 38374, 38825, 37767, 38138, 38765, 38420, 37909, 38202, 37433, 47452, 37299, 38268, 38691, 37739, 37684, 38330, 37933, 37691, 45890, 37612, 37579, 37730, 37685, 38344, 37632, 38320, 41706, 37753, 38477, 39304, 38856, 40624, 38593, 40503, 40099, 40468, 38483, 38610, 37586, 38989, 37890, 38905, 40136, 39090, 41396, 39782, 39675, 40543, 41438, 42217, 40841, 41710, 42057, 42441, 42436, 41074, 41084, 41142, 43322, 41275, 42707, 42759, 41306, 43426, 42274, 43159, 42003, 43797, 42318, 41841, 42280, 41978, 43029, 41687, 41575, 40001, 40668, 41375, 40972, 41932, 43637, 43097, 43293, 40510, 42471, 42280, 40156, 39039, 40324, 40369, 41067, 40839, 40363, 41707, 40363, 41036, 40352, 41505, 40764, 39590, 39942, 38910, 39623, 39369, 38991, 40387, 38510, 39330, 38617, 38982, 38888, 39097, 38790, 39200, 38747, 41653, 42214, 42368, 41289, 39472, 40236, 38597, 38895, 38185, 39332, 38717, 39242, 38654, 39742, 38938, 39272, 38767, 39699, 38508, 39155, 38663, 38309, 39221, 38678, 39375, 38559, 39994, 39000, 39715, 38645, 40067, 39562, 39552, 39662, 39283, 40898, 39300, 39485, 38904, 38489, 37692, 37951, 38869, 38242, 38078, 38799, 38451, 38197, 38514, 38553, 38230, 40503, 40134, 38866, 39124, 39075, 39057, 39352, 38362, 38554, 38435, 38075, 38444, 38391, 38065, 37880, 38318, 38290, 38289, 38326, 37942, 38517, 37822, 38461, 37623, 39216, 38431, 38718, 38837, 38235, 38262, 38491, 38704, 38745, 37942, 38269, 37860, 38844, 38544, 37566, 39478, 38845, 38969, 38903, 39185, 38406, 38512, 38336, 38401, 38563, 38425, 37763, 44096, 37969, 38441, 39459, 38605, 38011, 40387, 38965, 38718, 38137, 37979, 45641, 39525, 37730, 37671, 38295, 38489, 37832, 38703, 38075, 38266, 38904, 38688, 37942, 38687, 38522, 38077, 38206, 38137, 38833, 38300, 37452, 38536, 40492, 39541, 40658, 40923, 39483],
