{
  "AcquisitionMatrixPE": 104,
  "AcquisitionNumber": 1,
  "AcquisitionTime": "14:14:0.767500",
  "BandwidthPerPixelPhaseEncode": 17.17,
  "BaseResolution": 104,
  "BodyPartExamined": "BRAIN",
  "CoilCombinationMethod": "Sum of Squares",
  "ConsistencyInfo": "N4_VE11C_LATEST_20160120",
  "ConversionSoftware": "dcm2niix",
  "ConversionSoftwareVersion": "v1.0.20220505",
  "DerivedVendorReportedEchoSpacing": 0.000560011,
  "DeviceSerialNumber": "167006",
  "DwellTime": 2.1e-06,
  "EchoTime": 0.037,
  "EchoTrainLength": 104,
  "EffectiveEchoSpacing": 0.000560011,
  "FlipAngle": 52,
  "HeudiconvVersion": "0.5.3.post811+g6206e14",
  "ImageComments": "Unaliased MB4/PE3/LB",
  "ImageOrientationPatientDICOM": [0.999471, 0.00107425, 0.0324964, 0.00837337, 0.957238, -0.289179],
  "ImageOrientationText": "Tra>Cor(-16.8)>Sag(1.8)",
  "ImageType": [
    "ORIGINAL",
    "PRIMARY",
    "M",
    "MB",
    "ND",
    "MOSAIC"
],
  "ImagingFrequency": 123.26,
  "InPlanePhaseEncodingDirectionDICOM": "COL",
  "InstitutionAddress": "Chemin Queen-Mary 4565,Montreal,District,CA,H3W 1W5",
  "InstitutionName": "IUGM",
  "InstitutionalDepartmentName": "Department",
  "MRAcquisitionType": "2D",
  "MagneticFieldStrength": 3,
  "Manufacturer": "Siemens",
  "ManufacturersModelName": "Prisma_fit",
  "MatrixCoilMode": "SENSE",
  "Modality": "MR",
  "MultibandAccelerationFactor": 4,
  "PartialFourier": 1,
  "PatientPosition": "HFS",
  "PercentPhaseFOV": 100,
  "PercentSampling": 100,
  "PhaseEncodingDirection": "j",
  "PhaseEncodingSteps": 104,
  "PhaseResolution": 1,
  "PixelBandwidth": 2290,
  "ProcedureStepDescription": "games^mario3",
  "ProtocolName": "func_task-mario3_run-02",
  "PulseSequenceDetails": "%CustomerSeq%\\cmrr_mbep2d_bold",
  "ReceiveCoilActiveElements": "HC1-7;NC1,2",
  "ReceiveCoilName": "HeadNeck_64",
  "ReconMatrixPE": 104,
  "RepetitionTime": 1.49,
  "SAR": 0.0655975,
  "ScanOptions": "FS",
  "ScanningSequence": "EP",
  "SequenceName": "epfid2d1_104",
  "SequenceVariant": "SK\\SS",
  "SeriesDescription": "func_task-mario3_run-02",
  "SeriesNumber": 13,
  "ShimSetting": [639, -7219, -8747, 658, 89, 4, 6, 5],
  "SliceThickness": 2,
  "SliceTiming": [0, 0.785, 0.0975, 0.8825, 0.1975, 0.98, 0.295, 1.0775, 0.3925, 1.1775, 0.49, 1.275, 0.5875, 1.3725, 0.6875, 0, 0.785, 0.0975, 0.8825, 0.1975, 0.98, 0.295, 1.0775, 0.3925, 1.1775, 0.49, 1.275, 0.5875, 1.3725, 0.6875, 0, 0.785, 0.0975, 0.8825, 0.1975, 0.98, 0.295, 1.0775, 0.3925, 1.1775, 0.49, 1.275, 0.5875, 1.3725, 0.6875, 0, 0.785, 0.0975, 0.8825, 0.1975, 0.98, 0.295, 1.0775, 0.3925, 1.1775, 0.49, 1.275, 0.5875, 1.3725, 0.6875],
  "SoftwareVersions": "syngo MR E11",
  "SpacingBetweenSlices": 2,
  "StationName": "MRC35049",
  "TaskName": "mario3",
  "TotalReadoutTime": 0.0576811,
  "TxRefAmp": 240.994,
  "WipMemBlock": "b35539bb-fbd9-4227-b655-dce674fd88b1||Sequence: R017 ve11c/master r/75a17815+; Jun 28 2022 16:32:11 by eja",
  "dcmmeta_affine": [
    [-1.998942494392395, 0.016746746376156807, 0.06283489614725113, 106.6191177368164],
    [-0.002148508792743087, 1.914476990699768, -0.5785958170890808, -71.8367691040039],
    [0.06499277800321579, 0.5783573985099792, 1.9134467840194702, -55.003440856933594],
    [0.0, 0.0, 0.0, 1.0]
],
  "dcmmeta_reorient_transform": [
    [0.0, -1.0, 0.0, 103.0],
    [1.0, 0.0, 0.0, 0.0],
    [0.0, 0.0, 1.0, 0.0],
    [0.0, 0.0, 0.0, 1.0]
],
  "dcmmeta_shape": [104, 104, 60, 314],
  "dcmmeta_slice_dim": 2,
  "dcmmeta_version": 0.6,
  "global": {
    "const": {
      "AcquisitionMatrix": [104, 0, 0, 104],
      "AngioFlag": "N",
      "BitsAllocated": 16,
      "BitsStored": 16,
      "BodyPartExamined": "BRAIN",
      "Columns": 832,
      "EchoNumbers": 1,
      "EchoTime": 37.0,
      "EchoTrainLength": 104,
      "FlipAngle": 52.0,
      "HighBit": 15,
      "ImageOrientationPatient": [0.99947127550871, 0.00107425434903, 0.03249639073169, 0.00837337364977, 0.95723851010288, -0.2891787014802],
      "ImagePositionPatient": [-842.05493465953, -823.00605843341, 191.43209427063],
      "ImageType": [
        "ORIGINAL",
        "PRIMARY",
        "M",
        "MB",
        "ND",
        "MOSAIC"
],
      "ImagedNucleus": "1H",
      "ImagingFrequency": 123.260242,
      "InPlanePhaseEncodingDirection": "COL",
      "MRAcquisitionType": "2D",
      "MagneticFieldStrength": 3.0,
      "Manufacturer": "SIEMENS",
      "ManufacturerModelName": "Prisma_fit",
      "Modality": "MR",
      "NumberOfAverages": 1.0,
      "NumberOfPhaseEncodingSteps": 104,
      "PercentPhaseFieldOfView": 100.0,
      "PercentSampling": 100.0,
      "PerformedProcedureStepStartTime": "135842.496000",
      "PhotometricInterpretation": "MONOCHROME2",
      "PixelBandwidth": 2290.0,
      "PixelRepresentation": 0,
      "PixelSpacing": [2.0, 2.0],
      "ProtocolName": "func_task-mario3_run-02",
      "RepetitionTime": 1490.0,
      "Rows": 832,
      "SAR": 0.06559755246335,
      "SamplesPerPixel": 1,
      "ScanOptions": "FS",
      "ScanningSequence": "EP",
      "SequenceName": "epfid2d1_104",
      "SequenceVariant": [
        "SK",
        "SS"
],
      "SeriesDescription": "func_task-mario3_run-02",
      "SeriesNumber": 13,
      "SeriesTime": "141512.649000",
      "SliceLocation": -28.49115141788,
      "SliceThickness": 2.0,
      "SmallestImagePixelValue": 0,
      "SoftwareVersions": "syngo MR E11",
      "SpacingBetweenSlices": 1.9999999492937,
      "SpecificCharacterSet": "ISO_IR 100",
      "StudyID": "1",
      "StudyTime": "135842.427000",
      "TransmitCoilName": "Body",
      "VariableFlipAngleFlag": "N",
      "WindowCenterWidthExplanation": "Algo1",
      "dBdt": 0.0},
    "slices": {}
  },
  "time": {
    "samples": {
      "AcquisitionNumber": [1, 2, 3, 4, 5, 6, 7, 8, 9, 10, 11, 12, 13, 14, 15, 16, 17, 18, 19, 20, 21, 22, 23, 24, 25, 26, 27, 28, 29, 30, 31, 32, 33, 34, 35, 36, 37, 38, 39, 40, 41, 42, 43, 44, 45, 46, 47, 48, 49, 50, 51, 52, 53, 54, 55, 56, 57, 58, 59, 60, 61, 62, 63, 64, 65, 66, 67, 68, 69, 70, 71, 72, 73, 74, 75, 76, 77, 78, 79, 80, 81, 82, 83, 84, 85, 86, 87, 88, 89, 90, 91, 92, 93, 94, 95, 96, 97, 98, 99, 100, 101, 102, 103, 104, 105, 106, 107, 108, 109, 110, 111, 112, 113, 114, 115, 116, 117, 118, 119, 120, 121, 122, 123, 124, 125, 126, 127, 128, 129, 130, 131, 132, 133, 134, 135, 136, 137, 138, 139, 140, 141, 142, 143, 144, 145, 146, 147, 148, 149, 150, 151, 152, 153, 154, 155, 156, 157, 158, 159, 160, 161, 162, 163, 164, 165, 166, 167, 168, 169, 170, 171, 172, 173, 174, 175, 176, 177, 178, 179, 180, 181, 182, 183, 184, 185, 186, 187, 188, 189, 190, 191, 192, 193, 194, 195, 196, 197, 198, 199, 200, 201, 202, 203, 204, 205, 206, 207, 208, 209, 210, 211, 212, 213, 214, 215, 216, 217, 218, 219, 220, 221, 222, 223, 224, 225, 226, 227, 228, 229, 230, 231, 232, 233, 234, 235, 236, 237, 238, 239, 240, 241, 242, 243, 244, 245, 246, 247, 248, 249, 250, 251, 252, 253, 254, 255, 256, 257, 258, 259, 260, 261, 262, 263, 264, 265, 266, 267, 268, 269, 270, 271, 272, 273, 274, 275, 276, 277, 278, 279, 280, 281, 282, 283, 284, 285, 286, 287, 288, 289, 290, 291, 292, 293, 294, 295, 296, 297, 298, 299, 300, 301, 302, 303, 304, 305, 306, 307, 308, 309, 310, 311, 312, 313, 314],
      "AcquisitionTime": ["141400.767500", "141402.257500", "141403.747500", "141405.237500", "141406.727500", "141408.217500", "141409.707500", "141411.197500", "141412.687500", "141414.177500", "141415.667500", "141417.157500", "141418.647500", "141420.137500", "141421.627500", "141423.117500", "141424.607500", "141426.097500", "141427.587500", "141429.077500", "141430.567500", "141432.057500", "141433.547500", "141435.037500", "141436.527500", "141438.017500", "141439.507500", "141440.997500", "141442.487500", "141443.977500", "141445.467500", "141446.957500", "141448.447500", "141449.937500", "141451.427500", "141452.917500", "141454.407500", "141455.897500", "141457.387500", "141458.877500", "141500.367500", "141501.857500", "141503.347500", "141504.837500", "141506.327500", "141507.817500", "141509.307500", "141510.797500", "141512.287500", "141513.777500", "141515.267500", "141516.757500", "141518.247500", "141519.737500", "141521.227500", "141522.717500", "141524.207500", "141525.697500", "141527.187500", "141528.677500", "141530.167500", "141531.657500", "141533.147500", "141534.637500", "141536.127500", "141537.617500", "141539.107500", "141540.597500", "141542.087500", "141543.577500", "141545.067500", "141546.557500", "141548.047500", "141549.537500", "141551.027500", "141552.517500", "141554.007500", "141555.497500", "141556.987500", "141558.477500", "141559.967500", "141601.457500", "141602.947500", "141604.437500", "141605.927500", "141607.417500", "141608.907500", "141610.397500", "141611.887500", "141613.377500", "141614.867500", "141616.357500", "141617.847500", "141619.337500", "141620.827500", "141622.317500", "141623.807500", "141625.297500", "141626.787500", "141628.277500", "141629.767500", "141631.257500", "141632.747500", "141634.237500", "141635.727500", "141637.217500", "141638.707500", "141640.197500", "141641.687500", "141643.177500", "141644.667500", "141646.157500", "141647.647500", "141649.137500", "141650.627500", "141652.117500", "141653.607500", "141655.097500", "141656.587500", "141658.077500", "141659.567500", "141701.057500", "141702.547500", "141704.037500", "141705.527500", "141707.017500", "141708.507500", "141709.997500", "141711.487500", "141712.977500", "141714.467500", "141715.957500", "141717.447500", "141718.937500", "141720.427500", "141721.917500", "141723.407500", "141724.897500", "141726.387500", "141727.877500", "141729.367500", "141730.857500", "141732.347500", "141733.837500", "141735.327500", "141736.817500", "141738.307500", "141739.797500", "141741.287500", "141742.777500", "141744.267500", "141745.757500", "141747.247500", "141748.737500", "141750.227500", "141751.717500", "141753.207500", "141754.697500", "141756.187500", "141757.677500", "141759.167500", "141800.657500", "141802.147500", "141803.637500", "141805.127500", "141806.617500", "141808.107500", "141809.597500", "141811.087500", "141812.577500", "141814.067500", "141815.557500", "141817.047500", "141818.537500", "141820.027500", "141821.517500", "141823.007500", "141824.497500", "141825.987500", "141827.477500", "141828.967500", "141830.457500", "141831.947500", "141833.437500", "141834.927500", "141836.417500", "141837.907500", "141839.397500", "141840.887500", "141842.377500", "141843.867500", "141845.357500", "141846.847500", "141848.337500", "141849.827500", "141851.317500", "141852.807500", "141854.297500", "141855.787500", "141857.277500", "141858.767500", "141900.257500", "141901.747500", "141903.237500", "141904.727500", "141906.217500", "141907.707500", "141909.197500", "141910.687500", "141912.177500", "141913.667500", "141915.157500", "141916.647500", "141918.137500", "141919.627500", "141921.117500", "141922.607500", "141924.097500", "141925.587500", "141927.077500", "141928.567500", "141930.057500", "141931.547500", "141933.037500", "141934.527500", "141936.017500", "141937.507500", "141938.997500", "141940.487500", "141941.977500", "141943.467500", "141944.957500", "141946.447500", "141947.937500", "141949.427500", "141950.917500", "141952.407500", "141953.897500", "141955.387500", "141956.877500", "141958.367500", "141959.857500", "142001.347500", "142002.837500", "142004.327500", "142005.817500", "142007.307500", "142008.797500", "142010.287500", "142011.777500", "142013.267500", "142014.757500", "142016.247500", "142017.737500", "142019.227500", "142020.717500", "142022.207500", "142023.697500", "142025.187500", "142026.677500", "142028.167500", "142029.657500", "142031.147500", "142032.637500", "142034.127500", "142035.617500", "142037.107500", "142038.597500", "142040.087500", "142041.577500", "142043.067500", "142044.557500", "142046.047500", "142047.537500", "142049.027500", "142050.517500", "142052.007500", "142053.497500", "142054.987500", "142056.477500", "142057.967500", "142059.457500", "142100.947500", "142102.437500", "142103.927500", "142105.417500", "142106.907500", "142108.397500", "142109.887500", "142111.377500", "142112.867500", "142114.357500", "142115.847500", "142117.337500", "142118.827500", "142120.317500", "142121.807500", "142123.297500", "142124.787500", "142126.277500", "142127.767500", "142129.257500", "142130.747500", "142132.237500", "142133.727500", "142135.217500", "142136.707500", "142138.197500", "142139.687500", "142141.177500", "142142.667500", "142144.157500", "142145.647500", "142147.137500"],
      "ContentTime": ["141512.652000", "141512.656000", "141512.659000", "141512.662000", "141512.666000", "141512.669000", "141512.672000", "141512.676000", "141512.679000", "141512.682000", "141512.685000", "141512.689000", "141512.692000", "141512.696000", "141512.699000", "141512.703000", "141512.706000", "141512.709000", "141512.712000", "141512.716000", "141512.719000", "141512.723000", "141532.606000", "141532.610000", "141532.613000", "141532.616000", "141532.619000", "141532.623000", "141532.626000", "141532.629000", "141532.633000", "141532.636000", "141532.639000", "141532.651000", "141532.655000", "141532.658000", "141532.666000", "141532.669000", "141532.673000", "141532.676000", "141532.680000", "141532.684000", "141552.605000", "141552.609000", "141552.612000", "141552.615000", "141552.619000", "141552.622000", "141552.625000", "141552.629000", "141552.638000", "141552.641000", "141552.644000", "141552.648000", "141552.651000", "141552.654000", "141552.658000", "141552.661000", "141552.664000", "141552.668000", "141552.671000", "141552.674000", "141552.677000", "141612.606000", "141612.610000", "141612.613000", "141612.617000", "141612.620000", "141612.623000", "141612.626000", "141612.630000", "141612.633000", "141612.636000", "141612.640000", "141612.643000", "141612.646000", "141612.649000", "141612.653000", "141612.656000", "141612.659000", "141612.662000", "141612.666000", "141612.669000", "141652.606000", "141652.610000", "141652.613000", "141652.616000", "141652.620000", "141652.623000", "141652.626000", "141652.629000", "141652.633000", "141652.636000", "141652.639000", "141652.642000", "141652.646000", "141652.649000", "141652.658000", "141652.662000", "141652.665000", "141652.668000", "141652.671000", "141652.675000", "141652.678000", "141652.681000", "141652.685000", "141652.688000", "141652.691000", "141652.695000", "141652.698000", "141652.701000", "141652.705000", "141652.708000", "141652.711000", "141652.715000", "141732.606000", "141732.610000", "141732.613000", "141732.616000", "141732.620000", "141732.623000", "141732.627000", "141732.630000", "141732.633000", "141732.636000", "141732.640000", "141732.643000", "141732.655000", "141732.659000", "141732.662000", "141732.666000", "141732.669000", "141732.673000", "141732.677000", "141732.680000", "141732.683000", "141732.687000", "141732.690000", "141732.710000", "141732.713000", "141732.717000", "141812.605000", "141812.609000", "141812.612000", "141812.615000", "141812.619000", "141812.622000", "141812.625000", "141812.628000", "141812.632000", "141812.635000", "141812.645000", "141812.652000", "141812.655000", "141812.659000", "141812.662000", "141812.665000", "141812.669000", "141812.672000", "141812.675000", "141812.679000", "141812.682000", "141812.685000", "141812.688000", "141812.692000", "141812.695000", "141812.698000", "141812.702000", "141852.606000", "141852.610000", "141852.613000", "141852.616000", "141852.620000", "141852.623000", "141852.626000", "141852.630000", "141852.633000", "141852.639000", "141852.642000", "141852.646000", "141852.649000", "141852.652000", "141852.656000", "141852.659000", "141852.662000", "141852.665000", "141852.669000", "141852.672000", "141852.675000", "141852.679000", "141852.682000", "141852.685000", "141852.688000", "141852.698000", "141852.701000", "141932.606000", "141932.610000", "141932.613000", "141932.617000", "141932.620000", "141932.623000", "141932.626000", "141932.630000", "141932.633000", "141932.642000", "141932.646000", "141932.649000", "141932.652000", "141932.656000", "141932.659000", "141932.662000", "141932.665000", "141932.669000", "141932.672000", "141932.676000", "141932.679000", "141932.682000", "141932.685000", "141932.689000", "141932.692000", "141932.695000", "141932.698000", "142012.606000", "142012.610000", "142012.613000", "142012.616000", "142012.620000", "142012.623000", "142012.627000", "142012.630000", "142012.633000", "142012.637000", "142012.640000", "142012.643000", "142012.647000", "142012.650000", "142012.653000", "142012.657000", "142012.664000", "142012.667000", "142012.670000", "142012.674000", "142012.677000", "142012.681000", "142012.684000", "142012.687000", "142012.690000", "142012.694000", "142012.697000", "142052.606000", "142052.610000", "142052.613000", "142052.627000", "142052.630000", "142052.634000", "142052.637000", "142052.640000", "142052.648000", "142052.651000", "142052.654000", "142052.658000", "142052.661000", "142052.665000", "142052.668000", "142052.679000", "142052.683000", "142052.686000", "142052.689000", "142052.692000", "142052.696000", "142052.699000", "142052.703000", "142052.706000", "142052.709000", "142052.712000", "142052.716000", "142132.606000", "142132.610000", "142132.613000", "142132.617000", "142132.620000", "142132.623000", "142132.627000", "142132.630000", "142132.633000", "142132.637000", "142132.640000", "142132.643000", "142132.647000", "142132.650000", "142132.653000", "142132.664000", "142132.667000", "142132.671000", "142132.674000", "142132.677000", "142132.680000", "142132.684000", "142132.687000", "142132.690000", "142132.694000", "142132.697000", "142132.700000", "142150.329000", "142150.332000", "142150.335000", "142150.339000", "142150.342000", "142150.345000", "142150.349000", "142150.352000", "142150.356000", "142150.359000", "142150.362000"],
      "InstanceCreationTime": ["141512.652000", "141512.656000", "141512.659000", "141512.662000", "141512.666000", "141512.669000", "141512.672000", "141512.676000", "141512.679000", "141512.682000", "141512.685000", "141512.689000", "141512.692000", "141512.696000", "141512.699000", "141512.703000", "141512.706000", "141512.709000", "141512.712000", "141512.716000", "141512.719000", "141512.723000", "141532.606000", "141532.610000", "141532.613000", "141532.616000", "141532.619000", "141532.623000", "141532.626000", "141532.629000", "141532.633000", "141532.636000", "141532.639000", "141532.651000", "141532.655000", "141532.658000", "141532.666000", "141532.669000", "141532.673000", "141532.676000", "141532.680000", "141532.684000", "141552.605000", "141552.609000", "141552.612000", "141552.615000", "141552.619000", "141552.622000", "141552.625000", "141552.629000", "141552.638000", "141552.641000", "141552.644000", "141552.648000", "141552.651000", "141552.654000", "141552.658000", "141552.661000", "141552.664000", "141552.668000", "141552.671000", "141552.674000", "141552.677000", "141612.606000", "141612.610000", "141612.613000", "141612.617000", "141612.620000", "141612.623000", "141612.626000", "141612.630000", "141612.633000", "141612.636000", "141612.640000", "141612.643000", "141612.646000", "141612.649000", "141612.653000", "141612.656000", "141612.659000", "141612.662000", "141612.666000", "141612.669000", "141652.606000", "141652.610000", "141652.613000", "141652.616000", "141652.620000", "141652.623000", "141652.626000", "141652.629000", "141652.633000", "141652.636000", "141652.639000", "141652.642000", "141652.646000", "141652.649000", "141652.658000", "141652.662000", "141652.665000", "141652.668000", "141652.671000", "141652.675000", "141652.678000", "141652.681000", "141652.685000", "141652.688000", "141652.691000", "141652.695000", "141652.698000", "141652.701000", "141652.705000", "141652.708000", "141652.711000", "141652.715000", "141732.606000", "141732.610000", "141732.613000", "141732.616000", "141732.620000", "141732.623000", "141732.627000", "141732.630000", "141732.633000", "141732.636000", "141732.640000", "141732.643000", "141732.655000", "141732.659000", "141732.662000", "141732.666000", "141732.669000", "141732.673000", "141732.677000", "141732.680000", "141732.683000", "141732.687000", "141732.690000", "141732.710000", "141732.713000", "141732.717000", "141812.605000", "141812.609000", "141812.612000", "141812.615000", "141812.619000", "141812.622000", "141812.625000", "141812.628000", "141812.632000", "141812.635000", "141812.645000", "141812.652000", "141812.655000", "141812.659000", "141812.662000", "141812.665000", "141812.669000", "141812.672000", "141812.675000", "141812.679000", "141812.682000", "141812.685000", "141812.688000", "141812.692000", "141812.695000", "141812.698000", "141812.702000", "141852.606000", "141852.610000", "141852.613000", "141852.616000", "141852.620000", "141852.623000", "141852.626000", "141852.630000", "141852.633000", "141852.639000", "141852.642000", "141852.646000", "141852.649000", "141852.652000", "141852.656000", "141852.659000", "141852.662000", "141852.665000", "141852.669000", "141852.672000", "141852.675000", "141852.679000", "141852.682000", "141852.685000", "141852.688000", "141852.698000", "141852.701000", "141932.606000", "141932.610000", "141932.613000", "141932.617000", "141932.620000", "141932.623000", "141932.626000", "141932.630000", "141932.633000", "141932.642000", "141932.646000", "141932.649000", "141932.652000", "141932.656000", "141932.659000", "141932.662000", "141932.665000", "141932.669000", "141932.672000", "141932.676000", "141932.679000", "141932.682000", "141932.685000", "141932.689000", "141932.692000", "141932.695000", "141932.698000", "142012.606000", "142012.610000", "142012.613000", "142012.616000", "142012.620000", "142012.623000", "142012.627000", "142012.630000", "142012.633000", "142012.637000", "142012.640000", "142012.643000", "142012.647000", "142012.650000", "142012.653000", "142012.657000", "142012.664000", "142012.667000", "142012.670000", "142012.674000", "142012.677000", "142012.681000", "142012.684000", "142012.687000", "142012.690000", "142012.694000", "142012.697000", "142052.606000", "142052.610000", "142052.613000", "142052.627000", "142052.630000", "142052.634000", "142052.637000", "142052.640000", "142052.648000", "142052.651000", "142052.654000", "142052.658000", "142052.661000", "142052.665000", "142052.668000", "142052.679000", "142052.683000", "142052.686000", "142052.689000", "142052.692000", "142052.696000", "142052.699000", "142052.703000", "142052.706000", "142052.709000", "142052.712000", "142052.716000", "142132.606000", "142132.610000", "142132.613000", "142132.617000", "142132.620000", "142132.623000", "142132.627000", "142132.630000", "142132.633000", "142132.637000", "142132.640000", "142132.643000", "142132.647000", "142132.650000", "142132.653000", "142132.664000", "142132.667000", "142132.671000", "142132.674000", "142132.677000", "142132.680000", "142132.684000", "142132.687000", "142132.690000", "142132.694000", "142132.697000", "142132.700000", "142150.329000", "142150.332000", "142150.335000", "142150.339000", "142150.342000", "142150.345000", "142150.349000", "142150.352000", "142150.356000", "142150.359000", "142150.362000"],
      "InstanceNumber": [1, 2, 3, 4, 5, 6, 7, 8, 9, 10, 11, 12, 13, 14, 15, 16, 17, 18, 19, 20, 21, 22, 23, 24, 25, 26, 27, 28, 29, 30, 31, 32, 33, 34, 35, 36, 37, 38, 39, 40, 41, 42, 43, 44, 45, 46, 47, 48, 49, 50, 51, 52, 53, 54, 55, 56, 57, 58, 59, 60, 61, 62, 63, 64, 65, 66, 67, 68, 69, 70, 71, 72, 73, 74, 75, 76, 77, 78, 79, 80, 81, 82, 83, 84, 85, 86, 87, 88, 89, 90, 91, 92, 93, 94, 95, 96, 97, 98, 99, 100, 101, 102, 103, 104, 105, 106, 107, 108, 109, 110, 111, 112, 113, 114, 115, 116, 117, 118, 119, 120, 121, 122, 123, 124, 125, 126, 127, 128, 129, 130, 131, 132, 133, 134, 135, 136, 137, 138, 139, 140, 141, 142, 143, 144, 145, 146, 147, 148, 149, 150, 151, 152, 153, 154, 155, 156, 157, 158, 159, 160, 161, 162, 163, 164, 165, 166, 167, 168, 169, 170, 171, 172, 173, 174, 175, 176, 177, 178, 179, 180, 181, 182, 183, 184, 185, 186, 187, 188, 189, 190, 191, 192, 193, 194, 195, 196, 197, 198, 199, 200, 201, 202, 203, 204, 205, 206, 207, 208, 209, 210, 211, 212, 213, 214, 215, 216, 217, 218, 219, 220, 221, 222, 223, 224, 225, 226, 227, 228, 229, 230, 231, 232, 233, 234, 235, 236, 237, 238, 239, 240, 241, 242, 243, 244, 245, 246, 247, 248, 249, 250, 251, 252, 253, 254, 255, 256, 257, 258, 259, 260, 261, 262, 263, 264, 265, 266, 267, 268, 269, 270, 271, 272, 273, 274, 275, 276, 277, 278, 279, 280, 281, 282, 283, 284, 285, 286, 287, 288, 289, 290, 291, 292, 293, 294, 295, 296, 297, 298, 299, 300, 301, 302, 303, 304, 305, 306, 307, 308, 309, 310, 311, 312, 313, 314],
      "LargestImagePixelValue": [41655, 40543, 40398, 39344, 38886, 38666, 38878, 39172, 39113, 39238, 39344, 39026, 38883, 38728, 38659, 39095, 40162, 39041, 38840, 38516, 38638, 39055, 38832, 38784, 38737, 38677, 38255, 38337, 39028, 38394, 38230, 37733, 38172, 38153, 38311, 38086, 37601, 37896, 38594, 38804, 37880, 38232, 38235, 37841, 37714, 37721, 38409, 37872, 38769, 38564, 38379, 37262, 38333, 37901, 38549, 38438, 38310, 38307, 38246, 37851, 38219, 37841, 38149, 37884, 38163, 38348, 38815, 37667, 37487, 37335, 37743, 38715, 38349, 38134, 38090, 38121, 37697, 38086, 38426, 38556, 38612, 38339, 37893, 38090, 38150, 38162, 38177, 38462, 38262, 38235, 38373, 38074, 37969, 38055, 38026, 37566, 38957, 38182, 38548, 38516, 38266, 37791, 38682, 38505, 38136, 37632, 37509, 37200, 37670, 37672, 37415, 37608, 37379, 37744, 37474, 37656, 37538, 38057, 37776, 37805, 38145, 37630, 37384, 37652, 37533, 37433, 37946, 37988, 37691, 37149, 36853, 37154, 37187, 37545, 37873, 37313, 37127, 37789, 37250, 37616, 37829, 37694, 37999, 37448, 37492, 37588, 37579, 37789, 37566, 37566, 37748, 37392, 37635, 38319, 38577, 38337, 38076, 37884, 37498, 37849, 37517, 37438, 37884, 38070, 37675, 37235, 37597, 37988, 38579, 37380, 37265, 37759, 38315, 37562, 38707, 37978, 37424, 37254, 38418, 37219, 37898, 38124, 37481, 37953, 37844, 37798, 37296, 37293, 37332, 37376, 37204, 37419, 37957, 37958, 38215, 37262, 37313, 37411, 37294, 37186, 38834, 38505, 37572, 37373, 37268, 37394, 37470, 37348, 37329, 37414, 38440, 37968, 37000, 37173, 37472, 37268, 37603, 37448, 37520, 37605, 38154, 37528, 37810, 37477, 37839, 37598, 37621, 37314, 37540, 37454, 37652, 37885, 37801, 38467, 37616, 37534, 37593, 37958, 38474, 37635, 37519, 38307, 37939, 37277, 37295, 37277, 37640, 37815, 37528, 38454, 37663, 38272, 38040, 38143, 37709, 38214, 38374, 37243, 37602, 37888, 37508, 37769, 37949, 38527, 38247, 37858, 38144, 37933, 38895, 37887, 37431, 37871, 38618, 37628, 37414, 37716, 37802, 37754, 38006, 38012, 37949, 38101, 38202, 37531, 37825, 37181, 37899, 37658, 37658, 37555, 37667, 37916, 37486, 38440, 40486, 39330, 39877, 39578, 38791, 38447, 38022, 38243, 38524, 38575, 38856, 38302, 38151, 38472, 38474, 38970, 38626, 38408, 37946, 38130],
      "WindowCenter": [10015.0, 9968.0, 9966.0, 9956.0, 9950.0, 9958.0, 9966.0, 9947.0, 9961.0, 9959.0, 9985.0, 9989.0, 9982.0, 9958.0, 9940.0, 9936.0, 9934.0, 9921.0, 9949.0, 9935.0, 9941.0, 9923.0, 9924.0, 9869.0, 9890.0, 9902.0, 9910.0, 9920.0, 9948.0, 9897.0, 9887.0, 9870.0, 9878.0, 9917.0, 9898.0, 9915.0, 9900.0, 9883.0, 9884.0, 9901.0, 9865.0, 9903.0, 9939.0, 9905.0, 9932.0, 9869.0, 9939.0, 9930.0, 9949.0, 9951.0, 9931.0, 9936.0, 9932.0, 9908.0, 9879.0, 9855.0, 9875.0, 9879.0, 9938.0, 9920.0, 9928.0, 9933.0, 9914.0, 9914.0, 9904.0, 9900.0, 9926.0, 9935.0, 9940.0, 9933.0, 9922.0, 9887.0, 9897.0, 9899.0, 9912.0, 9912.0, 9914.0, 9942.0, 9922.0, 9906.0, 9903.0, 9901.0, 9899.0, 9889.0, 9901.0, 9920.0, 9890.0, 9903.0, 9855.0, 9901.0, 9900.0, 9891.0, 9910.0, 9878.0, 9902.0, 9892.0, 9899.0, 9914.0, 9907.0, 9909.0, 9895.0, 9875.0, 9881.0, 9909.0, 9892.0, 9944.0, 9971.0, 9929.0, 9897.0, 9860.0, 9869.0, 9885.0, 9902.0, 9913.0, 9914.0, 9923.0, 9867.0, 9901.0, 9909.0, 9909.0, 9928.0, 9920.0, 9932.0, 9939.0, 9929.0, 9920.0, 9932.0, 9908.0, 9962.0, 9948.0, 9919.0, 9893.0, 9861.0, 9856.0, 9890.0, 9885.0, 9887.0, 9903.0, 9881.0, 9881.0, 9901.0, 9893.0, 9914.0, 9940.0, 9923.0, 9908.0, 9908.0, 9925.0, 9881.0, 9890.0, 9900.0, 9804.0, 9884.0, 10009.0, 9841.0, 9885.0, 9884.0, 9877.0, 9903.0, 9921.0, 9915.0, 9906.0, 9906.0, 9927.0, 9925.0, 9932.0, 9922.0, 9865.0, 9928.0, 9903.0, 9902.0, 9917.0, 9917.0, 9887.0, 9941.0, 9816.0, 9929.0, 9897.0, 10000.0, 9813.0, 9867.0, 9885.0, 9878.0, 9881.0, 9890.0, 9903.0, 9866.0, 9889.0, 9902.0, 9891.0, 9876.0, 9862.0, 9893.0, 9893.0, 9883.0, 9892.0, 9912.0, 9889.0, 9856.0, 9838.0, 9853.0, 9872.0, 9895.0, 9886.0, 9889.0, 9898.0, 9895.0, 9879.0, 9907.0, 9886.0, 9876.0, 9887.0, 9893.0, 9889.0, 9920.0, 9881.0, 9875.0, 9843.0, 9841.0, 9859.0, 9865.0, 9858.0, 9895.0, 9851.0, 9839.0, 9891.0, 9902.0, 9879.0, 9882.0, 9841.0, 9851.0, 9849.0, 9855.0, 9884.0, 9863.0, 9896.0, 9909.0, 9931.0, 9923.0, 9896.0, 9887.0, 9908.0, 9923.0, 9939.0, 9912.0, 9891.0, 9885.0, 9869.0, 9883.0, 9906.0, 9871.0, 9898.0, 9892.0, 9891.0, 9883.0, 9911.0, 9941.0, 9914.0, 9953.0, 9903.0, 9889.0, 9900.0, 9899.0, 9911.0, 9875.0, 9883.0, 9899.0, 9906.0, 9938.0, 9926.0, 9913.0, 9879.0, 9898.0, 9896.0, 9936.0, 9935.0, 9923.0, 9885.0, 9867.0, 9872.0, 9883.0, 9904.0, 9910.0, 9891.0, 9900.0, 9875.0, 9883.0, 9857.0, 9860.0, 9884.0, 9872.0, 9879.0, 9870.0, 9815.0, 9956.0, 9925.0, 9937.0, 9926.0, 9928.0, 9927.0, 9865.0, 9871.0, 9888.0, 9897.0, 9907.0, 9898.0, 9888.0, 9896.0, 9905.0, 9902.0, 9910.0, 9928.0, 9908.0, 9931.0],
