{
  "AcquisitionMatrixPE": 104,
  "AcquisitionNumber": 1,
  "AcquisitionTime": "14:02:30.140000",
  "BandwidthPerPixelPhaseEncode": 17.17,
  "BaseResolution": 104,
  "BodyPartExamined": "BRAIN",
  "CoilCombinationMethod": "Sum of Squares",
  "ConsistencyInfo": "N4_VE11C_LATEST_20160120",
  "ConversionSoftware": "dcm2niix",
  "ConversionSoftwareVersion": "v1.0.20220505",
  "DerivedVendorReportedEchoSpacing": 0.000560011,
  "DeviceSerialNumber": "167006",
  "DwellTime": 2.1e-06,
  "EchoTime": 0.037,
  "EchoTime1": 0.037,
  "EchoTime2": 0.001,
  "EchoTrainLength": 104,
  "EffectiveEchoSpacing": 0.000560011,
  "FlipAngle": 52,
  "HeudiconvVersion": "0.5.3.post811+g6206e14",
  "ImageComments": "Unaliased MB4/PE3/LB",
  "ImageOrientationPatientDICOM": [0.999471, 0.00107425, 0.0324964, 0.00837337, 0.957238, -0.289179],
  "ImageOrientationText": "Tra>Cor(-16.8)>Sag(1.8)",
  "ImageType": [
    "ORIGINAL",
    "PRIMARY",
    "P",
    "MB",
    "ND",
    "MOSAIC",
    "PHASE"
],
  "ImagingFrequency": 123.26,
  "InPlanePhaseEncodingDirectionDICOM": "COL",
  "InstitutionAddress": "Chemin Queen-Mary 4565,Montreal,District,CA,H3W 1W5",
  "InstitutionName": "IUGM",
  "InstitutionalDepartmentName": "Department",
  "MRAcquisitionType": "2D",
  "MagneticFieldStrength": 3,
  "Manufacturer": "Siemens",
  "ManufacturersModelName": "Prisma_fit",
  "MatrixCoilMode": "SENSE",
  "Modality": "MR",
  "MultibandAccelerationFactor": 4,
  "PartialFourier": 1,
  "PatientPosition": "HFS",
  "PercentPhaseFOV": 100,
  "PercentSampling": 100,
  "PhaseEncodingDirection": "j",
  "PhaseEncodingSteps": 104,
  "PhaseResolution": 1,
  "PixelBandwidth": 2290,
  "ProcedureStepDescription": "games^mario3",
  "ProtocolName": "func_task-mario3_run-01",
  "PulseSequenceDetails": "%CustomerSeq%\\cmrr_mbep2d_bold",
  "ReceiveCoilActiveElements": "HC1-7;NC1,2",
  "ReceiveCoilName": "HeadNeck_64",
  "ReconMatrixPE": 104,
  "RepetitionTime": 1.49,
  "SAR": 0.0655975,
  "ScanOptions": "FS",
  "ScanningSequence": "EP",
  "SequenceName": "epfid2d1_104",
  "SequenceVariant": "SK\\SS",
  "SeriesDescription": "func_task-mario3_run-01",
  "SeriesNumber": 11,
  "ShimSetting": [639, -7219, -8747, 658, 89, 4, 6, 5],
  "SliceThickness": 2,
  "SliceTiming": [0, 0.7825, 0.0975, 0.88, 0.195, 0.98, 0.2925, 1.0775, 0.39, 1.175, 0.49, 1.2725, 0.5875, 1.37, 0.685, 0, 0.7825, 0.0975, 0.88, 0.195, 0.98, 0.2925, 1.0775, 0.39, 1.175, 0.49, 1.2725, 0.5875, 1.37, 0.685, 0, 0.7825, 0.0975, 0.88, 0.195, 0.98, 0.2925, 1.0775, 0.39, 1.175, 0.49, 1.2725, 0.5875, 1.37, 0.685, 0, 0.7825, 0.0975, 0.88, 0.195, 0.98, 0.2925, 1.0775, 0.39, 1.175, 0.49, 1.2725, 0.5875, 1.37, 0.685],
  "SoftwareVersions": "syngo MR E11",
  "SpacingBetweenSlices": 2,
  "StationName": "MRC35049",
  "TaskName": "mario3",
  "TotalReadoutTime": 0.0576811,
  "TxRefAmp": 240.994,
  "WipMemBlock": "4f61f681-4036-4fee-be43-299f3b5c041f||Sequence: R017 ve11c/master r/75a17815+; Jun 28 2022 16:32:11 by eja",
  "dcmmeta_affine": [
    [-1.998942494392395, 0.016746746376156807, 0.06283489614725113, 106.6191177368164],
    [-0.002148508792743087, 1.914476990699768, -0.5785958170890808, -71.8367691040039],
    [0.06499277800321579, 0.5783573985099792, 1.9134467840194702, -55.003440856933594],
    [0.0, 0.0, 0.0, 1.0]
],
  "dcmmeta_reorient_transform": [
    [0.0, -1.0, 0.0, 103.0],
    [1.0, 0.0, 0.0, 0.0],
    [0.0, 0.0, 1.0, 0.0],
    [0.0, 0.0, 0.0, 1.0]
],
  "dcmmeta_shape": [104, 104, 60, 413],
  "dcmmeta_slice_dim": 2,
  "dcmmeta_version": 0.6,
  "global": {
    "const": {
      "AcquisitionMatrix": [104, 0, 0, 104],
      "AngioFlag": "N",
      "BitsAllocated": 16,
      "BitsStored": 16,
      "BodyPartExamined": "BRAIN",
      "Columns": 832,
      "EchoNumbers": 1,
      "EchoTime": 37.0,
      "EchoTrainLength": 104,
      "FlipAngle": 52.0,
      "HighBit": 15,
      "ImageOrientationPatient": [0.99947127550871, 0.00107425434903, 0.03249639073169, 0.00837337364977, 0.95723851010288, -0.2891787014802],
      "ImagePositionPatient": [-842.05493465953, -823.00605843341, 191.43209427063],
      "ImageType": [
        "ORIGINAL",
        "PRIMARY",
        "P",
        "MB",
        "ND",
        "MOSAIC"
],
      "ImagedNucleus": "1H",
      "ImagingFrequency": 123.260237,
      "InPlanePhaseEncodingDirection": "COL",
      "LargestImagePixelValue": 4095,
      "MRAcquisitionType": "2D",
      "MagneticFieldStrength": 3.0,
      "Manufacturer": "SIEMENS",
      "ManufacturerModelName": "Prisma_fit",
      "Modality": "MR",
      "NumberOfAverages": 1.0,
      "NumberOfPhaseEncodingSteps": 104,
      "PercentPhaseFieldOfView": 100.0,
      "PercentSampling": 100.0,
      "PerformedProcedureStepStartTime": "135842.496000",
      "PhotometricInterpretation": "MONOCHROME2",
      "PixelBandwidth": 2290.0,
      "PixelRepresentation": 0,
      "PixelSpacing": [2.0, 2.0],
      "ProtocolName": "func_task-mario3_run-01",
      "RepetitionTime": 1490.0,
      "RescaleIntercept": -4096.0,
      "RescaleSlope": 2.0,
      "RescaleType": "US",
      "Rows": 832,
      "SAR": 0.06559755246335,
      "SamplesPerPixel": 1,
      "ScanOptions": "FS",
      "ScanningSequence": "EP",
      "SequenceName": "epfid2d1_104",
      "SequenceVariant": [
        "SK",
        "SS"
],
      "SeriesDescription": "func_task-mario3_run-01",
      "SeriesNumber": 11,
      "SeriesTime": "140347.556000",
      "SliceLocation": -28.49115141788,
      "SliceThickness": 2.0,
      "SmallestImagePixelValue": 0,
      "SoftwareVersions": "syngo MR E11",
      "SpacingBetweenSlices": 1.9999999492937,
      "SpecificCharacterSet": "ISO_IR 100",
      "StudyID": "1",
      "StudyTime": "135842.427000",
      "TransmitCoilName": "Body",
      "VariableFlipAngleFlag": "N",
      "WindowCenterWidthExplanation": "Algo1",
      "dBdt": 0.0},
    "slices": {}
  },
  "time": {
    "samples": {
      "AcquisitionNumber": [1, 2, 3, 4, 5, 6, 7, 8, 9, 10, 11, 12, 13, 14, 15, 16, 17, 18, 19, 20, 21, 22, 23, 24, 25, 26, 27, 28, 29, 30, 31, 32, 33, 34, 35, 36, 37, 38, 39, 40, 41, 42, 43, 44, 45, 46, 47, 48, 49, 50, 51, 52, 53, 54, 55, 56, 57, 58, 59, 60, 61, 62, 63, 64, 65, 66, 67, 68, 69, 70, 71, 72, 73, 74, 75, 76, 77, 78, 79, 80, 81, 82, 83, 84, 85, 86, 87, 88, 89, 90, 91, 92, 93, 94, 95, 96, 97, 98, 99, 100, 101, 102, 103, 104, 105, 106, 107, 108, 109, 110, 111, 112, 113, 114, 115, 116, 117, 118, 119, 120, 121, 122, 123, 124, 125, 126, 127, 128, 129, 130, 131, 132, 133, 134, 135, 136, 137, 138, 139, 140, 141, 142, 143, 144, 145, 146, 147, 148, 149, 150, 151, 152, 153, 154, 155, 156, 157, 158, 159, 160, 161, 162, 163, 164, 165, 166, 167, 168, 169, 170, 171, 172, 173, 174, 175, 176, 177, 178, 179, 180, 181, 182, 183, 184, 185, 186, 187, 188, 189, 190, 191, 192, 193, 194, 195, 196, 197, 198, 199, 200, 201, 202, 203, 204, 205, 206, 207, 208, 209, 210, 211, 212, 213, 214, 215, 216, 217, 218, 219, 220, 221, 222, 223, 224, 225, 226, 227, 228, 229, 230, 231, 232, 233, 234, 235, 236, 237, 238, 239, 240, 241, 242, 243, 244, 245, 246, 247, 248, 249, 250, 251, 252, 253, 254, 255, 256, 257, 258, 259, 260, 261, 262, 263, 264, 265, 266, 267, 268, 269, 270, 271, 272, 273, 274, 275, 276, 277, 278, 279, 280, 281, 282, 283, 284, 285, 286, 287, 288, 289, 290, 291, 292, 293, 294, 295, 296, 297, 298, 299, 300, 301, 302, 303, 304, 305, 306, 307, 308, 309, 310, 311, 312, 313, 314, 315, 316, 317, 318, 319, 320, 321, 322, 323, 324, 325, 326, 327, 328, 329, 330, 331, 332, 333, 334, 335, 336, 337, 338, 339, 340, 341, 342, 343, 344, 345, 346, 347, 348, 349, 350, 351, 352, 353, 354, 355, 356, 357, 358, 359, 360, 361, 362, 363, 364, 365, 366, 367, 368, 369, 370, 371, 372, 373, 374, 375, 376, 377, 378, 379, 380, 381, 382, 383, 384, 385, 386, 387, 388, 389, 390, 391, 392, 393, 394, 395, 396, 397, 398, 399, 400, 401, 402, 403, 404, 405, 406, 407, 408, 409, 410, 411, 412, 413],
      "AcquisitionTime": ["140230.140000", "140231.630000", "140233.120000", "140234.610000", "140236.100000", "140237.590000", "140239.080000", "140240.570000", "140242.060000", "140243.550000", "140245.040000", "140246.530000", "140248.020000", "140249.510000", "140251.000000", "140252.490000", "140253.980000", "140255.470000", "140256.960000", "140258.450000", "140259.940000", "140301.430000", "140302.920000", "140304.410000", "140305.900000", "140307.390000", "140308.880000", "140310.370000", "140311.860000", "140313.350000", "140314.840000", "140316.330000", "140317.820000", "140319.310000", "140320.800000", "140322.290000", "140323.780000", "140325.270000", "140326.760000", "140328.250000", "140329.740000", "140331.230000", "140332.720000", "140334.210000", "140335.700000", "140337.190000", "140338.680000", "140340.170000", "140341.660000", "140343.150000", "140344.640000", "140346.130000", "140347.620000", "140349.110000", "140350.600000", "140352.090000", "140353.580000", "140355.070000", "140356.560000", "140358.050000", "140359.540000", "140401.030000", "140402.520000", "140404.010000", "140405.500000", "140406.990000", "140408.480000", "140409.970000", "140411.460000", "140412.950000", "140414.440000", "140415.930000", "140417.420000", "140418.910000", "140420.400000", "140421.890000", "140423.380000", "140424.870000", "140426.360000", "140427.850000", "140429.340000", "140430.830000", "140432.320000", "140433.810000", "140435.300000", "140436.790000", "140438.280000", "140439.770000", "140441.260000", "140442.750000", "140444.240000", "140445.730000", "140447.220000", "140448.710000", "140450.200000", "140451.690000", "140453.180000", "140454.670000", "140456.160000", "140457.650000", "140459.140000", "140500.630000", "140502.120000", "140503.610000", "140505.100000", "140506.590000", "140508.080000", "140509.570000", "140511.060000", "140512.550000", "140514.040000", "140515.530000", "140517.020000", "140518.510000", "140520.000000", "140521.490000", "140522.980000", "140524.470000", "140525.960000", "140527.450000", "140528.940000", "140530.430000", "140531.920000", "140533.410000", "140534.900000", "140536.390000", "140537.880000", "140539.370000", "140540.860000", "140542.350000", "140543.840000", "140545.330000", "140546.820000", "140548.310000", "140549.800000", "140551.290000", "140552.780000", "140554.270000", "140555.760000", "140557.250000", "140558.740000", "140600.230000", "140601.720000", "140603.210000", "140604.700000", "140606.190000", "140607.680000", "140609.170000", "140610.660000", "140612.150000", "140613.640000", "140615.130000", "140616.620000", "140618.110000", "140619.600000", "140621.090000", "140622.580000", "140624.070000", "140625.560000", "140627.050000", "140628.540000", "140630.030000", "140631.520000", "140633.010000", "140634.500000", "140635.990000", "140637.480000", "140638.970000", "140640.460000", "140641.950000", "140643.440000", "140644.930000", "140646.420000", "140647.910000", "140649.400000", "140650.890000", "140652.380000", "140653.870000", "140655.360000", "140656.850000", "140658.340000", "140659.830000", "140701.320000", "140702.810000", "140704.300000", "140705.790000", "140707.280000", "140708.770000", "140710.260000", "140711.750000", "140713.240000", "140714.730000", "140716.220000", "140717.710000", "140719.200000", "140720.690000", "140722.180000", "140723.670000", "140725.160000", "140726.650000", "140728.140000", "140729.630000", "140731.120000", "140732.610000", "140734.100000", "140735.590000", "140737.080000", "140738.570000", "140740.060000", "140741.550000", "140743.040000", "140744.530000", "140746.020000", "140747.510000", "140749.000000", "140750.490000", "140751.980000", "140753.470000", "140754.960000", "140756.450000", "140757.940000", "140759.430000", "140800.920000", "140802.410000", "140803.900000", "140805.390000", "140806.880000", "140808.370000", "140809.860000", "140811.350000", "140812.840000", "140814.330000", "140815.820000", "140817.310000", "140818.800000", "140820.290000", "140821.780000", "140823.270000", "140824.760000", "140826.250000", "140827.740000", "140829.230000", "140830.720000", "140832.210000", "140833.700000", "140835.190000", "140836.680000", "140838.170000", "140839.660000", "140841.150000", "140842.640000", "140844.130000", "140845.620000", "140847.110000", "140848.600000", "140850.090000", "140851.580000", "140853.070000", "140854.560000", "140856.050000", "140857.540000", "140859.030000", "140900.520000", "140902.010000", "140903.500000", "140904.990000", "140906.480000", "140907.970000", "140909.460000", "140910.950000", "140912.440000", "140913.930000", "140915.420000", "140916.910000", "140918.400000", "140919.890000", "140921.380000", "140922.870000", "140924.360000", "140925.850000", "140927.340000", "140928.830000", "140930.320000", "140931.810000", "140933.300000", "140934.790000", "140936.280000", "140937.770000", "140939.260000", "140940.750000", "140942.240000", "140943.730000", "140945.220000", "140946.710000", "140948.200000", "140949.690000", "140951.180000", "140952.670000", "140954.160000", "140955.650000", "140957.140000", "140958.630000", "141000.120000", "141001.610000", "141003.100000", "141004.590000", "141006.080000", "141007.570000", "141009.060000", "141010.550000", "141012.040000", "141013.530000", "141015.020000", "141016.510000", "141018.000000", "141019.490000", "141020.980000", "141022.470000", "141023.960000", "141025.450000", "141026.940000", "141028.430000", "141029.920000", "141031.410000", "141032.900000", "141034.390000", "141035.880000", "141037.370000", "141038.860000", "141040.350000", "141041.840000", "141043.330000", "141044.820000", "141046.310000", "141047.800000", "141049.290000", "141050.780000", "141052.270000", "141053.760000", "141055.250000", "141056.740000", "141058.230000", "141059.720000", "141101.210000", "141102.700000", "141104.190000", "141105.680000", "141107.170000", "141108.660000", "141110.150000", "141111.640000", "141113.130000", "141114.620000", "141116.110000", "141117.600000", "141119.090000", "141120.580000", "141122.070000", "141123.560000", "141125.050000", "141126.540000", "141128.030000", "141129.520000", "141131.010000", "141132.500000", "141133.990000", "141135.480000", "141136.970000", "141138.460000", "141139.950000", "141141.440000", "141142.930000", "141144.420000", "141145.910000", "141147.400000", "141148.890000", "141150.380000", "141151.870000", "141153.360000", "141154.850000", "141156.340000", "141157.830000", "141159.320000", "141200.810000", "141202.300000", "141203.790000", "141205.280000", "141206.770000", "141208.260000", "141209.750000", "141211.240000", "141212.730000", "141214.220000", "141215.710000", "141217.200000", "141218.690000", "141220.180000", "141221.670000", "141223.160000", "141224.650000", "141226.140000", "141227.630000", "141229.120000", "141230.610000", "141232.100000", "141233.590000", "141235.080000", "141236.570000", "141238.060000", "141239.550000", "141241.040000", "141242.530000", "141244.020000"],
      "ContentTime": ["140347.558000", "140347.566000", "140347.568000", "140347.571000", "140347.573000", "140347.576000", "140347.578000", "140347.581000", "140347.583000", "140347.586000", "140347.588000", "140347.591000", "140347.593000", "140347.596000", "140347.617000", "140347.620000", "140347.622000", "140347.629000", "140347.632000", "140347.634000", "140347.637000", "140347.639000", "140347.642000", "140347.644000", "140347.647000", "140347.649000", "140347.652000", "140407.504000", "140407.507000", "140407.509000", "140407.512000", "140407.514000", "140407.517000", "140407.519000", "140407.522000", "140407.524000", "140407.527000", "140407.529000", "140407.532000", "140407.534000", "140407.537000", "140407.539000", "140407.542000", "140407.544000", "140407.547000", "140407.549000", "140407.552000", "140407.554000", "140427.492000", "140427.503000", "140427.506000", "140427.508000", "140427.511000", "140427.513000", "140427.516000", "140427.518000", "140427.521000", "140427.523000", "140427.526000", "140427.528000", "140427.531000", "140427.533000", "140427.540000", "140427.543000", "140427.545000", "140427.548000", "140427.550000", "140427.553000", "140447.484000", "140447.487000", "140447.490000", "140447.492000", "140447.495000", "140447.497000", "140447.500000", "140447.509000", "140447.512000", "140447.514000", "140447.517000", "140447.519000", "140447.522000", "140447.524000", "140447.527000", "140447.529000", "140447.532000", "140447.534000", "140447.537000", "140447.539000", "140527.523000", "140527.525000", "140527.528000", "140527.530000", "140527.533000", "140527.535000", "140527.538000", "140527.540000", "140527.543000", "140527.545000", "140527.547000", "140527.550000", "140527.562000", "140527.564000", "140527.567000", "140527.569000", "140527.572000", "140527.574000", "140527.577000", "140527.579000", "140527.582000", "140527.584000", "140527.587000", "140527.589000", "140527.592000", "140527.594000", "140527.597000", "140527.606000", "140527.608000", "140527.611000", "140547.473000", "140547.475000", "140547.478000", "140547.481000", "140547.483000", "140547.485000", "140547.488000", "140547.491000", "140547.493000", "140547.496000", "140547.498000", "140547.501000", "140547.503000", "140547.506000", "140627.509000", "140627.512000", "140627.515000", "140627.517000", "140627.520000", "140627.523000", "140627.525000", "140627.528000", "140627.530000", "140627.533000", "140627.535000", "140627.538000", "140627.540000", "140627.543000", "140627.545000", "140627.548000", "140627.550000", "140627.553000", "140627.561000", "140627.563000", "140627.566000", "140627.568000", "140627.571000", "140627.574000", "140627.576000", "140627.578000", "140627.581000", "140707.528000", "140707.531000", "140707.533000", "140707.536000", "140707.538000", "140707.545000", "140707.548000", "140707.550000", "140707.553000", "140707.555000", "140707.558000", "140707.560000", "140707.563000", "140707.565000", "140707.568000", "140707.571000", "140707.573000", "140707.575000", "140707.578000", "140707.580000", "140707.583000", "140707.585000", "140707.588000", "140707.594000", "140707.597000", "140707.599000", "140747.514000", "140747.517000", "140747.520000", "140747.522000", "140747.525000", "140747.528000", "140747.530000", "140747.532000", "140747.535000", "140747.537000", "140747.540000", "140747.542000", "140747.545000", "140747.547000", "140747.550000", "140747.552000", "140747.555000", "140747.558000", "140747.560000", "140747.562000", "140747.565000", "140747.568000", "140747.570000", "140747.573000", "140747.575000", "140747.578000", "140747.580000", "140827.527000", "140827.530000", "140827.532000", "140827.535000", "140827.537000", "140827.540000", "140827.542000", "140827.545000", "140827.547000", "140827.550000", "140827.552000", "140827.555000", "140827.557000", "140827.560000", "140827.563000", "140827.565000", "140827.568000", "140827.570000", "140827.573000", "140827.575000", "140827.577000", "140827.580000", "140827.582000", "140827.585000", "140827.587000", "140827.590000", "140827.592000", "140907.523000", "140907.526000", "140907.529000", "140907.531000", "140907.534000", "140907.536000", "140907.539000", "140907.542000", "140907.544000", "140907.547000", "140907.549000", "140907.552000", "140907.554000", "140907.557000", "140907.559000", "140907.562000", "140907.564000", "140907.567000", "140907.569000", "140907.572000", "140907.575000", "140907.577000", "140907.579000", "140907.582000", "140907.584000", "140907.587000", "140907.589000", "140947.520000", "140947.522000", "140947.525000", "140947.528000", "140947.530000", "140947.533000", "140947.535000", "140947.538000", "140947.540000", "140947.543000", "140947.545000", "140947.548000", "140947.550000", "140947.553000", "140947.555000", "140947.558000", "140947.560000", "140947.563000", "140947.566000", "140947.568000", "140947.570000", "140947.573000", "140947.576000", "140947.578000", "140947.581000", "140947.583000", "140947.586000", "141027.517000", "141027.520000", "141027.522000", "141027.525000", "141027.528000", "141027.530000", "141027.532000", "141027.535000", "141027.538000", "141027.540000", "141027.542000", "141027.545000", "141027.547000", "141027.550000", "141027.552000", "141027.555000", "141027.557000", "141027.560000", "141027.562000", "141027.565000", "141027.567000", "141027.570000", "141027.572000", "141027.589000", "141027.592000", "141027.594000", "141027.597000", "141107.514000", "141107.516000", "141107.524000", "141107.526000", "141107.529000", "141107.531000", "141107.534000", "141107.537000", "141107.539000", "141107.541000", "141107.544000", "141107.547000", "141107.549000", "141107.552000", "141107.554000", "141107.557000", "141107.559000", "141107.562000", "141107.564000", "141107.567000", "141107.570000", "141107.572000", "141107.575000", "141107.577000", "141107.580000", "141107.582000", "141107.585000", "141147.528000", "141147.530000", "141147.533000", "141147.536000", "141147.539000", "141147.547000", "141147.549000", "141147.552000", "141147.555000", "141147.558000", "141147.561000", "141147.563000", "141147.566000", "141147.568000", "141147.571000", "141147.573000", "141147.576000", "141147.579000", "141147.581000", "141147.584000", "141147.586000", "141147.589000", "141147.591000", "141147.594000", "141147.596000", "141147.599000", "141227.982000", "141227.984000", "141227.987000", "141227.990000", "141227.992000", "141227.995000", "141227.997000", "141228.001000", "141228.003000", "141228.006000", "141228.008000", "141228.011000", "141228.013000", "141228.016000", "141228.018000", "141228.021000", "141228.023000", "141228.026000", "141228.029000", "141228.031000", "141228.033000", "141228.036000", "141228.039000", "141228.041000", "141228.044000", "141228.046000", "141228.049000", "141245.886000", "141245.889000", "141245.891000", "141245.894000", "141245.896000", "141245.905000", "141245.908000", "141245.910000", "141245.913000", "141245.915000", "141245.918000", "141245.920000", "141245.923000"],
      "InstanceCreationTime": ["140347.558000", "140347.566000", "140347.568000", "140347.571000", "140347.573000", "140347.576000", "140347.578000", "140347.581000", "140347.583000", "140347.586000", "140347.588000", "140347.591000", "140347.593000", "140347.596000", "140347.617000", "140347.620000", "140347.622000", "140347.629000", "140347.632000", "140347.634000", "140347.637000", "140347.639000", "140347.642000", "140347.644000", "140347.647000", "140347.649000", "140347.652000", "140407.504000", "140407.507000", "140407.509000", "140407.512000", "140407.514000", "140407.517000", "140407.519000", "140407.522000", "140407.524000", "140407.527000", "140407.529000", "140407.532000", "140407.534000", "140407.537000", "140407.539000", "140407.542000", "140407.544000", "140407.547000", "140407.549000", "140407.552000", "140407.554000", "140427.492000", "140427.503000", "140427.506000", "140427.508000", "140427.511000", "140427.513000", "140427.516000", "140427.518000", "140427.521000", "140427.523000", "140427.526000", "140427.528000", "140427.531000", "140427.533000", "140427.540000", "140427.543000", "140427.545000", "140427.548000", "140427.550000", "140427.553000", "140447.484000", "140447.487000", "140447.490000", "140447.492000", "140447.495000", "140447.497000", "140447.500000", "140447.509000", "140447.512000", "140447.514000", "140447.517000", "140447.519000", "140447.522000", "140447.524000", "140447.527000", "140447.529000", "140447.532000", "140447.534000", "140447.537000", "140447.539000", "140527.523000", "140527.525000", "140527.528000", "140527.530000", "140527.533000", "140527.535000", "140527.538000", "140527.540000", "140527.543000", "140527.545000", "140527.547000", "140527.550000", "140527.562000", "140527.564000", "140527.567000", "140527.569000", "140527.572000", "140527.574000", "140527.577000", "140527.579000", "140527.582000", "140527.584000", "140527.587000", "140527.589000", "140527.592000", "140527.594000", "140527.597000", "140527.606000", "140527.608000", "140527.611000", "140547.473000", "140547.475000", "140547.478000", "140547.481000", "140547.483000", "140547.485000", "140547.488000", "140547.491000", "140547.493000", "140547.496000", "140547.498000", "140547.501000", "140547.503000", "140547.506000", "140627.509000", "140627.512000", "140627.515000", "140627.517000", "140627.520000", "140627.523000", "140627.525000", "140627.528000", "140627.530000", "140627.533000", "140627.535000", "140627.538000", "140627.540000", "140627.543000", "140627.545000", "140627.548000", "140627.550000", "140627.553000", "140627.561000", "140627.563000", "140627.566000", "140627.568000", "140627.571000", "140627.574000", "140627.576000", "140627.578000", "140627.581000", "140707.528000", "140707.531000", "140707.533000", "140707.536000", "140707.538000", "140707.545000", "140707.548000", "140707.550000", "140707.553000", "140707.555000", "140707.558000", "140707.560000", "140707.563000", "140707.565000", "140707.568000", "140707.571000", "140707.573000", "140707.575000", "140707.578000", "140707.580000", "140707.583000", "140707.585000", "140707.588000", "140707.594000", "140707.597000", "140707.599000", "140747.514000", "140747.517000", "140747.520000", "140747.522000", "140747.525000", "140747.528000", "140747.530000", "140747.532000", "140747.535000", "140747.537000", "140747.540000", "140747.542000", "140747.545000", "140747.547000", "140747.550000", "140747.552000", "140747.555000", "140747.558000", "140747.560000", "140747.562000", "140747.565000", "140747.568000", "140747.570000", "140747.573000", "140747.575000", "140747.578000", "140747.580000", "140827.527000", "140827.530000", "140827.532000", "140827.535000", "140827.537000", "140827.540000", "140827.542000", "140827.545000", "140827.547000", "140827.550000", "140827.552000", "140827.555000", "140827.557000", "140827.560000", "140827.563000", "140827.565000", "140827.568000", "140827.570000", "140827.573000", "140827.575000", "140827.577000", "140827.580000", "140827.582000", "140827.585000", "140827.587000", "140827.590000", "140827.592000", "140907.523000", "140907.526000", "140907.529000", "140907.531000", "140907.534000", "140907.536000", "140907.539000", "140907.542000", "140907.544000", "140907.547000", "140907.549000", "140907.552000", "140907.554000", "140907.557000", "140907.559000", "140907.562000", "140907.564000", "140907.567000", "140907.569000", "140907.572000", "140907.575000", "140907.577000", "140907.579000", "140907.582000", "140907.584000", "140907.587000", "140907.589000", "140947.520000", "140947.522000", "140947.525000", "140947.528000", "140947.530000", "140947.533000", "140947.535000", "140947.538000", "140947.540000", "140947.543000", "140947.545000", "140947.548000", "140947.550000", "140947.553000", "140947.555000", "140947.558000", "140947.560000", "140947.563000", "140947.566000", "140947.568000", "140947.570000", "140947.573000", "140947.576000", "140947.578000", "140947.581000", "140947.583000", "140947.586000", "141027.517000", "141027.520000", "141027.522000", "141027.525000", "141027.528000", "141027.530000", "141027.532000", "141027.535000", "141027.538000", "141027.540000", "141027.542000", "141027.545000", "141027.547000", "141027.550000", "141027.552000", "141027.555000", "141027.557000", "141027.560000", "141027.562000", "141027.565000", "141027.567000", "141027.570000", "141027.572000", "141027.589000", "141027.592000", "141027.594000", "141027.597000", "141107.514000", "141107.516000", "141107.524000", "141107.526000", "141107.529000", "141107.531000", "141107.534000", "141107.537000", "141107.539000", "141107.541000", "141107.544000", "141107.547000", "141107.549000", "141107.552000", "141107.554000", "141107.557000", "141107.559000", "141107.562000", "141107.564000", "141107.567000", "141107.570000", "141107.572000", "141107.575000", "141107.577000", "141107.580000", "141107.582000", "141107.585000", "141147.528000", "141147.530000", "141147.533000", "141147.536000", "141147.539000", "141147.547000", "141147.549000", "141147.552000", "141147.555000", "141147.558000", "141147.561000", "141147.563000", "141147.566000", "141147.568000", "141147.571000", "141147.573000", "141147.576000", "141147.579000", "141147.581000", "141147.584000", "141147.586000", "141147.589000", "141147.591000", "141147.594000", "141147.596000", "141147.599000", "141227.982000", "141227.984000", "141227.987000", "141227.990000", "141227.992000", "141227.995000", "141227.997000", "141228.001000", "141228.003000", "141228.006000", "141228.008000", "141228.011000", "141228.013000", "141228.016000", "141228.018000", "141228.021000", "141228.023000", "141228.026000", "141228.029000", "141228.031000", "141228.033000", "141228.036000", "141228.039000", "141228.041000", "141228.044000", "141228.046000", "141228.049000", "141245.886000", "141245.889000", "141245.891000", "141245.894000", "141245.896000", "141245.905000", "141245.908000", "141245.910000", "141245.913000", "141245.915000", "141245.918000", "141245.920000", "141245.923000"],
