{
  "AcquisitionMatrixPE": 104,
  "AcquisitionNumber": 1,
  "AcquisitionTime": "14:26:23.060000",
  "BandwidthPerPixelPhaseEncode": 17.17,
  "BaseResolution": 104,
  "BodyPartExamined": "BRAIN",
  "CoilCombinationMethod": "Sum of Squares",
  "ConsistencyInfo": "N4_VE11C_LATEST_20160120",
  "ConversionSoftware": "dcm2niix",
  "ConversionSoftwareVersion": "v1.0.20220505",
  "DerivedVendorReportedEchoSpacing": 0.000560011,
  "DeviceSerialNumber": "167006",
  "DwellTime": 2.1e-06,
  "EchoTime": 0.037,
  "EchoTime1": 0.037,
  "EchoTime2": 0.001,
  "EchoTrainLength": 104,
  "EffectiveEchoSpacing": 0.000560011,
  "FlipAngle": 52,
  "HeudiconvVersion": "0.5.3.post811+g6206e14",
  "ImageComments": "Unaliased MB4/PE3/LB",
  "ImageOrientationPatientDICOM": [0.999471, 0.00107425, 0.0324964, 0.00837337, 0.957238, -0.289179],
  "ImageOrientationText": "Tra>Cor(-16.8)>Sag(1.8)",
  "ImageType": [
    "ORIGINAL",
    "PRIMARY",
    "P",
    "MB",
    "ND",
    "MOSAIC",
    "PHASE"
],
  "ImagingFrequency": 123.26,
  "InPlanePhaseEncodingDirectionDICOM": "COL",
  "InstitutionAddress": "Chemin Queen-Mary 4565,Montreal,District,CA,H3W 1W5",
  "InstitutionName": "IUGM",
  "InstitutionalDepartmentName": "Department",
  "MRAcquisitionType": "2D",
  "MagneticFieldStrength": 3,
  "Manufacturer": "Siemens",
  "ManufacturersModelName": "Prisma_fit",
  "MatrixCoilMode": "SENSE",
  "Modality": "MR",
  "MultibandAccelerationFactor": 4,
  "PartialFourier": 1,
  "PatientPosition": "HFS",
  "PercentPhaseFOV": 100,
  "PercentSampling": 100,
  "PhaseEncodingDirection": "j",
  "PhaseEncodingSteps": 104,
  "PhaseResolution": 1,
  "PixelBandwidth": 2290,
  "ProcedureStepDescription": "games^mario3",
  "ProtocolName": "func_task-mario3_run-03",
  "PulseSequenceDetails": "%CustomerSeq%\\cmrr_mbep2d_bold",
  "ReceiveCoilActiveElements": "HC1-7;NC1,2",
  "ReceiveCoilName": "HeadNeck_64",
  "ReconMatrixPE": 104,
  "RepetitionTime": 1.49,
  "SAR": 0.0655975,
  "ScanOptions": "FS",
  "ScanningSequence": "EP",
  "SequenceName": "epfid2d1_104",
  "SequenceVariant": "SK\\SS",
  "SeriesDescription": "func_task-mario3_run-03",
  "SeriesNumber": 17,
  "ShimSetting": [639, -7219, -8747, 658, 89, 4, 6, 5],
  "SliceThickness": 2,
  "SliceTiming": [0, 0.7825, 0.0975, 0.88, 0.195, 0.9775, 0.2925, 1.0775, 0.39, 1.175, 0.4875, 1.2725, 0.5875, 1.37, 0.685, 0, 0.7825, 0.0975, 0.88, 0.195, 0.9775, 0.2925, 1.0775, 0.39, 1.175, 0.4875, 1.2725, 0.5875, 1.37, 0.685, 0, 0.7825, 0.0975, 0.88, 0.195, 0.9775, 0.2925, 1.0775, 0.39, 1.175, 0.4875, 1.2725, 0.5875, 1.37, 0.685, 0, 0.7825, 0.0975, 0.88, 0.195, 0.9775, 0.2925, 1.0775, 0.39, 1.175, 0.4875, 1.2725, 0.5875, 1.37, 0.685],
  "SoftwareVersions": "syngo MR E11",
  "SpacingBetweenSlices": 2,
  "StationName": "MRC35049",
  "TaskName": "mario3",
  "TotalReadoutTime": 0.0576811,
  "TxRefAmp": 240.994,
  "WipMemBlock": "0a857153-81bb-481a-bd28-d03ff9119183||Sequence: R017 ve11c/master r/75a17815+; Jun 28 2022 16:32:11 by eja",
  "dcmmeta_affine": [
    [-1.998942494392395, 0.016746746376156807, 0.06283489614725113, 106.6191177368164],
    [-0.002148508792743087, 1.914476990699768, -0.5785958170890808, -71.8367691040039],
    [0.06499277800321579, 0.5783573985099792, 1.9134467840194702, -55.003440856933594],
    [0.0, 0.0, 0.0, 1.0]
],
  "dcmmeta_reorient_transform": [
    [0.0, -1.0, 0.0, 103.0],
    [1.0, 0.0, 0.0, 0.0],
    [0.0, 0.0, 1.0, 0.0],
    [0.0, 0.0, 0.0, 1.0]
],
  "dcmmeta_shape": [104, 104, 60, 321],
  "dcmmeta_slice_dim": 2,
  "dcmmeta_version": 0.6,
  "global": {
    "const": {
      "AcquisitionMatrix": [104, 0, 0, 104],
      "AngioFlag": "N",
      "BitsAllocated": 16,
      "BitsStored": 16,
      "BodyPartExamined": "BRAIN",
      "Columns": 832,
      "EchoNumbers": 1,
      "EchoTime": 37.0,
      "EchoTrainLength": 104,
      "FlipAngle": 52.0,
      "HighBit": 15,
      "ImageOrientationPatient": [0.99947127550871, 0.00107425434903, 0.03249639073169, 0.00837337364977, 0.95723851010288, -0.2891787014802],
      "ImagePositionPatient": [-842.05493465953, -823.00605843341, 191.43209427063],
      "ImageType": [
        "ORIGINAL",
        "PRIMARY",
        "P",
        "MB",
        "ND",
        "MOSAIC"
],
      "ImagedNucleus": "1H",
      "ImagingFrequency": 123.260245,
      "InPlanePhaseEncodingDirection": "COL",
      "LargestImagePixelValue": 4095,
      "MRAcquisitionType": "2D",
      "MagneticFieldStrength": 3.0,
      "Manufacturer": "SIEMENS",
      "ManufacturerModelName": "Prisma_fit",
      "Modality": "MR",
      "NumberOfAverages": 1.0,
      "NumberOfPhaseEncodingSteps": 104,
      "PercentPhaseFieldOfView": 100.0,
      "PercentSampling": 100.0,
      "PerformedProcedureStepStartTime": "135842.496000",
      "PhotometricInterpretation": "MONOCHROME2",
      "PixelBandwidth": 2290.0,
      "PixelRepresentation": 0,
      "PixelSpacing": [2.0, 2.0],
      "ProtocolName": "func_task-mario3_run-03",
      "RepetitionTime": 1490.0,
      "RescaleIntercept": -4096.0,
      "RescaleSlope": 2.0,
      "RescaleType": "US",
      "Rows": 832,
      "SAR": 0.06559755246335,
      "SamplesPerPixel": 1,
      "ScanOptions": "FS",
      "ScanningSequence": "EP",
      "SequenceName": "epfid2d1_104",
      "SequenceVariant": [
        "SK",
        "SS"
],
      "SeriesDescription": "func_task-mario3_run-03",
      "SeriesNumber": 17,
      "SeriesTime": "142732.597000",
      "SliceLocation": -28.49115141788,
      "SliceThickness": 2.0,
      "SmallestImagePixelValue": 0,
      "SoftwareVersions": "syngo MR E11",
      "SpacingBetweenSlices": 1.9999999492937,
      "SpecificCharacterSet": "ISO_IR 100",
      "StudyID": "1",
      "StudyTime": "135842.427000",
      "TransmitCoilName": "Body",
      "VariableFlipAngleFlag": "N",
      "WindowCenterWidthExplanation": "Algo1",
      "dBdt": 0.0},
    "slices": {}
  },
  "time": {
    "samples": {
      "AcquisitionNumber": [1, 2, 3, 4, 5, 6, 7, 8, 9, 10, 11, 12, 13, 14, 15, 16, 17, 18, 19, 20, 21, 22, 23, 24, 25, 26, 27, 28, 29, 30, 31, 32, 33, 34, 35, 36, 37, 38, 39, 40, 41, 42, 43, 44, 45, 46, 47, 48, 49, 50, 51, 52, 53, 54, 55, 56, 57, 58, 59, 60, 61, 62, 63, 64, 65, 66, 67, 68, 69, 70, 71, 72, 73, 74, 75, 76, 77, 78, 79, 80, 81, 82, 83, 84, 85, 86, 87, 88, 89, 90, 91, 92, 93, 94, 95, 96, 97, 98, 99, 100, 101, 102, 103, 104, 105, 106, 107, 108, 109, 110, 111, 112, 113, 114, 115, 116, 117, 118, 119, 120, 121, 122, 123, 124, 125, 126, 127, 128, 129, 130, 131, 132, 133, 134, 135, 136, 137, 138, 139, 140, 141, 142, 143, 144, 145, 146, 147, 148, 149, 150, 151, 152, 153, 154, 155, 156, 157, 158, 159, 160, 161, 162, 163, 164, 165, 166, 167, 168, 169, 170, 171, 172, 173, 174, 175, 176, 177, 178, 179, 180, 181, 182, 183, 184, 185, 186, 187, 188, 189, 190, 191, 192, 193, 194, 195, 196, 197, 198, 199, 200, 201, 202, 203, 204, 205, 206, 207, 208, 209, 210, 211, 212, 213, 214, 215, 216, 217, 218, 219, 220, 221, 222, 223, 224, 225, 226, 227, 228, 229, 230, 231, 232, 233, 234, 235, 236, 237, 238, 239, 240, 241, 242, 243, 244, 245, 246, 247, 248, 249, 250, 251, 252, 253, 254, 255, 256, 257, 258, 259, 260, 261, 262, 263, 264, 265, 266, 267, 268, 269, 270, 271, 272, 273, 274, 275, 276, 277, 278, 279, 280, 281, 282, 283, 284, 285, 286, 287, 288, 289, 290, 291, 292, 293, 294, 295, 296, 297, 298, 299, 300, 301, 302, 303, 304, 305, 306, 307, 308, 309, 310, 311, 312, 313, 314, 315, 316, 317, 318, 319, 320, 321],
      "AcquisitionTime": ["142623.060000", "142624.550000", "142626.040000", "142627.530000", "142629.020000", "142630.510000", "142632.000000", "142633.490000", "142634.980000", "142636.470000", "142637.960000", "142639.450000", "142640.940000", "142642.430000", "142643.920000", "142645.410000", "142646.900000", "142648.390000", "142649.880000", "142651.370000", "142652.860000", "142654.350000", "142655.840000", "142657.330000", "142658.820000", "142700.310000", "142701.800000", "142703.290000", "142704.780000", "142706.270000", "142707.760000", "142709.250000", "142710.740000", "142712.230000", "142713.720000", "142715.210000", "142716.700000", "142718.190000", "142719.680000", "142721.170000", "142722.660000", "142724.150000", "142725.640000", "142727.130000", "142728.620000", "142730.110000", "142731.600000", "142733.090000", "142734.580000", "142736.070000", "142737.560000", "142739.050000", "142740.540000", "142742.030000", "142743.520000", "142745.010000", "142746.500000", "142747.990000", "142749.480000", "142750.970000", "142752.460000", "142753.950000", "142755.440000", "142756.930000", "142758.420000", "142759.910000", "142801.400000", "142802.890000", "142804.380000", "142805.870000", "142807.360000", "142808.850000", "142810.340000", "142811.830000", "142813.320000", "142814.810000", "142816.300000", "142817.790000", "142819.280000", "142820.770000", "142822.260000", "142823.750000", "142825.240000", "142826.730000", "142828.220000", "142829.710000", "142831.200000", "142832.690000", "142834.180000", "142835.670000", "142837.160000", "142838.650000", "142840.140000", "142841.630000", "142843.120000", "142844.610000", "142846.100000", "142847.590000", "142849.080000", "142850.570000", "142852.060000", "142853.550000", "142855.040000", "142856.530000", "142858.020000", "142859.510000", "142901.000000", "142902.490000", "142903.980000", "142905.470000", "142906.960000", "142908.450000", "142909.940000", "142911.430000", "142912.920000", "142914.410000", "142915.900000", "142917.390000", "142918.880000", "142920.370000", "142921.860000", "142923.350000", "142924.840000", "142926.330000", "142927.820000", "142929.310000", "142930.800000", "142932.290000", "142933.780000", "142935.270000", "142936.760000", "142938.250000", "142939.740000", "142941.230000", "142942.720000", "142944.210000", "142945.700000", "142947.190000", "142948.680000", "142950.170000", "142951.660000", "142953.150000", "142954.640000", "142956.130000", "142957.620000", "142959.110000", "143000.600000", "143002.090000", "143003.580000", "143005.070000", "143006.560000", "143008.050000", "143009.540000", "143011.030000", "143012.520000", "143014.010000", "143015.500000", "143016.990000", "143018.480000", "143019.970000", "143021.460000", "143022.950000", "143024.440000", "143025.930000", "143027.420000", "143028.910000", "143030.400000", "143031.890000", "143033.380000", "143034.870000", "143036.360000", "143037.850000", "143039.340000", "143040.830000", "143042.320000", "143043.810000", "143045.300000", "143046.790000", "143048.280000", "143049.770000", "143051.260000", "143052.750000", "143054.240000", "143055.730000", "143057.220000", "143058.710000", "143100.200000", "143101.690000", "143103.180000", "143104.670000", "143106.160000", "143107.650000", "143109.140000", "143110.630000", "143112.120000", "143113.610000", "143115.100000", "143116.590000", "143118.080000", "143119.570000", "143121.060000", "143122.550000", "143124.040000", "143125.530000", "143127.020000", "143128.510000", "143130.000000", "143131.490000", "143132.980000", "143134.470000", "143135.960000", "143137.450000", "143138.940000", "143140.430000", "143141.920000", "143143.410000", "143144.900000", "143146.390000", "143147.880000", "143149.370000", "143150.860000", "143152.350000", "143153.840000", "143155.330000", "143156.820000", "143158.310000", "143159.800000", "143201.290000", "143202.780000", "143204.270000", "143205.760000", "143207.250000", "143208.740000", "143210.230000", "143211.720000", "143213.210000", "143214.700000", "143216.190000", "143217.680000", "143219.170000", "143220.660000", "143222.150000", "143223.640000", "143225.130000", "143226.620000", "143228.110000", "143229.600000", "143231.090000", "143232.580000", "143234.070000", "143235.560000", "143237.050000", "143238.540000", "143240.030000", "143241.520000", "143243.010000", "143244.500000", "143245.990000", "143247.480000", "143248.970000", "143250.460000", "143251.950000", "143253.440000", "143254.930000", "143256.420000", "143257.910000", "143259.400000", "143300.890000", "143302.380000", "143303.870000", "143305.360000", "143306.850000", "143308.340000", "143309.830000", "143311.320000", "143312.810000", "143314.300000", "143315.790000", "143317.280000", "143318.770000", "143320.260000", "143321.750000", "143323.240000", "143324.730000", "143326.220000", "143327.710000", "143329.200000", "143330.690000", "143332.180000", "143333.670000", "143335.160000", "143336.650000", "143338.140000", "143339.630000", "143341.120000", "143342.610000", "143344.100000", "143345.590000", "143347.080000", "143348.570000", "143350.060000", "143351.550000", "143353.040000", "143354.530000", "143356.020000", "143357.510000", "143359.000000", "143400.490000", "143401.980000", "143403.470000", "143404.960000", "143406.450000", "143407.940000", "143409.430000", "143410.920000", "143412.410000", "143413.900000", "143415.390000", "143416.880000", "143418.370000", "143419.860000"],
      "ContentTime": ["142732.600000", "142732.603000", "142732.605000", "142732.608000", "142732.618000", "142732.621000", "142732.623000", "142732.626000", "142732.629000", "142732.632000", "142732.635000", "142732.638000", "142732.640000", "142732.643000", "142732.645000", "142732.648000", "142732.650000", "142732.653000", "142732.655000", "142752.576000", "142752.578000", "142752.581000", "142752.583000", "142752.586000", "142752.588000", "142752.591000", "142752.593000", "142752.596000", "142752.598000", "142752.606000", "142752.609000", "142752.611000", "142752.614000", "142752.616000", "142752.619000", "142752.621000", "142752.624000", "142752.626000", "142752.629000", "142752.631000", "142812.586000", "142812.589000", "142812.591000", "142812.594000", "142812.596000", "142812.598000", "142812.601000", "142812.603000", "142812.606000", "142812.608000", "142812.611000", "142812.613000", "142812.616000", "142812.618000", "142812.621000", "142812.623000", "142812.625000", "142812.628000", "142812.630000", "142812.633000", "142832.585000", "142832.587000", "142832.590000", "142832.592000", "142832.595000", "142832.597000", "142832.600000", "142832.602000", "142832.605000", "142832.607000", "142832.610000", "142832.612000", "142832.615000", "142832.617000", "142832.620000", "142832.622000", "142832.625000", "142832.627000", "142832.630000", "142832.632000", "142912.662000", "142912.664000", "142912.667000", "142912.669000", "142912.672000", "142912.674000", "142912.677000", "142912.679000", "142912.682000", "142912.684000", "142912.687000", "142912.689000", "142912.692000", "142912.694000", "142912.697000", "142912.699000", "142912.702000", "142912.705000", "142912.707000", "142912.709000", "142912.712000", "142912.715000", "142912.717000", "142912.720000", "142912.722000", "142912.725000", "142912.727000", "142912.730000", "142912.732000", "142912.735000", "142912.737000", "142912.740000", "142912.742000", "142952.611000", "142952.614000", "142952.617000", "142952.619000", "142952.621000", "142952.627000", "142952.629000", "142952.632000", "142952.634000", "142952.637000", "142952.639000", "142952.642000", "142952.644000", "142952.647000", "142952.650000", "142952.652000", "142952.654000", "142952.657000", "142952.659000", "142952.662000", "142952.664000", "142952.667000", "142952.669000", "142952.672000", "142952.674000", "142952.677000", "143033.122000", "143033.125000", "143033.127000", "143033.130000", "143033.132000", "143033.135000", "143033.137000", "143033.139000", "143033.142000", "143033.144000", "143033.147000", "143033.149000", "143033.152000", "143033.154000", "143033.157000", "143033.159000", "143033.162000", "143033.164000", "143033.167000", "143033.169000", "143033.172000", "143033.174000", "143033.177000", "143033.179000", "143033.182000", "143033.184000", "143033.192000", "143112.622000", "143112.624000", "143112.627000", "143112.629000", "143112.632000", "143112.634000", "143112.637000", "143112.640000", "143112.642000", "143112.644000", "143112.647000", "143112.649000", "143112.652000", "143112.654000", "143112.657000", "143112.659000", "143112.662000", "143112.664000", "143112.667000", "143112.669000", "143112.672000", "143112.674000", "143112.677000", "143112.679000", "143112.682000", "143112.684000", "143112.687000", "143152.618000", "143152.621000", "143152.623000", "143152.626000", "143152.628000", "143152.631000", "143152.633000", "143152.636000", "143152.638000", "143152.641000", "143152.643000", "143152.646000", "143152.649000", "143152.651000", "143152.653000", "143152.656000", "143152.659000", "143152.661000", "143152.664000", "143152.666000", "143152.669000", "143152.671000", "143152.674000", "143152.676000", "143152.679000", "143152.681000", "143152.689000", "143232.621000", "143232.623000", "143232.634000", "143232.636000", "143232.639000", "143232.641000", "143232.644000", "143232.646000", "143232.649000", "143232.651000", "143232.654000", "143232.656000", "143232.659000", "143232.661000", "143232.664000", "143232.666000", "143232.669000", "143232.671000", "143232.674000", "143232.677000", "143232.679000", "143232.682000", "143232.684000", "143232.687000", "143232.689000", "143232.692000", "143232.694000", "143312.611000", "143312.614000", "143312.617000", "143312.619000", "143312.622000", "143312.624000", "143312.627000", "143312.629000", "143312.632000", "143312.634000", "143312.637000", "143312.639000", "143312.642000", "143312.644000", "143312.647000", "143312.649000", "143312.652000", "143312.654000", "143312.657000", "143312.659000", "143312.662000", "143312.664000", "143312.667000", "143312.669000", "143312.672000", "143312.675000", "143312.677000", "143352.636000", "143352.639000", "143352.642000", "143352.644000", "143352.647000", "143352.649000", "143352.657000", "143352.667000", "143352.670000", "143352.672000", "143352.675000", "143352.677000", "143352.680000", "143352.682000", "143352.685000", "143352.687000", "143352.690000", "143352.692000", "143352.695000", "143352.697000", "143352.700000", "143352.702000", "143352.705000", "143352.707000", "143352.709000", "143352.712000", "143352.714000", "143422.617000", "143422.620000", "143422.622000", "143422.625000", "143422.627000", "143422.630000", "143422.632000", "143422.635000", "143422.637000", "143422.640000", "143422.642000", "143422.645000", "143422.647000", "143422.650000", "143422.653000", "143422.655000", "143422.657000", "143422.660000", "143422.662000", "143422.665000"],
      "InstanceCreationTime": ["142732.600000", "142732.603000", "142732.605000", "142732.608000", "142732.618000", "142732.621000", "142732.623000", "142732.626000", "142732.629000", "142732.632000", "142732.635000", "142732.638000", "142732.640000", "142732.643000", "142732.645000", "142732.648000", "142732.650000", "142732.653000", "142732.655000", "142752.576000", "142752.578000", "142752.581000", "142752.583000", "142752.586000", "142752.588000", "142752.591000", "142752.593000", "142752.596000", "142752.598000", "142752.606000", "142752.609000", "142752.611000", "142752.614000", "142752.616000", "142752.619000", "142752.621000", "142752.624000", "142752.626000", "142752.629000", "142752.631000", "142812.586000", "142812.589000", "142812.591000", "142812.594000", "142812.596000", "142812.598000", "142812.601000", "142812.603000", "142812.606000", "142812.608000", "142812.611000", "142812.613000", "142812.616000", "142812.618000", "142812.621000", "142812.623000", "142812.625000", "142812.628000", "142812.630000", "142812.633000", "142832.585000", "142832.587000", "142832.590000", "142832.592000", "142832.595000", "142832.597000", "142832.600000", "142832.602000", "142832.605000", "142832.607000", "142832.610000", "142832.612000", "142832.615000", "142832.617000", "142832.620000", "142832.622000", "142832.625000", "142832.627000", "142832.630000", "142832.632000", "142912.662000", "142912.664000", "142912.667000", "142912.669000", "142912.672000", "142912.674000", "142912.677000", "142912.679000", "142912.682000", "142912.684000", "142912.687000", "142912.689000", "142912.692000", "142912.694000", "142912.697000", "142912.699000", "142912.702000", "142912.705000", "142912.707000", "142912.709000", "142912.712000", "142912.715000", "142912.717000", "142912.720000", "142912.722000", "142912.725000", "142912.727000", "142912.730000", "142912.732000", "142912.735000", "142912.737000", "142912.740000", "142912.742000", "142952.611000", "142952.614000", "142952.617000", "142952.619000", "142952.621000", "142952.627000", "142952.629000", "142952.632000", "142952.634000", "142952.637000", "142952.639000", "142952.642000", "142952.644000", "142952.647000", "142952.650000", "142952.652000", "142952.654000", "142952.657000", "142952.659000", "142952.662000", "142952.664000", "142952.667000", "142952.669000", "142952.672000", "142952.674000", "142952.677000", "143033.122000", "143033.125000", "143033.127000", "143033.130000", "143033.132000", "143033.135000", "143033.137000", "143033.139000", "143033.142000", "143033.144000", "143033.147000", "143033.149000", "143033.152000", "143033.154000", "143033.157000", "143033.159000", "143033.162000", "143033.164000", "143033.167000", "143033.169000", "143033.172000", "143033.174000", "143033.177000", "143033.179000", "143033.182000", "143033.184000", "143033.192000", "143112.622000", "143112.624000", "143112.627000", "143112.629000", "143112.632000", "143112.634000", "143112.637000", "143112.640000", "143112.642000", "143112.644000", "143112.647000", "143112.649000", "143112.652000", "143112.654000", "143112.657000", "143112.659000", "143112.662000", "143112.664000", "143112.667000", "143112.669000", "143112.672000", "143112.674000", "143112.677000", "143112.679000", "143112.682000", "143112.684000", "143112.687000", "143152.618000", "143152.621000", "143152.623000", "143152.626000", "143152.628000", "143152.631000", "143152.633000", "143152.636000", "143152.638000", "143152.641000", "143152.643000", "143152.646000", "143152.649000", "143152.651000", "143152.653000", "143152.656000", "143152.659000", "143152.661000", "143152.664000", "143152.666000", "143152.669000", "143152.671000", "143152.674000", "143152.676000", "143152.679000", "143152.681000", "143152.689000", "143232.621000", "143232.623000", "143232.634000", "143232.636000", "143232.639000", "143232.641000", "143232.644000", "143232.646000", "143232.649000", "143232.651000", "143232.654000", "143232.656000", "143232.659000", "143232.661000", "143232.664000", "143232.666000", "143232.669000", "143232.671000", "143232.674000", "143232.677000", "143232.679000", "143232.682000", "143232.684000", "143232.687000", "143232.689000", "143232.692000", "143232.694000", "143312.611000", "143312.614000", "143312.617000", "143312.619000", "143312.622000", "143312.624000", "143312.627000", "143312.629000", "143312.632000", "143312.634000", "143312.637000", "143312.639000", "143312.642000", "143312.644000", "143312.647000", "143312.649000", "143312.652000", "143312.654000", "143312.657000", "143312.659000", "143312.662000", "143312.664000", "143312.667000", "143312.669000", "143312.672000", "143312.675000", "143312.677000", "143352.636000", "143352.639000", "143352.642000", "143352.644000", "143352.647000", "143352.649000", "143352.657000", "143352.667000", "143352.670000", "143352.672000", "143352.675000", "143352.677000", "143352.680000", "143352.682000", "143352.685000", "143352.687000", "143352.690000", "143352.692000", "143352.695000", "143352.697000", "143352.700000", "143352.702000", "143352.705000", "143352.707000", "143352.709000", "143352.712000", "143352.714000", "143422.617000", "143422.620000", "143422.622000", "143422.625000", "143422.627000", "143422.630000", "143422.632000", "143422.635000", "143422.637000", "143422.640000", "143422.642000", "143422.645000", "143422.647000", "143422.650000", "143422.653000", "143422.655000", "143422.657000", "143422.660000", "143422.662000", "143422.665000"],
      "InstanceNumber": [1, 2, 3, 4, 5, 6, 7, 8, 9, 10, 11, 12, 13, 14, 15, 16, 17, 18, 19, 20, 21, 22, 23, 24, 25, 26, 27, 28, 29, 30, 31, 32, 33, 34, 35, 36, 37, 38, 39, 40, 41, 42, 43, 44, 45, 46, 47, 48, 49, 50, 51, 52, 53, 54, 55, 56, 57, 58, 59, 60, 61, 62, 63, 64, 65, 66, 67, 68, 69, 70, 71, 72, 73, 74, 75, 76, 77, 78, 79, 80, 81, 82, 83, 84, 85, 86, 87, 88, 89, 90, 91, 92, 93, 94, 95, 96, 97, 98, 99, 100, 101, 102, 103, 104, 105, 106, 107, 108, 109, 110, 111, 112, 113, 114, 115, 116, 117, 118, 119, 120, 121, 122, 123, 124, 125, 126, 127, 128, 129, 130, 131, 132, 133, 134, 135, 136, 137, 138, 139, 140, 141, 142, 143, 144, 145, 146, 147, 148, 149, 150, 151, 152, 153, 154, 155, 156, 157, 158, 159, 160, 161, 162, 163, 164, 165, 166, 167, 168, 169, 170, 171, 172, 173, 174, 175, 176, 177, 178, 179, 180, 181, 182, 183, 184, 185, 186, 187, 188, 189, 190, 191, 192, 193, 194, 195, 196, 197, 198, 199, 200, 201, 202, 203, 204, 205, 206, 207, 208, 209, 210, 211, 212, 213, 214, 215, 216, 217, 218, 219, 220, 221, 222, 223, 224, 225, 226, 227, 228, 229, 230, 231, 232, 233, 234, 235, 236, 237, 238, 239, 240, 241, 242, 243, 244, 245, 246, 247, 248, 249, 250, 251, 252, 253, 254, 255, 256, 257, 258, 259, 260, 261, 262, 263, 264, 265, 266, 267, 268, 269, 270, 271, 272, 273, 274, 275, 276, 277, 278, 279, 280, 281, 282, 283, 284, 285, 286, 287, 288, 289, 290, 291, 292, 293, 294, 295, 296, 297, 298, 299, 300, 301, 302, 303, 304, 305, 306, 307, 308, 309, 310, 311, 312, 313, 314, 315, 316, 317, 318, 319, 320, 321],
      "WindowCenter": [4886.0, 4884.0, 4886.0, 4882.0, 4886.0, 4882.0, 4886.0, 4886.0, 4882.0, 4882.0, 4884.0, 4880.0, 4884.0, 4884.0, 4888.0, 4884.0, 4882.0, 4884.0, 4886.0, 4882.0, 4882.0, 4882.0, 4882.0, 4884.0, 4880.0, 4882.0, 4886.0, 4880.0, 4884.0, 4884.0, 4886.0, 4882.0, 4886.0, 4888.0, 4886.0, 4886.0, 4882.0, 4884.0, 4884.0, 4884.0, 4884.0, 4886.0, 4882.0, 4882.0, 4886.0, 4882.0, 4882.0, 4886.0, 4884.0, 4880.0, 4882.0, 4884.0, 4884.0, 4884.0, 4882.0, 4886.0, 4882.0, 4884.0, 4882.0, 4886.0, 4884.0, 4884.0, 4882.0, 4884.0, 4882.0, 4884.0, 4884.0, 4884.0, 4882.0, 4886.0, 4884.0, 4886.0, 4884.0, 4886.0, 4884.0, 4886.0, 4882.0, 4882.0, 4884.0, 4884.0, 4884.0, 4862.0, 4858.0, 4884.0, 4884.0, 4884.0, 4886.0, 4884.0, 4878.0, 4882.0, 4882.0, 4882.0, 4886.0, 4860.0, 4884.0, 4860.0, 4882.0, 4884.0, 4880.0, 4876.0, 4882.0, 4880.0, 4886.0, 4864.0, 4888.0, 4862.0, 4884.0, 4884.0, 4882.0, 4882.0, 4880.0, 4886.0, 4882.0, 4886.0, 4884.0, 4862.0, 4884.0, 4882.0, 4880.0, 4880.0, 4882.0, 4882.0, 4882.0, 4884.0, 4884.0, 4888.0, 4858.0, 4862.0, 4860.0, 4882.0, 4882.0, 4886.0, 4882.0, 4882.0, 4884.0, 4882.0, 4882.0, 4884.0, 4884.0, 4882.0, 4884.0, 4886.0, 4886.0, 4886.0, 4886.0, 4884.0, 4882.0, 4884.0, 4884.0, 4886.0, 4886.0, 4886.0, 4882.0, 4882.0, 4886.0, 4884.0, 4882.0, 4880.0, 4880.0, 4882.0, 4882.0, 4884.0, 4886.0, 4886.0, 4882.0, 4886.0, 4886.0, 4886.0, 4882.0, 4884.0, 4882.0, 4882.0, 4882.0, 4884.0, 4880.0, 4882.0, 4882.0, 4880.0, 4884.0, 4884.0, 4880.0, 4884.0, 4884.0, 4880.0, 4884.0, 4882.0, 4884.0, 4882.0, 4880.0, 4884.0, 4882.0, 4886.0, 4886.0, 4884.0, 4882.0, 4882.0, 4878.0, 4878.0, 4878.0, 4878.0, 4878.0, 4882.0, 4882.0, 4884.0, 4882.0, 4882.0, 4886.0, 4882.0, 4880.0, 4884.0, 4882.0, 4882.0, 4884.0, 4880.0, 4884.0, 4882.0, 4884.0, 4880.0, 4880.0, 4878.0, 4856.0, 4878.0, 4878.0, 4880.0, 4882.0, 4880.0, 4880.0, 4880.0, 4884.0, 4880.0, 4884.0, 4882.0, 4856.0, 4886.0, 4882.0, 4882.0, 4882.0, 4884.0, 4882.0, 4884.0, 4880.0, 4884.0, 4884.0, 4884.0, 4884.0, 4884.0, 4856.0, 4884.0, 4884.0, 4880.0, 4878.0, 4904.0, 4880.0, 4882.0, 4882.0, 4884.0, 4880.0, 4882.0, 4884.0, 4884.0, 4880.0, 4882.0, 4884.0, 4880.0, 4884.0, 4886.0, 4886.0, 4882.0, 4882.0, 4880.0, 4880.0, 4884.0, 4880.0, 4878.0, 4882.0, 4882.0, 4882.0, 4882.0, 4886.0, 4884.0, 4882.0, 4882.0, 4884.0, 4884.0, 4882.0, 4882.0, 4884.0, 4884.0, 4882.0, 4884.0, 4884.0, 4882.0, 4884.0, 4882.0, 4884.0, 4882.0, 4880.0, 4880.0, 4886.0, 4882.0, 4884.0, 4888.0, 4882.0, 4884.0, 4882.0, 4880.0, 4882.0, 4882.0, 4878.0, 4886.0, 4884.0, 4882.0, 4882.0, 4880.0, 4884.0, 4882.0, 4884.0, 4886.0, 4882.0, 4884.0, 4882.0],
