{
  "AcquisitionMatrixPE": 104,
  "AcquisitionNumber": 1,
  "AcquisitionTime": "16:10:31.527500",
  "BandwidthPerPixelPhaseEncode": 17.17,
  "BaseResolution": 104,
  "BodyPartExamined": "BRAIN",
  "CoilCombinationMethod": "Sum of Squares",
  "ConsistencyInfo": "N4_VE11C_LATEST_20160120",
  "ConversionSoftware": "dcm2niix",
  "ConversionSoftwareVersion": "v1.0.20220505",
  "DerivedVendorReportedEchoSpacing": 0.000560011,
  "DeviceSerialNumber": "167006",
  "DwellTime": 2.1e-06,
  "EchoTime": 0.037,
  "EchoTrainLength": 104,
  "EffectiveEchoSpacing": 0.000560011,
  "FlipAngle": 52,
  "HeudiconvVersion": "0.5.3.post811+g6206e14",
  "ImageComments": "Unaliased MB4/PE3/LB",
  "ImageOrientationPatientDICOM": [0.998497, -0.0505358, 0.0212311, 0.0547758, 0.93445, -0.351857],
  "ImageOrientationText": "Tra>Cor(-20.6)>Sag(0.1)",
  "ImageType": [
    "ORIGINAL",
    "PRIMARY",
    "M",
    "MB",
    "ND",
    "MOSAIC"
],
  "ImagingFrequency": 123.26,
  "InPlanePhaseEncodingDirectionDICOM": "COL",
  "InstitutionAddress": "Chemin Queen-Mary 4565,Montreal,District,CA,H3W 1W5",
  "InstitutionName": "IUGM",
  "InstitutionalDepartmentName": "Department",
  "MRAcquisitionType": "2D",
  "MagneticFieldStrength": 3,
  "Manufacturer": "Siemens",
  "ManufacturersModelName": "Prisma_fit",
  "MatrixCoilMode": "SENSE",
  "Modality": "MR",
  "MultibandAccelerationFactor": 4,
  "PartialFourier": 1,
  "PatientPosition": "HFS",
  "PercentPhaseFOV": 100,
  "PercentSampling": 100,
  "PhaseEncodingDirection": "j",
  "PhaseEncodingSteps": 104,
  "PhaseResolution": 1,
  "PixelBandwidth": 2290,
  "ProcedureStepDescription": "games^mario3",
  "ProtocolName": "func_task-mario3_run-03",
  "PulseSequenceDetails": "%CustomerSeq%\\cmrr_mbep2d_bold",
  "ReceiveCoilActiveElements": "HC1-7;NC1,2",
  "ReceiveCoilName": "HeadNeck_64",
  "ReconMatrixPE": 104,
  "RepetitionTime": 1.49,
  "SAR": 0.0456711,
  "ScanOptions": "FS",
  "ScanningSequence": "EP",
  "SequenceName": "epfid2d1_104",
  "SequenceVariant": "SK\\SS",
  "SeriesDescription": "func_task-mario3_run-03",
  "SeriesNumber": 16,
  "ShimSetting": [613, -7268, -8824, 521, 2, -196, -83, 9],
  "SliceThickness": 2,
  "SliceTiming": [0, 0.785, 0.0975, 0.8825, 0.1975, 0.98, 0.295, 1.0775, 0.3925, 1.175, 0.49, 1.275, 0.5875, 1.3725, 0.685, 0, 0.785, 0.0975, 0.8825, 0.1975, 0.98, 0.295, 1.0775, 0.3925, 1.175, 0.49, 1.275, 0.5875, 1.3725, 0.685, 0, 0.785, 0.0975, 0.8825, 0.1975, 0.98, 0.295, 1.0775, 0.3925, 1.175, 0.49, 1.275, 0.5875, 1.3725, 0.685, 0, 0.785, 0.0975, 0.8825, 0.1975, 0.98, 0.295, 1.0775, 0.3925, 1.175, 0.49, 1.275, 0.5875, 1.3725, 0.685],
  "SoftwareVersions": "syngo MR E11",
  "SpacingBetweenSlices": 2,
  "StationName": "MRC35049",
  "TaskName": "mario3",
  "TotalReadoutTime": 0.0576811,
  "TxRefAmp": 233.77,
  "WipMemBlock": "dc95c1f5-77f9-4506-bbcf-afe8efa636d1||Sequence: R017 ve11c/master r/75a17815+; Jun 28 2022 16:32:11 by eja",
  "dcmmeta_affine": [
    [-1.996993064880371, 0.10955169051885605, 0.004116130527108908, 101.0769271850586],
    [0.10107161104679108, 1.8688997030258179, -0.70498126745224, -69.56198120117188],
    [0.04246226325631142, 0.7037133574485779, 1.8716261386871338, -68.80582427978516],
    [0.0, 0.0, 0.0, 1.0]
],
  "dcmmeta_reorient_transform": [
    [0.0, -1.0, 0.0, 103.0],
    [1.0, 0.0, 0.0, 0.0],
    [0.0, 0.0, 1.0, 0.0],
    [0.0, 0.0, 0.0, 1.0]
],
  "dcmmeta_shape": [104, 104, 60, 341],
  "dcmmeta_slice_dim": 2,
  "dcmmeta_version": 0.6,
  "global": {
    "const": {
      "AcquisitionMatrix": [104, 0, 0, 104],
      "AngioFlag": "N",
      "BitsAllocated": 16,
      "BitsStored": 16,
      "BodyPartExamined": "BRAIN",
      "Columns": 832,
      "EchoNumbers": 1,
      "EchoTime": 37.0,
      "EchoTrainLength": 104,
      "FlipAngle": 52.0,
      "HighBit": 15,
      "ImageOrientationPatient": [0.99849655548564, -0.0505358066529, 0.02123113113479, 0.05477584367441, 0.93444982719033, -0.3518566859017],
      "ImagePositionPatient": [-879.14306089631, -766.42409257436, 244.37205702504],
      "ImageType": [
        "ORIGINAL",
        "PRIMARY",
        "M",
        "MB",
        "ND",
        "MOSAIC"
],
      "ImagedNucleus": "1H",
      "ImagingFrequency": 123.260117,
      "InPlanePhaseEncodingDirection": "COL",
      "MRAcquisitionType": "2D",
      "MagneticFieldStrength": 3.0,
      "Manufacturer": "SIEMENS",
      "ManufacturerModelName": "Prisma_fit",
      "Modality": "MR",
      "NumberOfAverages": 1.0,
      "NumberOfPhaseEncodingSteps": 104,
      "PercentPhaseFieldOfView": 100.0,
      "PercentSampling": 100.0,
      "PerformedProcedureStepStartTime": "154931.144000",
      "PhotometricInterpretation": "MONOCHROME2",
      "PixelBandwidth": 2290.0,
      "PixelRepresentation": 0,
      "PixelSpacing": [2.0, 2.0],
      "ProtocolName": "func_task-mario3_run-03",
      "RepetitionTime": 1490.0,
      "Rows": 832,
      "SAR": 0.04567111734098,
      "SamplesPerPixel": 1,
      "ScanOptions": "FS",
      "ScanningSequence": "EP",
      "SequenceName": "epfid2d1_104",
      "SequenceVariant": [
        "SK",
        "SS"
],
      "SeriesDescription": "func_task-mario3_run-03",
      "SeriesNumber": 16,
      "SeriesTime": "161143.377000",
      "SliceLocation": -39.661420388849,
      "SliceThickness": 2.0,
      "SmallestImagePixelValue": 0,
      "SoftwareVersions": "syngo MR E11",
      "SpacingBetweenSlices": 1.9999999729678,
      "SpecificCharacterSet": "ISO_IR 100",
      "StudyID": "1",
      "StudyTime": "154931.073000",
      "TransmitCoilName": "Body",
      "VariableFlipAngleFlag": "N",
      "WindowCenterWidthExplanation": "Algo1",
      "dBdt": 0.0},
    "slices": {}
  },
  "time": {
    "samples": {
      "AcquisitionNumber": [1, 2, 3, 4, 5, 6, 7, 8, 9, 10, 11, 12, 13, 14, 15, 16, 17, 18, 19, 20, 21, 22, 23, 24, 25, 26, 27, 28, 29, 30, 31, 32, 33, 34, 35, 36, 37, 38, 39, 40, 41, 42, 43, 44, 45, 46, 47, 48, 49, 50, 51, 52, 53, 54, 55, 56, 57, 58, 59, 60, 61, 62, 63, 64, 65, 66, 67, 68, 69, 70, 71, 72, 73, 74, 75, 76, 77, 78, 79, 80, 81, 82, 83, 84, 85, 86, 87, 88, 89, 90, 91, 92, 93, 94, 95, 96, 97, 98, 99, 100, 101, 102, 103, 104, 105, 106, 107, 108, 109, 110, 111, 112, 113, 114, 115, 116, 117, 118, 119, 120, 121, 122, 123, 124, 125, 126, 127, 128, 129, 130, 131, 132, 133, 134, 135, 136, 137, 138, 139, 140, 141, 142, 143, 144, 145, 146, 147, 148, 149, 150, 151, 152, 153, 154, 155, 156, 157, 158, 159, 160, 161, 162, 163, 164, 165, 166, 167, 168, 169, 170, 171, 172, 173, 174, 175, 176, 177, 178, 179, 180, 181, 182, 183, 184, 185, 186, 187, 188, 189, 190, 191, 192, 193, 194, 195, 196, 197, 198, 199, 200, 201, 202, 203, 204, 205, 206, 207, 208, 209, 210, 211, 212, 213, 214, 215, 216, 217, 218, 219, 220, 221, 222, 223, 224, 225, 226, 227, 228, 229, 230, 231, 232, 233, 234, 235, 236, 237, 238, 239, 240, 241, 242, 243, 244, 245, 246, 247, 248, 249, 250, 251, 252, 253, 254, 255, 256, 257, 258, 259, 260, 261, 262, 263, 264, 265, 266, 267, 268, 269, 270, 271, 272, 273, 274, 275, 276, 277, 278, 279, 280, 281, 282, 283, 284, 285, 286, 287, 288, 289, 290, 291, 292, 293, 294, 295, 296, 297, 298, 299, 300, 301, 302, 303, 304, 305, 306, 307, 308, 309, 310, 311, 312, 313, 314, 315, 316, 317, 318, 319, 320, 321, 322, 323, 324, 325, 326, 327, 328, 329, 330, 331, 332, 333, 334, 335, 336, 337, 338, 339, 340, 341],
      "AcquisitionTime": ["161031.527500", "161033.017500", "161034.507500", "161035.997500", "161037.487500", "161038.977500", "161040.467500", "161041.957500", "161043.447500", "161044.937500", "161046.427500", "161047.917500", "161049.407500", "161050.897500", "161052.387500", "161053.877500", "161055.367500", "161056.857500", "161058.347500", "161059.837500", "161101.327500", "161102.817500", "161104.307500", "161105.797500", "161107.287500", "161108.777500", "161110.267500", "161111.757500", "161113.247500", "161114.737500", "161116.227500", "161117.717500", "161119.207500", "161120.697500", "161122.187500", "161123.677500", "161125.167500", "161126.657500", "161128.147500", "161129.637500", "161131.127500", "161132.617500", "161134.107500", "161135.597500", "161137.087500", "161138.577500", "161140.067500", "161141.557500", "161143.047500", "161144.537500", "161146.027500", "161147.517500", "161149.007500", "161150.497500", "161151.987500", "161153.477500", "161154.967500", "161156.457500", "161157.947500", "161159.437500", "161200.927500", "161202.417500", "161203.907500", "161205.397500", "161206.887500", "161208.377500", "161209.867500", "161211.357500", "161212.847500", "161214.337500", "161215.827500", "161217.317500", "161218.807500", "161220.297500", "161221.787500", "161223.277500", "161224.767500", "161226.257500", "161227.747500", "161229.237500", "161230.727500", "161232.217500", "161233.707500", "161235.197500", "161236.687500", "161238.177500", "161239.667500", "161241.157500", "161242.647500", "161244.137500", "161245.627500", "161247.117500", "161248.607500", "161250.097500", "161251.587500", "161253.077500", "161254.567500", "161256.057500", "161257.547500", "161259.037500", "161300.527500", "161302.017500", "161303.507500", "161304.997500", "161306.487500", "161307.977500", "161309.467500", "161310.957500", "161312.447500", "161313.937500", "161315.427500", "161316.917500", "161318.407500", "161319.897500", "161321.387500", "161322.877500", "161324.367500", "161325.857500", "161327.347500", "161328.837500", "161330.327500", "161331.817500", "161333.307500", "161334.797500", "161336.287500", "161337.777500", "161339.267500", "161340.757500", "161342.247500", "161343.737500", "161345.227500", "161346.717500", "161348.207500", "161349.697500", "161351.187500", "161352.677500", "161354.167500", "161355.657500", "161357.147500", "161358.637500", "161400.127500", "161401.617500", "161403.107500", "161404.597500", "161406.087500", "161407.577500", "161409.067500", "161410.557500", "161412.047500", "161413.537500", "161415.027500", "161416.517500", "161418.007500", "161419.497500", "161420.987500", "161422.477500", "161423.967500", "161425.457500", "161426.947500", "161428.437500", "161429.927500", "161431.417500", "161432.907500", "161434.397500", "161435.887500", "161437.377500", "161438.867500", "161440.357500", "161441.847500", "161443.337500", "161444.827500", "161446.317500", "161447.807500", "161449.297500", "161450.787500", "161452.277500", "161453.767500", "161455.257500", "161456.747500", "161458.237500", "161459.727500", "161501.217500", "161502.707500", "161504.197500", "161505.687500", "161507.177500", "161508.667500", "161510.157500", "161511.647500", "161513.137500", "161514.627500", "161516.117500", "161517.607500", "161519.097500", "161520.587500", "161522.077500", "161523.567500", "161525.057500", "161526.547500", "161528.037500", "161529.527500", "161531.017500", "161532.507500", "161533.997500", "161535.487500", "161536.977500", "161538.467500", "161539.957500", "161541.447500", "161542.937500", "161544.427500", "161545.917500", "161547.407500", "161548.897500", "161550.387500", "161551.877500", "161553.367500", "161554.857500", "161556.347500", "161557.837500", "161559.327500", "161600.817500", "161602.307500", "161603.797500", "161605.287500", "161606.777500", "161608.267500", "161609.757500", "161611.247500", "161612.737500", "161614.227500", "161615.717500", "161617.207500", "161618.697500", "161620.187500", "161621.677500", "161623.167500", "161624.657500", "161626.147500", "161627.637500", "161629.127500", "161630.617500", "161632.107500", "161633.597500", "161635.087500", "161636.577500", "161638.067500", "161639.557500", "161641.047500", "161642.537500", "161644.027500", "161645.517500", "161647.007500", "161648.497500", "161649.987500", "161651.477500", "161652.967500", "161654.457500", "161655.947500", "161657.437500", "161658.927500", "161700.417500", "161701.907500", "161703.397500", "161704.887500", "161706.377500", "161707.867500", "161709.357500", "161710.847500", "161712.337500", "161713.827500", "161715.317500", "161716.807500", "161718.297500", "161719.787500", "161721.277500", "161722.767500", "161724.257500", "161725.747500", "161727.237500", "161728.727500", "161730.217500", "161731.707500", "161733.197500", "161734.687500", "161736.177500", "161737.667500", "161739.157500", "161740.647500", "161742.137500", "161743.627500", "161745.117500", "161746.607500", "161748.097500", "161749.587500", "161751.077500", "161752.567500", "161754.057500", "161755.547500", "161757.037500", "161758.527500", "161800.017500", "161801.507500", "161802.997500", "161804.487500", "161805.977500", "161807.467500", "161808.957500", "161810.447500", "161811.937500", "161813.427500", "161814.917500", "161816.407500", "161817.897500", "161819.387500", "161820.877500", "161822.367500", "161823.857500", "161825.347500", "161826.837500", "161828.327500", "161829.817500", "161831.307500", "161832.797500", "161834.287500", "161835.777500", "161837.267500", "161838.757500", "161840.247500", "161841.737500", "161843.227500", "161844.717500", "161846.207500", "161847.697500", "161849.187500", "161850.677500", "161852.167500", "161853.657500", "161855.147500", "161856.637500", "161858.127500"],
      "ContentTime": ["161143.380000", "161143.384000", "161143.388000", "161143.391000", "161143.394000", "161143.398000", "161143.401000", "161143.405000", "161143.408000", "161143.411000", "161143.415000", "161143.418000", "161143.431000", "161143.434000", "161143.437000", "161143.441000", "161143.444000", "161143.447000", "161143.451000", "161143.454000", "161143.457000", "161203.349000", "161203.353000", "161203.356000", "161203.359000", "161203.374000", "161203.377000", "161203.380000", "161203.384000", "161203.387000", "161203.390000", "161203.393000", "161203.397000", "161203.400000", "161203.403000", "161203.407000", "161203.410000", "161203.413000", "161203.417000", "161203.420000", "161203.423000", "161223.348000", "161223.353000", "161223.357000", "161223.360000", "161223.363000", "161223.367000", "161223.370000", "161223.373000", "161223.377000", "161223.380000", "161223.383000", "161223.387000", "161223.390000", "161223.393000", "161223.397000", "161223.400000", "161223.403000", "161223.406000", "161223.410000", "161223.413000", "161223.417000", "161243.348000", "161243.352000", "161243.355000", "161243.359000", "161243.362000", "161243.365000", "161243.368000", "161243.372000", "161243.375000", "161243.378000", "161243.382000", "161243.385000", "161243.388000", "161243.392000", "161243.395000", "161243.398000", "161243.402000", "161243.405000", "161243.408000", "161243.411000", "161323.349000", "161323.366000", "161323.369000", "161323.372000", "161323.376000", "161323.379000", "161323.382000", "161323.386000", "161323.389000", "161323.392000", "161323.396000", "161323.399000", "161323.402000", "161323.406000", "161323.409000", "161323.412000", "161323.416000", "161323.419000", "161323.422000", "161323.426000", "161323.429000", "161323.432000", "161323.436000", "161323.439000", "161323.443000", "161323.446000", "161323.449000", "161323.453000", "161323.456000", "161323.459000", "161323.463000", "161323.466000", "161323.469000", "161343.349000", "161343.353000", "161343.356000", "161343.360000", "161343.363000", "161343.366000", "161343.370000", "161343.373000", "161343.376000", "161343.380000", "161343.383000", "161343.386000", "161343.390000", "161423.349000", "161423.367000", "161423.370000", "161423.374000", "161423.377000", "161423.380000", "161423.384000", "161423.387000", "161423.391000", "161423.394000", "161423.397000", "161423.401000", "161423.404000", "161423.407000", "161423.410000", "161423.414000", "161423.417000", "161423.421000", "161423.424000", "161423.427000", "161423.430000", "161423.434000", "161423.437000", "161423.440000", "161423.444000", "161423.447000", "161423.450000", "161503.348000", "161503.352000", "161503.355000", "161503.359000", "161503.362000", "161503.365000", "161503.369000", "161503.372000", "161503.376000", "161503.379000", "161503.382000", "161503.386000", "161503.389000", "161503.392000", "161503.396000", "161503.399000", "161503.402000", "161503.406000", "161503.409000", "161503.413000", "161503.416000", "161503.419000", "161503.423000", "161503.426000", "161503.429000", "161503.432000", "161503.436000", "161543.350000", "161543.358000", "161543.361000", "161543.365000", "161543.368000", "161543.372000", "161543.375000", "161543.378000", "161543.382000", "161543.385000", "161543.389000", "161543.392000", "161543.395000", "161543.399000", "161543.402000", "161543.406000", "161543.409000", "161543.412000", "161543.416000", "161543.419000", "161543.422000", "161543.426000", "161543.429000", "161543.432000", "161543.436000", "161543.439000", "161543.442000", "161623.349000", "161623.353000", "161623.356000", "161623.360000", "161623.363000", "161623.366000", "161623.370000", "161623.373000", "161623.377000", "161623.380000", "161623.384000", "161623.387000", "161623.390000", "161623.394000", "161623.397000", "161623.400000", "161623.404000", "161623.407000", "161623.410000", "161623.414000", "161623.431000", "161623.434000", "161623.437000", "161623.441000", "161623.444000", "161623.447000", "161703.348000", "161703.352000", "161703.355000", "161703.359000", "161703.362000", "161703.366000", "161703.369000", "161703.373000", "161703.376000", "161703.379000", "161703.382000", "161703.386000", "161703.389000", "161703.393000", "161703.396000", "161703.399000", "161703.403000", "161703.406000", "161703.409000", "161703.413000", "161703.416000", "161703.420000", "161703.423000", "161703.427000", "161703.430000", "161703.433000", "161703.437000", "161743.350000", "161743.354000", "161743.358000", "161743.361000", "161743.364000", "161743.368000", "161743.371000", "161743.375000", "161743.378000", "161743.381000", "161743.385000", "161743.388000", "161743.391000", "161743.395000", "161743.398000", "161743.401000", "161743.405000", "161743.414000", "161743.418000", "161743.421000", "161743.424000", "161743.428000", "161743.431000", "161743.434000", "161743.438000", "161743.441000", "161743.445000", "161823.349000", "161823.353000", "161823.356000", "161823.360000", "161823.363000", "161823.367000", "161823.370000", "161823.373000", "161823.377000", "161823.380000", "161823.383000", "161823.387000", "161823.390000", "161823.394000", "161823.397000", "161823.400000", "161823.404000", "161823.407000", "161823.410000", "161823.414000", "161823.417000", "161823.421000", "161823.424000", "161823.427000", "161823.431000", "161823.434000", "161823.437000", "161900.924000", "161900.927000", "161900.931000", "161900.934000", "161900.938000", "161900.941000", "161900.945000", "161900.948000", "161900.951000", "161900.963000", "161900.967000", "161900.970000", "161900.973000", "161900.977000", "161900.980000", "161900.984000", "161900.987000", "161900.991000", "161900.994000", "161900.997000", "161901.002000", "161901.005000", "161901.009000", "161901.012000", "161901.015000"],
      "InstanceCreationTime": ["161143.380000", "161143.384000", "161143.388000", "161143.391000", "161143.394000", "161143.398000", "161143.401000", "161143.405000", "161143.408000", "161143.411000", "161143.415000", "161143.418000", "161143.431000", "161143.434000", "161143.437000", "161143.441000", "161143.444000", "161143.447000", "161143.451000", "161143.454000", "161143.457000", "161203.349000", "161203.353000", "161203.356000", "161203.359000", "161203.374000", "161203.377000", "161203.380000", "161203.384000", "161203.387000", "161203.390000", "161203.393000", "161203.397000", "161203.400000", "161203.403000", "161203.407000", "161203.410000", "161203.413000", "161203.417000", "161203.420000", "161203.423000", "161223.348000", "161223.353000", "161223.357000", "161223.360000", "161223.363000", "161223.367000", "161223.370000", "161223.373000", "161223.377000", "161223.380000", "161223.383000", "161223.387000", "161223.390000", "161223.393000", "161223.397000", "161223.400000", "161223.403000", "161223.406000", "161223.410000", "161223.413000", "161223.417000", "161243.348000", "161243.352000", "161243.355000", "161243.359000", "161243.362000", "161243.365000", "161243.368000", "161243.372000", "161243.375000", "161243.378000", "161243.382000", "161243.385000", "161243.388000", "161243.392000", "161243.395000", "161243.398000", "161243.402000", "161243.405000", "161243.408000", "161243.411000", "161323.349000", "161323.366000", "161323.369000", "161323.372000", "161323.376000", "161323.379000", "161323.382000", "161323.386000", "161323.389000", "161323.392000", "161323.396000", "161323.399000", "161323.402000", "161323.406000", "161323.409000", "161323.412000", "161323.416000", "161323.419000", "161323.422000", "161323.426000", "161323.429000", "161323.432000", "161323.436000", "161323.439000", "161323.443000", "161323.446000", "161323.449000", "161323.453000", "161323.456000", "161323.459000", "161323.463000", "161323.466000", "161323.469000", "161343.349000", "161343.353000", "161343.356000", "161343.360000", "161343.363000", "161343.366000", "161343.370000", "161343.373000", "161343.376000", "161343.380000", "161343.383000", "161343.386000", "161343.390000", "161423.349000", "161423.367000", "161423.370000", "161423.374000", "161423.377000", "161423.380000", "161423.384000", "161423.387000", "161423.391000", "161423.394000", "161423.397000", "161423.401000", "161423.404000", "161423.407000", "161423.410000", "161423.414000", "161423.417000", "161423.421000", "161423.424000", "161423.427000", "161423.430000", "161423.434000", "161423.437000", "161423.440000", "161423.444000", "161423.447000", "161423.450000", "161503.348000", "161503.352000", "161503.355000", "161503.359000", "161503.362000", "161503.365000", "161503.369000", "161503.372000", "161503.376000", "161503.379000", "161503.382000", "161503.386000", "161503.389000", "161503.392000", "161503.396000", "161503.399000", "161503.402000", "161503.406000", "161503.409000", "161503.413000", "161503.416000", "161503.419000", "161503.423000", "161503.426000", "161503.429000", "161503.432000", "161503.436000", "161543.350000", "161543.358000", "161543.361000", "161543.365000", "161543.368000", "161543.372000", "161543.375000", "161543.378000", "161543.382000", "161543.385000", "161543.389000", "161543.392000", "161543.395000", "161543.399000", "161543.402000", "161543.406000", "161543.409000", "161543.412000", "161543.416000", "161543.419000", "161543.422000", "161543.426000", "161543.429000", "161543.432000", "161543.436000", "161543.439000", "161543.442000", "161623.349000", "161623.353000", "161623.356000", "161623.360000", "161623.363000", "161623.366000", "161623.370000", "161623.373000", "161623.377000", "161623.380000", "161623.384000", "161623.387000", "161623.390000", "161623.394000", "161623.397000", "161623.400000", "161623.404000", "161623.407000", "161623.410000", "161623.414000", "161623.431000", "161623.434000", "161623.437000", "161623.441000", "161623.444000", "161623.447000", "161703.348000", "161703.352000", "161703.355000", "161703.359000", "161703.362000", "161703.366000", "161703.369000", "161703.373000", "161703.376000", "161703.379000", "161703.382000", "161703.386000", "161703.389000", "161703.393000", "161703.396000", "161703.399000", "161703.403000", "161703.406000", "161703.409000", "161703.413000", "161703.416000", "161703.420000", "161703.423000", "161703.427000", "161703.430000", "161703.433000", "161703.437000", "161743.350000", "161743.354000", "161743.358000", "161743.361000", "161743.364000", "161743.368000", "161743.371000", "161743.375000", "161743.378000", "161743.381000", "161743.385000", "161743.388000", "161743.391000", "161743.395000", "161743.398000", "161743.401000", "161743.405000", "161743.414000", "161743.418000", "161743.421000", "161743.424000", "161743.428000", "161743.431000", "161743.434000", "161743.438000", "161743.441000", "161743.445000", "161823.349000", "161823.353000", "161823.356000", "161823.360000", "161823.363000", "161823.367000", "161823.370000", "161823.373000", "161823.377000", "161823.380000", "161823.383000", "161823.387000", "161823.390000", "161823.394000", "161823.397000", "161823.400000", "161823.404000", "161823.407000", "161823.410000", "161823.414000", "161823.417000", "161823.421000", "161823.424000", "161823.427000", "161823.431000", "161823.434000", "161823.437000", "161900.924000", "161900.927000", "161900.931000", "161900.934000", "161900.938000", "161900.941000", "161900.945000", "161900.948000", "161900.951000", "161900.963000", "161900.967000", "161900.970000", "161900.973000", "161900.977000", "161900.980000", "161900.984000", "161900.987000", "161900.991000", "161900.994000", "161900.997000", "161901.002000", "161901.005000", "161901.009000", "161901.012000", "161901.015000"],
      "InstanceNumber": [1, 2, 3, 4, 5, 6, 7, 8, 9, 10, 11, 12, 13, 14, 15, 16, 17, 18, 19, 20, 21, 22, 23, 24, 25, 26, 27, 28, 29, 30, 31, 32, 33, 34, 35, 36, 37, 38, 39, 40, 41, 42, 43, 44, 45, 46, 47, 48, 49, 50, 51, 52, 53, 54, 55, 56, 57, 58, 59, 60, 61, 62, 63, 64, 65, 66, 67, 68, 69, 70, 71, 72, 73, 74, 75, 76, 77, 78, 79, 80, 81, 82, 83, 84, 85, 86, 87, 88, 89, 90, 91, 92, 93, 94, 95, 96, 97, 98, 99, 100, 101, 102, 103, 104, 105, 106, 107, 108, 109, 110, 111, 112, 113, 114, 115, 116, 117, 118, 119, 120, 121, 122, 123, 124, 125, 126, 127, 128, 129, 130, 131, 132, 133, 134, 135, 136, 137, 138, 139, 140, 141, 142, 143, 144, 145, 146, 147, 148, 149, 150, 151, 152, 153, 154, 155, 156, 157, 158, 159, 160, 161, 162, 163, 164, 165, 166, 167, 168, 169, 170, 171, 172, 173, 174, 175, 176, 177, 178, 179, 180, 181, 182, 183, 184, 185, 186, 187, 188, 189, 190, 191, 192, 193, 194, 195, 196, 197, 198, 199, 200, 201, 202, 203, 204, 205, 206, 207, 208, 209, 210, 211, 212, 213, 214, 215, 216, 217, 218, 219, 220, 221, 222, 223, 224, 225, 226, 227, 228, 229, 230, 231, 232, 233, 234, 235, 236, 237, 238, 239, 240, 241, 242, 243, 244, 245, 246, 247, 248, 249, 250, 251, 252, 253, 254, 255, 256, 257, 258, 259, 260, 261, 262, 263, 264, 265, 266, 267, 268, 269, 270, 271, 272, 273, 274, 275, 276, 277, 278, 279, 280, 281, 282, 283, 284, 285, 286, 287, 288, 289, 290, 291, 292, 293, 294, 295, 296, 297, 298, 299, 300, 301, 302, 303, 304, 305, 306, 307, 308, 309, 310, 311, 312, 313, 314, 315, 316, 317, 318, 319, 320, 321, 322, 323, 324, 325, 326, 327, 328, 329, 330, 331, 332, 333, 334, 335, 336, 337, 338, 339, 340, 341],
      "LargestImagePixelValue": [40938, 39537, 38345, 38498, 37695, 37985, 37743, 37435, 37407, 37917, 38176, 38141, 37278, 37642, 38097, 38146, 38139, 37643, 37671, 37944, 38163, 37945, 37738, 38043, 37937, 37939, 38180, 37847, 37683, 38119, 37936, 37981, 38052, 38196, 38205, 37684, 38088, 38017, 38035, 37298, 38069, 37520, 37701, 37049, 37348, 37348, 37645, 37202, 37239, 37482, 36651, 36423, 36820, 37281, 37297, 37530, 37091, 36480, 36506, 37113, 36819, 36840, 36770, 37146, 37097, 36792, 36882, 36849, 36508, 36513, 36961, 36930, 36407, 36987, 37004, 36987, 36802, 37552, 37072, 36829, 37034, 37080, 37607, 37275, 37111, 36980, 36914, 36886, 37803, 37151, 37116, 37012, 37274, 37152, 37426, 37380, 36980, 36812, 37313, 37418, 37120, 37209, 37670, 36822, 37314, 37338, 36745, 35991, 36158, 36313, 36042, 36076, 36239, 37286, 36310, 36032, 36155, 36433, 36909, 37162, 36142, 37219, 38270, 37601, 37228, 37641, 36090, 36519, 36269, 36763, 36791, 37115, 37566, 37918, 37549, 37680, 37127, 35615, 36366, 36490, 36738, 36968, 37722, 38050, 37381, 37059, 37705, 37771, 37912, 37695, 38179, 37228, 36414, 38171, 37293, 37683, 38081, 36972, 37354, 37539, 37711, 37549, 37736, 37663, 37421, 37711, 36307, 37319, 37163, 37326, 37291, 37160, 37119, 37312, 37367, 37078, 37393, 37085, 37059, 37616, 37253, 36889, 35941, 36216, 35959, 37159, 37547, 36723, 36885, 36880, 37100, 37309, 37039, 37119, 36863, 37016, 37182, 37182, 37405, 37274, 37311, 37610, 36962, 36920, 36849, 36484, 37028, 36880, 37003, 36007, 36025, 35970, 36406, 36252, 36951, 36784, 37739, 37167, 37300, 36797, 36838, 36740, 36021, 36670, 37276, 36226, 35936, 35700, 36639, 37063, 36995, 37000, 37024, 37872, 37215, 37489, 37138, 36832, 36488, 36382, 36466, 36382, 37127, 36510, 36936, 36819, 35960, 36693, 36105, 36287, 36945, 36492, 36313, 36258, 36494, 37240, 37021, 36195, 36238, 36173, 36559, 36381, 36199, 36312, 35772, 34164, 35199, 36974, 37720, 37475, 37134, 36774, 36595, 36818, 37285, 37862, 36975, 36395, 36846, 37230, 37489, 36305, 36679, 36907, 36843, 36847, 36712, 37108, 36622, 36507, 36572, 36864, 36508, 36940, 36865, 36272, 35481, 36629, 36536, 36416, 36198, 36673, 36039, 36114, 35818, 35984, 35860, 35726, 35907, 35995, 37643, 36205, 35287, 37678, 37408, 37260, 36527, 36384, 36791, 36495, 36724, 36452, 35997, 36540, 35651, 36150, 36316, 36762, 36861, 37020, 36483, 35617, 35482, 35110, 35988, 35804, 36531, 35941, 35885, 36177, 36195],
