{
  "AcquisitionMatrixPE": 104,
  "AcquisitionNumber": 1,
  "AcquisitionTime": "15:52:53.210000",
  "BandwidthPerPixelPhaseEncode": 17.17,
  "BaseResolution": 104,
  "BodyPartExamined": "BRAIN",
  "CoilCombinationMethod": "Sum of Squares",
  "ConsistencyInfo": "N4_VE11C_LATEST_20160120",
  "ConversionSoftware": "dcm2niix",
  "ConversionSoftwareVersion": "v1.0.20220505",
  "DerivedVendorReportedEchoSpacing": 0.000560011,
  "DeviceSerialNumber": "167006",
  "DwellTime": 2.1e-06,
  "EchoTime": 0.037,
  "EchoTrainLength": 104,
  "EffectiveEchoSpacing": 0.000560011,
  "FlipAngle": 52,
  "HeudiconvVersion": "0.5.3.post811+g6206e14",
  "ImageComments": "Unaliased MB4/PE3/LB",
  "ImageOrientationPatientDICOM": [0.998497, -0.0505358, 0.0212311, 0.0547758, 0.93445, -0.351857],
  "ImageOrientationText": "Tra>Cor(-20.6)>Sag(0.1)",
  "ImageType": [
    "ORIGINAL",
    "PRIMARY",
    "M",
    "MB",
    "ND",
    "MOSAIC"
],
  "ImagingFrequency": 123.26,
  "InPlanePhaseEncodingDirectionDICOM": "COL",
  "InstitutionAddress": "Chemin Queen-Mary 4565,Montreal,District,CA,H3W 1W5",
  "InstitutionName": "IUGM",
  "InstitutionalDepartmentName": "Department",
  "MRAcquisitionType": "2D",
  "MagneticFieldStrength": 3,
  "Manufacturer": "Siemens",
  "ManufacturersModelName": "Prisma_fit",
  "MatrixCoilMode": "SENSE",
  "Modality": "MR",
  "MultibandAccelerationFactor": 4,
  "PartialFourier": 1,
  "PatientPosition": "HFS",
  "PercentPhaseFOV": 100,
  "PercentSampling": 100,
  "PhaseEncodingDirection": "j",
  "PhaseEncodingSteps": 104,
  "PhaseResolution": 1,
  "PixelBandwidth": 2290,
  "ProcedureStepDescription": "games^mario3",
  "ProtocolName": "func_task-mario3_run-01",
  "PulseSequenceDetails": "%CustomerSeq%\\cmrr_mbep2d_bold",
  "ReceiveCoilActiveElements": "HC1-7;NC1,2",
  "ReceiveCoilName": "HeadNeck_64",
  "ReconMatrixPE": 104,
  "RepetitionTime": 1.49,
  "SAR": 0.0456711,
  "ScanOptions": "FS",
  "ScanningSequence": "EP",
  "SequenceName": "epfid2d1_104",
  "SequenceVariant": "SK\\SS",
  "SeriesDescription": "func_task-mario3_run-01",
  "SeriesNumber": 10,
  "ShimSetting": [613, -7268, -8824, 521, 2, -196, -83, 9],
  "SliceThickness": 2,
  "SliceTiming": [0, 0.785, 0.1, 0.8825, 0.1975, 0.98, 0.295, 1.08, 0.3925, 1.1775, 0.49, 1.275, 0.59, 1.3725, 0.6875, 0, 0.785, 0.1, 0.8825, 0.1975, 0.98, 0.295, 1.08, 0.3925, 1.1775, 0.49, 1.275, 0.59, 1.3725, 0.6875, 0, 0.785, 0.1, 0.8825, 0.1975, 0.98, 0.295, 1.08, 0.3925, 1.1775, 0.49, 1.275, 0.59, 1.3725, 0.6875, 0, 0.785, 0.1, 0.8825, 0.1975, 0.98, 0.295, 1.08, 0.3925, 1.1775, 0.49, 1.275, 0.59, 1.3725, 0.6875],
  "SoftwareVersions": "syngo MR E11",
  "SpacingBetweenSlices": 2,
  "StationName": "MRC35049",
  "TaskName": "mario3",
  "TotalReadoutTime": 0.0576811,
  "TxRefAmp": 233.77,
  "WipMemBlock": "931ed7e6-7aed-48dc-917d-45189509e0a9||Sequence: R017 ve11c/master r/75a17815+; Jun 28 2022 16:32:11 by eja",
  "dcmmeta_affine": [
    [-1.996993064880371, 0.10955169051885605, 0.004116130527108908, 101.0769271850586],
    [0.10107161104679108, 1.8688997030258179, -0.70498126745224, -69.56198120117188],
    [0.04246226325631142, 0.7037133574485779, 1.8716261386871338, -68.80582427978516],
    [0.0, 0.0, 0.0, 1.0]
],
  "dcmmeta_reorient_transform": [
    [0.0, -1.0, 0.0, 103.0],
    [1.0, 0.0, 0.0, 0.0],
    [0.0, 0.0, 1.0, 0.0],
    [0.0, 0.0, 0.0, 1.0]
],
  "dcmmeta_shape": [104, 104, 60, 304],
  "dcmmeta_slice_dim": 2,
  "dcmmeta_version": 0.6,
  "global": {
    "const": {
      "AcquisitionMatrix": [104, 0, 0, 104],
      "AngioFlag": "N",
      "BitsAllocated": 16,
      "BitsStored": 16,
      "BodyPartExamined": "BRAIN",
      "Columns": 832,
      "EchoNumbers": 1,
      "EchoTime": 37.0,
      "EchoTrainLength": 104,
      "FlipAngle": 52.0,
      "HighBit": 15,
      "ImageOrientationPatient": [0.99849655548564, -0.0505358066529, 0.02123113113479, 0.05477584367441, 0.93444982719033, -0.3518566859017],
      "ImagePositionPatient": [-879.14306089631, -766.42409257436, 244.37205702504],
      "ImageType": [
        "ORIGINAL",
        "PRIMARY",
        "M",
        "MB",
        "ND",
        "MOSAIC"
],
      "ImagedNucleus": "1H",
      "ImagingFrequency": 123.26011,
      "InPlanePhaseEncodingDirection": "COL",
      "MRAcquisitionType": "2D",
      "MagneticFieldStrength": 3.0,
      "Manufacturer": "SIEMENS",
      "ManufacturerModelName": "Prisma_fit",
      "Modality": "MR",
      "NumberOfAverages": 1.0,
      "NumberOfPhaseEncodingSteps": 104,
      "PercentPhaseFieldOfView": 100.0,
      "PercentSampling": 100.0,
      "PerformedProcedureStepStartTime": "154931.144000",
      "PhotometricInterpretation": "MONOCHROME2",
      "PixelBandwidth": 2290.0,
      "PixelRepresentation": 0,
      "PixelSpacing": [2.0, 2.0],
      "ProtocolName": "func_task-mario3_run-01",
      "RepetitionTime": 1490.0,
      "Rows": 832,
      "SAR": 0.04567111734098,
      "SamplesPerPixel": 1,
      "ScanOptions": "FS",
      "ScanningSequence": "EP",
      "SequenceName": "epfid2d1_104",
      "SequenceVariant": [
        "SK",
        "SS"
],
      "SeriesDescription": "func_task-mario3_run-01",
      "SeriesNumber": 10,
      "SeriesTime": "155355.650000",
      "SliceLocation": -39.661420388849,
      "SliceThickness": 2.0,
      "SmallestImagePixelValue": 0,
      "SoftwareVersions": "syngo MR E11",
      "SpacingBetweenSlices": 1.9999999729678,
      "SpecificCharacterSet": "ISO_IR 100",
      "StudyID": "1",
      "StudyTime": "154931.073000",
      "TransmitCoilName": "Body",
      "VariableFlipAngleFlag": "N",
      "WindowCenterWidthExplanation": "Algo1",
      "dBdt": 0.0},
    "slices": {}
  },
  "time": {
    "samples": {
      "AcquisitionNumber": [1, 2, 3, 4, 5, 6, 7, 8, 9, 10, 11, 12, 13, 14, 15, 16, 17, 18, 19, 20, 21, 22, 23, 24, 25, 26, 27, 28, 29, 30, 31, 32, 33, 34, 35, 36, 37, 38, 39, 40, 41, 42, 43, 44, 45, 46, 47, 48, 49, 50, 51, 52, 53, 54, 55, 56, 57, 58, 59, 60, 61, 62, 63, 64, 65, 66, 67, 68, 69, 70, 71, 72, 73, 74, 75, 76, 77, 78, 79, 80, 81, 82, 83, 84, 85, 86, 87, 88, 89, 90, 91, 92, 93, 94, 95, 96, 97, 98, 99, 100, 101, 102, 103, 104, 105, 106, 107, 108, 109, 110, 111, 112, 113, 114, 115, 116, 117, 118, 119, 120, 121, 122, 123, 124, 125, 126, 127, 128, 129, 130, 131, 132, 133, 134, 135, 136, 137, 138, 139, 140, 141, 142, 143, 144, 145, 146, 147, 148, 149, 150, 151, 152, 153, 154, 155, 156, 157, 158, 159, 160, 161, 162, 163, 164, 165, 166, 167, 168, 169, 170, 171, 172, 173, 174, 175, 176, 177, 178, 179, 180, 181, 182, 183, 184, 185, 186, 187, 188, 189, 190, 191, 192, 193, 194, 195, 196, 197, 198, 199, 200, 201, 202, 203, 204, 205, 206, 207, 208, 209, 210, 211, 212, 213, 214, 215, 216, 217, 218, 219, 220, 221, 222, 223, 224, 225, 226, 227, 228, 229, 230, 231, 232, 233, 234, 235, 236, 237, 238, 239, 240, 241, 242, 243, 244, 245, 246, 247, 248, 249, 250, 251, 252, 253, 254, 255, 256, 257, 258, 259, 260, 261, 262, 263, 264, 265, 266, 267, 268, 269, 270, 271, 272, 273, 274, 275, 276, 277, 278, 279, 280, 281, 282, 283, 284, 285, 286, 287, 288, 289, 290, 291, 292, 293, 294, 295, 296, 297, 298, 299, 300, 301, 302, 303, 304],
      "AcquisitionTime": ["155253.210000", "155254.700000", "155256.190000", "155257.680000", "155259.170000", "155300.660000", "155302.150000", "155303.640000", "155305.130000", "155306.620000", "155308.110000", "155309.600000", "155311.090000", "155312.580000", "155314.070000", "155315.560000", "155317.050000", "155318.540000", "155320.030000", "155321.520000", "155323.010000", "155324.500000", "155325.990000", "155327.480000", "155328.970000", "155330.460000", "155331.950000", "155333.440000", "155334.930000", "155336.420000", "155337.910000", "155339.400000", "155340.890000", "155342.380000", "155343.870000", "155345.360000", "155346.850000", "155348.340000", "155349.830000", "155351.320000", "155352.810000", "155354.300000", "155355.790000", "155357.280000", "155358.770000", "155400.260000", "155401.750000", "155403.240000", "155404.730000", "155406.220000", "155407.710000", "155409.200000", "155410.690000", "155412.180000", "155413.670000", "155415.160000", "155416.650000", "155418.140000", "155419.630000", "155421.120000", "155422.610000", "155424.100000", "155425.590000", "155427.080000", "155428.570000", "155430.060000", "155431.550000", "155433.040000", "155434.530000", "155436.020000", "155437.510000", "155439.000000", "155440.490000", "155441.980000", "155443.470000", "155444.960000", "155446.450000", "155447.940000", "155449.430000", "155450.920000", "155452.410000", "155453.900000", "155455.390000", "155456.880000", "155458.370000", "155459.860000", "155501.350000", "155502.840000", "155504.330000", "155505.820000", "155507.310000", "155508.800000", "155510.290000", "155511.780000", "155513.270000", "155514.760000", "155516.250000", "155517.740000", "155519.230000", "155520.720000", "155522.210000", "155523.700000", "155525.190000", "155526.680000", "155528.170000", "155529.660000", "155531.150000", "155532.640000", "155534.130000", "155535.620000", "155537.110000", "155538.600000", "155540.090000", "155541.580000", "155543.070000", "155544.560000", "155546.050000", "155547.540000", "155549.030000", "155550.520000", "155552.010000", "155553.500000", "155554.990000", "155556.480000", "155557.970000", "155559.460000", "155600.950000", "155602.440000", "155603.930000", "155605.420000", "155606.910000", "155608.400000", "155609.890000", "155611.380000", "155612.870000", "155614.360000", "155615.850000", "155617.340000", "155618.830000", "155620.320000", "155621.810000", "155623.300000", "155624.790000", "155626.280000", "155627.770000", "155629.260000", "155630.750000", "155632.240000", "155633.730000", "155635.220000", "155636.710000", "155638.200000", "155639.690000", "155641.180000", "155642.670000", "155644.160000", "155645.650000", "155647.140000", "155648.630000", "155650.120000", "155651.610000", "155653.100000", "155654.590000", "155656.080000", "155657.570000", "155659.060000", "155700.550000", "155702.040000", "155703.530000", "155705.020000", "155706.510000", "155708.000000", "155709.490000", "155710.980000", "155712.470000", "155713.960000", "155715.450000", "155716.940000", "155718.430000", "155719.920000", "155721.410000", "155722.900000", "155724.390000", "155725.880000", "155727.370000", "155728.860000", "155730.350000", "155731.840000", "155733.330000", "155734.820000", "155736.310000", "155737.800000", "155739.290000", "155740.780000", "155742.270000", "155743.760000", "155745.250000", "155746.740000", "155748.230000", "155749.720000", "155751.210000", "155752.700000", "155754.190000", "155755.680000", "155757.170000", "155758.660000", "155800.150000", "155801.640000", "155803.130000", "155804.620000", "155806.110000", "155807.600000", "155809.090000", "155810.580000", "155812.070000", "155813.560000", "155815.050000", "155816.540000", "155818.030000", "155819.520000", "155821.010000", "155822.500000", "155823.990000", "155825.480000", "155826.970000", "155828.460000", "155829.950000", "155831.440000", "155832.930000", "155834.420000", "155835.910000", "155837.400000", "155838.890000", "155840.380000", "155841.870000", "155843.360000", "155844.850000", "155846.340000", "155847.830000", "155849.320000", "155850.810000", "155852.300000", "155853.790000", "155855.280000", "155856.770000", "155858.260000", "155859.750000", "155901.240000", "155902.730000", "155904.220000", "155905.710000", "155907.200000", "155908.690000", "155910.180000", "155911.670000", "155913.160000", "155914.650000", "155916.140000", "155917.630000", "155919.120000", "155920.610000", "155922.100000", "155923.590000", "155925.080000", "155926.570000", "155928.060000", "155929.550000", "155931.040000", "155932.530000", "155934.020000", "155935.510000", "155937.000000", "155938.490000", "155939.980000", "155941.470000", "155942.960000", "155944.450000", "155945.940000", "155947.430000", "155948.920000", "155950.410000", "155951.900000", "155953.390000", "155954.880000", "155956.370000", "155957.860000", "155959.350000", "160000.840000", "160002.330000", "160003.820000", "160005.310000", "160006.800000", "160008.290000", "160009.780000", "160011.270000", "160012.760000", "160014.250000", "160015.740000", "160017.230000", "160018.720000", "160020.210000", "160021.700000", "160023.190000", "160024.680000"],
      "ContentTime": ["155355.653000", "155355.657000", "155355.660000", "155355.664000", "155355.667000", "155355.678000", "155355.681000", "155355.685000", "155355.688000", "155355.692000", "155355.695000", "155355.698000", "155355.702000", "155355.705000", "155415.617000", "155415.621000", "155415.624000", "155415.628000", "155415.631000", "155415.634000", "155415.638000", "155415.641000", "155415.644000", "155415.649000", "155415.652000", "155415.655000", "155415.659000", "155415.662000", "155415.665000", "155415.669000", "155415.672000", "155415.675000", "155415.679000", "155415.682000", "155435.617000", "155435.621000", "155435.624000", "155435.628000", "155435.631000", "155435.634000", "155435.638000", "155435.641000", "155435.644000", "155435.648000", "155435.651000", "155435.654000", "155435.658000", "155435.661000", "155435.664000", "155435.668000", "155435.671000", "155435.674000", "155435.677000", "155435.689000", "155435.692000", "155455.617000", "155455.621000", "155455.624000", "155455.628000", "155455.631000", "155455.645000", "155455.648000", "155455.652000", "155455.655000", "155455.659000", "155455.662000", "155455.665000", "155455.669000", "155455.672000", "155455.675000", "155455.679000", "155455.682000", "155455.686000", "155455.689000", "155455.693000", "155515.616000", "155515.620000", "155515.623000", "155515.627000", "155515.637000", "155515.640000", "155515.643000", "155515.647000", "155515.650000", "155515.656000", "155515.660000", "155515.663000", "155515.666000", "155515.673000", "155515.677000", "155515.680000", "155515.683000", "155515.699000", "155515.703000", "155515.706000", "155555.617000", "155555.621000", "155555.624000", "155555.628000", "155555.631000", "155555.634000", "155555.638000", "155555.641000", "155555.644000", "155555.648000", "155555.651000", "155555.654000", "155555.658000", "155555.661000", "155555.664000", "155555.667000", "155555.671000", "155555.674000", "155555.678000", "155555.681000", "155555.684000", "155555.687000", "155555.691000", "155555.694000", "155555.698000", "155555.701000", "155555.704000", "155635.617000", "155635.621000", "155635.624000", "155635.628000", "155635.631000", "155635.634000", "155635.638000", "155635.641000", "155635.644000", "155635.648000", "155635.651000", "155635.654000", "155635.657000", "155635.661000", "155635.664000", "155635.667000", "155635.671000", "155635.681000", "155635.684000", "155635.688000", "155635.693000", "155635.696000", "155635.700000", "155635.704000", "155635.708000", "155635.711000", "155715.617000", "155715.621000", "155715.624000", "155715.628000", "155715.631000", "155715.634000", "155715.638000", "155715.641000", "155715.644000", "155715.648000", "155715.651000", "155715.654000", "155715.658000", "155715.661000", "155715.664000", "155715.668000", "155715.671000", "155715.674000", "155715.678000", "155715.681000", "155715.684000", "155715.687000", "155715.691000", "155715.700000", "155715.703000", "155715.707000", "155715.710000", "155755.617000", "155755.621000", "155755.625000", "155755.628000", "155755.631000", "155755.635000", "155755.638000", "155755.641000", "155755.645000", "155755.648000", "155755.652000", "155755.655000", "155755.658000", "155755.662000", "155755.679000", "155755.683000", "155755.686000", "155755.690000", "155755.693000", "155755.697000", "155755.700000", "155755.704000", "155755.707000", "155755.710000", "155755.714000", "155755.717000", "155755.720000", "155835.617000", "155835.621000", "155835.624000", "155835.630000", "155835.634000", "155835.637000", "155835.640000", "155835.644000", "155835.647000", "155835.651000", "155835.654000", "155835.657000", "155835.661000", "155835.664000", "155835.667000", "155835.671000", "155835.674000", "155835.678000", "155835.681000", "155835.685000", "155835.688000", "155835.691000", "155835.695000", "155835.698000", "155835.701000", "155835.705000", "155835.708000", "155915.617000", "155915.621000", "155915.624000", "155915.628000", "155915.631000", "155915.635000", "155915.638000", "155915.641000", "155915.645000", "155915.648000", "155915.651000", "155915.655000", "155915.658000", "155915.661000", "155915.665000", "155915.668000", "155915.671000", "155915.675000", "155915.678000", "155915.682000", "155915.685000", "155915.688000", "155915.691000", "155915.695000", "155915.698000", "155915.701000", "155915.705000", "155955.616000", "155955.620000", "155955.623000", "155955.627000", "155955.630000", "155955.634000", "155955.637000", "155955.640000", "155955.644000", "155955.647000", "155955.650000", "155955.654000", "155955.657000", "155955.660000", "155955.664000", "155955.674000", "155955.677000", "155955.681000", "155955.684000", "155955.688000", "155955.691000", "155955.694000", "155955.698000", "155955.701000", "155955.704000", "155955.708000", "155955.720000", "160027.545000", "160027.549000", "160027.554000", "160027.558000", "160027.561000", "160027.565000", "160027.569000", "160027.573000", "160027.577000", "160027.581000", "160027.585000", "160027.589000", "160027.592000", "160027.595000", "160027.599000", "160027.602000", "160027.606000", "160027.609000", "160027.613000", "160027.616000", "160027.619000"],
      "InstanceCreationTime": ["155355.653000", "155355.657000", "155355.660000", "155355.664000", "155355.667000", "155355.678000", "155355.681000", "155355.685000", "155355.688000", "155355.692000", "155355.695000", "155355.698000", "155355.702000", "155355.705000", "155415.617000", "155415.621000", "155415.624000", "155415.628000", "155415.631000", "155415.634000", "155415.638000", "155415.641000", "155415.644000", "155415.649000", "155415.652000", "155415.655000", "155415.659000", "155415.662000", "155415.665000", "155415.669000", "155415.672000", "155415.675000", "155415.679000", "155415.682000", "155435.617000", "155435.621000", "155435.624000", "155435.628000", "155435.631000", "155435.634000", "155435.638000", "155435.641000", "155435.644000", "155435.648000", "155435.651000", "155435.654000", "155435.658000", "155435.661000", "155435.664000", "155435.668000", "155435.671000", "155435.674000", "155435.677000", "155435.689000", "155435.692000", "155455.617000", "155455.621000", "155455.624000", "155455.628000", "155455.631000", "155455.645000", "155455.648000", "155455.652000", "155455.655000", "155455.659000", "155455.662000", "155455.665000", "155455.669000", "155455.672000", "155455.675000", "155455.679000", "155455.682000", "155455.686000", "155455.689000", "155455.693000", "155515.616000", "155515.620000", "155515.623000", "155515.627000", "155515.637000", "155515.640000", "155515.643000", "155515.647000", "155515.650000", "155515.656000", "155515.660000", "155515.663000", "155515.666000", "155515.673000", "155515.677000", "155515.680000", "155515.683000", "155515.699000", "155515.703000", "155515.706000", "155555.617000", "155555.621000", "155555.624000", "155555.628000", "155555.631000", "155555.634000", "155555.638000", "155555.641000", "155555.644000", "155555.648000", "155555.651000", "155555.654000", "155555.658000", "155555.661000", "155555.664000", "155555.667000", "155555.671000", "155555.674000", "155555.678000", "155555.681000", "155555.684000", "155555.687000", "155555.691000", "155555.694000", "155555.698000", "155555.701000", "155555.704000", "155635.617000", "155635.621000", "155635.624000", "155635.628000", "155635.631000", "155635.634000", "155635.638000", "155635.641000", "155635.644000", "155635.648000", "155635.651000", "155635.654000", "155635.657000", "155635.661000", "155635.664000", "155635.667000", "155635.671000", "155635.681000", "155635.684000", "155635.688000", "155635.693000", "155635.696000", "155635.700000", "155635.704000", "155635.708000", "155635.711000", "155715.617000", "155715.621000", "155715.624000", "155715.628000", "155715.631000", "155715.634000", "155715.638000", "155715.641000", "155715.644000", "155715.648000", "155715.651000", "155715.654000", "155715.658000", "155715.661000", "155715.664000", "155715.668000", "155715.671000", "155715.674000", "155715.678000", "155715.681000", "155715.684000", "155715.687000", "155715.691000", "155715.700000", "155715.703000", "155715.707000", "155715.710000", "155755.617000", "155755.621000", "155755.625000", "155755.628000", "155755.631000", "155755.635000", "155755.638000", "155755.641000", "155755.645000", "155755.648000", "155755.652000", "155755.655000", "155755.658000", "155755.662000", "155755.679000", "155755.683000", "155755.686000", "155755.690000", "155755.693000", "155755.697000", "155755.700000", "155755.704000", "155755.707000", "155755.710000", "155755.714000", "155755.717000", "155755.720000", "155835.617000", "155835.621000", "155835.624000", "155835.630000", "155835.634000", "155835.637000", "155835.640000", "155835.644000", "155835.647000", "155835.651000", "155835.654000", "155835.657000", "155835.661000", "155835.664000", "155835.667000", "155835.671000", "155835.674000", "155835.678000", "155835.681000", "155835.685000", "155835.688000", "155835.691000", "155835.695000", "155835.698000", "155835.701000", "155835.705000", "155835.708000", "155915.617000", "155915.621000", "155915.624000", "155915.628000", "155915.631000", "155915.635000", "155915.638000", "155915.641000", "155915.645000", "155915.648000", "155915.651000", "155915.655000", "155915.658000", "155915.661000", "155915.665000", "155915.668000", "155915.671000", "155915.675000", "155915.678000", "155915.682000", "155915.685000", "155915.688000", "155915.691000", "155915.695000", "155915.698000", "155915.701000", "155915.705000", "155955.616000", "155955.620000", "155955.623000", "155955.627000", "155955.630000", "155955.634000", "155955.637000", "155955.640000", "155955.644000", "155955.647000", "155955.650000", "155955.654000", "155955.657000", "155955.660000", "155955.664000", "155955.674000", "155955.677000", "155955.681000", "155955.684000", "155955.688000", "155955.691000", "155955.694000", "155955.698000", "155955.701000", "155955.704000", "155955.708000", "155955.720000", "160027.545000", "160027.549000", "160027.554000", "160027.558000", "160027.561000", "160027.565000", "160027.569000", "160027.573000", "160027.577000", "160027.581000", "160027.585000", "160027.589000", "160027.592000", "160027.595000", "160027.599000", "160027.602000", "160027.606000", "160027.609000", "160027.613000", "160027.616000", "160027.619000"],
      "InstanceNumber": [1, 2, 3, 4, 5, 6, 7, 8, 9, 10, 11, 12, 13, 14, 15, 16, 17, 18, 19, 20, 21, 22, 23, 24, 25, 26, 27, 28, 29, 30, 31, 32, 33, 34, 35, 36, 37, 38, 39, 40, 41, 42, 43, 44, 45, 46, 47, 48, 49, 50, 51, 52, 53, 54, 55, 56, 57, 58, 59, 60, 61, 62, 63, 64, 65, 66, 67, 68, 69, 70, 71, 72, 73, 74, 75, 76, 77, 78, 79, 80, 81, 82, 83, 84, 85, 86, 87, 88, 89, 90, 91, 92, 93, 94, 95, 96, 97, 98, 99, 100, 101, 102, 103, 104, 105, 106, 107, 108, 109, 110, 111, 112, 113, 114, 115, 116, 117, 118, 119, 120, 121, 122, 123, 124, 125, 126, 127, 128, 129, 130, 131, 132, 133, 134, 135, 136, 137, 138, 139, 140, 141, 142, 143, 144, 145, 146, 147, 148, 149, 150, 151, 152, 153, 154, 155, 156, 157, 158, 159, 160, 161, 162, 163, 164, 165, 166, 167, 168, 169, 170, 171, 172, 173, 174, 175, 176, 177, 178, 179, 180, 181, 182, 183, 184, 185, 186, 187, 188, 189, 190, 191, 192, 193, 194, 195, 196, 197, 198, 199, 200, 201, 202, 203, 204, 205, 206, 207, 208, 209, 210, 211, 212, 213, 214, 215, 216, 217, 218, 219, 220, 221, 222, 223, 224, 225, 226, 227, 228, 229, 230, 231, 232, 233, 234, 235, 236, 237, 238, 239, 240, 241, 242, 243, 244, 245, 246, 247, 248, 249, 250, 251, 252, 253, 254, 255, 256, 257, 258, 259, 260, 261, 262, 263, 264, 265, 266, 267, 268, 269, 270, 271, 272, 273, 274, 275, 276, 277, 278, 279, 280, 281, 282, 283, 284, 285, 286, 287, 288, 289, 290, 291, 292, 293, 294, 295, 296, 297, 298, 299, 300, 301, 302, 303, 304],
      "LargestImagePixelValue": [40609, 40372, 40396, 39567, 39168, 39071, 37687, 39030, 39277, 38605, 39178, 38394, 39195, 38478, 38908, 38432, 38829, 38256, 39011, 37983, 38615, 38329, 39025, 38884, 38962, 38260, 37947, 38777, 38489, 38255, 39209, 38325, 38929, 38253, 38149, 38348, 38233, 38915, 38810, 38382, 38099, 38192, 38036, 38005, 37891, 38058, 37105, 38336, 37122, 37066, 38357, 37624, 37151, 37315, 37205, 37326, 37692, 37260, 37535, 37948, 37792, 37262, 37356, 37614, 36993, 37305, 37276, 37312, 37303, 37633, 37596, 37488, 37601, 37565, 37898, 37176, 37567, 38389, 37695, 37861, 37486, 37717, 37316, 37411, 37718, 37564, 37765, 37677, 37615, 38691, 37446, 37348, 37281, 37622, 37432, 38173, 37858, 37613, 38322, 38666, 37996, 38560, 38211, 37668, 37548, 37412, 37385, 37765, 38274, 38808, 38398, 38222, 38112, 37781, 37572, 37454, 37360, 37762, 37919, 38142, 38684, 37983, 38483, 37994, 37966, 37820, 37399, 38154, 38297, 37643, 38289, 38533, 38212, 38413, 38373, 38083, 37720, 38670, 37942, 37517, 38097, 38535, 37860, 37166, 38678, 38472, 37545, 38967, 38129, 37955, 38910, 38180, 37162, 38392, 37640, 37843, 37993, 37610, 38117, 37822, 37871, 38021, 37445, 37930, 37080, 37515, 37320, 37463, 37410, 37896, 37285, 38118, 37316, 37505, 37469, 37465, 37361, 38211, 37789, 37876, 37548, 37634, 37590, 37787, 37585, 38483, 38201, 37914, 37812, 38161, 37565, 37797, 37502, 39498, 37757, 37728, 38853, 38181, 37256, 37506, 38189, 38770, 38071, 38495, 38848, 38478, 39330, 38323, 38159, 37582, 37720, 37623, 37871, 37814, 37341, 37455, 36945, 37277, 37747, 37551, 36921, 38540, 36884, 37394, 36508, 36859, 37301, 37684, 37167, 38943, 37811, 37952, 38404, 38505, 37810, 37322, 37315, 37543, 37553, 37099, 37623, 36964, 37926, 38024, 38053, 37189, 37261, 37670, 37577, 38158, 37973, 37620, 37766, 37800, 38113, 37490, 37470, 37651, 37625, 37644, 38020, 38641, 38145, 38475, 38132, 37720, 37457, 37618, 37692, 37796, 36361, 36764, 37758, 37436, 37227, 37516, 36798, 37326, 37010, 37224, 37512, 36983, 37845, 36868, 37359, 37436, 37318, 37067, 36926, 37319, 37682, 37457, 36984, 37065, 36779, 37071, 36802, 36962, 37155, 37588, 37890, 38115, 37477, 37331],
      "WindowCenter": [10110.0, 10123.0, 10121.0, 10119.0, 10107.0, 10083.0, 10064.0, 10081.0, 10102.0, 10101.0, 10098.0, 10077.0, 10072.0, 10067.0, 10090.0, 10093.0, 10091.0, 10086.0, 10084.0, 10058.0, 10051.0, 10028.0, 10032.0, 10038.0, 10054.0, 10059.0, 10079.0, 10079.0, 10063.0, 10053.0, 10069.0, 10060.0, 10074.0, 10079.0, 10072.0, 10072.0, 10065.0, 10087.0, 10093.0, 10090.0, 10075.0, 10054.0, 10055.0, 10063.0, 10057.0, 10054.0, 10060.0, 10092.0, 10080.0, 10089.0, 10088.0, 10068.0, 10066.0, 10057.0, 10032.0, 10028.0, 10025.0, 10038.0, 10054.0, 10059.0, 10052.0, 10064.0, 10072.0, 10070.0, 10055.0, 10055.0, 10042.0, 10056.0, 10079.0, 10081.0, 10067.0, 10056.0, 10063.0, 10065.0, 10064.0, 10059.0, 10073.0, 10085.0, 10087.0, 10082.0, 10067.0, 10063.0, 10058.0, 10048.0, 10055.0, 10050.0, 10058.0, 10056.0, 10049.0, 10066.0, 10065.0, 10098.0, 10079.0, 10059.0, 10040.0, 10066.0, 10077.0, 10088.0, 10084.0, 10064.0, 10040.0, 10034.0, 10069.0, 10097.0, 10095.0, 10078.0, 10069.0, 10067.0, 10072.0, 10049.0, 10027.0, 10046.0, 10067.0, 10079.0, 10073.0, 10064.0, 10062.0, 10076.0, 10092.0, 10108.0, 10119.0, 10109.0, 10114.0, 10125.0, 10119.0, 10114.0, 10098.0, 10100.0, 10089.0, 10101.0, 10115.0, 10106.0, 10090.0, 10090.0, 10098.0, 10070.0, 10102.0, 10100.0, 10081.0, 10052.0, 10042.0, 10047.0, 10060.0, 10074.0, 10081.0, 10082.0, 10084.0, 10118.0, 10094.0, 10084.0, 10075.0, 10052.0, 10024.0, 10031.0, 10049.0, 10076.0, 10071.0, 10101.0, 10089.0, 10080.0, 10065.0, 10052.0, 10045.0, 10051.0, 10061.0, 10075.0, 10088.0, 10091.0, 10075.0, 10078.0, 10086.0, 10103.0, 10089.0, 10074.0, 10080.0, 10072.0, 10078.0, 10103.0, 10096.0, 10082.0, 10054.0, 10052.0, 10070.0, 10069.0, 10064.0, 10027.0, 10038.0, 10075.0, 10099.0, 10090.0, 10050.0, 10035.0, 10038.0, 10060.0, 10071.0, 10048.0, 10031.0, 10053.0, 10056.0, 10046.0, 10019.0, 9995.0, 9985.0, 10011.0, 10048.0, 10057.0, 10068.0, 10098.0, 10094.0, 10078.0, 10076.0, 10083.0, 10070.0, 10071.0, 10070.0, 10053.0, 10064.0, 10082.0, 10089.0, 10057.0, 10059.0, 10058.0, 10032.0, 10038.0, 10018.0, 10016.0, 10003.0, 9993.0, 9995.0, 10048.0, 10059.0, 10043.0, 10040.0, 10066.0, 10072.0, 10070.0, 10077.0, 10089.0, 10105.0, 10096.0, 10111.0, 10098.0, 10093.0, 10084.0, 10067.0, 10067.0, 10064.0, 10075.0, 10062.0, 10050.0, 10049.0, 10060.0, 10077.0, 10070.0, 10065.0, 10060.0, 10068.0, 10068.0, 10051.0, 10051.0, 10043.0, 10018.0, 10061.0, 10106.0, 10081.0, 10066.0, 10083.0, 10110.0, 10091.0, 10085.0, 10053.0, 10032.0, 10016.0, 10000.0, 9993.0, 9999.0, 9972.0, 9968.0, 9969.0, 9993.0, 10041.0, 10061.0, 10082.0, 10086.0, 10088.0, 10085.0, 10084.0, 10077.0, 10069.0, 10052.0, 10044.0, 10068.0, 10091.0, 10093.0, 10061.0, 10044.0, 10006.0, 9984.0, 9991.0, 10012.0, 10014.0, 10000.0, 9975.0, 9982.0],
