{
  "AcquisitionMatrixPE": 104,
  "AcquisitionNumber": 1,
  "AcquisitionTime": "15:52:53.210000",
  "BandwidthPerPixelPhaseEncode": 17.17,
  "BaseResolution": 104,
  "BodyPartExamined": "BRAIN",
  "CoilCombinationMethod": "Sum of Squares",
  "ConsistencyInfo": "N4_VE11C_LATEST_20160120",
  "ConversionSoftware": "dcm2niix",
  "ConversionSoftwareVersion": "v1.0.20220505",
  "DerivedVendorReportedEchoSpacing": 0.000560011,
  "DeviceSerialNumber": "167006",
  "DwellTime": 2.1e-06,
  "EchoTime": 0.037,
  "EchoTime1": 0.037,
  "EchoTime2": 0.001,
  "EchoTrainLength": 104,
  "EffectiveEchoSpacing": 0.000560011,
  "FlipAngle": 52,
  "HeudiconvVersion": "0.5.3.post811+g6206e14",
  "ImageComments": "Unaliased MB4/PE3/LB",
  "ImageOrientationPatientDICOM": [0.998497, -0.0505358, 0.0212311, 0.0547758, 0.93445, -0.351857],
  "ImageOrientationText": "Tra>Cor(-20.6)>Sag(0.1)",
  "ImageType": [
    "ORIGINAL",
    "PRIMARY",
    "P",
    "MB",
    "ND",
    "MOSAIC",
    "PHASE"
],
  "ImagingFrequency": 123.26,
  "InPlanePhaseEncodingDirectionDICOM": "COL",
  "InstitutionAddress": "Chemin Queen-Mary 4565,Montreal,District,CA,H3W 1W5",
  "InstitutionName": "IUGM",
  "InstitutionalDepartmentName": "Department",
  "MRAcquisitionType": "2D",
  "MagneticFieldStrength": 3,
  "Manufacturer": "Siemens",
  "ManufacturersModelName": "Prisma_fit",
  "MatrixCoilMode": "SENSE",
  "Modality": "MR",
  "MultibandAccelerationFactor": 4,
  "PartialFourier": 1,
  "PatientPosition": "HFS",
  "PercentPhaseFOV": 100,
  "PercentSampling": 100,
  "PhaseEncodingDirection": "j",
  "PhaseEncodingSteps": 104,
  "PhaseResolution": 1,
  "PixelBandwidth": 2290,
  "ProcedureStepDescription": "games^mario3",
  "ProtocolName": "func_task-mario3_run-01",
  "PulseSequenceDetails": "%CustomerSeq%\\cmrr_mbep2d_bold",
  "ReceiveCoilActiveElements": "HC1-7;NC1,2",
  "ReceiveCoilName": "HeadNeck_64",
  "ReconMatrixPE": 104,
  "RepetitionTime": 1.49,
  "SAR": 0.0456711,
  "ScanOptions": "FS",
  "ScanningSequence": "EP",
  "SequenceName": "epfid2d1_104",
  "SequenceVariant": "SK\\SS",
  "SeriesDescription": "func_task-mario3_run-01",
  "SeriesNumber": 11,
  "ShimSetting": [613, -7268, -8824, 521, 2, -196, -83, 9],
  "SliceThickness": 2,
  "SliceTiming": [0, 0.785, 0.1, 0.8825, 0.1975, 0.98, 0.295, 1.08, 0.3925, 1.1775, 0.49, 1.275, 0.59, 1.3725, 0.6875, 0, 0.785, 0.1, 0.8825, 0.1975, 0.98, 0.295, 1.08, 0.3925, 1.1775, 0.49, 1.275, 0.59, 1.3725, 0.6875, 0, 0.785, 0.1, 0.8825, 0.1975, 0.98, 0.295, 1.08, 0.3925, 1.1775, 0.49, 1.275, 0.59, 1.3725, 0.6875, 0, 0.785, 0.1, 0.8825, 0.1975, 0.98, 0.295, 1.08, 0.3925, 1.1775, 0.49, 1.275, 0.59, 1.3725, 0.6875],
  "SoftwareVersions": "syngo MR E11",
  "SpacingBetweenSlices": 2,
  "StationName": "MRC35049",
  "TaskName": "mario3",
  "TotalReadoutTime": 0.0576811,
  "TxRefAmp": 233.77,
  "WipMemBlock": "931ed7e6-7aed-48dc-917d-45189509e0a9||Sequence: R017 ve11c/master r/75a17815+; Jun 28 2022 16:32:11 by eja",
  "dcmmeta_affine": [
    [-1.996993064880371, 0.10955169051885605, 0.004116130527108908, 101.0769271850586],
    [0.10107161104679108, 1.8688997030258179, -0.70498126745224, -69.56198120117188],
    [0.04246226325631142, 0.7037133574485779, 1.8716261386871338, -68.80582427978516],
    [0.0, 0.0, 0.0, 1.0]
],
  "dcmmeta_reorient_transform": [
    [0.0, -1.0, 0.0, 103.0],
    [1.0, 0.0, 0.0, 0.0],
    [0.0, 0.0, 1.0, 0.0],
    [0.0, 0.0, 0.0, 1.0]
],
  "dcmmeta_shape": [104, 104, 60, 304],
  "dcmmeta_slice_dim": 2,
  "dcmmeta_version": 0.6,
  "global": {
    "const": {
      "AcquisitionMatrix": [104, 0, 0, 104],
      "AngioFlag": "N",
      "BitsAllocated": 16,
      "BitsStored": 16,
      "BodyPartExamined": "BRAIN",
      "Columns": 832,
      "EchoNumbers": 1,
      "EchoTime": 37.0,
      "EchoTrainLength": 104,
      "FlipAngle": 52.0,
      "HighBit": 15,
      "ImageOrientationPatient": [0.99849655548564, -0.0505358066529, 0.02123113113479, 0.05477584367441, 0.93444982719033, -0.3518566859017],
      "ImagePositionPatient": [-879.14306089631, -766.42409257436, 244.37205702504],
      "ImageType": [
        "ORIGINAL",
        "PRIMARY",
        "P",
        "MB",
        "ND",
        "MOSAIC"
],
      "ImagedNucleus": "1H",
      "ImagingFrequency": 123.26011,
      "InPlanePhaseEncodingDirection": "COL",
      "LargestImagePixelValue": 4095,
      "MRAcquisitionType": "2D",
      "MagneticFieldStrength": 3.0,
      "Manufacturer": "SIEMENS",
      "ManufacturerModelName": "Prisma_fit",
      "Modality": "MR",
      "NumberOfAverages": 1.0,
      "NumberOfPhaseEncodingSteps": 104,
      "PercentPhaseFieldOfView": 100.0,
      "PercentSampling": 100.0,
      "PerformedProcedureStepStartTime": "154931.144000",
      "PhotometricInterpretation": "MONOCHROME2",
      "PixelBandwidth": 2290.0,
      "PixelRepresentation": 0,
      "PixelSpacing": [2.0, 2.0],
      "ProtocolName": "func_task-mario3_run-01",
      "RepetitionTime": 1490.0,
      "RescaleIntercept": -4096.0,
      "RescaleSlope": 2.0,
      "RescaleType": "US",
      "Rows": 832,
      "SAR": 0.04567111734098,
      "SamplesPerPixel": 1,
      "ScanOptions": "FS",
      "ScanningSequence": "EP",
      "SequenceName": "epfid2d1_104",
      "SequenceVariant": [
        "SK",
        "SS"
],
      "SeriesDescription": "func_task-mario3_run-01",
      "SeriesNumber": 11,
      "SeriesTime": "155355.761000",
      "SliceLocation": -39.661420388849,
      "SliceThickness": 2.0,
      "SmallestImagePixelValue": 0,
      "SoftwareVersions": "syngo MR E11",
      "SpacingBetweenSlices": 1.9999999729678,
      "SpecificCharacterSet": "ISO_IR 100",
      "StudyID": "1",
      "StudyTime": "154931.073000",
      "TransmitCoilName": "Body",
      "VariableFlipAngleFlag": "N",
      "WindowCenterWidthExplanation": "Algo1",
      "dBdt": 0.0},
    "slices": {}
  },
  "time": {
    "samples": {
      "AcquisitionNumber": [1, 2, 3, 4, 5, 6, 7, 8, 9, 10, 11, 12, 13, 14, 15, 16, 17, 18, 19, 20, 21, 22, 23, 24, 25, 26, 27, 28, 29, 30, 31, 32, 33, 34, 35, 36, 37, 38, 39, 40, 41, 42, 43, 44, 45, 46, 47, 48, 49, 50, 51, 52, 53, 54, 55, 56, 57, 58, 59, 60, 61, 62, 63, 64, 65, 66, 67, 68, 69, 70, 71, 72, 73, 74, 75, 76, 77, 78, 79, 80, 81, 82, 83, 84, 85, 86, 87, 88, 89, 90, 91, 92, 93, 94, 95, 96, 97, 98, 99, 100, 101, 102, 103, 104, 105, 106, 107, 108, 109, 110, 111, 112, 113, 114, 115, 116, 117, 118, 119, 120, 121, 122, 123, 124, 125, 126, 127, 128, 129, 130, 131, 132, 133, 134, 135, 136, 137, 138, 139, 140, 141, 142, 143, 144, 145, 146, 147, 148, 149, 150, 151, 152, 153, 154, 155, 156, 157, 158, 159, 160, 161, 162, 163, 164, 165, 166, 167, 168, 169, 170, 171, 172, 173, 174, 175, 176, 177, 178, 179, 180, 181, 182, 183, 184, 185, 186, 187, 188, 189, 190, 191, 192, 193, 194, 195, 196, 197, 198, 199, 200, 201, 202, 203, 204, 205, 206, 207, 208, 209, 210, 211, 212, 213, 214, 215, 216, 217, 218, 219, 220, 221, 222, 223, 224, 225, 226, 227, 228, 229, 230, 231, 232, 233, 234, 235, 236, 237, 238, 239, 240, 241, 242, 243, 244, 245, 246, 247, 248, 249, 250, 251, 252, 253, 254, 255, 256, 257, 258, 259, 260, 261, 262, 263, 264, 265, 266, 267, 268, 269, 270, 271, 272, 273, 274, 275, 276, 277, 278, 279, 280, 281, 282, 283, 284, 285, 286, 287, 288, 289, 290, 291, 292, 293, 294, 295, 296, 297, 298, 299, 300, 301, 302, 303, 304],
      "AcquisitionTime": ["155253.210000", "155254.700000", "155256.190000", "155257.680000", "155259.170000", "155300.660000", "155302.150000", "155303.640000", "155305.130000", "155306.620000", "155308.110000", "155309.600000", "155311.090000", "155312.580000", "155314.070000", "155315.560000", "155317.050000", "155318.540000", "155320.030000", "155321.520000", "155323.010000", "155324.500000", "155325.990000", "155327.480000", "155328.970000", "155330.460000", "155331.950000", "155333.440000", "155334.930000", "155336.420000", "155337.910000", "155339.400000", "155340.890000", "155342.380000", "155343.870000", "155345.360000", "155346.850000", "155348.340000", "155349.830000", "155351.320000", "155352.810000", "155354.300000", "155355.790000", "155357.280000", "155358.770000", "155400.260000", "155401.750000", "155403.240000", "155404.730000", "155406.220000", "155407.710000", "155409.200000", "155410.690000", "155412.180000", "155413.670000", "155415.160000", "155416.650000", "155418.140000", "155419.630000", "155421.120000", "155422.610000", "155424.100000", "155425.590000", "155427.080000", "155428.570000", "155430.060000", "155431.550000", "155433.040000", "155434.530000", "155436.020000", "155437.510000", "155439.000000", "155440.490000", "155441.980000", "155443.470000", "155444.960000", "155446.450000", "155447.940000", "155449.430000", "155450.920000", "155452.410000", "155453.900000", "155455.390000", "155456.880000", "155458.370000", "155459.860000", "155501.350000", "155502.840000", "155504.330000", "155505.820000", "155507.310000", "155508.800000", "155510.290000", "155511.780000", "155513.270000", "155514.760000", "155516.250000", "155517.740000", "155519.230000", "155520.720000", "155522.210000", "155523.700000", "155525.190000", "155526.680000", "155528.170000", "155529.660000", "155531.150000", "155532.640000", "155534.130000", "155535.620000", "155537.110000", "155538.600000", "155540.090000", "155541.580000", "155543.070000", "155544.560000", "155546.050000", "155547.540000", "155549.030000", "155550.520000", "155552.010000", "155553.500000", "155554.990000", "155556.480000", "155557.970000", "155559.460000", "155600.950000", "155602.440000", "155603.930000", "155605.420000", "155606.910000", "155608.400000", "155609.890000", "155611.380000", "155612.870000", "155614.360000", "155615.850000", "155617.340000", "155618.830000", "155620.320000", "155621.810000", "155623.300000", "155624.790000", "155626.280000", "155627.770000", "155629.260000", "155630.750000", "155632.240000", "155633.730000", "155635.220000", "155636.710000", "155638.200000", "155639.690000", "155641.180000", "155642.670000", "155644.160000", "155645.650000", "155647.140000", "155648.630000", "155650.120000", "155651.610000", "155653.100000", "155654.590000", "155656.080000", "155657.570000", "155659.060000", "155700.550000", "155702.040000", "155703.530000", "155705.020000", "155706.510000", "155708.000000", "155709.490000", "155710.980000", "155712.470000", "155713.960000", "155715.450000", "155716.940000", "155718.430000", "155719.920000", "155721.410000", "155722.900000", "155724.390000", "155725.880000", "155727.370000", "155728.860000", "155730.350000", "155731.840000", "155733.330000", "155734.820000", "155736.310000", "155737.800000", "155739.290000", "155740.780000", "155742.270000", "155743.760000", "155745.250000", "155746.740000", "155748.230000", "155749.720000", "155751.210000", "155752.700000", "155754.190000", "155755.680000", "155757.170000", "155758.660000", "155800.150000", "155801.640000", "155803.130000", "155804.620000", "155806.110000", "155807.600000", "155809.090000", "155810.580000", "155812.070000", "155813.560000", "155815.050000", "155816.540000", "155818.030000", "155819.520000", "155821.010000", "155822.500000", "155823.990000", "155825.480000", "155826.970000", "155828.460000", "155829.950000", "155831.440000", "155832.930000", "155834.420000", "155835.910000", "155837.400000", "155838.890000", "155840.380000", "155841.870000", "155843.360000", "155844.850000", "155846.340000", "155847.830000", "155849.320000", "155850.810000", "155852.300000", "155853.790000", "155855.280000", "155856.770000", "155858.260000", "155859.750000", "155901.240000", "155902.730000", "155904.220000", "155905.710000", "155907.200000", "155908.690000", "155910.180000", "155911.670000", "155913.160000", "155914.650000", "155916.140000", "155917.630000", "155919.120000", "155920.610000", "155922.100000", "155923.590000", "155925.080000", "155926.570000", "155928.060000", "155929.550000", "155931.040000", "155932.530000", "155934.020000", "155935.510000", "155937.000000", "155938.490000", "155939.980000", "155941.470000", "155942.960000", "155944.450000", "155945.940000", "155947.430000", "155948.920000", "155950.410000", "155951.900000", "155953.390000", "155954.880000", "155956.370000", "155957.860000", "155959.350000", "160000.840000", "160002.330000", "160003.820000", "160005.310000", "160006.800000", "160008.290000", "160009.780000", "160011.270000", "160012.760000", "160014.250000", "160015.740000", "160017.230000", "160018.720000", "160020.210000", "160021.700000", "160023.190000", "160024.680000"],
      "ContentTime": ["155355.763000", "155355.766000", "155355.779000", "155355.786000", "155355.789000", "155355.791000", "155355.794000", "155355.796000", "155355.799000", "155355.801000", "155355.804000", "155355.806000", "155355.808000", "155355.811000", "155415.725000", "155415.728000", "155415.730000", "155415.736000", "155415.739000", "155415.741000", "155415.744000", "155415.747000", "155415.749000", "155415.752000", "155415.754000", "155415.757000", "155415.759000", "155415.762000", "155415.771000", "155415.774000", "155415.776000", "155415.779000", "155415.781000", "155415.784000", "155435.741000", "155435.744000", "155435.746000", "155435.749000", "155435.751000", "155435.754000", "155435.757000", "155435.759000", "155435.762000", "155435.764000", "155435.767000", "155435.769000", "155435.772000", "155435.774000", "155435.777000", "155435.779000", "155435.782000", "155435.784000", "155435.787000", "155435.789000", "155435.792000", "155455.735000", "155455.738000", "155455.740000", "155455.743000", "155455.745000", "155455.748000", "155455.750000", "155455.753000", "155455.755000", "155455.758000", "155455.760000", "155455.763000", "155455.765000", "155455.768000", "155455.770000", "155455.773000", "155455.776000", "155455.778000", "155455.781000", "155455.784000", "155515.751000", "155515.754000", "155515.756000", "155515.759000", "155515.761000", "155515.764000", "155515.766000", "155515.800000", "155515.803000", "155515.805000", "155515.808000", "155515.810000", "155515.813000", "155515.816000", "155515.818000", "155515.821000", "155515.823000", "155515.826000", "155515.828000", "155515.831000", "155555.760000", "155555.763000", "155555.765000", "155555.768000", "155555.851000", "155555.853000", "155555.856000", "155555.858000", "155555.861000", "155555.863000", "155555.866000", "155555.868000", "155555.871000", "155555.873000", "155555.876000", "155555.878000", "155555.880000", "155555.883000", "155555.885000", "155555.888000", "155555.891000", "155555.893000", "155555.896000", "155555.898000", "155555.901000", "155555.903000", "155555.906000", "155635.779000", "155635.782000", "155635.784000", "155635.787000", "155635.789000", "155635.792000", "155635.794000", "155635.797000", "155635.799000", "155635.802000", "155635.804000", "155635.807000", "155635.809000", "155635.812000", "155635.814000", "155635.817000", "155635.819000", "155635.822000", "155635.824000", "155635.827000", "155635.829000", "155635.832000", "155635.834000", "155635.837000", "155635.839000", "155635.842000", "155715.764000", "155715.767000", "155715.769000", "155715.772000", "155715.775000", "155715.778000", "155715.781000", "155715.783000", "155715.786000", "155715.788000", "155715.791000", "155715.793000", "155715.796000", "155715.798000", "155715.801000", "155715.803000", "155715.806000", "155715.808000", "155715.811000", "155715.813000", "155715.816000", "155715.818000", "155715.821000", "155715.823000", "155715.826000", "155715.829000", "155715.831000", "155755.767000", "155755.769000", "155755.772000", "155755.775000", "155755.777000", "155755.780000", "155755.783000", "155755.785000", "155755.788000", "155755.790000", "155755.793000", "155755.796000", "155755.798000", "155755.801000", "155755.803000", "155755.806000", "155755.809000", "155755.811000", "155755.814000", "155755.816000", "155755.819000", "155755.822000", "155755.824000", "155755.827000", "155755.829000", "155755.832000", "155755.834000", "155835.751000", "155835.754000", "155835.757000", "155835.759000", "155835.762000", "155835.764000", "155835.767000", "155835.770000", "155835.772000", "155835.775000", "155835.777000", "155835.780000", "155835.783000", "155835.786000", "155835.788000", "155835.791000", "155835.793000", "155835.796000", "155835.798000", "155835.801000", "155835.804000", "155835.806000", "155835.809000", "155835.811000", "155835.814000", "155835.816000", "155835.819000", "155915.765000", "155915.768000", "155915.770000", "155915.773000", "155915.775000", "155915.778000", "155915.780000", "155915.783000", "155915.785000", "155915.788000", "155915.790000", "155915.793000", "155915.795000", "155915.798000", "155915.800000", "155915.803000", "155915.805000", "155915.808000", "155915.810000", "155915.813000", "155915.815000", "155915.818000", "155915.821000", "155915.823000", "155915.825000", "155915.828000", "155915.831000", "155955.778000", "155955.781000", "155955.784000", "155955.786000", "155955.789000", "155955.791000", "155955.794000", "155955.796000", "155955.799000", "155955.801000", "155955.804000", "155955.806000", "155955.809000", "155955.811000", "155955.814000", "155955.816000", "155955.819000", "155955.821000", "155955.824000", "155955.826000", "155955.829000", "155955.835000", "155955.838000", "155955.840000", "155955.843000", "155955.845000", "155955.848000", "160027.682000", "160027.685000", "160027.687000", "160027.690000", "160027.692000", "160027.695000", "160027.697000", "160027.700000", "160027.702000", "160027.705000", "160027.708000", "160027.710000", "160027.713000", "160027.715000", "160027.718000", "160027.720000", "160027.731000", "160027.734000", "160027.736000", "160027.740000", "160027.743000"],
      "InstanceCreationTime": ["155355.763000", "155355.766000", "155355.779000", "155355.786000", "155355.789000", "155355.791000", "155355.794000", "155355.796000", "155355.799000", "155355.801000", "155355.804000", "155355.806000", "155355.808000", "155355.811000", "155415.725000", "155415.728000", "155415.730000", "155415.736000", "155415.739000", "155415.741000", "155415.744000", "155415.747000", "155415.749000", "155415.752000", "155415.754000", "155415.757000", "155415.759000", "155415.762000", "155415.771000", "155415.774000", "155415.776000", "155415.779000", "155415.781000", "155415.784000", "155435.741000", "155435.744000", "155435.746000", "155435.749000", "155435.751000", "155435.754000", "155435.757000", "155435.759000", "155435.762000", "155435.764000", "155435.767000", "155435.769000", "155435.772000", "155435.774000", "155435.777000", "155435.779000", "155435.782000", "155435.784000", "155435.787000", "155435.789000", "155435.792000", "155455.735000", "155455.738000", "155455.740000", "155455.743000", "155455.745000", "155455.748000", "155455.750000", "155455.753000", "155455.755000", "155455.758000", "155455.760000", "155455.763000", "155455.765000", "155455.768000", "155455.770000", "155455.773000", "155455.776000", "155455.778000", "155455.781000", "155455.784000", "155515.751000", "155515.754000", "155515.756000", "155515.759000", "155515.761000", "155515.764000", "155515.766000", "155515.800000", "155515.803000", "155515.805000", "155515.808000", "155515.810000", "155515.813000", "155515.816000", "155515.818000", "155515.821000", "155515.823000", "155515.826000", "155515.828000", "155515.831000", "155555.760000", "155555.763000", "155555.765000", "155555.768000", "155555.851000", "155555.853000", "155555.856000", "155555.858000", "155555.861000", "155555.863000", "155555.866000", "155555.868000", "155555.871000", "155555.873000", "155555.876000", "155555.878000", "155555.880000", "155555.883000", "155555.885000", "155555.888000", "155555.891000", "155555.893000", "155555.896000", "155555.898000", "155555.901000", "155555.903000", "155555.906000", "155635.779000", "155635.782000", "155635.784000", "155635.787000", "155635.789000", "155635.792000", "155635.794000", "155635.797000", "155635.799000", "155635.802000", "155635.804000", "155635.807000", "155635.809000", "155635.812000", "155635.814000", "155635.817000", "155635.819000", "155635.822000", "155635.824000", "155635.827000", "155635.829000", "155635.832000", "155635.834000", "155635.837000", "155635.839000", "155635.842000", "155715.764000", "155715.767000", "155715.769000", "155715.772000", "155715.775000", "155715.778000", "155715.781000", "155715.783000", "155715.786000", "155715.788000", "155715.791000", "155715.793000", "155715.796000", "155715.798000", "155715.801000", "155715.803000", "155715.806000", "155715.808000", "155715.811000", "155715.813000", "155715.816000", "155715.818000", "155715.821000", "155715.823000", "155715.826000", "155715.829000", "155715.831000", "155755.767000", "155755.769000", "155755.772000", "155755.775000", "155755.777000", "155755.780000", "155755.783000", "155755.785000", "155755.788000", "155755.790000", "155755.793000", "155755.796000", "155755.798000", "155755.801000", "155755.803000", "155755.806000", "155755.809000", "155755.811000", "155755.814000", "155755.816000", "155755.819000", "155755.822000", "155755.824000", "155755.827000", "155755.829000", "155755.832000", "155755.834000", "155835.751000", "155835.754000", "155835.757000", "155835.759000", "155835.762000", "155835.764000", "155835.767000", "155835.770000", "155835.772000", "155835.775000", "155835.777000", "155835.780000", "155835.783000", "155835.786000", "155835.788000", "155835.791000", "155835.793000", "155835.796000", "155835.798000", "155835.801000", "155835.804000", "155835.806000", "155835.809000", "155835.811000", "155835.814000", "155835.816000", "155835.819000", "155915.765000", "155915.768000", "155915.770000", "155915.773000", "155915.775000", "155915.778000", "155915.780000", "155915.783000", "155915.785000", "155915.788000", "155915.790000", "155915.793000", "155915.795000", "155915.798000", "155915.800000", "155915.803000", "155915.805000", "155915.808000", "155915.810000", "155915.813000", "155915.815000", "155915.818000", "155915.821000", "155915.823000", "155915.825000", "155915.828000", "155915.831000", "155955.778000", "155955.781000", "155955.784000", "155955.786000", "155955.789000", "155955.791000", "155955.794000", "155955.796000", "155955.799000", "155955.801000", "155955.804000", "155955.806000", "155955.809000", "155955.811000", "155955.814000", "155955.816000", "155955.819000", "155955.821000", "155955.824000", "155955.826000", "155955.829000", "155955.835000", "155955.838000", "155955.840000", "155955.843000", "155955.845000", "155955.848000", "160027.682000", "160027.685000", "160027.687000", "160027.690000", "160027.692000", "160027.695000", "160027.697000", "160027.700000", "160027.702000", "160027.705000", "160027.708000", "160027.710000", "160027.713000", "160027.715000", "160027.718000", "160027.720000", "160027.731000", "160027.734000", "160027.736000", "160027.740000", "160027.743000"],
      "InstanceNumber": [1, 2, 3, 4, 5, 6, 7, 8, 9, 10, 11, 12, 13, 14, 15, 16, 17, 18, 19, 20, 21, 22, 23, 24, 25, 26, 27, 28, 29, 30, 31, 32, 33, 34, 35, 36, 37, 38, 39, 40, 41, 42, 43, 44, 45, 46, 47, 48, 49, 50, 51, 52, 53, 54, 55, 56, 57, 58, 59, 60, 61, 62, 63, 64, 65, 66, 67, 68, 69, 70, 71, 72, 73, 74, 75, 76, 77, 78, 79, 80, 81, 82, 83, 84, 85, 86, 87, 88, 89, 90, 91, 92, 93, 94, 95, 96, 97, 98, 99, 100, 101, 102, 103, 104, 105, 106, 107, 108, 109, 110, 111, 112, 113, 114, 115, 116, 117, 118, 119, 120, 121, 122, 123, 124, 125, 126, 127, 128, 129, 130, 131, 132, 133, 134, 135, 136, 137, 138, 139, 140, 141, 142, 143, 144, 145, 146, 147, 148, 149, 150, 151, 152, 153, 154, 155, 156, 157, 158, 159, 160, 161, 162, 163, 164, 165, 166, 167, 168, 169, 170, 171, 172, 173, 174, 175, 176, 177, 178, 179, 180, 181, 182, 183, 184, 185, 186, 187, 188, 189, 190, 191, 192, 193, 194, 195, 196, 197, 198, 199, 200, 201, 202, 203, 204, 205, 206, 207, 208, 209, 210, 211, 212, 213, 214, 215, 216, 217, 218, 219, 220, 221, 222, 223, 224, 225, 226, 227, 228, 229, 230, 231, 232, 233, 234, 235, 236, 237, 238, 239, 240, 241, 242, 243, 244, 245, 246, 247, 248, 249, 250, 251, 252, 253, 254, 255, 256, 257, 258, 259, 260, 261, 262, 263, 264, 265, 266, 267, 268, 269, 270, 271, 272, 273, 274, 275, 276, 277, 278, 279, 280, 281, 282, 283, 284, 285, 286, 287, 288, 289, 290, 291, 292, 293, 294, 295, 296, 297, 298, 299, 300, 301, 302, 303, 304],
      "WindowCenter": [4740.0, 4738.0, 4738.0, 4742.0, 4742.0, 4738.0, 4738.0, 4740.0, 4738.0, 4734.0, 4738.0, 4738.0, 4742.0, 4738.0, 4716.0, 4738.0, 4718.0, 4742.0, 4744.0, 4740.0, 4736.0, 4740.0, 4740.0, 4738.0, 4724.0, 4742.0, 4740.0, 4738.0, 4734.0, 4736.0, 4740.0, 4740.0, 4742.0, 4740.0, 4740.0, 4740.0, 4740.0, 4740.0, 4740.0, 4738.0, 4740.0, 4738.0, 4740.0, 4720.0, 4744.0, 4722.0, 4738.0, 4718.0, 4738.0, 4738.0, 4724.0, 4740.0, 4736.0, 4740.0, 4740.0, 4742.0, 4742.0, 4742.0, 4744.0, 4720.0, 4722.0, 4738.0, 4736.0, 4738.0, 4738.0, 4740.0, 4738.0, 4740.0, 4740.0, 4742.0, 4744.0, 4744.0, 4738.0, 4740.0, 4734.0, 4738.0, 4736.0, 4726.0, 4740.0, 4738.0, 4738.0, 4742.0, 4736.0, 4738.0, 4738.0, 4738.0, 4716.0, 4740.0, 4738.0, 4726.0, 4722.0, 4738.0, 4738.0, 4738.0, 4740.0, 4738.0, 4742.0, 4742.0, 4742.0, 4742.0, 4720.0, 4734.0, 4744.0, 4748.0, 4736.0, 4784.0, 4760.0, 4758.0, 4736.0, 4740.0, 4730.0, 4754.0, 4754.0, 4722.0, 4718.0, 4740.0, 4736.0, 4732.0, 4738.0, 4738.0, 4740.0, 4744.0, 4744.0, 4748.0, 4744.0, 4718.0, 4738.0, 4742.0, 4722.0, 4742.0, 4738.0, 4736.0, 4738.0, 4738.0, 4744.0, 4746.0, 4720.0, 4730.0, 4744.0, 4740.0, 4736.0, 4744.0, 4740.0, 4736.0, 4738.0, 4716.0, 4736.0, 4738.0, 4742.0, 4732.0, 4734.0, 4742.0, 4738.0, 4740.0, 4734.0, 4740.0, 4738.0, 4740.0, 4746.0, 4744.0, 4722.0, 4718.0, 4738.0, 4738.0, 4740.0, 4722.0, 4738.0, 4744.0, 4738.0, 4738.0, 4740.0, 4738.0, 4724.0, 4720.0, 4742.0, 4742.0, 4738.0, 4742.0, 4724.0, 4740.0, 4740.0, 4742.0, 4740.0, 4740.0, 4742.0, 4738.0, 4740.0, 4738.0, 4740.0, 4740.0, 4736.0, 4740.0, 4752.0, 4734.0, 4744.0, 4760.0, 4760.0, 4760.0, 4760.0, 4738.0, 4742.0, 4746.0, 4726.0, 4752.0, 4748.0, 4730.0, 4746.0, 4736.0, 4758.0, 4762.0, 4738.0, 4740.0, 4740.0, 4740.0, 4750.0, 4726.0, 4720.0, 4744.0, 4750.0, 4754.0, 4742.0, 4764.0, 4762.0, 4760.0, 4738.0, 4744.0, 4724.0, 4754.0, 4756.0, 4724.0, 4740.0, 4740.0, 4740.0, 4762.0, 4762.0, 4738.0, 4740.0, 4740.0, 4722.0, 4746.0, 4746.0, 4728.0, 4744.0, 4738.0, 4736.0, 4738.0, 4736.0, 4718.0, 4740.0, 4722.0, 4742.0, 4742.0, 4742.0, 4744.0, 4738.0, 4742.0, 4740.0, 4738.0, 4738.0, 4738.0, 4718.0, 4740.0, 4748.0, 4742.0, 4740.0, 4722.0, 4740.0, 4740.0, 4738.0, 4722.0, 4738.0, 4760.0, 4760.0, 4762.0, 4736.0, 4742.0, 4746.0, 4748.0, 4752.0, 4720.0, 4720.0, 4736.0, 4740.0, 4738.0, 4740.0, 4736.0, 4738.0, 4734.0, 4720.0, 4718.0, 4740.0, 4712.0, 4742.0, 4724.0, 4730.0, 4738.0, 4760.0, 4764.0, 4764.0, 4738.0, 4738.0, 4744.0, 4720.0, 4720.0],
      "WindowWidth": [18552.0, 18546.0, 18544.0, 18546.0, 18550.0, 18546.0, 18552.0, 18554.0, 18544.0, 18548.0, 18546.0, 18552.0, 18544.0, 18544.0, 18512.0, 18542.0, 18514.0, 18550.0, 18546.0, 18548.0, 18546.0, 18548.0, 18552.0, 18550.0, 18506.0, 18542.0, 18544.0, 18548.0, 18546.0, 18548.0, 18550.0, 18554.0, 18542.0, 18548.0, 18544.0, 18546.0, 18548.0, 18550.0, 18546.0, 18550.0, 18554.0, 18546.0, 18546.0, 18514.0, 18548.0, 18508.0, 18542.0, 18510.0, 18540.0, 18548.0, 18504.0, 18548.0, 18546.0, 18550.0, 18548.0, 18550.0, 18550.0, 18546.0, 18548.0, 18504.0, 18512.0, 18544.0, 18548.0, 18548.0, 18548.0, 18552.0, 18546.0, 18538.0, 18544.0, 18544.0, 18540.0, 18546.0, 18546.0, 18546.0, 18544.0, 18544.0, 18546.0, 18506.0, 18546.0, 18546.0, 18552.0, 18550.0, 18550.0, 18542.0, 18546.0, 18544.0, 18510.0, 18542.0, 18542.0, 18498.0, 18510.0, 18550.0, 18552.0, 18550.0, 18556.0, 18544.0, 18546.0, 18544.0, 18542.0, 18544.0, 18508.0, 18494.0, 18482.0, 18538.0, 18552.0, 18620.0, 18590.0, 18582.0, 18548.0, 18540.0, 18502.0, 18536.0, 18532.0, 18508.0, 18510.0, 18550.0, 18544.0, 18546.0, 18550.0, 18546.0, 18542.0, 18542.0, 18540.0, 18536.0, 18544.0, 18510.0, 18540.0, 18544.0, 18502.0, 18546.0, 18544.0, 18552.0, 18550.0, 18544.0, 18548.0, 18550.0, 18512.0, 18504.0, 18540.0, 18542.0, 18548.0, 18540.0, 18546.0, 18544.0, 18546.0, 18510.0, 18540.0, 18542.0, 18544.0, 18500.0, 18490.0, 18546.0, 18542.0, 18544.0, 18548.0, 18552.0, 18542.0, 18546.0, 18536.0, 18538.0, 18506.0, 18506.0, 18536.0, 18542.0, 18544.0, 18502.0, 18544.0, 18556.0, 18548.0, 18536.0, 18540.0, 18534.0, 18502.0, 18506.0, 18542.0, 18544.0, 18540.0, 18550.0, 18508.0, 18544.0, 18538.0, 18546.0, 18546.0, 18544.0, 18544.0, 18536.0, 18536.0, 18540.0, 18536.0, 18544.0, 18536.0, 18540.0, 18530.0, 18486.0, 18536.0, 18580.0, 18586.0, 18582.0, 18576.0, 18542.0, 18540.0, 18538.0, 18500.0, 18528.0, 18538.0, 18502.0, 18538.0, 18542.0, 18586.0, 18580.0, 18546.0, 18548.0, 18540.0, 18536.0, 18532.0, 18506.0, 18504.0, 18542.0, 18524.0, 18524.0, 18550.0, 18588.0, 18588.0, 18580.0, 18542.0, 18540.0, 18500.0, 18534.0, 18534.0, 18500.0, 18536.0, 18540.0, 18546.0, 18578.0, 18582.0, 18544.0, 18538.0, 18532.0, 18502.0, 18532.0, 18538.0, 18494.0, 18538.0, 18544.0, 18544.0, 18548.0, 18544.0, 18504.0, 18538.0, 18508.0, 18536.0, 18534.0, 18540.0, 18540.0, 18538.0, 18538.0, 18546.0, 18540.0, 18530.0, 18536.0, 18500.0, 18540.0, 18538.0, 18538.0, 18534.0, 18508.0, 18540.0, 18540.0, 18538.0, 18494.0, 18536.0, 18578.0, 18578.0, 18574.0, 18536.0, 18540.0, 18538.0, 18534.0, 18528.0, 18500.0, 18508.0, 18538.0, 18546.0, 18550.0, 18544.0, 18550.0, 18538.0, 18538.0, 18502.0, 18506.0, 18532.0, 18506.0, 18540.0, 18502.0, 18482.0, 18536.0, 18582.0, 18590.0, 18588.0, 18542.0, 18534.0, 18536.0, 18504.0, 18504.0]
    },
    "slices": {}
  }
}