{
  "AcquisitionMatrixPE": 104,
  "AcquisitionNumber": 1,
  "AcquisitionTime": "11:37:39.962500",
  "BandwidthPerPixelPhaseEncode": 17.17,
  "BaseResolution": 104,
  "BodyPartExamined": "BRAIN",
  "CoilCombinationMethod": "Sum of Squares",
  "ConsistencyInfo": "N4_VE11C_LATEST_20160120",
  "ConversionSoftware": "dcm2niix",
  "ConversionSoftwareVersion": "v1.0.20220505",
  "DerivedVendorReportedEchoSpacing": 0.000560011,
  "DeviceSerialNumber": "167006",
  "DwellTime": 2.1e-06,
  "EchoTime": 0.037,
  "EchoTime1": 0.037,
  "EchoTime2": 0.001,
  "EchoTrainLength": 104,
  "EffectiveEchoSpacing": 0.000560011,
  "FlipAngle": 52,
  "HeudiconvVersion": "0.5.3.post811+g6206e14",
  "ImageComments": "Unaliased MB4/PE3/LB",
  "ImageOrientationPatientDICOM": [0.992768, 0.12003, 0.00221384, -0.111883, 0.931757, -0.345415],
  "ImageOrientationText": "Tra>Cor(-20.1)>Sag(2.5)",
  "ImageType": [
    "ORIGINAL",
    "PRIMARY",
    "P",
    "MB",
    "ND",
    "MOSAIC",
    "PHASE"
],
  "ImagingFrequency": 123.26,
  "InPlanePhaseEncodingDirectionDICOM": "COL",
  "InstitutionAddress": "Chemin Queen-Mary 4565,Montreal,District,CA,H3W 1W5",
  "InstitutionName": "IUGM",
  "InstitutionalDepartmentName": "Department",
  "MRAcquisitionType": "2D",
  "MagneticFieldStrength": 3,
  "Manufacturer": "Siemens",
  "ManufacturersModelName": "Prisma_fit",
  "MatrixCoilMode": "SENSE",
  "Modality": "MR",
  "MultibandAccelerationFactor": 4,
  "PartialFourier": 1,
  "PatientPosition": "HFS",
  "PercentPhaseFOV": 100,
  "PercentSampling": 100,
  "PhaseEncodingDirection": "j",
  "PhaseEncodingSteps": 104,
  "PhaseResolution": 1,
  "PixelBandwidth": 2290,
  "ProcedureStepDescription": "games^mario3",
  "ProtocolName": "func_task-mario3_run-01",
  "PulseSequenceDetails": "%CustomerSeq%\\cmrr_mbep2d_bold",
  "ReceiveCoilActiveElements": "HC1-7;NC1,2",
  "ReceiveCoilName": "HeadNeck_64",
  "ReconMatrixPE": 104,
  "RepetitionTime": 1.49,
  "SAR": 0.0582855,
  "ScanOptions": "FS",
  "ScanningSequence": "EP",
  "SequenceName": "epfid2d1_104",
  "SequenceVariant": "SK\\SS",
  "SeriesDescription": "func_task-mario3_run-01",
  "SeriesNumber": 11,
  "ShimSetting": [608, -7198, -8822, 640, 90, 7, -71, 12],
  "SliceThickness": 2,
  "SliceTiming": [0, 0.785, 0.0975, 0.8825, 0.195, 0.98, 0.295, 1.0775, 0.3925, 1.175, 0.49, 1.275, 0.5875, 1.3725, 0.685, 0, 0.785, 0.0975, 0.8825, 0.195, 0.98, 0.295, 1.0775, 0.3925, 1.175, 0.49, 1.275, 0.5875, 1.3725, 0.685, 0, 0.785, 0.0975, 0.8825, 0.195, 0.98, 0.295, 1.0775, 0.3925, 1.175, 0.49, 1.275, 0.5875, 1.3725, 0.685, 0, 0.785, 0.0975, 0.8825, 0.195, 0.98, 0.295, 1.0775, 0.3925, 1.175, 0.49, 1.275, 0.5875, 1.3725, 0.685],
  "SoftwareVersions": "syngo MR E11",
  "SpacingBetweenSlices": 2,
  "StationName": "MRC35049",
  "TaskName": "mario3",
  "TotalReadoutTime": 0.0576811,
  "TxRefAmp": 274.534,
  "WipMemBlock": "57ccf557-d382-44f6-9210-ed3c5629d762||Sequence: R017 ve11c/master r/75a17815+; Jun 28 2022 16:32:11 by eja",
  "dcmmeta_affine": [
    [-1.9855356216430664, -0.22376617789268494, 0.08704576641321182, 113.15704345703125],
    [-0.24005970358848572, 1.863513469696045, -0.68533855676651, -48.019012451171875],
    [0.0044276840053498745, 0.6908301711082458, 1.8768948316574097, -60.511680603027344],
    [0.0, 0.0, 0.0, 1.0]
],
  "dcmmeta_reorient_transform": [
    [0.0, -1.0, 0.0, 103.0],
    [1.0, 0.0, 0.0, 0.0],
    [0.0, 0.0, 1.0, 0.0],
    [0.0, 0.0, 0.0, 1.0]
],
  "dcmmeta_shape": [104, 104, 60, 368],
  "dcmmeta_slice_dim": 2,
  "dcmmeta_version": 0.6,
  "global": {
    "const": {
      "AcquisitionMatrix": [104, 0, 0, 104],
      "AngioFlag": "N",
      "BitsAllocated": 16,
      "BitsStored": 16,
      "BodyPartExamined": "BRAIN",
      "Columns": 832,
      "EchoNumbers": 1,
      "EchoTime": 37.0,
      "EchoTrainLength": 104,
      "FlipAngle": 52.0,
      "HighBit": 15,
      "ImageOrientationPatient": [0.99276781462423, 0.12002985107661, 0.00221384207894, -0.1118830856221, 0.93175672431547, -0.3454150863014],
      "ImagePositionPatient": [-731.3932074, -909.62349813954, 260.49433431722],
      "ImageType": [
        "ORIGINAL",
        "PRIMARY",
        "P",
        "MB",
        "ND",
        "MOSAIC"
],
      "ImagedNucleus": "1H",
      "ImagingFrequency": 123.260271,
      "InPlanePhaseEncodingDirection": "COL",
      "LargestImagePixelValue": 4095,
      "MRAcquisitionType": "2D",
      "MagneticFieldStrength": 3.0,
      "Manufacturer": "SIEMENS",
      "ManufacturerModelName": "Prisma_fit",
      "Modality": "MR",
      "NumberOfAverages": 1.0,
      "NumberOfPhaseEncodingSteps": 104,
      "PercentPhaseFieldOfView": 100.0,
      "PercentSampling": 100.0,
      "PerformedProcedureStepStartTime": "113353.794000",
      "PhotometricInterpretation": "MONOCHROME2",
      "PixelBandwidth": 2290.0,
      "PixelRepresentation": 0,
      "PixelSpacing": [2.0, 2.0],
      "ProtocolName": "func_task-mario3_run-01",
      "RepetitionTime": 1490.0,
      "RescaleIntercept": -4096.0,
      "RescaleSlope": 2.0,
      "RescaleType": "US",
      "Rows": 832,
      "SAR": 0.0582854643606,
      "SamplesPerPixel": 1,
      "ScanOptions": "FS",
      "ScanningSequence": "EP",
      "SequenceName": "epfid2d1_104",
      "SequenceVariant": [
        "SK",
        "SS"
],
      "SeriesDescription": "func_task-mario3_run-01",
      "SeriesNumber": 11,
      "SeriesTime": "113848.556000",
      "SliceLocation": -35.407465828027,
      "SliceThickness": 2.0,
      "SmallestImagePixelValue": 0,
      "SoftwareVersions": "syngo MR E11",
      "SpacingBetweenSlices": 1.9999999902526,
      "SpecificCharacterSet": "ISO_IR 100",
      "StudyID": "1",
      "StudyTime": "113353.727000",
      "TransmitCoilName": "Body",
      "VariableFlipAngleFlag": "N",
      "WindowCenterWidthExplanation": "Algo1",
      "dBdt": 0.0},
    "slices": {}
  },
  "time": {
    "samples": {
      "AcquisitionNumber": [1, 2, 3, 4, 5, 6, 7, 8, 9, 10, 11, 12, 13, 14, 15, 16, 17, 18, 19, 20, 21, 22, 23, 24, 25, 26, 27, 28, 29, 30, 31, 32, 33, 34, 35, 36, 37, 38, 39, 40, 41, 42, 43, 44, 45, 46, 47, 48, 49, 50, 51, 52, 53, 54, 55, 56, 57, 58, 59, 60, 61, 62, 63, 64, 65, 66, 67, 68, 69, 70, 71, 72, 73, 74, 75, 76, 77, 78, 79, 80, 81, 82, 83, 84, 85, 86, 87, 88, 89, 90, 91, 92, 93, 94, 95, 96, 97, 98, 99, 100, 101, 102, 103, 104, 105, 106, 107, 108, 109, 110, 111, 112, 113, 114, 115, 116, 117, 118, 119, 120, 121, 122, 123, 124, 125, 126, 127, 128, 129, 130, 131, 132, 133, 134, 135, 136, 137, 138, 139, 140, 141, 142, 143, 144, 145, 146, 147, 148, 149, 150, 151, 152, 153, 154, 155, 156, 157, 158, 159, 160, 161, 162, 163, 164, 165, 166, 167, 168, 169, 170, 171, 172, 173, 174, 175, 176, 177, 178, 179, 180, 181, 182, 183, 184, 185, 186, 187, 188, 189, 190, 191, 192, 193, 194, 195, 196, 197, 198, 199, 200, 201, 202, 203, 204, 205, 206, 207, 208, 209, 210, 211, 212, 213, 214, 215, 216, 217, 218, 219, 220, 221, 222, 223, 224, 225, 226, 227, 228, 229, 230, 231, 232, 233, 234, 235, 236, 237, 238, 239, 240, 241, 242, 243, 244, 245, 246, 247, 248, 249, 250, 251, 252, 253, 254, 255, 256, 257, 258, 259, 260, 261, 262, 263, 264, 265, 266, 267, 268, 269, 270, 271, 272, 273, 274, 275, 276, 277, 278, 279, 280, 281, 282, 283, 284, 285, 286, 287, 288, 289, 290, 291, 292, 293, 294, 295, 296, 297, 298, 299, 300, 301, 302, 303, 304, 305, 306, 307, 308, 309, 310, 311, 312, 313, 314, 315, 316, 317, 318, 319, 320, 321, 322, 323, 324, 325, 326, 327, 328, 329, 330, 331, 332, 333, 334, 335, 336, 337, 338, 339, 340, 341, 342, 343, 344, 345, 346, 347, 348, 349, 350, 351, 352, 353, 354, 355, 356, 357, 358, 359, 360, 361, 362, 363, 364, 365, 366, 367, 368],
      "AcquisitionTime": ["113739.962500", "113741.452500", "113742.942500", "113744.432500", "113745.922500", "113747.412500", "113748.902500", "113750.392500", "113751.882500", "113753.372500", "113754.862500", "113756.352500", "113757.842500", "113759.332500", "113800.822500", "113802.312500", "113803.802500", "113805.292500", "113806.782500", "113808.272500", "113809.762500", "113811.252500", "113812.742500", "113814.232500", "113815.722500", "113817.212500", "113818.702500", "113820.192500", "113821.682500", "113823.172500", "113824.662500", "113826.152500", "113827.642500", "113829.132500", "113830.622500", "113832.112500", "113833.602500", "113835.092500", "113836.582500", "113838.072500", "113839.562500", "113841.052500", "113842.542500", "113844.032500", "113845.522500", "113847.012500", "113848.502500", "113849.992500", "113851.482500", "113852.972500", "113854.462500", "113855.952500", "113857.442500", "113858.932500", "113900.422500", "113901.912500", "113903.402500", "113904.892500", "113906.382500", "113907.872500", "113909.362500", "113910.852500", "113912.342500", "113913.832500", "113915.322500", "113916.812500", "113918.302500", "113919.792500", "113921.282500", "113922.772500", "113924.262500", "113925.752500", "113927.242500", "113928.732500", "113930.222500", "113931.712500", "113933.202500", "113934.692500", "113936.182500", "113937.672500", "113939.162500", "113940.652500", "113942.142500", "113943.632500", "113945.122500", "113946.612500", "113948.102500", "113949.592500", "113951.082500", "113952.572500", "113954.062500", "113955.552500", "113957.042500", "113958.532500", "114000.022500", "114001.512500", "114003.002500", "114004.492500", "114005.982500", "114007.472500", "114008.962500", "114010.452500", "114011.942500", "114013.432500", "114014.922500", "114016.412500", "114017.902500", "114019.392500", "114020.882500", "114022.372500", "114023.862500", "114025.352500", "114026.842500", "114028.332500", "114029.822500", "114031.312500", "114032.802500", "114034.292500", "114035.782500", "114037.272500", "114038.762500", "114040.252500", "114041.742500", "114043.232500", "114044.722500", "114046.212500", "114047.702500", "114049.192500", "114050.682500", "114052.172500", "114053.662500", "114055.152500", "114056.642500", "114058.132500", "114059.622500", "114101.112500", "114102.602500", "114104.092500", "114105.582500", "114107.072500", "114108.562500", "114110.052500", "114111.542500", "114113.032500", "114114.522500", "114116.012500", "114117.502500", "114118.992500", "114120.482500", "114121.972500", "114123.462500", "114124.952500", "114126.442500", "114127.932500", "114129.422500", "114130.912500", "114132.402500", "114133.892500", "114135.382500", "114136.872500", "114138.362500", "114139.852500", "114141.342500", "114142.832500", "114144.322500", "114145.812500", "114147.302500", "114148.792500", "114150.282500", "114151.772500", "114153.262500", "114154.752500", "114156.242500", "114157.732500", "114159.222500", "114200.712500", "114202.202500", "114203.692500", "114205.182500", "114206.672500", "114208.162500", "114209.652500", "114211.142500", "114212.632500", "114214.122500", "114215.612500", "114217.102500", "114218.592500", "114220.082500", "114221.572500", "114223.062500", "114224.552500", "114226.042500", "114227.532500", "114229.022500", "114230.512500", "114232.002500", "114233.492500", "114234.982500", "114236.472500", "114237.962500", "114239.452500", "114240.942500", "114242.432500", "114243.922500", "114245.412500", "114246.902500", "114248.392500", "114249.882500", "114251.372500", "114252.862500", "114254.352500", "114255.842500", "114257.332500", "114258.822500", "114300.312500", "114301.802500", "114303.292500", "114304.782500", "114306.272500", "114307.762500", "114309.252500", "114310.742500", "114312.232500", "114313.722500", "114315.212500", "114316.702500", "114318.192500", "114319.682500", "114321.172500", "114322.662500", "114324.152500", "114325.642500", "114327.132500", "114328.622500", "114330.112500", "114331.602500", "114333.092500", "114334.582500", "114336.072500", "114337.562500", "114339.052500", "114340.542500", "114342.032500", "114343.522500", "114345.012500", "114346.502500", "114347.992500", "114349.482500", "114350.972500", "114352.462500", "114353.952500", "114355.442500", "114356.932500", "114358.422500", "114359.912500", "114401.402500", "114402.892500", "114404.382500", "114405.872500", "114407.362500", "114408.852500", "114410.342500", "114411.832500", "114413.322500", "114414.812500", "114416.302500", "114417.792500", "114419.282500", "114420.772500", "114422.262500", "114423.752500", "114425.242500", "114426.732500", "114428.222500", "114429.712500", "114431.202500", "114432.692500", "114434.182500", "114435.672500", "114437.162500", "114438.652500", "114440.142500", "114441.632500", "114443.122500", "114444.612500", "114446.102500", "114447.592500", "114449.082500", "114450.572500", "114452.062500", "114453.552500", "114455.042500", "114456.532500", "114458.022500", "114459.512500", "114501.002500", "114502.492500", "114503.982500", "114505.472500", "114506.962500", "114508.452500", "114509.942500", "114511.432500", "114512.922500", "114514.412500", "114515.902500", "114517.392500", "114518.882500", "114520.372500", "114521.862500", "114523.352500", "114524.842500", "114526.332500", "114527.822500", "114529.312500", "114530.802500", "114532.292500", "114533.782500", "114535.272500", "114536.762500", "114538.252500", "114539.742500", "114541.232500", "114542.722500", "114544.212500", "114545.702500", "114547.192500", "114548.682500", "114550.172500", "114551.662500", "114553.152500", "114554.642500", "114556.132500", "114557.622500", "114559.112500", "114600.602500", "114602.092500", "114603.582500", "114605.072500", "114606.562500", "114608.052500", "114609.542500", "114611.032500", "114612.522500", "114614.012500", "114615.502500", "114616.992500", "114618.482500", "114619.972500", "114621.462500", "114622.952500", "114624.442500", "114625.932500", "114627.422500", "114628.912500", "114630.402500", "114631.892500", "114633.382500", "114634.872500", "114636.362500", "114637.852500", "114639.342500", "114640.832500", "114642.322500", "114643.812500", "114645.302500", "114646.792500"],
      "ContentTime": ["113848.558000", "113848.561000", "113848.564000", "113848.567000", "113848.569000", "113848.573000", "113848.576000", "113848.578000", "113848.581000", "113848.583000", "113848.586000", "113848.589000", "113848.591000", "113848.594000", "113848.596000", "113848.599000", "113848.601000", "113848.604000", "113908.533000", "113908.536000", "113908.539000", "113908.541000", "113908.544000", "113908.546000", "113908.549000", "113908.552000", "113908.556000", "113908.560000", "113908.563000", "113908.566000", "113908.569000", "113908.572000", "113908.575000", "113908.578000", "113908.580000", "113908.583000", "113908.586000", "113908.588000", "113928.549000", "113928.552000", "113928.554000", "113928.557000", "113928.559000", "113928.562000", "113928.564000", "113928.567000", "113928.578000", "113928.580000", "113928.583000", "113928.585000", "113928.588000", "113928.590000", "113928.593000", "113928.595000", "113928.598000", "113928.600000", "113928.603000", "113928.605000", "113948.531000", "113948.534000", "113948.537000", "113948.539000", "113948.551000", "113948.554000", "113948.556000", "113948.559000", "113948.561000", "113948.564000", "113948.566000", "113948.569000", "113948.572000", "113948.574000", "113948.577000", "113948.579000", "113948.582000", "113948.584000", "113948.587000", "113948.590000", "113948.592000", "114008.524000", "114008.527000", "114008.530000", "114008.532000", "114008.535000", "114008.537000", "114008.540000", "114008.543000", "114008.545000", "114008.548000", "114008.550000", "114008.553000", "114008.555000", "114008.558000", "114008.561000", "114008.563000", "114008.566000", "114008.568000", "114008.571000", "114008.574000", "114048.584000", "114048.586000", "114048.589000", "114048.592000", "114048.594000", "114048.597000", "114048.599000", "114048.602000", "114048.605000", "114048.607000", "114048.610000", "114048.612000", "114048.615000", "114048.617000", "114048.620000", "114048.623000", "114048.625000", "114048.628000", "114048.630000", "114048.633000", "114048.635000", "114048.638000", "114048.640000", "114048.643000", "114048.650000", "114048.653000", "114048.656000", "114128.592000", "114128.595000", "114128.597000", "114128.600000", "114128.602000", "114128.605000", "114128.608000", "114128.610000", "114128.613000", "114128.615000", "114128.618000", "114128.621000", "114128.623000", "114128.626000", "114128.628000", "114128.631000", "114128.634000", "114128.636000", "114128.639000", "114128.641000", "114128.644000", "114128.646000", "114128.649000", "114128.652000", "114128.654000", "114128.657000", "114208.542000", "114208.545000", "114208.548000", "114208.551000", "114208.554000", "114208.556000", "114208.559000", "114208.561000", "114208.564000", "114208.567000", "114208.569000", "114208.572000", "114208.575000", "114208.577000", "114208.580000", "114208.582000", "114208.585000", "114208.587000", "114208.590000", "114208.592000", "114208.595000", "114208.598000", "114208.600000", "114208.603000", "114208.606000", "114208.608000", "114208.611000", "114248.573000", "114248.576000", "114248.578000", "114248.581000", "114248.583000", "114248.586000", "114248.589000", "114248.591000", "114248.594000", "114248.596000", "114248.599000", "114248.601000", "114248.604000", "114248.606000", "114248.609000", "114248.612000", "114248.614000", "114248.617000", "114248.620000", "114248.622000", "114248.625000", "114248.627000", "114248.630000", "114248.632000", "114248.635000", "114248.638000", "114248.640000", "114328.576000", "114328.579000", "114328.581000", "114328.584000", "114328.587000", "114328.589000", "114328.592000", "114328.594000", "114328.597000", "114328.600000", "114328.602000", "114328.605000", "114328.607000", "114328.610000", "114328.613000", "114328.615000", "114328.618000", "114328.620000", "114328.623000", "114328.625000", "114328.628000", "114328.631000", "114328.633000", "114328.636000", "114328.639000", "114328.641000", "114328.644000", "114408.572000", "114408.575000", "114408.578000", "114408.580000", "114408.583000", "114408.585000", "114408.588000", "114408.591000", "114408.593000", "114408.596000", "114408.598000", "114408.601000", "114408.603000", "114408.606000", "114408.609000", "114408.611000", "114408.614000", "114408.617000", "114408.619000", "114408.622000", "114408.624000", "114408.627000", "114408.630000", "114408.632000", "114408.635000", "114408.638000", "114408.640000", "114448.557000", "114448.560000", "114448.562000", "114448.565000", "114448.567000", "114448.570000", "114448.572000", "114448.575000", "114448.578000", "114448.580000", "114448.583000", "114448.585000", "114448.588000", "114448.590000", "114448.593000", "114448.595000", "114448.598000", "114448.600000", "114448.603000", "114448.606000", "114448.608000", "114448.611000", "114448.619000", "114448.621000", "114448.624000", "114448.626000", "114448.629000", "114528.554000", "114528.556000", "114528.559000", "114528.562000", "114528.564000", "114528.567000", "114528.569000", "114528.572000", "114528.574000", "114528.585000", "114528.587000", "114528.590000", "114528.592000", "114528.595000", "114528.598000", "114528.600000", "114528.603000", "114528.605000", "114528.608000", "114528.610000", "114528.613000", "114528.616000", "114528.618000", "114528.621000", "114528.623000", "114528.626000", "114528.629000", "114608.558000", "114608.562000", "114608.566000", "114608.569000", "114608.573000", "114608.576000", "114608.580000", "114608.583000", "114608.586000", "114608.589000", "114608.592000", "114608.594000", "114608.597000", "114608.599000", "114608.602000", "114608.605000", "114608.607000", "114608.610000", "114608.612000", "114608.615000", "114608.618000", "114608.620000", "114608.623000", "114608.625000", "114608.628000", "114608.630000", "114649.101000", "114649.104000", "114649.107000", "114649.110000", "114649.112000", "114649.115000", "114649.118000", "114649.120000", "114649.123000", "114649.125000", "114649.137000", "114649.139000", "114649.142000", "114649.145000", "114649.148000", "114649.151000", "114649.155000", "114649.158000", "114649.161000", "114649.163000", "114649.167000", "114649.169000", "114649.172000", "114649.178000", "114649.182000", "114649.186000", "114649.194000", "114649.302000"],
      "InstanceCreationTime": ["113848.558000", "113848.561000", "113848.564000", "113848.567000", "113848.569000", "113848.573000", "113848.576000", "113848.578000", "113848.581000", "113848.583000", "113848.586000", "113848.589000", "113848.591000", "113848.594000", "113848.596000", "113848.599000", "113848.601000", "113848.604000", "113908.533000", "113908.536000", "113908.539000", "113908.541000", "113908.544000", "113908.546000", "113908.549000", "113908.552000", "113908.556000", "113908.560000", "113908.563000", "113908.566000", "113908.569000", "113908.572000", "113908.575000", "113908.578000", "113908.580000", "113908.583000", "113908.586000", "113908.588000", "113928.549000", "113928.552000", "113928.554000", "113928.557000", "113928.559000", "113928.562000", "113928.564000", "113928.567000", "113928.578000", "113928.580000", "113928.583000", "113928.585000", "113928.588000", "113928.590000", "113928.593000", "113928.595000", "113928.598000", "113928.600000", "113928.603000", "113928.605000", "113948.531000", "113948.534000", "113948.537000", "113948.539000", "113948.551000", "113948.554000", "113948.556000", "113948.559000", "113948.561000", "113948.564000", "113948.566000", "113948.569000", "113948.572000", "113948.574000", "113948.577000", "113948.579000", "113948.582000", "113948.584000", "113948.587000", "113948.590000", "113948.592000", "114008.524000", "114008.527000", "114008.530000", "114008.532000", "114008.535000", "114008.537000", "114008.540000", "114008.543000", "114008.545000", "114008.548000", "114008.550000", "114008.553000", "114008.555000", "114008.558000", "114008.561000", "114008.563000", "114008.566000", "114008.568000", "114008.571000", "114008.574000", "114048.584000", "114048.586000", "114048.589000", "114048.592000", "114048.594000", "114048.597000", "114048.599000", "114048.602000", "114048.605000", "114048.607000", "114048.610000", "114048.612000", "114048.615000", "114048.617000", "114048.620000", "114048.623000", "114048.625000", "114048.628000", "114048.630000", "114048.633000", "114048.635000", "114048.638000", "114048.640000", "114048.643000", "114048.650000", "114048.653000", "114048.656000", "114128.592000", "114128.595000", "114128.597000", "114128.600000", "114128.602000", "114128.605000", "114128.608000", "114128.610000", "114128.613000", "114128.615000", "114128.618000", "114128.621000", "114128.623000", "114128.626000", "114128.628000", "114128.631000", "114128.634000", "114128.636000", "114128.639000", "114128.641000", "114128.644000", "114128.646000", "114128.649000", "114128.652000", "114128.654000", "114128.657000", "114208.542000", "114208.545000", "114208.548000", "114208.551000", "114208.554000", "114208.556000", "114208.559000", "114208.561000", "114208.564000", "114208.567000", "114208.569000", "114208.572000", "114208.575000", "114208.577000", "114208.580000", "114208.582000", "114208.585000", "114208.587000", "114208.590000", "114208.592000", "114208.595000", "114208.598000", "114208.600000", "114208.603000", "114208.606000", "114208.608000", "114208.611000", "114248.573000", "114248.576000", "114248.578000", "114248.581000", "114248.583000", "114248.586000", "114248.589000", "114248.591000", "114248.594000", "114248.596000", "114248.599000", "114248.601000", "114248.604000", "114248.606000", "114248.609000", "114248.612000", "114248.614000", "114248.617000", "114248.620000", "114248.622000", "114248.625000", "114248.627000", "114248.630000", "114248.632000", "114248.635000", "114248.638000", "114248.640000", "114328.576000", "114328.579000", "114328.581000", "114328.584000", "114328.587000", "114328.589000", "114328.592000", "114328.594000", "114328.597000", "114328.600000", "114328.602000", "114328.605000", "114328.607000", "114328.610000", "114328.613000", "114328.615000", "114328.618000", "114328.620000", "114328.623000", "114328.625000", "114328.628000", "114328.631000", "114328.633000", "114328.636000", "114328.639000", "114328.641000", "114328.644000", "114408.572000", "114408.575000", "114408.578000", "114408.580000", "114408.583000", "114408.585000", "114408.588000", "114408.591000", "114408.593000", "114408.596000", "114408.598000", "114408.601000", "114408.603000", "114408.606000", "114408.609000", "114408.611000", "114408.614000", "114408.617000", "114408.619000", "114408.622000", "114408.624000", "114408.627000", "114408.630000", "114408.632000", "114408.635000", "114408.638000", "114408.640000", "114448.557000", "114448.560000", "114448.562000", "114448.565000", "114448.567000", "114448.570000", "114448.572000", "114448.575000", "114448.578000", "114448.580000", "114448.583000", "114448.585000", "114448.588000", "114448.590000", "114448.593000", "114448.595000", "114448.598000", "114448.600000", "114448.603000", "114448.606000", "114448.608000", "114448.611000", "114448.619000", "114448.621000", "114448.624000", "114448.626000", "114448.629000", "114528.554000", "114528.556000", "114528.559000", "114528.562000", "114528.564000", "114528.567000", "114528.569000", "114528.572000", "114528.574000", "114528.585000", "114528.587000", "114528.590000", "114528.592000", "114528.595000", "114528.598000", "114528.600000", "114528.603000", "114528.605000", "114528.608000", "114528.610000", "114528.613000", "114528.616000", "114528.618000", "114528.621000", "114528.623000", "114528.626000", "114528.629000", "114608.558000", "114608.562000", "114608.566000", "114608.569000", "114608.573000", "114608.576000", "114608.580000", "114608.583000", "114608.586000", "114608.589000", "114608.592000", "114608.594000", "114608.597000", "114608.599000", "114608.602000", "114608.605000", "114608.607000", "114608.610000", "114608.612000", "114608.615000", "114608.618000", "114608.620000", "114608.623000", "114608.625000", "114608.628000", "114608.630000", "114649.101000", "114649.104000", "114649.107000", "114649.110000", "114649.112000", "114649.115000", "114649.118000", "114649.120000", "114649.123000", "114649.125000", "114649.137000", "114649.139000", "114649.142000", "114649.145000", "114649.148000", "114649.151000", "114649.155000", "114649.158000", "114649.161000", "114649.163000", "114649.167000", "114649.169000", "114649.172000", "114649.178000", "114649.182000", "114649.186000", "114649.194000", "114649.302000"],
      "InstanceNumber": [1, 2, 3, 4, 5, 6, 7, 8, 9, 10, 11, 12, 13, 14, 15, 16, 17, 18, 19, 20, 21, 22, 23, 24, 25, 26, 27, 28, 29, 30, 31, 32, 33, 34, 35, 36, 37, 38, 39, 40, 41, 42, 43, 44, 45, 46, 47, 48, 49, 50, 51, 52, 53, 54, 55, 56, 57, 58, 59, 60, 61, 62, 63, 64, 65, 66, 67, 68, 69, 70, 71, 72, 73, 74, 75, 76, 77, 78, 79, 80, 81, 82, 83, 84, 85, 86, 87, 88, 89, 90, 91, 92, 93, 94, 95, 96, 97, 98, 99, 100, 101, 102, 103, 104, 105, 106, 107, 108, 109, 110, 111, 112, 113, 114, 115, 116, 117, 118, 119, 120, 121, 122, 123, 124, 125, 126, 127, 128, 129, 130, 131, 132, 133, 134, 135, 136, 137, 138, 139, 140, 141, 142, 143, 144, 145, 146, 147, 148, 149, 150, 151, 152, 153, 154, 155, 156, 157, 158, 159, 160, 161, 162, 163, 164, 165, 166, 167, 168, 169, 170, 171, 172, 173, 174, 175, 176, 177, 178, 179, 180, 181, 182, 183, 184, 185, 186, 187, 188, 189, 190, 191, 192, 193, 194, 195, 196, 197, 198, 199, 200, 201, 202, 203, 204, 205, 206, 207, 208, 209, 210, 211, 212, 213, 214, 215, 216, 217, 218, 219, 220, 221, 222, 223, 224, 225, 226, 227, 228, 229, 230, 231, 232, 233, 234, 235, 236, 237, 238, 239, 240, 241, 242, 243, 244, 245, 246, 247, 248, 249, 250, 251, 252, 253, 254, 255, 256, 257, 258, 259, 260, 261, 262, 263, 264, 265, 266, 267, 268, 269, 270, 271, 272, 273, 274, 275, 276, 277, 278, 279, 280, 281, 282, 283, 284, 285, 286, 287, 288, 289, 290, 291, 292, 293, 294, 295, 296, 297, 298, 299, 300, 301, 302, 303, 304, 305, 306, 307, 308, 309, 310, 311, 312, 313, 314, 315, 316, 317, 318, 319, 320, 321, 322, 323, 324, 325, 326, 327, 328, 329, 330, 331, 332, 333, 334, 335, 336, 337, 338, 339, 340, 341, 342, 343, 344, 345, 346, 347, 348, 349, 350, 351, 352, 353, 354, 355, 356, 357, 358, 359, 360, 361, 362, 363, 364, 365, 366, 367, 368],
