{
  "AcquisitionMatrixPE": 104,
  "AcquisitionNumber": 1,
  "AcquisitionTime": "11:48:6.177500",
  "BandwidthPerPixelPhaseEncode": 17.17,
  "BaseResolution": 104,
  "BodyPartExamined": "BRAIN",
  "CoilCombinationMethod": "Sum of Squares",
  "ConsistencyInfo": "N4_VE11C_LATEST_20160120",
  "ConversionSoftware": "dcm2niix",
  "ConversionSoftwareVersion": "v1.0.20220505",
  "DerivedVendorReportedEchoSpacing": 0.000560011,
  "DeviceSerialNumber": "167006",
  "DwellTime": 2.1e-06,
  "EchoTime": 0.037,
  "EchoTrainLength": 104,
  "EffectiveEchoSpacing": 0.000560011,
  "FlipAngle": 52,
  "HeudiconvVersion": "0.5.3.post811+g6206e14",
  "ImageComments": "Unaliased MB4/PE3/LB",
  "ImageOrientationPatientDICOM": [0.992768, 0.12003, 0.00221384, -0.111883, 0.931757, -0.345415],
  "ImageOrientationText": "Tra>Cor(-20.1)>Sag(2.5)",
  "ImageType": [
    "ORIGINAL",
    "PRIMARY",
    "M",
    "MB",
    "ND",
    "MOSAIC"
],
  "ImagingFrequency": 123.26,
  "InPlanePhaseEncodingDirectionDICOM": "COL",
  "InstitutionAddress": "Chemin Queen-Mary 4565,Montreal,District,CA,H3W 1W5",
  "InstitutionName": "IUGM",
  "InstitutionalDepartmentName": "Department",
  "MRAcquisitionType": "2D",
  "MagneticFieldStrength": 3,
  "Manufacturer": "Siemens",
  "ManufacturersModelName": "Prisma_fit",
  "MatrixCoilMode": "SENSE",
  "Modality": "MR",
  "MultibandAccelerationFactor": 4,
  "PartialFourier": 1,
  "PatientPosition": "HFS",
  "PercentPhaseFOV": 100,
  "PercentSampling": 100,
  "PhaseEncodingDirection": "j",
  "PhaseEncodingSteps": 104,
  "PhaseResolution": 1,
  "PixelBandwidth": 2290,
  "ProcedureStepDescription": "games^mario3",
  "ProtocolName": "func_task-mario3_run-02",
  "PulseSequenceDetails": "%CustomerSeq%\\cmrr_mbep2d_bold",
  "ReceiveCoilActiveElements": "HC1-7;NC1,2",
  "ReceiveCoilName": "HeadNeck_64",
  "ReconMatrixPE": 104,
  "RepetitionTime": 1.49,
  "SAR": 0.0582855,
  "ScanOptions": "FS",
  "ScanningSequence": "EP",
  "SequenceName": "epfid2d1_104",
  "SequenceVariant": "SK\\SS",
  "SeriesDescription": "func_task-mario3_run-02",
  "SeriesNumber": 13,
  "ShimSetting": [608, -7198, -8822, 640, 90, 7, -71, 12],
  "SliceThickness": 2,
  "SliceTiming": [0, 0.7825, 0.0975, 0.88, 0.195, 0.98, 0.2925, 1.0775, 0.39, 1.175, 0.49, 1.2725, 0.5875, 1.37, 0.685, 0, 0.7825, 0.0975, 0.88, 0.195, 0.98, 0.2925, 1.0775, 0.39, 1.175, 0.49, 1.2725, 0.5875, 1.37, 0.685, 0, 0.7825, 0.0975, 0.88, 0.195, 0.98, 0.2925, 1.0775, 0.39, 1.175, 0.49, 1.2725, 0.5875, 1.37, 0.685, 0, 0.7825, 0.0975, 0.88, 0.195, 0.98, 0.2925, 1.0775, 0.39, 1.175, 0.49, 1.2725, 0.5875, 1.37, 0.685],
  "SoftwareVersions": "syngo MR E11",
  "SpacingBetweenSlices": 2,
  "StationName": "MRC35049",
  "TaskName": "mario3",
  "TotalReadoutTime": 0.0576811,
  "TxRefAmp": 274.534,
  "WipMemBlock": "1a6718dc-a04b-4556-a4b6-c668b5fe3bab||Sequence: R017 ve11c/master r/75a17815+; Jun 28 2022 16:32:11 by eja",
  "dcmmeta_affine": [
    [-1.9855356216430664, -0.22376617789268494, 0.08704576641321182, 113.15704345703125],
    [-0.24005970358848572, 1.863513469696045, -0.68533855676651, -48.019012451171875],
    [0.0044276840053498745, 0.6908301711082458, 1.8768948316574097, -60.511680603027344],
    [0.0, 0.0, 0.0, 1.0]
],
  "dcmmeta_reorient_transform": [
    [0.0, -1.0, 0.0, 103.0],
    [1.0, 0.0, 0.0, 0.0],
    [0.0, 0.0, 1.0, 0.0],
    [0.0, 0.0, 0.0, 1.0]
],
  "dcmmeta_shape": [104, 104, 60, 315],
  "dcmmeta_slice_dim": 2,
  "dcmmeta_version": 0.6,
  "global": {
    "const": {
      "AcquisitionMatrix": [104, 0, 0, 104],
      "AngioFlag": "N",
      "BitsAllocated": 16,
      "BitsStored": 16,
      "BodyPartExamined": "BRAIN",
      "Columns": 832,
      "EchoNumbers": 1,
      "EchoTime": 37.0,
      "EchoTrainLength": 104,
      "FlipAngle": 52.0,
      "HighBit": 15,
      "ImageOrientationPatient": [0.99276781462423, 0.12002985107661, 0.00221384207894, -0.1118830856221, 0.93175672431547, -0.3454150863014],
      "ImagePositionPatient": [-731.3932074, -909.62349813954, 260.49433431722],
      "ImageType": [
        "ORIGINAL",
        "PRIMARY",
        "M",
        "MB",
        "ND",
        "MOSAIC"
],
      "ImagedNucleus": "1H",
      "ImagingFrequency": 123.260277,
      "InPlanePhaseEncodingDirection": "COL",
      "MRAcquisitionType": "2D",
      "MagneticFieldStrength": 3.0,
      "Manufacturer": "SIEMENS",
      "ManufacturerModelName": "Prisma_fit",
      "Modality": "MR",
      "NumberOfAverages": 1.0,
      "NumberOfPhaseEncodingSteps": 104,
      "PercentPhaseFieldOfView": 100.0,
      "PercentSampling": 100.0,
      "PerformedProcedureStepStartTime": "113353.794000",
      "PhotometricInterpretation": "MONOCHROME2",
      "PixelBandwidth": 2290.0,
      "PixelRepresentation": 0,
      "PixelSpacing": [2.0, 2.0],
      "ProtocolName": "func_task-mario3_run-02",
      "RepetitionTime": 1490.0,
      "Rows": 832,
      "SAR": 0.0582854643606,
      "SamplesPerPixel": 1,
      "ScanOptions": "FS",
      "ScanningSequence": "EP",
      "SequenceName": "epfid2d1_104",
      "SequenceVariant": [
        "SK",
        "SS"
],
      "SeriesDescription": "func_task-mario3_run-02",
      "SeriesNumber": 13,
      "SeriesTime": "114901.239000",
      "SliceLocation": -35.407465828027,
      "SliceThickness": 2.0,
      "SmallestImagePixelValue": 0,
      "SoftwareVersions": "syngo MR E11",
      "SpacingBetweenSlices": 1.9999999902526,
      "SpecificCharacterSet": "ISO_IR 100",
      "StudyID": "1",
      "StudyTime": "113353.727000",
      "TransmitCoilName": "Body",
      "VariableFlipAngleFlag": "N",
      "WindowCenterWidthExplanation": "Algo1",
      "dBdt": 0.0},
    "slices": {}
  },
  "time": {
    "samples": {
      "AcquisitionNumber": [1, 2, 3, 4, 5, 6, 7, 8, 9, 10, 11, 12, 13, 14, 15, 16, 17, 18, 19, 20, 21, 22, 23, 24, 25, 26, 27, 28, 29, 30, 31, 32, 33, 34, 35, 36, 37, 38, 39, 40, 41, 42, 43, 44, 45, 46, 47, 48, 49, 50, 51, 52, 53, 54, 55, 56, 57, 58, 59, 60, 61, 62, 63, 64, 65, 66, 67, 68, 69, 70, 71, 72, 73, 74, 75, 76, 77, 78, 79, 80, 81, 82, 83, 84, 85, 86, 87, 88, 89, 90, 91, 92, 93, 94, 95, 96, 97, 98, 99, 100, 101, 102, 103, 104, 105, 106, 107, 108, 109, 110, 111, 112, 113, 114, 115, 116, 117, 118, 119, 120, 121, 122, 123, 124, 125, 126, 127, 128, 129, 130, 131, 132, 133, 134, 135, 136, 137, 138, 139, 140, 141, 142, 143, 144, 145, 146, 147, 148, 149, 150, 151, 152, 153, 154, 155, 156, 157, 158, 159, 160, 161, 162, 163, 164, 165, 166, 167, 168, 169, 170, 171, 172, 173, 174, 175, 176, 177, 178, 179, 180, 181, 182, 183, 184, 185, 186, 187, 188, 189, 190, 191, 192, 193, 194, 195, 196, 197, 198, 199, 200, 201, 202, 203, 204, 205, 206, 207, 208, 209, 210, 211, 212, 213, 214, 215, 216, 217, 218, 219, 220, 221, 222, 223, 224, 225, 226, 227, 228, 229, 230, 231, 232, 233, 234, 235, 236, 237, 238, 239, 240, 241, 242, 243, 244, 245, 246, 247, 248, 249, 250, 251, 252, 253, 254, 255, 256, 257, 258, 259, 260, 261, 262, 263, 264, 265, 266, 267, 268, 269, 270, 271, 272, 273, 274, 275, 276, 277, 278, 279, 280, 281, 282, 283, 284, 285, 286, 287, 288, 289, 290, 291, 292, 293, 294, 295, 296, 297, 298, 299, 300, 301, 302, 303, 304, 305, 306, 307, 308, 309, 310, 311, 312, 313, 314, 315],
      "AcquisitionTime": ["114806.177500", "114807.667500", "114809.157500", "114810.647500", "114812.137500", "114813.627500", "114815.117500", "114816.607500", "114818.097500", "114819.587500", "114821.077500", "114822.567500", "114824.057500", "114825.547500", "114827.037500", "114828.527500", "114830.017500", "114831.507500", "114832.997500", "114834.487500", "114835.977500", "114837.467500", "114838.957500", "114840.447500", "114841.937500", "114843.427500", "114844.917500", "114846.407500", "114847.897500", "114849.387500", "114850.877500", "114852.367500", "114853.857500", "114855.347500", "114856.837500", "114858.327500", "114859.817500", "114901.307500", "114902.797500", "114904.287500", "114905.777500", "114907.267500", "114908.757500", "114910.247500", "114911.737500", "114913.227500", "114914.717500", "114916.207500", "114917.697500", "114919.187500", "114920.677500", "114922.167500", "114923.657500", "114925.147500", "114926.637500", "114928.127500", "114929.617500", "114931.107500", "114932.597500", "114934.087500", "114935.577500", "114937.067500", "114938.557500", "114940.047500", "114941.537500", "114943.027500", "114944.517500", "114946.007500", "114947.497500", "114948.987500", "114950.477500", "114951.967500", "114953.457500", "114954.947500", "114956.437500", "114957.927500", "114959.417500", "115000.907500", "115002.397500", "115003.887500", "115005.377500", "115006.867500", "115008.357500", "115009.847500", "115011.337500", "115012.827500", "115014.317500", "115015.807500", "115017.297500", "115018.787500", "115020.277500", "115021.767500", "115023.257500", "115024.747500", "115026.237500", "115027.727500", "115029.217500", "115030.707500", "115032.197500", "115033.687500", "115035.177500", "115036.667500", "115038.157500", "115039.647500", "115041.137500", "115042.627500", "115044.117500", "115045.607500", "115047.097500", "115048.587500", "115050.077500", "115051.567500", "115053.057500", "115054.547500", "115056.037500", "115057.527500", "115059.017500", "115100.507500", "115101.997500", "115103.487500", "115104.977500", "115106.467500", "115107.957500", "115109.447500", "115110.937500", "115112.427500", "115113.917500", "115115.407500", "115116.897500", "115118.387500", "115119.877500", "115121.367500", "115122.857500", "115124.347500", "115125.837500", "115127.327500", "115128.817500", "115130.307500", "115131.797500", "115133.287500", "115134.777500", "115136.267500", "115137.757500", "115139.247500", "115140.737500", "115142.227500", "115143.717500", "115145.207500", "115146.697500", "115148.187500", "115149.677500", "115151.167500", "115152.657500", "115154.147500", "115155.637500", "115157.127500", "115158.617500", "115200.107500", "115201.597500", "115203.087500", "115204.577500", "115206.067500", "115207.557500", "115209.047500", "115210.537500", "115212.027500", "115213.517500", "115215.007500", "115216.497500", "115217.987500", "115219.477500", "115220.967500", "115222.457500", "115223.947500", "115225.437500", "115226.927500", "115228.417500", "115229.907500", "115231.397500", "115232.887500", "115234.377500", "115235.867500", "115237.357500", "115238.847500", "115240.337500", "115241.827500", "115243.317500", "115244.807500", "115246.297500", "115247.787500", "115249.277500", "115250.767500", "115252.257500", "115253.747500", "115255.237500", "115256.727500", "115258.217500", "115259.707500", "115301.197500", "115302.687500", "115304.177500", "115305.667500", "115307.157500", "115308.647500", "115310.137500", "115311.627500", "115313.117500", "115314.607500", "115316.097500", "115317.587500", "115319.077500", "115320.567500", "115322.057500", "115323.547500", "115325.037500", "115326.527500", "115328.017500", "115329.507500", "115330.997500", "115332.487500", "115333.977500", "115335.467500", "115336.957500", "115338.447500", "115339.937500", "115341.427500", "115342.917500", "115344.407500", "115345.897500", "115347.387500", "115348.877500", "115350.367500", "115351.857500", "115353.347500", "115354.837500", "115356.327500", "115357.817500", "115359.307500", "115400.797500", "115402.287500", "115403.777500", "115405.267500", "115406.757500", "115408.247500", "115409.737500", "115411.227500", "115412.717500", "115414.207500", "115415.697500", "115417.187500", "115418.677500", "115420.167500", "115421.657500", "115423.147500", "115424.637500", "115426.127500", "115427.617500", "115429.107500", "115430.597500", "115432.087500", "115433.577500", "115435.067500", "115436.557500", "115438.047500", "115439.537500", "115441.027500", "115442.517500", "115444.007500", "115445.497500", "115446.987500", "115448.477500", "115449.967500", "115451.457500", "115452.947500", "115454.437500", "115455.927500", "115457.417500", "115458.907500", "115500.397500", "115501.887500", "115503.377500", "115504.867500", "115506.357500", "115507.847500", "115509.337500", "115510.827500", "115512.317500", "115513.807500", "115515.297500", "115516.787500", "115518.277500", "115519.767500", "115521.257500", "115522.747500", "115524.237500", "115525.727500", "115527.217500", "115528.707500", "115530.197500", "115531.687500", "115533.177500", "115534.667500", "115536.157500", "115537.647500", "115539.137500", "115540.627500", "115542.117500", "115543.607500", "115545.097500", "115546.587500", "115548.077500", "115549.567500", "115551.057500", "115552.547500", "115554.037500"],
      "ContentTime": ["114901.242000", "114901.246000", "114901.249000", "114901.253000", "114921.192000", "114921.196000", "114921.199000", "114921.202000", "114921.206000", "114921.209000", "114921.213000", "114921.217000", "114921.220000", "114921.224000", "114921.227000", "114921.230000", "114921.234000", "114921.237000", "114921.240000", "114921.244000", "114921.247000", "114921.250000", "114921.254000", "114921.257000", "114941.192000", "114941.196000", "114941.199000", "114941.203000", "114941.206000", "114941.209000", "114941.213000", "114941.216000", "114941.230000", "114941.234000", "114941.237000", "114941.240000", "114941.244000", "114941.262000", "114941.265000", "114941.268000", "114941.272000", "114941.275000", "114941.279000", "114941.283000", "114941.287000", "115001.192000", "115001.196000", "115001.199000", "115001.202000", "115001.206000", "115001.209000", "115001.213000", "115001.216000", "115001.219000", "115001.223000", "115001.226000", "115001.229000", "115001.233000", "115001.236000", "115001.239000", "115001.243000", "115001.246000", "115001.249000", "115001.253000", "115001.256000", "115021.192000", "115021.196000", "115021.199000", "115021.202000", "115021.206000", "115021.209000", "115021.213000", "115021.216000", "115021.219000", "115021.230000", "115021.233000", "115021.237000", "115021.240000", "115021.244000", "115021.247000", "115021.250000", "115021.254000", "115021.257000", "115021.260000", "115021.264000", "115101.193000", "115101.197000", "115101.201000", "115101.204000", "115101.207000", "115101.211000", "115101.215000", "115101.218000", "115101.222000", "115101.225000", "115101.229000", "115101.232000", "115101.235000", "115101.239000", "115101.242000", "115101.246000", "115101.249000", "115101.252000", "115101.256000", "115101.266000", "115101.269000", "115101.273000", "115101.276000", "115101.279000", "115101.283000", "115101.286000", "115101.290000", "115101.293000", "115101.296000", "115101.300000", "115101.303000", "115101.306000", "115141.192000", "115141.196000", "115141.199000", "115141.203000", "115141.206000", "115141.210000", "115141.213000", "115141.216000", "115141.220000", "115141.223000", "115141.227000", "115141.230000", "115141.233000", "115141.251000", "115141.254000", "115141.258000", "115141.261000", "115141.265000", "115141.268000", "115141.272000", "115141.276000", "115141.279000", "115141.283000", "115141.286000", "115141.290000", "115141.293000", "115221.192000", "115221.196000", "115221.199000", "115221.203000", "115221.206000", "115221.209000", "115221.213000", "115221.216000", "115221.219000", "115221.223000", "115221.226000", "115221.230000", "115221.233000", "115221.237000", "115221.240000", "115221.264000", "115221.267000", "115221.270000", "115221.274000", "115221.277000", "115221.280000", "115221.284000", "115221.287000", "115221.291000", "115221.294000", "115221.297000", "115221.301000", "115301.193000", "115301.197000", "115301.201000", "115301.205000", "115301.209000", "115301.213000", "115301.218000", "115301.222000", "115301.228000", "115301.232000", "115301.236000", "115301.240000", "115301.245000", "115301.249000", "115301.253000", "115301.257000", "115301.261000", "115301.264000", "115301.268000", "115301.272000", "115301.275000", "115301.279000", "115301.282000", "115301.286000", "115301.289000", "115301.293000", "115301.297000", "115341.193000", "115341.197000", "115341.200000", "115341.204000", "115341.207000", "115341.211000", "115341.214000", "115341.218000", "115341.221000", "115341.224000", "115341.228000", "115341.231000", "115341.235000", "115341.238000", "115341.241000", "115341.245000", "115341.248000", "115341.252000", "115341.255000", "115341.269000", "115341.273000", "115341.276000", "115341.279000", "115341.283000", "115341.286000", "115341.290000", "115341.293000", "115421.192000", "115421.196000", "115421.199000", "115421.203000", "115421.206000", "115421.210000", "115421.213000", "115421.217000", "115421.220000", "115421.223000", "115421.227000", "115421.230000", "115421.234000", "115421.237000", "115421.240000", "115421.244000", "115421.247000", "115421.251000", "115421.254000", "115421.258000", "115421.262000", "115421.265000", "115421.269000", "115421.272000", "115421.275000", "115421.279000", "115421.282000", "115501.192000", "115501.196000", "115501.199000", "115501.203000", "115501.206000", "115501.210000", "115501.213000", "115501.217000", "115501.220000", "115501.223000", "115501.227000", "115501.230000", "115501.234000", "115501.237000", "115501.240000", "115501.244000", "115501.247000", "115501.251000", "115501.254000", "115501.258000", "115501.261000", "115501.265000", "115501.268000", "115501.271000", "115501.275000", "115501.278000", "115501.282000", "115541.192000", "115541.196000", "115541.200000", "115541.203000", "115541.206000", "115541.210000", "115541.213000", "115541.217000", "115541.220000", "115541.224000", "115541.227000", "115541.231000", "115541.234000", "115541.237000", "115541.241000", "115541.244000", "115541.248000", "115541.251000", "115541.254000", "115541.258000", "115541.261000", "115541.265000", "115541.268000", "115541.272000", "115541.275000", "115541.279000", "115557.409000", "115557.413000", "115557.416000", "115557.420000", "115557.423000", "115557.427000", "115557.430000", "115557.434000", "115557.437000", "115557.440000", "115557.444000"],
      "InstanceCreationTime": ["114901.242000", "114901.246000", "114901.249000", "114901.253000", "114921.192000", "114921.196000", "114921.199000", "114921.202000", "114921.206000", "114921.209000", "114921.213000", "114921.217000", "114921.220000", "114921.224000", "114921.227000", "114921.230000", "114921.234000", "114921.237000", "114921.240000", "114921.244000", "114921.247000", "114921.250000", "114921.254000", "114921.257000", "114941.192000", "114941.196000", "114941.199000", "114941.203000", "114941.206000", "114941.209000", "114941.213000", "114941.216000", "114941.230000", "114941.234000", "114941.237000", "114941.240000", "114941.244000", "114941.262000", "114941.265000", "114941.268000", "114941.272000", "114941.275000", "114941.279000", "114941.283000", "114941.287000", "115001.192000", "115001.196000", "115001.199000", "115001.202000", "115001.206000", "115001.209000", "115001.213000", "115001.216000", "115001.219000", "115001.223000", "115001.226000", "115001.229000", "115001.233000", "115001.236000", "115001.239000", "115001.243000", "115001.246000", "115001.249000", "115001.253000", "115001.256000", "115021.192000", "115021.196000", "115021.199000", "115021.202000", "115021.206000", "115021.209000", "115021.213000", "115021.216000", "115021.219000", "115021.230000", "115021.233000", "115021.237000", "115021.240000", "115021.244000", "115021.247000", "115021.250000", "115021.254000", "115021.257000", "115021.260000", "115021.264000", "115101.193000", "115101.197000", "115101.201000", "115101.204000", "115101.207000", "115101.211000", "115101.215000", "115101.218000", "115101.222000", "115101.225000", "115101.229000", "115101.232000", "115101.235000", "115101.239000", "115101.242000", "115101.246000", "115101.249000", "115101.252000", "115101.256000", "115101.266000", "115101.269000", "115101.273000", "115101.276000", "115101.279000", "115101.283000", "115101.286000", "115101.290000", "115101.293000", "115101.296000", "115101.300000", "115101.303000", "115101.306000", "115141.192000", "115141.196000", "115141.199000", "115141.203000", "115141.206000", "115141.210000", "115141.213000", "115141.216000", "115141.220000", "115141.223000", "115141.227000", "115141.230000", "115141.233000", "115141.251000", "115141.254000", "115141.258000", "115141.261000", "115141.265000", "115141.268000", "115141.272000", "115141.276000", "115141.279000", "115141.283000", "115141.286000", "115141.290000", "115141.293000", "115221.192000", "115221.196000", "115221.199000", "115221.203000", "115221.206000", "115221.209000", "115221.213000", "115221.216000", "115221.219000", "115221.223000", "115221.226000", "115221.230000", "115221.233000", "115221.237000", "115221.240000", "115221.264000", "115221.267000", "115221.270000", "115221.274000", "115221.277000", "115221.280000", "115221.284000", "115221.287000", "115221.291000", "115221.294000", "115221.297000", "115221.301000", "115301.193000", "115301.197000", "115301.201000", "115301.205000", "115301.209000", "115301.213000", "115301.218000", "115301.222000", "115301.228000", "115301.232000", "115301.236000", "115301.240000", "115301.245000", "115301.249000", "115301.253000", "115301.257000", "115301.261000", "115301.264000", "115301.268000", "115301.272000", "115301.275000", "115301.279000", "115301.282000", "115301.286000", "115301.289000", "115301.293000", "115301.297000", "115341.193000", "115341.197000", "115341.200000", "115341.204000", "115341.207000", "115341.211000", "115341.214000", "115341.218000", "115341.221000", "115341.224000", "115341.228000", "115341.231000", "115341.235000", "115341.238000", "115341.241000", "115341.245000", "115341.248000", "115341.252000", "115341.255000", "115341.269000", "115341.273000", "115341.276000", "115341.279000", "115341.283000", "115341.286000", "115341.290000", "115341.293000", "115421.192000", "115421.196000", "115421.199000", "115421.203000", "115421.206000", "115421.210000", "115421.213000", "115421.217000", "115421.220000", "115421.223000", "115421.227000", "115421.230000", "115421.234000", "115421.237000", "115421.240000", "115421.244000", "115421.247000", "115421.251000", "115421.254000", "115421.258000", "115421.262000", "115421.265000", "115421.269000", "115421.272000", "115421.275000", "115421.279000", "115421.282000", "115501.192000", "115501.196000", "115501.199000", "115501.203000", "115501.206000", "115501.210000", "115501.213000", "115501.217000", "115501.220000", "115501.223000", "115501.227000", "115501.230000", "115501.234000", "115501.237000", "115501.240000", "115501.244000", "115501.247000", "115501.251000", "115501.254000", "115501.258000", "115501.261000", "115501.265000", "115501.268000", "115501.271000", "115501.275000", "115501.278000", "115501.282000", "115541.192000", "115541.196000", "115541.200000", "115541.203000", "115541.206000", "115541.210000", "115541.213000", "115541.217000", "115541.220000", "115541.224000", "115541.227000", "115541.231000", "115541.234000", "115541.237000", "115541.241000", "115541.244000", "115541.248000", "115541.251000", "115541.254000", "115541.258000", "115541.261000", "115541.265000", "115541.268000", "115541.272000", "115541.275000", "115541.279000", "115557.409000", "115557.413000", "115557.416000", "115557.420000", "115557.423000", "115557.427000", "115557.430000", "115557.434000", "115557.437000", "115557.440000", "115557.444000"],
      "InstanceNumber": [1, 2, 3, 4, 5, 6, 7, 8, 9, 10, 11, 12, 13, 14, 15, 16, 17, 18, 19, 20, 21, 22, 23, 24, 25, 26, 27, 28, 29, 30, 31, 32, 33, 34, 35, 36, 37, 38, 39, 40, 41, 42, 43, 44, 45, 46, 47, 48, 49, 50, 51, 52, 53, 54, 55, 56, 57, 58, 59, 60, 61, 62, 63, 64, 65, 66, 67, 68, 69, 70, 71, 72, 73, 74, 75, 76, 77, 78, 79, 80, 81, 82, 83, 84, 85, 86, 87, 88, 89, 90, 91, 92, 93, 94, 95, 96, 97, 98, 99, 100, 101, 102, 103, 104, 105, 106, 107, 108, 109, 110, 111, 112, 113, 114, 115, 116, 117, 118, 119, 120, 121, 122, 123, 124, 125, 126, 127, 128, 129, 130, 131, 132, 133, 134, 135, 136, 137, 138, 139, 140, 141, 142, 143, 144, 145, 146, 147, 148, 149, 150, 151, 152, 153, 154, 155, 156, 157, 158, 159, 160, 161, 162, 163, 164, 165, 166, 167, 168, 169, 170, 171, 172, 173, 174, 175, 176, 177, 178, 179, 180, 181, 182, 183, 184, 185, 186, 187, 188, 189, 190, 191, 192, 193, 194, 195, 196, 197, 198, 199, 200, 201, 202, 203, 204, 205, 206, 207, 208, 209, 210, 211, 212, 213, 214, 215, 216, 217, 218, 219, 220, 221, 222, 223, 224, 225, 226, 227, 228, 229, 230, 231, 232, 233, 234, 235, 236, 237, 238, 239, 240, 241, 242, 243, 244, 245, 246, 247, 248, 249, 250, 251, 252, 253, 254, 255, 256, 257, 258, 259, 260, 261, 262, 263, 264, 265, 266, 267, 268, 269, 270, 271, 272, 273, 274, 275, 276, 277, 278, 279, 280, 281, 282, 283, 284, 285, 286, 287, 288, 289, 290, 291, 292, 293, 294, 295, 296, 297, 298, 299, 300, 301, 302, 303, 304, 305, 306, 307, 308, 309, 310, 311, 312, 313, 314, 315],
      "LargestImagePixelValue": [45340, 44250, 42996, 44291, 42859, 42268, 42237, 42354, 42184, 42581, 42584, 45300, 42432, 42540, 42670, 42709, 42014, 41376, 42277, 42830, 42923, 41440, 41690, 41350, 42176, 40583, 41385, 42562, 42457, 42095, 38930, 38626, 39178, 38903, 38781, 39727, 40770, 39907, 40089, 39907, 39664, 40437, 39766, 39652, 40636, 39406, 40172, 38799, 39460, 38383, 38881, 38810, 39740, 38818, 41197, 39479, 54619, 43094, 42315, 45345, 41410, 40795, 44121, 40440, 39227, 39667, 40535, 40535, 40397, 41006, 40059, 40248, 39285, 39021, 38684, 39344, 38938, 40143, 40100, 40637, 40297, 40610, 39971, 39515, 39384, 38653, 38228, 39118, 38454, 39249, 38914, 38818, 38888, 38444, 38755, 38261, 38699, 39095, 38881, 38428, 38581, 38413, 38661, 38852, 40209, 39875, 39632, 38807, 38987, 39407, 38873, 38541, 39794, 43762, 43124, 37179, 38052, 38177, 38458, 38993, 41590, 40000, 39461, 39106, 38526, 38989, 39441, 38994, 39474, 40963, 41826, 43364, 42858, 42571, 42819, 43355, 42866, 43375, 42724, 43369, 43502, 42176, 42554, 42672, 42867, 41421, 44694, 42972, 43554, 40649, 43597, 43685, 43154, 42553, 42821, 41188, 40363, 44806, 43341, 42037, 42729, 44071, 42550, 41495, 42698, 43039, 42780, 40637, 40218, 39354, 41403, 41400, 43493, 42440, 40706, 37520, 40553, 44547, 40891, 41163, 41509, 41165, 40641, 38596, 38598, 38573, 38904, 39283, 40391, 40031, 39102, 40208, 39143, 38764, 38574, 40596, 40189, 42149, 42578, 42070, 41746, 38595, 39637, 42093, 43102, 43314, 41746, 42244, 43284, 39127, 39910, 42349, 40979, 42095, 44769, 42992, 44093, 44101, 42046, 43889, 44845, 45702, 42307, 43264, 41633, 41578, 43738, 42158, 44077, 43971, 45113, 46172, 45351, 43970, 44517, 47223, 41434, 37959, 38640, 39405, 41216, 41933, 40557, 41971, 41977, 40974, 40360, 39269, 40125, 39393, 39885, 39733, 38584, 38454, 38606, 39313, 39017, 39110, 39107, 43350, 38666, 39076, 40233, 38739, 39044, 38992, 38926, 38874, 38715, 38952, 38605, 39047, 39039, 38637, 38866, 43198, 39018, 38939, 39333, 38573, 38523, 38933, 39573, 38774, 38704, 38862, 38649, 38560, 38150, 38401, 39127, 38886, 38926, 39726, 38754, 39845, 39299, 39028, 38920, 39528, 39577, 39510, 43682, 39137, 38960, 39182, 39366, 41491, 38942, 38407, 38602, 38719, 40454, 40358, 39054],
      "WindowCenter": [10378.0, 10353.0, 10334.0, 10325.0, 10310.0, 10304.0, 10305.0, 10301.0, 10302.0, 10333.0, 10328.0, 10369.0, 10342.0, 10364.0, 10358.0, 10326.0, 10301.0, 10292.0, 10306.0, 10316.0, 10328.0, 10320.0, 10299.0, 10291.0, 10309.0, 10313.0, 10328.0, 10348.0, 10348.0, 10334.0, 10297.0, 10290.0, 10317.0, 10317.0, 10303.0, 10294.0, 10276.0, 10311.0, 10266.0, 10262.0, 10263.0, 10277.0, 10270.0, 10271.0, 10264.0, 10253.0, 10273.0, 10258.0, 10270.0, 10261.0, 10277.0, 10270.0, 10285.0, 10275.0, 10311.0, 10298.0, 10408.0, 10333.0, 10201.0, 10309.0, 10264.0, 10297.0, 10371.0, 10349.0, 10347.0, 10301.0, 10254.0, 10250.0, 10241.0, 10238.0, 10216.0, 10227.0, 10238.0, 10239.0, 10231.0, 10245.0, 10240.0, 10261.0, 10261.0, 10275.0, 10284.0, 10293.0, 10296.0, 10304.0, 10325.0, 10310.0, 10297.0, 10328.0, 10322.0, 10307.0, 10280.0, 10261.0, 10285.0, 10308.0, 10317.0, 10302.0, 10303.0, 10291.0, 10279.0, 10272.0, 10278.0, 10272.0, 10279.0, 10276.0, 10287.0, 10294.0, 10291.0, 10287.0, 10286.0, 10307.0, 10296.0, 10291.0, 10284.0, 10198.0, 10188.0, 10115.0, 10249.0, 10289.0, 10311.0, 10321.0, 10295.0, 10231.0, 10193.0, 10218.0, 10214.0, 10245.0, 10265.0, 10264.0, 10262.0, 10262.0, 10272.0, 10305.0, 10310.0, 10307.0, 10313.0, 10316.0, 10331.0, 10337.0, 10333.0, 10335.0, 10328.0, 10315.0, 10312.0, 10314.0, 10319.0, 10302.0, 10329.0, 10314.0, 10319.0, 10311.0, 10329.0, 10315.0, 10314.0, 10321.0, 10293.0, 10244.0, 10212.0, 10268.0, 10273.0, 10241.0, 10245.0, 10245.0, 10235.0, 10230.0, 10289.0, 10292.0, 10303.0, 10292.0, 10267.0, 10235.0, 10249.0, 10295.0, 10270.0, 10277.0, 10228.0, 10191.0, 10210.0, 10314.0, 10285.0, 10269.0, 10254.0, 10241.0, 10233.0, 10260.0, 10278.0, 10290.0, 10302.0, 10311.0, 10321.0, 10304.0, 10311.0, 10317.0, 10320.0, 10303.0, 10276.0, 10324.0, 10321.0, 10363.0, 10357.0, 10300.0, 10269.0, 10229.0, 10249.0, 10285.0, 10281.0, 10290.0, 10253.0, 10287.0, 10289.0, 10225.0, 10260.0, 10275.0, 10254.0, 10292.0, 10343.0, 10319.0, 10330.0, 10323.0, 10299.0, 10340.0, 10339.0, 10355.0, 10233.0, 10274.0, 10246.0, 10262.0, 10342.0, 10337.0, 10336.0, 10302.0, 10307.0, 10309.0, 10311.0, 10236.0, 10354.0, 10371.0, 10281.0, 10218.0, 10231.0, 10272.0, 10336.0, 10347.0, 10311.0, 10293.0, 10274.0, 10263.0, 10264.0, 10247.0, 10239.0, 10223.0, 10235.0, 10245.0, 10250.0, 10254.0, 10260.0, 10270.0, 10262.0, 10285.0, 10297.0, 10328.0, 10309.0, 10309.0, 10325.0, 10288.0, 10281.0, 10246.0, 10249.0, 10270.0, 10301.0, 10319.0, 10294.0, 10289.0, 10299.0, 10283.0, 10292.0, 10329.0, 10295.0, 10305.0, 10307.0, 10286.0, 10261.0, 10269.0, 10264.0, 10259.0, 10269.0, 10278.0, 10275.0, 10274.0, 10240.0, 10297.0, 10291.0, 10289.0, 10271.0, 10264.0, 10263.0, 10298.0, 10305.0, 10293.0, 10286.0, 10280.0, 10276.0, 10284.0, 10323.0, 10328.0, 10311.0, 10290.0, 10289.0, 10301.0, 10273.0, 10289.0, 10287.0, 10280.0, 10292.0, 10284.0, 10266.0],
