{
  "AcquisitionMatrixPE": 104,
  "AcquisitionNumber": 1,
  "AcquisitionTime": "11:48:6.177500",
  "BandwidthPerPixelPhaseEncode": 17.17,
  "BaseResolution": 104,
  "BodyPartExamined": "BRAIN",
  "CoilCombinationMethod": "Sum of Squares",
  "ConsistencyInfo": "N4_VE11C_LATEST_20160120",
  "ConversionSoftware": "dcm2niix",
  "ConversionSoftwareVersion": "v1.0.20220505",
  "DerivedVendorReportedEchoSpacing": 0.000560011,
  "DeviceSerialNumber": "167006",
  "DwellTime": 2.1e-06,
  "EchoTime": 0.037,
  "EchoTime1": 0.037,
  "EchoTime2": 0.001,
  "EchoTrainLength": 104,
  "EffectiveEchoSpacing": 0.000560011,
  "FlipAngle": 52,
  "HeudiconvVersion": "0.5.3.post811+g6206e14",
  "ImageComments": "Unaliased MB4/PE3/LB",
  "ImageOrientationPatientDICOM": [0.992768, 0.12003, 0.00221384, -0.111883, 0.931757, -0.345415],
  "ImageOrientationText": "Tra>Cor(-20.1)>Sag(2.5)",
  "ImageType": [
    "ORIGINAL",
    "PRIMARY",
    "P",
    "MB",
    "ND",
    "MOSAIC",
    "PHASE"
],
  "ImagingFrequency": 123.26,
  "InPlanePhaseEncodingDirectionDICOM": "COL",
  "InstitutionAddress": "Chemin Queen-Mary 4565,Montreal,District,CA,H3W 1W5",
  "InstitutionName": "IUGM",
  "InstitutionalDepartmentName": "Department",
  "MRAcquisitionType": "2D",
  "MagneticFieldStrength": 3,
  "Manufacturer": "Siemens",
  "ManufacturersModelName": "Prisma_fit",
  "MatrixCoilMode": "SENSE",
  "Modality": "MR",
  "MultibandAccelerationFactor": 4,
  "PartialFourier": 1,
  "PatientPosition": "HFS",
  "PercentPhaseFOV": 100,
  "PercentSampling": 100,
  "PhaseEncodingDirection": "j",
  "PhaseEncodingSteps": 104,
  "PhaseResolution": 1,
  "PixelBandwidth": 2290,
  "ProcedureStepDescription": "games^mario3",
  "ProtocolName": "func_task-mario3_run-02",
  "PulseSequenceDetails": "%CustomerSeq%\\cmrr_mbep2d_bold",
  "ReceiveCoilActiveElements": "HC1-7;NC1,2",
  "ReceiveCoilName": "HeadNeck_64",
  "ReconMatrixPE": 104,
  "RepetitionTime": 1.49,
  "SAR": 0.0582855,
  "ScanOptions": "FS",
  "ScanningSequence": "EP",
  "SequenceName": "epfid2d1_104",
  "SequenceVariant": "SK\\SS",
  "SeriesDescription": "func_task-mario3_run-02",
  "SeriesNumber": 14,
  "ShimSetting": [608, -7198, -8822, 640, 90, 7, -71, 12],
  "SliceThickness": 2,
  "SliceTiming": [0, 0.7825, 0.0975, 0.88, 0.195, 0.98, 0.2925, 1.0775, 0.39, 1.175, 0.49, 1.2725, 0.5875, 1.37, 0.685, 0, 0.7825, 0.0975, 0.88, 0.195, 0.98, 0.2925, 1.0775, 0.39, 1.175, 0.49, 1.2725, 0.5875, 1.37, 0.685, 0, 0.7825, 0.0975, 0.88, 0.195, 0.98, 0.2925, 1.0775, 0.39, 1.175, 0.49, 1.2725, 0.5875, 1.37, 0.685, 0, 0.7825, 0.0975, 0.88, 0.195, 0.98, 0.2925, 1.0775, 0.39, 1.175, 0.49, 1.2725, 0.5875, 1.37, 0.685],
  "SoftwareVersions": "syngo MR E11",
  "SpacingBetweenSlices": 2,
  "StationName": "MRC35049",
  "TaskName": "mario3",
  "TotalReadoutTime": 0.0576811,
  "TxRefAmp": 274.534,
  "WipMemBlock": "1a6718dc-a04b-4556-a4b6-c668b5fe3bab||Sequence: R017 ve11c/master r/75a17815+; Jun 28 2022 16:32:11 by eja",
  "dcmmeta_affine": [
    [-1.9855356216430664, -0.22376617789268494, 0.08704576641321182, 113.15704345703125],
    [-0.24005970358848572, 1.863513469696045, -0.68533855676651, -48.019012451171875],
    [0.0044276840053498745, 0.6908301711082458, 1.8768948316574097, -60.511680603027344],
    [0.0, 0.0, 0.0, 1.0]
],
  "dcmmeta_reorient_transform": [
    [0.0, -1.0, 0.0, 103.0],
    [1.0, 0.0, 0.0, 0.0],
    [0.0, 0.0, 1.0, 0.0],
    [0.0, 0.0, 0.0, 1.0]
],
  "dcmmeta_shape": [104, 104, 60, 315],
  "dcmmeta_slice_dim": 2,
  "dcmmeta_version": 0.6,
  "global": {
    "const": {
      "AcquisitionMatrix": [104, 0, 0, 104],
      "AngioFlag": "N",
      "BitsAllocated": 16,
      "BitsStored": 16,
      "BodyPartExamined": "BRAIN",
      "Columns": 832,
      "EchoNumbers": 1,
      "EchoTime": 37.0,
      "EchoTrainLength": 104,
      "FlipAngle": 52.0,
      "HighBit": 15,
      "ImageOrientationPatient": [0.99276781462423, 0.12002985107661, 0.00221384207894, -0.1118830856221, 0.93175672431547, -0.3454150863014],
      "ImagePositionPatient": [-731.3932074, -909.62349813954, 260.49433431722],
      "ImageType": [
        "ORIGINAL",
        "PRIMARY",
        "P",
        "MB",
        "ND",
        "MOSAIC"
],
      "ImagedNucleus": "1H",
      "ImagingFrequency": 123.260277,
      "InPlanePhaseEncodingDirection": "COL",
      "LargestImagePixelValue": 4095,
      "MRAcquisitionType": "2D",
      "MagneticFieldStrength": 3.0,
      "Manufacturer": "SIEMENS",
      "ManufacturerModelName": "Prisma_fit",
      "Modality": "MR",
      "NumberOfAverages": 1.0,
      "NumberOfPhaseEncodingSteps": 104,
      "PercentPhaseFieldOfView": 100.0,
      "PercentSampling": 100.0,
      "PerformedProcedureStepStartTime": "113353.794000",
      "PhotometricInterpretation": "MONOCHROME2",
      "PixelBandwidth": 2290.0,
      "PixelRepresentation": 0,
      "PixelSpacing": [2.0, 2.0],
      "ProtocolName": "func_task-mario3_run-02",
      "RepetitionTime": 1490.0,
      "RescaleIntercept": -4096.0,
      "RescaleSlope": 2.0,
      "RescaleType": "US",
      "Rows": 832,
      "SAR": 0.0582854643606,
      "SamplesPerPixel": 1,
      "ScanOptions": "FS",
      "ScanningSequence": "EP",
      "SequenceName": "epfid2d1_104",
      "SequenceVariant": [
        "SK",
        "SS"
],
      "SeriesDescription": "func_task-mario3_run-02",
      "SeriesNumber": 14,
      "SeriesTime": "114901.272000",
      "SliceLocation": -35.407465828027,
      "SliceThickness": 2.0,
      "SmallestImagePixelValue": 0,
      "SoftwareVersions": "syngo MR E11",
      "SpacingBetweenSlices": 1.9999999902526,
      "SpecificCharacterSet": "ISO_IR 100",
      "StudyID": "1",
      "StudyTime": "113353.727000",
      "TransmitCoilName": "Body",
      "VariableFlipAngleFlag": "N",
      "WindowCenterWidthExplanation": "Algo1",
      "dBdt": 0.0},
    "slices": {}
  },
  "time": {
    "samples": {
      "AcquisitionNumber": [1, 2, 3, 4, 5, 6, 7, 8, 9, 10, 11, 12, 13, 14, 15, 16, 17, 18, 19, 20, 21, 22, 23, 24, 25, 26, 27, 28, 29, 30, 31, 32, 33, 34, 35, 36, 37, 38, 39, 40, 41, 42, 43, 44, 45, 46, 47, 48, 49, 50, 51, 52, 53, 54, 55, 56, 57, 58, 59, 60, 61, 62, 63, 64, 65, 66, 67, 68, 69, 70, 71, 72, 73, 74, 75, 76, 77, 78, 79, 80, 81, 82, 83, 84, 85, 86, 87, 88, 89, 90, 91, 92, 93, 94, 95, 96, 97, 98, 99, 100, 101, 102, 103, 104, 105, 106, 107, 108, 109, 110, 111, 112, 113, 114, 115, 116, 117, 118, 119, 120, 121, 122, 123, 124, 125, 126, 127, 128, 129, 130, 131, 132, 133, 134, 135, 136, 137, 138, 139, 140, 141, 142, 143, 144, 145, 146, 147, 148, 149, 150, 151, 152, 153, 154, 155, 156, 157, 158, 159, 160, 161, 162, 163, 164, 165, 166, 167, 168, 169, 170, 171, 172, 173, 174, 175, 176, 177, 178, 179, 180, 181, 182, 183, 184, 185, 186, 187, 188, 189, 190, 191, 192, 193, 194, 195, 196, 197, 198, 199, 200, 201, 202, 203, 204, 205, 206, 207, 208, 209, 210, 211, 212, 213, 214, 215, 216, 217, 218, 219, 220, 221, 222, 223, 224, 225, 226, 227, 228, 229, 230, 231, 232, 233, 234, 235, 236, 237, 238, 239, 240, 241, 242, 243, 244, 245, 246, 247, 248, 249, 250, 251, 252, 253, 254, 255, 256, 257, 258, 259, 260, 261, 262, 263, 264, 265, 266, 267, 268, 269, 270, 271, 272, 273, 274, 275, 276, 277, 278, 279, 280, 281, 282, 283, 284, 285, 286, 287, 288, 289, 290, 291, 292, 293, 294, 295, 296, 297, 298, 299, 300, 301, 302, 303, 304, 305, 306, 307, 308, 309, 310, 311, 312, 313, 314, 315],
      "AcquisitionTime": ["114806.177500", "114807.667500", "114809.157500", "114810.647500", "114812.137500", "114813.627500", "114815.117500", "114816.607500", "114818.097500", "114819.587500", "114821.077500", "114822.567500", "114824.057500", "114825.547500", "114827.037500", "114828.527500", "114830.017500", "114831.507500", "114832.997500", "114834.487500", "114835.977500", "114837.467500", "114838.957500", "114840.447500", "114841.937500", "114843.427500", "114844.917500", "114846.407500", "114847.897500", "114849.387500", "114850.877500", "114852.367500", "114853.857500", "114855.347500", "114856.837500", "114858.327500", "114859.817500", "114901.307500", "114902.797500", "114904.287500", "114905.777500", "114907.267500", "114908.757500", "114910.247500", "114911.737500", "114913.227500", "114914.717500", "114916.207500", "114917.697500", "114919.187500", "114920.677500", "114922.167500", "114923.657500", "114925.147500", "114926.637500", "114928.127500", "114929.617500", "114931.107500", "114932.597500", "114934.087500", "114935.577500", "114937.067500", "114938.557500", "114940.047500", "114941.537500", "114943.027500", "114944.517500", "114946.007500", "114947.497500", "114948.987500", "114950.477500", "114951.967500", "114953.457500", "114954.947500", "114956.437500", "114957.927500", "114959.417500", "115000.907500", "115002.397500", "115003.887500", "115005.377500", "115006.867500", "115008.357500", "115009.847500", "115011.337500", "115012.827500", "115014.317500", "115015.807500", "115017.297500", "115018.787500", "115020.277500", "115021.767500", "115023.257500", "115024.747500", "115026.237500", "115027.727500", "115029.217500", "115030.707500", "115032.197500", "115033.687500", "115035.177500", "115036.667500", "115038.157500", "115039.647500", "115041.137500", "115042.627500", "115044.117500", "115045.607500", "115047.097500", "115048.587500", "115050.077500", "115051.567500", "115053.057500", "115054.547500", "115056.037500", "115057.527500", "115059.017500", "115100.507500", "115101.997500", "115103.487500", "115104.977500", "115106.467500", "115107.957500", "115109.447500", "115110.937500", "115112.427500", "115113.917500", "115115.407500", "115116.897500", "115118.387500", "115119.877500", "115121.367500", "115122.857500", "115124.347500", "115125.837500", "115127.327500", "115128.817500", "115130.307500", "115131.797500", "115133.287500", "115134.777500", "115136.267500", "115137.757500", "115139.247500", "115140.737500", "115142.227500", "115143.717500", "115145.207500", "115146.697500", "115148.187500", "115149.677500", "115151.167500", "115152.657500", "115154.147500", "115155.637500", "115157.127500", "115158.617500", "115200.107500", "115201.597500", "115203.087500", "115204.577500", "115206.067500", "115207.557500", "115209.047500", "115210.537500", "115212.027500", "115213.517500", "115215.007500", "115216.497500", "115217.987500", "115219.477500", "115220.967500", "115222.457500", "115223.947500", "115225.437500", "115226.927500", "115228.417500", "115229.907500", "115231.397500", "115232.887500", "115234.377500", "115235.867500", "115237.357500", "115238.847500", "115240.337500", "115241.827500", "115243.317500", "115244.807500", "115246.297500", "115247.787500", "115249.277500", "115250.767500", "115252.257500", "115253.747500", "115255.237500", "115256.727500", "115258.217500", "115259.707500", "115301.197500", "115302.687500", "115304.177500", "115305.667500", "115307.157500", "115308.647500", "115310.137500", "115311.627500", "115313.117500", "115314.607500", "115316.097500", "115317.587500", "115319.077500", "115320.567500", "115322.057500", "115323.547500", "115325.037500", "115326.527500", "115328.017500", "115329.507500", "115330.997500", "115332.487500", "115333.977500", "115335.467500", "115336.957500", "115338.447500", "115339.937500", "115341.427500", "115342.917500", "115344.407500", "115345.897500", "115347.387500", "115348.877500", "115350.367500", "115351.857500", "115353.347500", "115354.837500", "115356.327500", "115357.817500", "115359.307500", "115400.797500", "115402.287500", "115403.777500", "115405.267500", "115406.757500", "115408.247500", "115409.737500", "115411.227500", "115412.717500", "115414.207500", "115415.697500", "115417.187500", "115418.677500", "115420.167500", "115421.657500", "115423.147500", "115424.637500", "115426.127500", "115427.617500", "115429.107500", "115430.597500", "115432.087500", "115433.577500", "115435.067500", "115436.557500", "115438.047500", "115439.537500", "115441.027500", "115442.517500", "115444.007500", "115445.497500", "115446.987500", "115448.477500", "115449.967500", "115451.457500", "115452.947500", "115454.437500", "115455.927500", "115457.417500", "115458.907500", "115500.397500", "115501.887500", "115503.377500", "115504.867500", "115506.357500", "115507.847500", "115509.337500", "115510.827500", "115512.317500", "115513.807500", "115515.297500", "115516.787500", "115518.277500", "115519.767500", "115521.257500", "115522.747500", "115524.237500", "115525.727500", "115527.217500", "115528.707500", "115530.197500", "115531.687500", "115533.177500", "115534.667500", "115536.157500", "115537.647500", "115539.137500", "115540.627500", "115542.117500", "115543.607500", "115545.097500", "115546.587500", "115548.077500", "115549.567500", "115551.057500", "115552.547500", "115554.037500"],
      "ContentTime": ["114901.274000", "114901.276000", "114901.279000", "114901.281000", "114921.311000", "114921.314000", "114921.317000", "114921.327000", "114921.330000", "114921.333000", "114921.335000", "114921.339000", "114921.350000", "114921.353000", "114921.355000", "114921.358000", "114921.360000", "114921.363000", "114921.366000", "114921.369000", "114921.372000", "114921.375000", "114921.378000", "114921.381000", "114941.915000", "114941.918000", "114941.920000", "114941.923000", "114941.926000", "114941.928000", "114941.931000", "114941.933000", "114941.936000", "114941.938000", "114941.941000", "114941.943000", "114941.946000", "114941.948000", "114941.951000", "114941.953000", "114941.956000", "114941.958000", "114941.961000", "114941.963000", "114941.966000", "115001.310000", "115001.312000", "115001.319000", "115001.321000", "115001.324000", "115001.327000", "115001.329000", "115001.332000", "115001.334000", "115001.337000", "115001.339000", "115001.342000", "115001.345000", "115001.347000", "115001.350000", "115001.352000", "115001.355000", "115001.357000", "115001.360000", "115001.362000", "115021.320000", "115021.323000", "115021.326000", "115021.328000", "115021.331000", "115021.333000", "115021.336000", "115021.338000", "115021.341000", "115021.343000", "115021.346000", "115021.348000", "115021.351000", "115021.353000", "115021.356000", "115021.359000", "115021.361000", "115021.410000", "115021.413000", "115021.415000", "115101.364000", "115101.366000", "115101.369000", "115101.371000", "115101.374000", "115101.376000", "115101.379000", "115101.381000", "115101.384000", "115101.386000", "115101.389000", "115101.392000", "115101.394000", "115101.397000", "115101.399000", "115101.402000", "115101.404000", "115101.407000", "115101.409000", "115101.412000", "115101.414000", "115101.417000", "115101.419000", "115101.422000", "115101.424000", "115101.427000", "115101.430000", "115101.432000", "115101.435000", "115101.437000", "115101.440000", "115141.350000", "115141.353000", "115141.355000", "115141.358000", "115141.360000", "115141.363000", "115141.365000", "115141.368000", "115141.370000", "115141.373000", "115141.375000", "115141.378000", "115141.380000", "115141.383000", "115141.385000", "115141.388000", "115141.390000", "115141.393000", "115141.396000", "115141.399000", "115141.402000", "115141.405000", "115141.408000", "115141.411000", "115141.414000", "115141.417000", "115141.420000", "115221.350000", "115221.353000", "115221.355000", "115221.358000", "115221.360000", "115221.363000", "115221.366000", "115221.368000", "115221.371000", "115221.373000", "115221.376000", "115221.378000", "115221.381000", "115221.383000", "115221.386000", "115221.388000", "115221.391000", "115221.393000", "115221.396000", "115221.398000", "115221.401000", "115221.403000", "115221.406000", "115221.409000", "115221.411000", "115221.414000", "115221.416000", "115301.353000", "115301.356000", "115301.358000", "115301.361000", "115301.363000", "115301.366000", "115301.368000", "115301.371000", "115301.373000", "115301.376000", "115301.379000", "115301.381000", "115301.384000", "115301.386000", "115301.389000", "115301.391000", "115301.394000", "115301.396000", "115301.399000", "115301.401000", "115301.404000", "115301.406000", "115301.409000", "115301.412000", "115301.414000", "115301.417000", "115301.419000", "115341.351000", "115341.353000", "115341.356000", "115341.358000", "115341.361000", "115341.364000", "115341.366000", "115341.369000", "115341.371000", "115341.374000", "115341.376000", "115341.379000", "115341.382000", "115341.384000", "115341.387000", "115341.389000", "115341.392000", "115341.394000", "115341.397000", "115341.400000", "115341.402000", "115341.405000", "115341.408000", "115341.410000", "115341.413000", "115341.415000", "115341.418000", "115421.330000", "115421.332000", "115421.335000", "115421.337000", "115421.340000", "115421.343000", "115421.345000", "115421.348000", "115421.350000", "115421.353000", "115421.355000", "115421.358000", "115421.360000", "115421.363000", "115421.365000", "115421.368000", "115421.370000", "115421.373000", "115421.376000", "115421.378000", "115421.381000", "115421.383000", "115421.386000", "115421.388000", "115421.391000", "115421.393000", "115421.396000", "115501.338000", "115501.340000", "115501.343000", "115501.345000", "115501.348000", "115501.351000", "115501.353000", "115501.356000", "115501.358000", "115501.361000", "115501.363000", "115501.366000", "115501.368000", "115501.371000", "115501.373000", "115501.376000", "115501.378000", "115501.381000", "115501.383000", "115501.386000", "115501.388000", "115501.391000", "115501.393000", "115501.396000", "115501.399000", "115501.401000", "115501.404000", "115541.341000", "115541.343000", "115541.346000", "115541.348000", "115541.351000", "115541.353000", "115541.356000", "115541.358000", "115541.361000", "115541.364000", "115541.366000", "115541.369000", "115541.372000", "115541.374000", "115541.377000", "115541.380000", "115541.382000", "115541.385000", "115541.387000", "115541.390000", "115541.393000", "115541.395000", "115541.398000", "115541.400000", "115541.403000", "115541.405000", "115557.509000", "115557.512000", "115557.515000", "115557.517000", "115557.520000", "115557.522000", "115557.525000", "115557.528000", "115557.530000", "115557.533000", "115557.535000"],
      "InstanceCreationTime": ["114901.274000", "114901.276000", "114901.279000", "114901.281000", "114921.311000", "114921.314000", "114921.317000", "114921.327000", "114921.330000", "114921.333000", "114921.335000", "114921.339000", "114921.350000", "114921.353000", "114921.355000", "114921.358000", "114921.360000", "114921.363000", "114921.366000", "114921.369000", "114921.372000", "114921.375000", "114921.378000", "114921.381000", "114941.915000", "114941.918000", "114941.920000", "114941.923000", "114941.926000", "114941.928000", "114941.931000", "114941.933000", "114941.936000", "114941.938000", "114941.941000", "114941.943000", "114941.946000", "114941.948000", "114941.951000", "114941.953000", "114941.956000", "114941.958000", "114941.961000", "114941.963000", "114941.966000", "115001.310000", "115001.312000", "115001.319000", "115001.321000", "115001.324000", "115001.327000", "115001.329000", "115001.332000", "115001.334000", "115001.337000", "115001.339000", "115001.342000", "115001.345000", "115001.347000", "115001.350000", "115001.352000", "115001.355000", "115001.357000", "115001.360000", "115001.362000", "115021.320000", "115021.323000", "115021.326000", "115021.328000", "115021.331000", "115021.333000", "115021.336000", "115021.338000", "115021.341000", "115021.343000", "115021.346000", "115021.348000", "115021.351000", "115021.353000", "115021.356000", "115021.359000", "115021.361000", "115021.410000", "115021.413000", "115021.415000", "115101.364000", "115101.366000", "115101.369000", "115101.371000", "115101.374000", "115101.376000", "115101.379000", "115101.381000", "115101.384000", "115101.386000", "115101.389000", "115101.392000", "115101.394000", "115101.397000", "115101.399000", "115101.402000", "115101.404000", "115101.407000", "115101.409000", "115101.412000", "115101.414000", "115101.417000", "115101.419000", "115101.422000", "115101.424000", "115101.427000", "115101.430000", "115101.432000", "115101.435000", "115101.437000", "115101.440000", "115141.350000", "115141.353000", "115141.355000", "115141.358000", "115141.360000", "115141.363000", "115141.365000", "115141.368000", "115141.370000", "115141.373000", "115141.375000", "115141.378000", "115141.380000", "115141.383000", "115141.385000", "115141.388000", "115141.390000", "115141.393000", "115141.396000", "115141.399000", "115141.402000", "115141.405000", "115141.408000", "115141.411000", "115141.414000", "115141.417000", "115141.420000", "115221.350000", "115221.353000", "115221.355000", "115221.358000", "115221.360000", "115221.363000", "115221.366000", "115221.368000", "115221.371000", "115221.373000", "115221.376000", "115221.378000", "115221.381000", "115221.383000", "115221.386000", "115221.388000", "115221.391000", "115221.393000", "115221.396000", "115221.398000", "115221.401000", "115221.403000", "115221.406000", "115221.409000", "115221.411000", "115221.414000", "115221.416000", "115301.353000", "115301.356000", "115301.358000", "115301.361000", "115301.363000", "115301.366000", "115301.368000", "115301.371000", "115301.373000", "115301.376000", "115301.379000", "115301.381000", "115301.384000", "115301.386000", "115301.389000", "115301.391000", "115301.394000", "115301.396000", "115301.399000", "115301.401000", "115301.404000", "115301.406000", "115301.409000", "115301.412000", "115301.414000", "115301.417000", "115301.419000", "115341.351000", "115341.353000", "115341.356000", "115341.358000", "115341.361000", "115341.364000", "115341.366000", "115341.369000", "115341.371000", "115341.374000", "115341.376000", "115341.379000", "115341.382000", "115341.384000", "115341.387000", "115341.389000", "115341.392000", "115341.394000", "115341.397000", "115341.400000", "115341.402000", "115341.405000", "115341.408000", "115341.410000", "115341.413000", "115341.415000", "115341.418000", "115421.330000", "115421.332000", "115421.335000", "115421.337000", "115421.340000", "115421.343000", "115421.345000", "115421.348000", "115421.350000", "115421.353000", "115421.355000", "115421.358000", "115421.360000", "115421.363000", "115421.365000", "115421.368000", "115421.370000", "115421.373000", "115421.376000", "115421.378000", "115421.381000", "115421.383000", "115421.386000", "115421.388000", "115421.391000", "115421.393000", "115421.396000", "115501.338000", "115501.340000", "115501.343000", "115501.345000", "115501.348000", "115501.351000", "115501.353000", "115501.356000", "115501.358000", "115501.361000", "115501.363000", "115501.366000", "115501.368000", "115501.371000", "115501.373000", "115501.376000", "115501.378000", "115501.381000", "115501.383000", "115501.386000", "115501.388000", "115501.391000", "115501.393000", "115501.396000", "115501.399000", "115501.401000", "115501.404000", "115541.341000", "115541.343000", "115541.346000", "115541.348000", "115541.351000", "115541.353000", "115541.356000", "115541.358000", "115541.361000", "115541.364000", "115541.366000", "115541.369000", "115541.372000", "115541.374000", "115541.377000", "115541.380000", "115541.382000", "115541.385000", "115541.387000", "115541.390000", "115541.393000", "115541.395000", "115541.398000", "115541.400000", "115541.403000", "115541.405000", "115557.509000", "115557.512000", "115557.515000", "115557.517000", "115557.520000", "115557.522000", "115557.525000", "115557.528000", "115557.530000", "115557.533000", "115557.535000"],
      "InstanceNumber": [1, 2, 3, 4, 5, 6, 7, 8, 9, 10, 11, 12, 13, 14, 15, 16, 17, 18, 19, 20, 21, 22, 23, 24, 25, 26, 27, 28, 29, 30, 31, 32, 33, 34, 35, 36, 37, 38, 39, 40, 41, 42, 43, 44, 45, 46, 47, 48, 49, 50, 51, 52, 53, 54, 55, 56, 57, 58, 59, 60, 61, 62, 63, 64, 65, 66, 67, 68, 69, 70, 71, 72, 73, 74, 75, 76, 77, 78, 79, 80, 81, 82, 83, 84, 85, 86, 87, 88, 89, 90, 91, 92, 93, 94, 95, 96, 97, 98, 99, 100, 101, 102, 103, 104, 105, 106, 107, 108, 109, 110, 111, 112, 113, 114, 115, 116, 117, 118, 119, 120, 121, 122, 123, 124, 125, 126, 127, 128, 129, 130, 131, 132, 133, 134, 135, 136, 137, 138, 139, 140, 141, 142, 143, 144, 145, 146, 147, 148, 149, 150, 151, 152, 153, 154, 155, 156, 157, 158, 159, 160, 161, 162, 163, 164, 165, 166, 167, 168, 169, 170, 171, 172, 173, 174, 175, 176, 177, 178, 179, 180, 181, 182, 183, 184, 185, 186, 187, 188, 189, 190, 191, 192, 193, 194, 195, 196, 197, 198, 199, 200, 201, 202, 203, 204, 205, 206, 207, 208, 209, 210, 211, 212, 213, 214, 215, 216, 217, 218, 219, 220, 221, 222, 223, 224, 225, 226, 227, 228, 229, 230, 231, 232, 233, 234, 235, 236, 237, 238, 239, 240, 241, 242, 243, 244, 245, 246, 247, 248, 249, 250, 251, 252, 253, 254, 255, 256, 257, 258, 259, 260, 261, 262, 263, 264, 265, 266, 267, 268, 269, 270, 271, 272, 273, 274, 275, 276, 277, 278, 279, 280, 281, 282, 283, 284, 285, 286, 287, 288, 289, 290, 291, 292, 293, 294, 295, 296, 297, 298, 299, 300, 301, 302, 303, 304, 305, 306, 307, 308, 309, 310, 311, 312, 313, 314, 315],
      "WindowCenter": [4816.0, 4814.0, 4790.0, 4786.0, 4788.0, 4790.0, 4814.0, 4816.0, 4816.0, 4790.0, 4814.0, 4792.0, 4820.0, 4820.0, 4790.0, 4786.0, 4786.0, 4790.0, 4814.0, 4814.0, 4790.0, 4790.0, 4818.0, 4794.0, 4790.0, 4790.0, 4788.0, 4790.0, 4788.0, 4790.0, 4814.0, 4792.0, 4814.0, 4814.0, 4814.0, 4818.0, 4814.0, 4788.0, 4788.0, 4786.0, 4786.0, 4790.0, 4790.0, 4812.0, 4816.0, 4816.0, 4814.0, 4812.0, 4812.0, 4790.0, 4814.0, 4810.0, 4788.0, 4814.0, 4812.0, 4814.0, 4812.0, 4784.0, 4820.0, 4850.0, 4822.0, 4820.0, 4848.0, 4844.0, 4816.0, 4814.0, 4820.0, 4814.0, 4812.0, 4816.0, 4824.0, 4824.0, 4848.0, 4822.0, 4816.0, 4812.0, 4810.0, 4810.0, 4806.0, 4812.0, 4814.0, 4814.0, 4818.0, 4818.0, 4820.0, 4816.0, 4810.0, 4824.0, 4816.0, 4812.0, 4786.0, 4812.0, 4812.0, 4814.0, 4814.0, 4820.0, 4818.0, 4816.0, 4812.0, 4788.0, 4812.0, 4814.0, 4788.0, 4814.0, 4814.0, 4812.0, 4810.0, 4814.0, 4814.0, 4818.0, 4816.0, 4812.0, 4790.0, 4814.0, 4870.0, 4822.0, 4814.0, 4812.0, 4810.0, 4812.0, 4814.0, 4814.0, 4818.0, 4818.0, 4820.0, 4818.0, 4814.0, 4814.0, 4816.0, 4812.0, 4814.0, 4814.0, 4814.0, 4812.0, 4818.0, 4814.0, 4816.0, 4818.0, 4814.0, 4816.0, 4812.0, 4812.0, 4816.0, 4814.0, 4814.0, 4816.0, 4814.0, 4818.0, 4844.0, 4814.0, 4814.0, 4814.0, 4812.0, 4812.0, 4814.0, 4814.0, 4816.0, 4814.0, 4820.0, 4818.0, 4814.0, 4818.0, 4818.0, 4810.0, 4810.0, 4818.0, 4850.0, 4818.0, 4812.0, 4810.0, 4810.0, 4812.0, 4816.0, 4814.0, 4816.0, 4818.0, 4818.0, 4818.0, 4818.0, 4814.0, 4812.0, 4812.0, 4810.0, 4812.0, 4816.0, 4816.0, 4812.0, 4816.0, 4814.0, 4814.0, 4814.0, 4812.0, 4812.0, 4812.0, 4814.0, 4810.0, 4822.0, 4822.0, 4816.0, 4816.0, 4816.0, 4812.0, 4810.0, 4790.0, 4792.0, 4816.0, 4818.0, 4818.0, 4818.0, 4788.0, 4790.0, 4792.0, 4790.0, 4816.0, 4818.0, 4816.0, 4814.0, 4814.0, 4814.0, 4786.0, 4792.0, 4788.0, 4814.0, 4814.0, 4812.0, 4814.0, 4814.0, 4808.0, 4786.0, 4810.0, 4788.0, 4812.0, 4786.0, 4822.0, 4820.0, 4814.0, 4824.0, 4820.0, 4814.0, 4788.0, 4788.0, 4788.0, 4788.0, 4786.0, 4814.0, 4844.0, 4822.0, 4818.0, 4790.0, 4790.0, 4786.0, 4812.0, 4790.0, 4790.0, 4816.0, 4816.0, 4820.0, 4814.0, 4790.0, 4812.0, 4790.0, 4788.0, 4814.0, 4814.0, 4790.0, 4814.0, 4810.0, 4816.0, 4812.0, 4812.0, 4812.0, 4792.0, 4814.0, 4812.0, 4786.0, 4814.0, 4814.0, 4816.0, 4786.0, 4812.0, 4814.0, 4790.0, 4814.0, 4812.0, 4814.0, 4790.0, 4812.0, 4812.0, 4818.0, 4822.0, 4816.0, 4790.0, 4788.0, 4788.0, 4788.0, 4812.0, 4814.0, 4816.0, 4820.0, 4818.0, 4814.0, 4812.0, 4812.0, 4812.0, 4812.0, 4812.0, 4792.0, 4818.0, 4816.0, 4810.0, 4786.0, 4812.0, 4820.0, 4820.0, 4816.0],
