{
  "AcquisitionMatrixPE": 104,
  "AcquisitionNumber": 1,
  "AcquisitionTime": "11:37:39.962500",
  "BandwidthPerPixelPhaseEncode": 17.17,
  "BaseResolution": 104,
  "BodyPartExamined": "BRAIN",
  "CoilCombinationMethod": "Sum of Squares",
  "ConsistencyInfo": "N4_VE11C_LATEST_20160120",
  "ConversionSoftware": "dcm2niix",
  "ConversionSoftwareVersion": "v1.0.20220505",
  "DerivedVendorReportedEchoSpacing": 0.000560011,
  "DeviceSerialNumber": "167006",
  "DwellTime": 2.1e-06,
  "EchoTime": 0.037,
  "EchoTrainLength": 104,
  "EffectiveEchoSpacing": 0.000560011,
  "FlipAngle": 52,
  "HeudiconvVersion": "0.5.3.post811+g6206e14",
  "ImageComments": "Unaliased MB4/PE3/LB",
  "ImageOrientationPatientDICOM": [0.992768, 0.12003, 0.00221384, -0.111883, 0.931757, -0.345415],
  "ImageOrientationText": "Tra>Cor(-20.1)>Sag(2.5)",
  "ImageType": [
    "ORIGINAL",
    "PRIMARY",
    "M",
    "MB",
    "ND",
    "MOSAIC"
],
  "ImagingFrequency": 123.26,
  "InPlanePhaseEncodingDirectionDICOM": "COL",
  "InstitutionAddress": "Chemin Queen-Mary 4565,Montreal,District,CA,H3W 1W5",
  "InstitutionName": "IUGM",
  "InstitutionalDepartmentName": "Department",
  "MRAcquisitionType": "2D",
  "MagneticFieldStrength": 3,
  "Manufacturer": "Siemens",
  "ManufacturersModelName": "Prisma_fit",
  "MatrixCoilMode": "SENSE",
  "Modality": "MR",
  "MultibandAccelerationFactor": 4,
  "PartialFourier": 1,
  "PatientPosition": "HFS",
  "PercentPhaseFOV": 100,
  "PercentSampling": 100,
  "PhaseEncodingDirection": "j",
  "PhaseEncodingSteps": 104,
  "PhaseResolution": 1,
  "PixelBandwidth": 2290,
  "ProcedureStepDescription": "games^mario3",
  "ProtocolName": "func_task-mario3_run-01",
  "PulseSequenceDetails": "%CustomerSeq%\\cmrr_mbep2d_bold",
  "ReceiveCoilActiveElements": "HC1-7;NC1,2",
  "ReceiveCoilName": "HeadNeck_64",
  "ReconMatrixPE": 104,
  "RepetitionTime": 1.49,
  "SAR": 0.0582855,
  "ScanOptions": "FS",
  "ScanningSequence": "EP",
  "SequenceName": "epfid2d1_104",
  "SequenceVariant": "SK\\SS",
  "SeriesDescription": "func_task-mario3_run-01",
  "SeriesNumber": 10,
  "ShimSetting": [608, -7198, -8822, 640, 90, 7, -71, 12],
  "SliceThickness": 2,
  "SliceTiming": [0, 0.785, 0.0975, 0.8825, 0.195, 0.98, 0.295, 1.0775, 0.3925, 1.175, 0.49, 1.275, 0.5875, 1.3725, 0.685, 0, 0.785, 0.0975, 0.8825, 0.195, 0.98, 0.295, 1.0775, 0.3925, 1.175, 0.49, 1.275, 0.5875, 1.3725, 0.685, 0, 0.785, 0.0975, 0.8825, 0.195, 0.98, 0.295, 1.0775, 0.3925, 1.175, 0.49, 1.275, 0.5875, 1.3725, 0.685, 0, 0.785, 0.0975, 0.8825, 0.195, 0.98, 0.295, 1.0775, 0.3925, 1.175, 0.49, 1.275, 0.5875, 1.3725, 0.685],
  "SoftwareVersions": "syngo MR E11",
  "SpacingBetweenSlices": 2,
  "StationName": "MRC35049",
  "TaskName": "mario3",
  "TotalReadoutTime": 0.0576811,
  "TxRefAmp": 274.534,
  "WipMemBlock": "57ccf557-d382-44f6-9210-ed3c5629d762||Sequence: R017 ve11c/master r/75a17815+; Jun 28 2022 16:32:11 by eja",
  "dcmmeta_affine": [
    [-1.9855356216430664, -0.22376617789268494, 0.08704576641321182, 113.15704345703125],
    [-0.24005970358848572, 1.863513469696045, -0.68533855676651, -48.019012451171875],
    [0.0044276840053498745, 0.6908301711082458, 1.8768948316574097, -60.511680603027344],
    [0.0, 0.0, 0.0, 1.0]
],
  "dcmmeta_reorient_transform": [
    [0.0, -1.0, 0.0, 103.0],
    [1.0, 0.0, 0.0, 0.0],
    [0.0, 0.0, 1.0, 0.0],
    [0.0, 0.0, 0.0, 1.0]
],
  "dcmmeta_shape": [104, 104, 60, 368],
  "dcmmeta_slice_dim": 2,
  "dcmmeta_version": 0.6,
  "global": {
    "const": {
      "AcquisitionMatrix": [104, 0, 0, 104],
      "AngioFlag": "N",
      "BitsAllocated": 16,
      "BitsStored": 16,
      "BodyPartExamined": "BRAIN",
      "Columns": 832,
      "EchoNumbers": 1,
      "EchoTime": 37.0,
      "EchoTrainLength": 104,
      "FlipAngle": 52.0,
      "HighBit": 15,
      "ImageOrientationPatient": [0.99276781462423, 0.12002985107661, 0.00221384207894, -0.1118830856221, 0.93175672431547, -0.3454150863014],
      "ImagePositionPatient": [-731.3932074, -909.62349813954, 260.49433431722],
      "ImageType": [
        "ORIGINAL",
        "PRIMARY",
        "M",
        "MB",
        "ND",
        "MOSAIC"
],
      "ImagedNucleus": "1H",
      "ImagingFrequency": 123.260271,
      "InPlanePhaseEncodingDirection": "COL",
      "MRAcquisitionType": "2D",
      "MagneticFieldStrength": 3.0,
      "Manufacturer": "SIEMENS",
      "ManufacturerModelName": "Prisma_fit",
      "Modality": "MR",
      "NumberOfAverages": 1.0,
      "NumberOfPhaseEncodingSteps": 104,
      "PercentPhaseFieldOfView": 100.0,
      "PercentSampling": 100.0,
      "PerformedProcedureStepStartTime": "113353.794000",
      "PhotometricInterpretation": "MONOCHROME2",
      "PixelBandwidth": 2290.0,
      "PixelRepresentation": 0,
      "PixelSpacing": [2.0, 2.0],
      "ProtocolName": "func_task-mario3_run-01",
      "RepetitionTime": 1490.0,
      "Rows": 832,
      "SAR": 0.0582854643606,
      "SamplesPerPixel": 1,
      "ScanOptions": "FS",
      "ScanningSequence": "EP",
      "SequenceName": "epfid2d1_104",
      "SequenceVariant": [
        "SK",
        "SS"
],
      "SeriesDescription": "func_task-mario3_run-01",
      "SeriesNumber": 10,
      "SeriesTime": "113848.435000",
      "SliceLocation": -35.407465828027,
      "SliceThickness": 2.0,
      "SmallestImagePixelValue": 0,
      "SoftwareVersions": "syngo MR E11",
      "SpacingBetweenSlices": 1.9999999902526,
      "SpecificCharacterSet": "ISO_IR 100",
      "StudyID": "1",
      "StudyTime": "113353.727000",
      "TransmitCoilName": "Body",
      "VariableFlipAngleFlag": "N",
      "WindowCenterWidthExplanation": "Algo1",
      "dBdt": 0.0},
    "slices": {}
  },
  "time": {
    "samples": {
      "AcquisitionNumber": [1, 2, 3, 4, 5, 6, 7, 8, 9, 10, 11, 12, 13, 14, 15, 16, 17, 18, 19, 20, 21, 22, 23, 24, 25, 26, 27, 28, 29, 30, 31, 32, 33, 34, 35, 36, 37, 38, 39, 40, 41, 42, 43, 44, 45, 46, 47, 48, 49, 50, 51, 52, 53, 54, 55, 56, 57, 58, 59, 60, 61, 62, 63, 64, 65, 66, 67, 68, 69, 70, 71, 72, 73, 74, 75, 76, 77, 78, 79, 80, 81, 82, 83, 84, 85, 86, 87, 88, 89, 90, 91, 92, 93, 94, 95, 96, 97, 98, 99, 100, 101, 102, 103, 104, 105, 106, 107, 108, 109, 110, 111, 112, 113, 114, 115, 116, 117, 118, 119, 120, 121, 122, 123, 124, 125, 126, 127, 128, 129, 130, 131, 132, 133, 134, 135, 136, 137, 138, 139, 140, 141, 142, 143, 144, 145, 146, 147, 148, 149, 150, 151, 152, 153, 154, 155, 156, 157, 158, 159, 160, 161, 162, 163, 164, 165, 166, 167, 168, 169, 170, 171, 172, 173, 174, 175, 176, 177, 178, 179, 180, 181, 182, 183, 184, 185, 186, 187, 188, 189, 190, 191, 192, 193, 194, 195, 196, 197, 198, 199, 200, 201, 202, 203, 204, 205, 206, 207, 208, 209, 210, 211, 212, 213, 214, 215, 216, 217, 218, 219, 220, 221, 222, 223, 224, 225, 226, 227, 228, 229, 230, 231, 232, 233, 234, 235, 236, 237, 238, 239, 240, 241, 242, 243, 244, 245, 246, 247, 248, 249, 250, 251, 252, 253, 254, 255, 256, 257, 258, 259, 260, 261, 262, 263, 264, 265, 266, 267, 268, 269, 270, 271, 272, 273, 274, 275, 276, 277, 278, 279, 280, 281, 282, 283, 284, 285, 286, 287, 288, 289, 290, 291, 292, 293, 294, 295, 296, 297, 298, 299, 300, 301, 302, 303, 304, 305, 306, 307, 308, 309, 310, 311, 312, 313, 314, 315, 316, 317, 318, 319, 320, 321, 322, 323, 324, 325, 326, 327, 328, 329, 330, 331, 332, 333, 334, 335, 336, 337, 338, 339, 340, 341, 342, 343, 344, 345, 346, 347, 348, 349, 350, 351, 352, 353, 354, 355, 356, 357, 358, 359, 360, 361, 362, 363, 364, 365, 366, 367, 368],
      "AcquisitionTime": ["113739.962500", "113741.452500", "113742.942500", "113744.432500", "113745.922500", "113747.412500", "113748.902500", "113750.392500", "113751.882500", "113753.372500", "113754.862500", "113756.352500", "113757.842500", "113759.332500", "113800.822500", "113802.312500", "113803.802500", "113805.292500", "113806.782500", "113808.272500", "113809.762500", "113811.252500", "113812.742500", "113814.232500", "113815.722500", "113817.212500", "113818.702500", "113820.192500", "113821.682500", "113823.172500", "113824.662500", "113826.152500", "113827.642500", "113829.132500", "113830.622500", "113832.112500", "113833.602500", "113835.092500", "113836.582500", "113838.072500", "113839.562500", "113841.052500", "113842.542500", "113844.032500", "113845.522500", "113847.012500", "113848.502500", "113849.992500", "113851.482500", "113852.972500", "113854.462500", "113855.952500", "113857.442500", "113858.932500", "113900.422500", "113901.912500", "113903.402500", "113904.892500", "113906.382500", "113907.872500", "113909.362500", "113910.852500", "113912.342500", "113913.832500", "113915.322500", "113916.812500", "113918.302500", "113919.792500", "113921.282500", "113922.772500", "113924.262500", "113925.752500", "113927.242500", "113928.732500", "113930.222500", "113931.712500", "113933.202500", "113934.692500", "113936.182500", "113937.672500", "113939.162500", "113940.652500", "113942.142500", "113943.632500", "113945.122500", "113946.612500", "113948.102500", "113949.592500", "113951.082500", "113952.572500", "113954.062500", "113955.552500", "113957.042500", "113958.532500", "114000.022500", "114001.512500", "114003.002500", "114004.492500", "114005.982500", "114007.472500", "114008.962500", "114010.452500", "114011.942500", "114013.432500", "114014.922500", "114016.412500", "114017.902500", "114019.392500", "114020.882500", "114022.372500", "114023.862500", "114025.352500", "114026.842500", "114028.332500", "114029.822500", "114031.312500", "114032.802500", "114034.292500", "114035.782500", "114037.272500", "114038.762500", "114040.252500", "114041.742500", "114043.232500", "114044.722500", "114046.212500", "114047.702500", "114049.192500", "114050.682500", "114052.172500", "114053.662500", "114055.152500", "114056.642500", "114058.132500", "114059.622500", "114101.112500", "114102.602500", "114104.092500", "114105.582500", "114107.072500", "114108.562500", "114110.052500", "114111.542500", "114113.032500", "114114.522500", "114116.012500", "114117.502500", "114118.992500", "114120.482500", "114121.972500", "114123.462500", "114124.952500", "114126.442500", "114127.932500", "114129.422500", "114130.912500", "114132.402500", "114133.892500", "114135.382500", "114136.872500", "114138.362500", "114139.852500", "114141.342500", "114142.832500", "114144.322500", "114145.812500", "114147.302500", "114148.792500", "114150.282500", "114151.772500", "114153.262500", "114154.752500", "114156.242500", "114157.732500", "114159.222500", "114200.712500", "114202.202500", "114203.692500", "114205.182500", "114206.672500", "114208.162500", "114209.652500", "114211.142500", "114212.632500", "114214.122500", "114215.612500", "114217.102500", "114218.592500", "114220.082500", "114221.572500", "114223.062500", "114224.552500", "114226.042500", "114227.532500", "114229.022500", "114230.512500", "114232.002500", "114233.492500", "114234.982500", "114236.472500", "114237.962500", "114239.452500", "114240.942500", "114242.432500", "114243.922500", "114245.412500", "114246.902500", "114248.392500", "114249.882500", "114251.372500", "114252.862500", "114254.352500", "114255.842500", "114257.332500", "114258.822500", "114300.312500", "114301.802500", "114303.292500", "114304.782500", "114306.272500", "114307.762500", "114309.252500", "114310.742500", "114312.232500", "114313.722500", "114315.212500", "114316.702500", "114318.192500", "114319.682500", "114321.172500", "114322.662500", "114324.152500", "114325.642500", "114327.132500", "114328.622500", "114330.112500", "114331.602500", "114333.092500", "114334.582500", "114336.072500", "114337.562500", "114339.052500", "114340.542500", "114342.032500", "114343.522500", "114345.012500", "114346.502500", "114347.992500", "114349.482500", "114350.972500", "114352.462500", "114353.952500", "114355.442500", "114356.932500", "114358.422500", "114359.912500", "114401.402500", "114402.892500", "114404.382500", "114405.872500", "114407.362500", "114408.852500", "114410.342500", "114411.832500", "114413.322500", "114414.812500", "114416.302500", "114417.792500", "114419.282500", "114420.772500", "114422.262500", "114423.752500", "114425.242500", "114426.732500", "114428.222500", "114429.712500", "114431.202500", "114432.692500", "114434.182500", "114435.672500", "114437.162500", "114438.652500", "114440.142500", "114441.632500", "114443.122500", "114444.612500", "114446.102500", "114447.592500", "114449.082500", "114450.572500", "114452.062500", "114453.552500", "114455.042500", "114456.532500", "114458.022500", "114459.512500", "114501.002500", "114502.492500", "114503.982500", "114505.472500", "114506.962500", "114508.452500", "114509.942500", "114511.432500", "114512.922500", "114514.412500", "114515.902500", "114517.392500", "114518.882500", "114520.372500", "114521.862500", "114523.352500", "114524.842500", "114526.332500", "114527.822500", "114529.312500", "114530.802500", "114532.292500", "114533.782500", "114535.272500", "114536.762500", "114538.252500", "114539.742500", "114541.232500", "114542.722500", "114544.212500", "114545.702500", "114547.192500", "114548.682500", "114550.172500", "114551.662500", "114553.152500", "114554.642500", "114556.132500", "114557.622500", "114559.112500", "114600.602500", "114602.092500", "114603.582500", "114605.072500", "114606.562500", "114608.052500", "114609.542500", "114611.032500", "114612.522500", "114614.012500", "114615.502500", "114616.992500", "114618.482500", "114619.972500", "114621.462500", "114622.952500", "114624.442500", "114625.932500", "114627.422500", "114628.912500", "114630.402500", "114631.892500", "114633.382500", "114634.872500", "114636.362500", "114637.852500", "114639.342500", "114640.832500", "114642.322500", "114643.812500", "114645.302500", "114646.792500"],
      "ContentTime": ["113848.439000", "113848.443000", "113848.446000", "113848.449000", "113848.453000", "113848.456000", "113848.474000", "113848.477000", "113848.487000", "113848.490000", "113848.494000", "113848.497000", "113848.500000", "113848.504000", "113848.507000", "113848.510000", "113848.514000", "113848.517000", "113908.406000", "113908.410000", "113908.413000", "113908.417000", "113908.420000", "113908.423000", "113908.427000", "113908.430000", "113908.439000", "113908.443000", "113908.446000", "113908.449000", "113908.453000", "113908.456000", "113908.459000", "113908.463000", "113908.466000", "113908.469000", "113908.473000", "113908.476000", "113928.406000", "113928.410000", "113928.413000", "113928.416000", "113928.420000", "113928.423000", "113928.427000", "113928.430000", "113928.434000", "113928.437000", "113928.440000", "113928.444000", "113928.447000", "113928.451000", "113928.454000", "113928.459000", "113928.464000", "113928.468000", "113928.473000", "113928.479000", "113948.405000", "113948.409000", "113948.412000", "113948.416000", "113948.419000", "113948.422000", "113948.426000", "113948.429000", "113948.433000", "113948.436000", "113948.440000", "113948.443000", "113948.447000", "113948.450000", "113948.453000", "113948.457000", "113948.460000", "113948.464000", "113948.467000", "113948.470000", "113948.474000", "114008.405000", "114008.409000", "114008.415000", "114008.418000", "114008.422000", "114008.425000", "114008.429000", "114008.432000", "114008.435000", "114008.439000", "114008.442000", "114008.446000", "114008.449000", "114008.452000", "114008.456000", "114008.459000", "114008.462000", "114008.466000", "114008.469000", "114008.473000", "114048.405000", "114048.409000", "114048.412000", "114048.416000", "114048.419000", "114048.422000", "114048.426000", "114048.429000", "114048.432000", "114048.436000", "114048.439000", "114048.443000", "114048.446000", "114048.449000", "114048.459000", "114048.463000", "114048.466000", "114048.470000", "114048.473000", "114048.477000", "114048.480000", "114048.483000", "114048.487000", "114048.490000", "114048.494000", "114048.497000", "114048.501000", "114128.406000", "114128.410000", "114128.413000", "114128.417000", "114128.420000", "114128.424000", "114128.427000", "114128.430000", "114128.434000", "114128.437000", "114128.441000", "114128.444000", "114128.448000", "114128.452000", "114128.456000", "114128.466000", "114128.471000", "114128.474000", "114128.495000", "114128.499000", "114128.502000", "114128.506000", "114128.509000", "114128.512000", "114128.516000", "114128.519000", "114208.405000", "114208.409000", "114208.412000", "114208.416000", "114208.419000", "114208.422000", "114208.426000", "114208.429000", "114208.432000", "114208.436000", "114208.439000", "114208.442000", "114208.446000", "114208.449000", "114208.453000", "114208.458000", "114208.462000", "114208.465000", "114208.469000", "114208.472000", "114208.476000", "114208.479000", "114208.482000", "114208.486000", "114208.489000", "114208.493000", "114208.496000", "114248.405000", "114248.409000", "114248.423000", "114248.426000", "114248.429000", "114248.433000", "114248.436000", "114248.439000", "114248.443000", "114248.446000", "114248.450000", "114248.453000", "114248.456000", "114248.469000", "114248.472000", "114248.482000", "114248.485000", "114248.492000", "114248.495000", "114248.499000", "114248.502000", "114248.506000", "114248.509000", "114248.512000", "114248.516000", "114248.519000", "114248.523000", "114328.406000", "114328.410000", "114328.413000", "114328.417000", "114328.420000", "114328.424000", "114328.427000", "114328.431000", "114328.434000", "114328.437000", "114328.441000", "114328.452000", "114328.455000", "114328.458000", "114328.462000", "114328.465000", "114328.469000", "114328.472000", "114328.476000", "114328.479000", "114328.483000", "114328.486000", "114328.489000", "114328.493000", "114328.496000", "114328.500000", "114328.503000", "114408.406000", "114408.410000", "114408.413000", "114408.417000", "114408.420000", "114408.423000", "114408.427000", "114408.430000", "114408.434000", "114408.437000", "114408.441000", "114408.444000", "114408.447000", "114408.451000", "114408.454000", "114408.458000", "114408.461000", "114408.464000", "114408.468000", "114408.471000", "114408.474000", "114408.478000", "114408.481000", "114408.485000", "114408.496000", "114408.500000", "114408.503000", "114448.405000", "114448.409000", "114448.412000", "114448.416000", "114448.419000", "114448.423000", "114448.426000", "114448.429000", "114448.433000", "114448.436000", "114448.440000", "114448.443000", "114448.446000", "114448.450000", "114448.465000", "114448.469000", "114448.472000", "114448.475000", "114448.479000", "114448.482000", "114448.485000", "114448.489000", "114448.492000", "114448.496000", "114448.499000", "114448.502000", "114448.506000", "114528.405000", "114528.409000", "114528.412000", "114528.416000", "114528.419000", "114528.423000", "114528.426000", "114528.430000", "114528.433000", "114528.436000", "114528.440000", "114528.443000", "114528.446000", "114528.450000", "114528.453000", "114528.457000", "114528.460000", "114528.463000", "114528.467000", "114528.470000", "114528.474000", "114528.477000", "114528.480000", "114528.484000", "114528.487000", "114528.490000", "114528.494000", "114608.406000", "114608.410000", "114608.413000", "114608.417000", "114608.420000", "114608.424000", "114608.427000", "114608.431000", "114608.434000", "114608.438000", "114608.442000", "114608.445000", "114608.448000", "114608.452000", "114608.455000", "114608.459000", "114608.462000", "114608.465000", "114608.469000", "114608.472000", "114608.475000", "114608.479000", "114608.482000", "114608.486000", "114608.489000", "114608.493000", "114648.405000", "114648.409000", "114648.412000", "114648.416000", "114648.419000", "114648.423000", "114648.426000", "114648.429000", "114648.433000", "114648.436000", "114648.440000", "114648.443000", "114648.446000", "114648.450000", "114648.453000", "114648.457000", "114648.460000", "114648.463000", "114648.467000", "114648.470000", "114648.474000", "114648.481000", "114648.485000", "114648.488000", "114648.492000", "114648.495000", "114648.517000", "114649.267000"],
      "InstanceCreationTime": ["113848.439000", "113848.443000", "113848.446000", "113848.449000", "113848.453000", "113848.456000", "113848.474000", "113848.477000", "113848.487000", "113848.490000", "113848.494000", "113848.497000", "113848.500000", "113848.504000", "113848.507000", "113848.510000", "113848.514000", "113848.517000", "113908.406000", "113908.410000", "113908.413000", "113908.417000", "113908.420000", "113908.423000", "113908.427000", "113908.430000", "113908.439000", "113908.443000", "113908.446000", "113908.449000", "113908.453000", "113908.456000", "113908.459000", "113908.463000", "113908.466000", "113908.469000", "113908.473000", "113908.476000", "113928.406000", "113928.410000", "113928.413000", "113928.416000", "113928.420000", "113928.423000", "113928.427000", "113928.430000", "113928.434000", "113928.437000", "113928.440000", "113928.444000", "113928.447000", "113928.451000", "113928.454000", "113928.459000", "113928.464000", "113928.468000", "113928.473000", "113928.479000", "113948.405000", "113948.409000", "113948.412000", "113948.416000", "113948.419000", "113948.422000", "113948.426000", "113948.429000", "113948.433000", "113948.436000", "113948.440000", "113948.443000", "113948.447000", "113948.450000", "113948.453000", "113948.457000", "113948.460000", "113948.464000", "113948.467000", "113948.470000", "113948.474000", "114008.405000", "114008.409000", "114008.415000", "114008.418000", "114008.422000", "114008.425000", "114008.429000", "114008.432000", "114008.435000", "114008.439000", "114008.442000", "114008.446000", "114008.449000", "114008.452000", "114008.456000", "114008.459000", "114008.462000", "114008.466000", "114008.469000", "114008.473000", "114048.405000", "114048.409000", "114048.412000", "114048.416000", "114048.419000", "114048.422000", "114048.426000", "114048.429000", "114048.432000", "114048.436000", "114048.439000", "114048.443000", "114048.446000", "114048.449000", "114048.459000", "114048.463000", "114048.466000", "114048.470000", "114048.473000", "114048.477000", "114048.480000", "114048.483000", "114048.487000", "114048.490000", "114048.494000", "114048.497000", "114048.501000", "114128.406000", "114128.410000", "114128.413000", "114128.417000", "114128.420000", "114128.424000", "114128.427000", "114128.430000", "114128.434000", "114128.437000", "114128.441000", "114128.444000", "114128.448000", "114128.452000", "114128.456000", "114128.466000", "114128.471000", "114128.474000", "114128.495000", "114128.499000", "114128.502000", "114128.506000", "114128.509000", "114128.512000", "114128.516000", "114128.519000", "114208.405000", "114208.409000", "114208.412000", "114208.416000", "114208.419000", "114208.422000", "114208.426000", "114208.429000", "114208.432000", "114208.436000", "114208.439000", "114208.442000", "114208.446000", "114208.449000", "114208.453000", "114208.458000", "114208.462000", "114208.465000", "114208.469000", "114208.472000", "114208.476000", "114208.479000", "114208.482000", "114208.486000", "114208.489000", "114208.493000", "114208.496000", "114248.405000", "114248.409000", "114248.423000", "114248.426000", "114248.429000", "114248.433000", "114248.436000", "114248.439000", "114248.443000", "114248.446000", "114248.450000", "114248.453000", "114248.456000", "114248.469000", "114248.472000", "114248.482000", "114248.485000", "114248.492000", "114248.495000", "114248.499000", "114248.502000", "114248.506000", "114248.509000", "114248.512000", "114248.516000", "114248.519000", "114248.523000", "114328.406000", "114328.410000", "114328.413000", "114328.417000", "114328.420000", "114328.424000", "114328.427000", "114328.431000", "114328.434000", "114328.437000", "114328.441000", "114328.452000", "114328.455000", "114328.458000", "114328.462000", "114328.465000", "114328.469000", "114328.472000", "114328.476000", "114328.479000", "114328.483000", "114328.486000", "114328.489000", "114328.493000", "114328.496000", "114328.500000", "114328.503000", "114408.406000", "114408.410000", "114408.413000", "114408.417000", "114408.420000", "114408.423000", "114408.427000", "114408.430000", "114408.434000", "114408.437000", "114408.441000", "114408.444000", "114408.447000", "114408.451000", "114408.454000", "114408.458000", "114408.461000", "114408.464000", "114408.468000", "114408.471000", "114408.474000", "114408.478000", "114408.481000", "114408.485000", "114408.496000", "114408.500000", "114408.503000", "114448.405000", "114448.409000", "114448.412000", "114448.416000", "114448.419000", "114448.423000", "114448.426000", "114448.429000", "114448.433000", "114448.436000", "114448.440000", "114448.443000", "114448.446000", "114448.450000", "114448.465000", "114448.469000", "114448.472000", "114448.475000", "114448.479000", "114448.482000", "114448.485000", "114448.489000", "114448.492000", "114448.496000", "114448.499000", "114448.502000", "114448.506000", "114528.405000", "114528.409000", "114528.412000", "114528.416000", "114528.419000", "114528.423000", "114528.426000", "114528.430000", "114528.433000", "114528.436000", "114528.440000", "114528.443000", "114528.446000", "114528.450000", "114528.453000", "114528.457000", "114528.460000", "114528.463000", "114528.467000", "114528.470000", "114528.474000", "114528.477000", "114528.480000", "114528.484000", "114528.487000", "114528.490000", "114528.494000", "114608.406000", "114608.410000", "114608.413000", "114608.417000", "114608.420000", "114608.424000", "114608.427000", "114608.431000", "114608.434000", "114608.438000", "114608.442000", "114608.445000", "114608.448000", "114608.452000", "114608.455000", "114608.459000", "114608.462000", "114608.465000", "114608.469000", "114608.472000", "114608.475000", "114608.479000", "114608.482000", "114608.486000", "114608.489000", "114608.493000", "114648.405000", "114648.409000", "114648.412000", "114648.416000", "114648.419000", "114648.423000", "114648.426000", "114648.429000", "114648.433000", "114648.436000", "114648.440000", "114648.443000", "114648.446000", "114648.450000", "114648.453000", "114648.457000", "114648.460000", "114648.463000", "114648.467000", "114648.470000", "114648.474000", "114648.481000", "114648.485000", "114648.488000", "114648.492000", "114648.495000", "114648.517000", "114649.267000"],
      "InstanceNumber": [1, 2, 3, 4, 5, 6, 7, 8, 9, 10, 11, 12, 13, 14, 15, 16, 17, 18, 19, 20, 21, 22, 23, 24, 25, 26, 27, 28, 29, 30, 31, 32, 33, 34, 35, 36, 37, 38, 39, 40, 41, 42, 43, 44, 45, 46, 47, 48, 49, 50, 51, 52, 53, 54, 55, 56, 57, 58, 59, 60, 61, 62, 63, 64, 65, 66, 67, 68, 69, 70, 71, 72, 73, 74, 75, 76, 77, 78, 79, 80, 81, 82, 83, 84, 85, 86, 87, 88, 89, 90, 91, 92, 93, 94, 95, 96, 97, 98, 99, 100, 101, 102, 103, 104, 105, 106, 107, 108, 109, 110, 111, 112, 113, 114, 115, 116, 117, 118, 119, 120, 121, 122, 123, 124, 125, 126, 127, 128, 129, 130, 131, 132, 133, 134, 135, 136, 137, 138, 139, 140, 141, 142, 143, 144, 145, 146, 147, 148, 149, 150, 151, 152, 153, 154, 155, 156, 157, 158, 159, 160, 161, 162, 163, 164, 165, 166, 167, 168, 169, 170, 171, 172, 173, 174, 175, 176, 177, 178, 179, 180, 181, 182, 183, 184, 185, 186, 187, 188, 189, 190, 191, 192, 193, 194, 195, 196, 197, 198, 199, 200, 201, 202, 203, 204, 205, 206, 207, 208, 209, 210, 211, 212, 213, 214, 215, 216, 217, 218, 219, 220, 221, 222, 223, 224, 225, 226, 227, 228, 229, 230, 231, 232, 233, 234, 235, 236, 237, 238, 239, 240, 241, 242, 243, 244, 245, 246, 247, 248, 249, 250, 251, 252, 253, 254, 255, 256, 257, 258, 259, 260, 261, 262, 263, 264, 265, 266, 267, 268, 269, 270, 271, 272, 273, 274, 275, 276, 277, 278, 279, 280, 281, 282, 283, 284, 285, 286, 287, 288, 289, 290, 291, 292, 293, 294, 295, 296, 297, 298, 299, 300, 301, 302, 303, 304, 305, 306, 307, 308, 309, 310, 311, 312, 313, 314, 315, 316, 317, 318, 319, 320, 321, 322, 323, 324, 325, 326, 327, 328, 329, 330, 331, 332, 333, 334, 335, 336, 337, 338, 339, 340, 341, 342, 343, 344, 345, 346, 347, 348, 349, 350, 351, 352, 353, 354, 355, 356, 357, 358, 359, 360, 361, 362, 363, 364, 365, 366, 367, 368],
