{
  "AcquisitionMatrixPE": 104,
  "AcquisitionNumber": 1,
  "AcquisitionTime": "18:21:55.290000",
  "BandwidthPerPixelPhaseEncode": 17.17,
  "BaseResolution": 104,
  "BodyPartExamined": "BRAIN",
  "CoilCombinationMethod": "Sum of Squares",
  "ConsistencyInfo": "N4_VE11C_LATEST_20160120",
  "ConversionSoftware": "dcm2niix",
  "ConversionSoftwareVersion": "v1.0.20220505",
  "DerivedVendorReportedEchoSpacing": 0.000560011,
  "DeviceSerialNumber": "167006",
  "DwellTime": 2.1e-06,
  "EchoTime": 0.037,
  "EchoTrainLength": 104,
  "EffectiveEchoSpacing": 0.000560011,
  "FlipAngle": 52,
  "HeudiconvVersion": "0.5.3.post811+g6206e14",
  "ImageComments": "Unaliased MB4/PE3/LB",
  "ImageOrientationPatientDICOM": [0.999937, -0.010556, 0.00372424, 0.0111699, 0.962644, -0.270538],
  "ImageOrientationText": "Tra>Cor(-15.7)>Sag(0.0)",
  "ImageType": [
    "ORIGINAL",
    "PRIMARY",
    "M",
    "MB",
    "ND",
    "MOSAIC"
],
  "ImagingFrequency": 123.259,
  "InPlanePhaseEncodingDirectionDICOM": "COL",
  "InstitutionAddress": "Chemin Queen-Mary 4565,Montreal,District,CA,H3W 1W5",
  "InstitutionName": "IUGM",
  "InstitutionalDepartmentName": "Department",
  "MRAcquisitionType": "2D",
  "MagneticFieldStrength": 3,
  "Manufacturer": "Siemens",
  "ManufacturersModelName": "Prisma_fit",
  "MatrixCoilMode": "SENSE",
  "Modality": "MR",
  "MultibandAccelerationFactor": 4,
  "PartialFourier": 1,
  "PatientPosition": "HFS",
  "PercentPhaseFOV": 100,
  "PercentSampling": 100,
  "PhaseEncodingDirection": "j",
  "PhaseEncodingSteps": 104,
  "PhaseResolution": 1,
  "PixelBandwidth": 2290,
  "ProcedureStepDescription": "games^mario3",
  "ProtocolName": "func_task-mario3_run-02",
  "PulseSequenceDetails": "%CustomerSeq%\\cmrr_mbep2d_bold",
  "ReceiveCoilActiveElements": "HC1-7;NC1,2",
  "ReceiveCoilName": "HeadNeck_64",
  "ReconMatrixPE": 104,
  "RepetitionTime": 1.49,
  "SAR": 0.0782892,
  "ScanOptions": "FS",
  "ScanningSequence": "EP",
  "SequenceName": "epfid2d1_104",
  "SequenceVariant": "SK\\SS",
  "SeriesDescription": "func_task-mario3_run-02",
  "SeriesNumber": 13,
  "ShimSetting": [637, -7218, -8755, 684, 37, -30, 50, 0],
  "SliceThickness": 2,
  "SliceTiming": [0, 0.785, 0.0975, 0.8825, 0.195, 0.98, 0.295, 1.0775, 0.3925, 1.175, 0.49, 1.275, 0.5875, 1.3725, 0.685, 0, 0.785, 0.0975, 0.8825, 0.195, 0.98, 0.295, 1.0775, 0.3925, 1.175, 0.49, 1.275, 0.5875, 1.3725, 0.685, 0, 0.785, 0.0975, 0.8825, 0.195, 0.98, 0.295, 1.0775, 0.3925, 1.175, 0.49, 1.275, 0.5875, 1.3725, 0.685, 0, 0.785, 0.0975, 0.8825, 0.195, 0.98, 0.295, 1.0775, 0.3925, 1.175, 0.49, 1.275, 0.5875, 1.3725, 0.685],
  "SoftwareVersions": "syngo MR E11",
  "SpacingBetweenSlices": 2,
  "StationName": "MRC35049",
  "TaskName": "mario3",
  "TotalReadoutTime": 0.0576811,
  "TxRefAmp": 271.349,
  "WipMemBlock": "61827ffa-d3df-4337-b689-97074fe19274||Sequence: R017 ve11c/master r/75a17815+; Jun 28 2022 16:32:11 by eja",
  "dcmmeta_affine": [
    [-1.9998747110366821, 0.022339828312397003, 0.001458634389564395, 108.00880432128906],
    [0.021111981943249702, 1.9252887964248657, -0.5411258339881897, -74.38045501708984],
    [0.007448475807905197, 0.5410765409469604, 1.9254039525985718, -53.165042877197266],
    [0.0, 0.0, 0.0, 1.0]
],
  "dcmmeta_reorient_transform": [
    [0.0, -1.0, 0.0, 103.0],
    [1.0, 0.0, 0.0, 0.0],
    [0.0, 0.0, 1.0, 0.0],
    [0.0, 0.0, 0.0, 1.0]
],
  "dcmmeta_shape": [104, 104, 60, 356],
  "dcmmeta_slice_dim": 2,
  "dcmmeta_version": 0.6,
  "global": {
    "const": {
      "AcquisitionMatrix": [104, 0, 0, 104],
      "AngioFlag": "N",
      "BitsAllocated": 16,
      "BitsStored": 16,
      "BodyPartExamined": "BRAIN",
      "Columns": 832,
      "EchoNumbers": 1,
      "EchoTime": 37.0,
      "EchoTrainLength": 104,
      "FlipAngle": 52.0,
      "HighBit": 15,
      "ImageOrientationPatient": [0.99993734859167, -0.0105559908888, 0.00372423788506, 0.01116991440949, 0.96264441613592, -0.2705382802755],
      "ImagePositionPatient": [-846.39589541249, -817.04466476107, 196.80646390239],
      "ImageType": [
        "ORIGINAL",
        "PRIMARY",
        "M",
        "MB",
        "ND",
        "MOSAIC"
],
      "ImagedNucleus": "1H",
      "ImagingFrequency": 123.258797,
      "InPlanePhaseEncodingDirection": "COL",
      "MRAcquisitionType": "2D",
      "MagneticFieldStrength": 3.0,
      "Manufacturer": "SIEMENS",
      "ManufacturerModelName": "Prisma_fit",
      "Modality": "MR",
      "NumberOfAverages": 1.0,
      "NumberOfPhaseEncodingSteps": 104,
      "PercentPhaseFieldOfView": 100.0,
      "PercentSampling": 100.0,
      "PerformedProcedureStepStartTime": "181017.608000",
      "PhotometricInterpretation": "MONOCHROME2",
      "PixelBandwidth": 2290.0,
      "PixelRepresentation": 0,
      "PixelSpacing": [2.0, 2.0],
      "ProtocolName": "func_task-mario3_run-02",
      "RepetitionTime": 1490.0,
      "Rows": 832,
      "SAR": 0.07828916772839,
      "SamplesPerPixel": 1,
      "ScanOptions": "FS",
      "ScanningSequence": "EP",
      "SequenceName": "epfid2d1_104",
      "SequenceVariant": [
        "SK",
        "SS"
],
      "SeriesDescription": "func_task-mario3_run-02",
      "SeriesNumber": 13,
      "SeriesTime": "182313.787000",
      "SliceLocation": -30.978728152412,
      "SliceThickness": 2.0,
      "SmallestImagePixelValue": 0,
      "SoftwareVersions": "syngo MR E11",
      "SpacingBetweenSlices": 1.9999999584187,
      "SpecificCharacterSet": "ISO_IR 100",
      "StudyID": "1",
      "StudyTime": "181017.539000",
      "TransmitCoilName": "Body",
      "VariableFlipAngleFlag": "N",
      "WindowCenterWidthExplanation": "Algo1",
      "dBdt": 0.0},
    "slices": {}
  },
  "time": {
    "samples": {
      "AcquisitionNumber": [1, 2, 3, 4, 5, 6, 7, 8, 9, 10, 11, 12, 13, 14, 15, 16, 17, 18, 19, 20, 21, 22, 23, 24, 25, 26, 27, 28, 29, 30, 31, 32, 33, 34, 35, 36, 37, 38, 39, 40, 41, 42, 43, 44, 45, 46, 47, 48, 49, 50, 51, 52, 53, 54, 55, 56, 57, 58, 59, 60, 61, 62, 63, 64, 65, 66, 67, 68, 69, 70, 71, 72, 73, 74, 75, 76, 77, 78, 79, 80, 81, 82, 83, 84, 85, 86, 87, 88, 89, 90, 91, 92, 93, 94, 95, 96, 97, 98, 99, 100, 101, 102, 103, 104, 105, 106, 107, 108, 109, 110, 111, 112, 113, 114, 115, 116, 117, 118, 119, 120, 121, 122, 123, 124, 125, 126, 127, 128, 129, 130, 131, 132, 133, 134, 135, 136, 137, 138, 139, 140, 141, 142, 143, 144, 145, 146, 147, 148, 149, 150, 151, 152, 153, 154, 155, 156, 157, 158, 159, 160, 161, 162, 163, 164, 165, 166, 167, 168, 169, 170, 171, 172, 173, 174, 175, 176, 177, 178, 179, 180, 181, 182, 183, 184, 185, 186, 187, 188, 189, 190, 191, 192, 193, 194, 195, 196, 197, 198, 199, 200, 201, 202, 203, 204, 205, 206, 207, 208, 209, 210, 211, 212, 213, 214, 215, 216, 217, 218, 219, 220, 221, 222, 223, 224, 225, 226, 227, 228, 229, 230, 231, 232, 233, 234, 235, 236, 237, 238, 239, 240, 241, 242, 243, 244, 245, 246, 247, 248, 249, 250, 251, 252, 253, 254, 255, 256, 257, 258, 259, 260, 261, 262, 263, 264, 265, 266, 267, 268, 269, 270, 271, 272, 273, 274, 275, 276, 277, 278, 279, 280, 281, 282, 283, 284, 285, 286, 287, 288, 289, 290, 291, 292, 293, 294, 295, 296, 297, 298, 299, 300, 301, 302, 303, 304, 305, 306, 307, 308, 309, 310, 311, 312, 313, 314, 315, 316, 317, 318, 319, 320, 321, 322, 323, 324, 325, 326, 327, 328, 329, 330, 331, 332, 333, 334, 335, 336, 337, 338, 339, 340, 341, 342, 343, 344, 345, 346, 347, 348, 349, 350, 351, 352, 353, 354, 355, 356],
      "AcquisitionTime": ["182155.290000", "182156.780000", "182158.270000", "182159.760000", "182201.250000", "182202.740000", "182204.230000", "182205.720000", "182207.210000", "182208.700000", "182210.190000", "182211.680000", "182213.170000", "182214.660000", "182216.150000", "182217.640000", "182219.130000", "182220.620000", "182222.110000", "182223.600000", "182225.090000", "182226.580000", "182228.070000", "182229.560000", "182231.050000", "182232.540000", "182234.030000", "182235.520000", "182237.010000", "182238.500000", "182239.990000", "182241.480000", "182242.970000", "182244.460000", "182245.950000", "182247.440000", "182248.930000", "182250.420000", "182251.910000", "182253.400000", "182254.890000", "182256.380000", "182257.870000", "182259.360000", "182300.850000", "182302.340000", "182303.830000", "182305.320000", "182306.810000", "182308.300000", "182309.790000", "182311.280000", "182312.770000", "182314.260000", "182315.750000", "182317.240000", "182318.730000", "182320.220000", "182321.710000", "182323.200000", "182324.690000", "182326.180000", "182327.670000", "182329.160000", "182330.650000", "182332.140000", "182333.630000", "182335.120000", "182336.610000", "182338.100000", "182339.590000", "182341.080000", "182342.570000", "182344.060000", "182345.550000", "182347.040000", "182348.530000", "182350.020000", "182351.510000", "182353.000000", "182354.490000", "182355.980000", "182357.470000", "182358.960000", "182400.450000", "182401.940000", "182403.430000", "182404.920000", "182406.410000", "182407.900000", "182409.390000", "182410.880000", "182412.370000", "182413.860000", "182415.350000", "182416.840000", "182418.330000", "182419.820000", "182421.310000", "182422.800000", "182424.290000", "182425.780000", "182427.270000", "182428.760000", "182430.250000", "182431.740000", "182433.230000", "182434.720000", "182436.210000", "182437.700000", "182439.190000", "182440.680000", "182442.170000", "182443.660000", "182445.150000", "182446.640000", "182448.130000", "182449.620000", "182451.110000", "182452.600000", "182454.090000", "182455.580000", "182457.070000", "182458.560000", "182500.050000", "182501.540000", "182503.030000", "182504.520000", "182506.010000", "182507.500000", "182508.990000", "182510.480000", "182511.970000", "182513.460000", "182514.950000", "182516.440000", "182517.930000", "182519.420000", "182520.910000", "182522.400000", "182523.890000", "182525.380000", "182526.870000", "182528.360000", "182529.850000", "182531.340000", "182532.830000", "182534.320000", "182535.810000", "182537.300000", "182538.790000", "182540.280000", "182541.770000", "182543.260000", "182544.750000", "182546.240000", "182547.730000", "182549.220000", "182550.710000", "182552.200000", "182553.690000", "182555.180000", "182556.670000", "182558.160000", "182559.650000", "182601.140000", "182602.630000", "182604.120000", "182605.610000", "182607.100000", "182608.590000", "182610.080000", "182611.570000", "182613.060000", "182614.550000", "182616.040000", "182617.530000", "182619.020000", "182620.510000", "182622.000000", "182623.490000", "182624.980000", "182626.470000", "182627.960000", "182629.450000", "182630.940000", "182632.430000", "182633.920000", "182635.410000", "182636.900000", "182638.390000", "182639.880000", "182641.370000", "182642.860000", "182644.350000", "182645.840000", "182647.330000", "182648.820000", "182650.310000", "182651.800000", "182653.290000", "182654.780000", "182656.270000", "182657.760000", "182659.250000", "182700.740000", "182702.230000", "182703.720000", "182705.210000", "182706.700000", "182708.190000", "182709.680000", "182711.170000", "182712.660000", "182714.150000", "182715.640000", "182717.130000", "182718.620000", "182720.110000", "182721.600000", "182723.090000", "182724.580000", "182726.070000", "182727.560000", "182729.050000", "182730.540000", "182732.030000", "182733.520000", "182735.010000", "182736.500000", "182737.990000", "182739.480000", "182740.970000", "182742.460000", "182743.950000", "182745.440000", "182746.930000", "182748.420000", "182749.910000", "182751.400000", "182752.890000", "182754.380000", "182755.870000", "182757.360000", "182758.850000", "182800.340000", "182801.830000", "182803.320000", "182804.810000", "182806.300000", "182807.790000", "182809.280000", "182810.770000", "182812.260000", "182813.750000", "182815.240000", "182816.730000", "182818.220000", "182819.710000", "182821.200000", "182822.690000", "182824.180000", "182825.670000", "182827.160000", "182828.650000", "182830.140000", "182831.630000", "182833.120000", "182834.610000", "182836.100000", "182837.590000", "182839.080000", "182840.570000", "182842.060000", "182843.550000", "182845.040000", "182846.530000", "182848.020000", "182849.510000", "182851.000000", "182852.490000", "182853.980000", "182855.470000", "182856.960000", "182858.450000", "182859.940000", "182901.430000", "182902.920000", "182904.410000", "182905.900000", "182907.390000", "182908.880000", "182910.370000", "182911.860000", "182913.350000", "182914.840000", "182916.330000", "182917.820000", "182919.310000", "182920.800000", "182922.290000", "182923.780000", "182925.270000", "182926.760000", "182928.250000", "182929.740000", "182931.230000", "182932.720000", "182934.210000", "182935.700000", "182937.190000", "182938.680000", "182940.170000", "182941.660000", "182943.150000", "182944.640000", "182946.130000", "182947.620000", "182949.110000", "182950.600000", "182952.090000", "182953.580000", "182955.070000", "182956.560000", "182958.050000", "182959.540000", "183001.030000", "183002.520000", "183004.010000", "183005.500000", "183006.990000", "183008.480000", "183009.970000", "183011.460000", "183012.950000", "183014.440000", "183015.930000", "183017.420000", "183018.910000", "183020.400000", "183021.890000", "183023.380000", "183024.870000", "183026.360000", "183027.850000", "183029.340000", "183030.830000", "183032.320000", "183033.810000", "183035.300000", "183036.790000", "183038.280000", "183039.770000", "183041.260000", "183042.750000", "183044.240000"],
      "ContentTime": ["182313.790000", "182313.794000", "182313.798000", "182313.801000", "182313.804000", "182313.807000", "182313.824000", "182313.828000", "182313.831000", "182313.834000", "182313.838000", "182313.841000", "182313.844000", "182313.848000", "182313.851000", "182313.854000", "182313.858000", "182313.861000", "182313.864000", "182313.868000", "182313.871000", "182313.875000", "182313.889000", "182313.900000", "182313.903000", "182313.906000", "182313.910000", "182313.913000", "182313.916000", "182313.920000", "182333.756000", "182333.760000", "182333.763000", "182333.766000", "182333.770000", "182333.773000", "182333.776000", "182333.780000", "182333.783000", "182333.786000", "182333.790000", "182333.793000", "182333.796000", "182333.800000", "182333.803000", "182333.806000", "182333.810000", "182333.813000", "182333.816000", "182333.820000", "182333.823000", "182353.756000", "182353.760000", "182353.763000", "182353.767000", "182353.770000", "182353.780000", "182353.784000", "182353.787000", "182353.791000", "182353.794000", "182353.797000", "182353.801000", "182353.804000", "182353.807000", "182353.811000", "182353.815000", "182353.818000", "182353.822000", "182353.825000", "182353.828000", "182413.756000", "182413.760000", "182413.763000", "182413.767000", "182413.770000", "182413.773000", "182413.777000", "182413.780000", "182413.783000", "182413.787000", "182413.790000", "182413.794000", "182413.797000", "182413.800000", "182413.804000", "182413.807000", "182413.810000", "182413.814000", "182413.817000", "182413.820000", "182453.756000", "182453.760000", "182453.763000", "182453.767000", "182453.770000", "182453.774000", "182453.777000", "182453.780000", "182453.784000", "182453.787000", "182453.790000", "182453.794000", "182453.797000", "182453.800000", "182453.804000", "182453.807000", "182453.810000", "182453.814000", "182453.817000", "182453.820000", "182453.824000", "182453.827000", "182453.831000", "182453.834000", "182453.852000", "182453.855000", "182453.858000", "182453.861000", "182533.757000", "182533.761000", "182533.765000", "182533.768000", "182533.772000", "182533.775000", "182533.779000", "182533.782000", "182533.785000", "182533.790000", "182533.793000", "182533.797000", "182533.800000", "182533.803000", "182533.807000", "182533.810000", "182533.813000", "182533.817000", "182533.820000", "182533.824000", "182533.827000", "182533.830000", "182533.834000", "182533.837000", "182533.841000", "182533.844000", "182613.756000", "182613.760000", "182613.767000", "182613.770000", "182613.773000", "182613.777000", "182613.780000", "182613.784000", "182613.787000", "182613.790000", "182613.794000", "182613.797000", "182613.801000", "182613.804000", "182613.807000", "182613.811000", "182613.814000", "182613.817000", "182613.821000", "182613.824000", "182613.828000", "182613.831000", "182613.835000", "182613.838000", "182613.841000", "182613.845000", "182613.848000", "182633.756000", "182633.760000", "182633.763000", "182633.767000", "182633.770000", "182633.774000", "182633.777000", "182633.780000", "182633.784000", "182633.787000", "182633.790000", "182633.794000", "182633.797000", "182633.800000", "182713.756000", "182713.760000", "182713.763000", "182713.767000", "182713.770000", "182713.774000", "182713.777000", "182713.780000", "182713.784000", "182713.787000", "182713.790000", "182713.794000", "182713.797000", "182713.800000", "182713.804000", "182713.807000", "182713.811000", "182713.814000", "182713.817000", "182713.821000", "182713.824000", "182713.828000", "182713.831000", "182713.834000", "182713.838000", "182713.841000", "182713.845000", "182753.757000", "182753.761000", "182753.764000", "182753.768000", "182753.771000", "182753.775000", "182753.778000", "182753.781000", "182753.785000", "182753.788000", "182753.792000", "182753.795000", "182753.798000", "182753.802000", "182753.805000", "182753.808000", "182753.812000", "182753.815000", "182753.819000", "182753.822000", "182753.825000", "182753.829000", "182753.832000", "182753.836000", "182753.839000", "182753.843000", "182833.756000", "182833.760000", "182833.763000", "182833.767000", "182833.770000", "182833.773000", "182833.777000", "182833.780000", "182833.784000", "182833.787000", "182833.790000", "182833.794000", "182833.797000", "182833.800000", "182833.804000", "182833.807000", "182833.811000", "182833.814000", "182833.817000", "182833.821000", "182833.824000", "182833.827000", "182833.831000", "182833.834000", "182833.838000", "182833.841000", "182833.844000", "182913.756000", "182913.760000", "182913.763000", "182913.767000", "182913.770000", "182913.774000", "182913.777000", "182913.781000", "182913.784000", "182913.787000", "182913.791000", "182913.794000", "182913.797000", "182913.801000", "182913.804000", "182913.808000", "182913.811000", "182913.814000", "182913.818000", "182913.821000", "182913.824000", "182913.828000", "182913.831000", "182913.835000", "182913.838000", "182913.841000", "182913.845000", "182953.757000", "182953.761000", "182953.765000", "182953.768000", "182953.771000", "182953.775000", "182953.778000", "182953.782000", "182953.785000", "182953.789000", "182953.792000", "182953.796000", "182953.799000", "182953.802000", "182953.820000", "182953.823000", "182953.827000", "182953.830000", "182953.833000", "182953.837000", "182953.840000", "182953.844000", "182953.847000", "182953.850000", "182953.854000", "182953.857000", "182953.861000", "183033.756000", "183033.760000", "183033.764000", "183033.767000", "183033.770000", "183033.774000", "183033.777000", "183033.781000", "183033.784000", "183033.787000", "183033.791000", "183033.794000", "183033.798000", "183033.801000", "183033.804000", "183033.808000", "183033.811000", "183033.814000", "183033.818000", "183033.821000", "183033.825000", "183033.828000", "183033.832000", "183033.835000", "183033.838000", "183033.842000", "183033.845000", "183047.495000", "183047.499000", "183047.502000", "183047.506000", "183047.509000", "183047.513000", "183047.516000", "183047.519000", "183047.523000"],
      "InstanceCreationTime": ["182313.790000", "182313.794000", "182313.798000", "182313.801000", "182313.804000", "182313.807000", "182313.824000", "182313.828000", "182313.831000", "182313.834000", "182313.838000", "182313.841000", "182313.844000", "182313.848000", "182313.851000", "182313.854000", "182313.858000", "182313.861000", "182313.864000", "182313.868000", "182313.871000", "182313.875000", "182313.889000", "182313.900000", "182313.903000", "182313.906000", "182313.910000", "182313.913000", "182313.916000", "182313.920000", "182333.756000", "182333.760000", "182333.763000", "182333.766000", "182333.770000", "182333.773000", "182333.776000", "182333.780000", "182333.783000", "182333.786000", "182333.790000", "182333.793000", "182333.796000", "182333.800000", "182333.803000", "182333.806000", "182333.810000", "182333.813000", "182333.816000", "182333.820000", "182333.823000", "182353.756000", "182353.760000", "182353.763000", "182353.767000", "182353.770000", "182353.780000", "182353.784000", "182353.787000", "182353.791000", "182353.794000", "182353.797000", "182353.801000", "182353.804000", "182353.807000", "182353.811000", "182353.815000", "182353.818000", "182353.822000", "182353.825000", "182353.828000", "182413.756000", "182413.760000", "182413.763000", "182413.767000", "182413.770000", "182413.773000", "182413.777000", "182413.780000", "182413.783000", "182413.787000", "182413.790000", "182413.794000", "182413.797000", "182413.800000", "182413.804000", "182413.807000", "182413.810000", "182413.814000", "182413.817000", "182413.820000", "182453.756000", "182453.760000", "182453.763000", "182453.767000", "182453.770000", "182453.774000", "182453.777000", "182453.780000", "182453.784000", "182453.787000", "182453.790000", "182453.794000", "182453.797000", "182453.800000", "182453.804000", "182453.807000", "182453.810000", "182453.814000", "182453.817000", "182453.820000", "182453.824000", "182453.827000", "182453.831000", "182453.834000", "182453.852000", "182453.855000", "182453.858000", "182453.861000", "182533.757000", "182533.761000", "182533.765000", "182533.768000", "182533.772000", "182533.775000", "182533.779000", "182533.782000", "182533.785000", "182533.790000", "182533.793000", "182533.797000", "182533.800000", "182533.803000", "182533.807000", "182533.810000", "182533.813000", "182533.817000", "182533.820000", "182533.824000", "182533.827000", "182533.830000", "182533.834000", "182533.837000", "182533.841000", "182533.844000", "182613.756000", "182613.760000", "182613.767000", "182613.770000", "182613.773000", "182613.777000", "182613.780000", "182613.784000", "182613.787000", "182613.790000", "182613.794000", "182613.797000", "182613.801000", "182613.804000", "182613.807000", "182613.811000", "182613.814000", "182613.817000", "182613.821000", "182613.824000", "182613.828000", "182613.831000", "182613.835000", "182613.838000", "182613.841000", "182613.845000", "182613.848000", "182633.756000", "182633.760000", "182633.763000", "182633.767000", "182633.770000", "182633.774000", "182633.777000", "182633.780000", "182633.784000", "182633.787000", "182633.790000", "182633.794000", "182633.797000", "182633.800000", "182713.756000", "182713.760000", "182713.763000", "182713.767000", "182713.770000", "182713.774000", "182713.777000", "182713.780000", "182713.784000", "182713.787000", "182713.790000", "182713.794000", "182713.797000", "182713.800000", "182713.804000", "182713.807000", "182713.811000", "182713.814000", "182713.817000", "182713.821000", "182713.824000", "182713.828000", "182713.831000", "182713.834000", "182713.838000", "182713.841000", "182713.845000", "182753.757000", "182753.761000", "182753.764000", "182753.768000", "182753.771000", "182753.775000", "182753.778000", "182753.781000", "182753.785000", "182753.788000", "182753.792000", "182753.795000", "182753.798000", "182753.802000", "182753.805000", "182753.808000", "182753.812000", "182753.815000", "182753.819000", "182753.822000", "182753.825000", "182753.829000", "182753.832000", "182753.836000", "182753.839000", "182753.843000", "182833.756000", "182833.760000", "182833.763000", "182833.767000", "182833.770000", "182833.773000", "182833.777000", "182833.780000", "182833.784000", "182833.787000", "182833.790000", "182833.794000", "182833.797000", "182833.800000", "182833.804000", "182833.807000", "182833.811000", "182833.814000", "182833.817000", "182833.821000", "182833.824000", "182833.827000", "182833.831000", "182833.834000", "182833.838000", "182833.841000", "182833.844000", "182913.756000", "182913.760000", "182913.763000", "182913.767000", "182913.770000", "182913.774000", "182913.777000", "182913.781000", "182913.784000", "182913.787000", "182913.791000", "182913.794000", "182913.797000", "182913.801000", "182913.804000", "182913.808000", "182913.811000", "182913.814000", "182913.818000", "182913.821000", "182913.824000", "182913.828000", "182913.831000", "182913.835000", "182913.838000", "182913.841000", "182913.845000", "182953.757000", "182953.761000", "182953.765000", "182953.768000", "182953.771000", "182953.775000", "182953.778000", "182953.782000", "182953.785000", "182953.789000", "182953.792000", "182953.796000", "182953.799000", "182953.802000", "182953.820000", "182953.823000", "182953.827000", "182953.830000", "182953.833000", "182953.837000", "182953.840000", "182953.844000", "182953.847000", "182953.850000", "182953.854000", "182953.857000", "182953.861000", "183033.756000", "183033.760000", "183033.764000", "183033.767000", "183033.770000", "183033.774000", "183033.777000", "183033.781000", "183033.784000", "183033.787000", "183033.791000", "183033.794000", "183033.798000", "183033.801000", "183033.804000", "183033.808000", "183033.811000", "183033.814000", "183033.818000", "183033.821000", "183033.825000", "183033.828000", "183033.832000", "183033.835000", "183033.838000", "183033.842000", "183033.845000", "183047.495000", "183047.499000", "183047.502000", "183047.506000", "183047.509000", "183047.513000", "183047.516000", "183047.519000", "183047.523000"],
      "InstanceNumber": [1, 2, 3, 4, 5, 6, 7, 8, 9, 10, 11, 12, 13, 14, 15, 16, 17, 18, 19, 20, 21, 22, 23, 24, 25, 26, 27, 28, 29, 30, 31, 32, 33, 34, 35, 36, 37, 38, 39, 40, 41, 42, 43, 44, 45, 46, 47, 48, 49, 50, 51, 52, 53, 54, 55, 56, 57, 58, 59, 60, 61, 62, 63, 64, 65, 66, 67, 68, 69, 70, 71, 72, 73, 74, 75, 76, 77, 78, 79, 80, 81, 82, 83, 84, 85, 86, 87, 88, 89, 90, 91, 92, 93, 94, 95, 96, 97, 98, 99, 100, 101, 102, 103, 104, 105, 106, 107, 108, 109, 110, 111, 112, 113, 114, 115, 116, 117, 118, 119, 120, 121, 122, 123, 124, 125, 126, 127, 128, 129, 130, 131, 132, 133, 134, 135, 136, 137, 138, 139, 140, 141, 142, 143, 144, 145, 146, 147, 148, 149, 150, 151, 152, 153, 154, 155, 156, 157, 158, 159, 160, 161, 162, 163, 164, 165, 166, 167, 168, 169, 170, 171, 172, 173, 174, 175, 176, 177, 178, 179, 180, 181, 182, 183, 184, 185, 186, 187, 188, 189, 190, 191, 192, 193, 194, 195, 196, 197, 198, 199, 200, 201, 202, 203, 204, 205, 206, 207, 208, 209, 210, 211, 212, 213, 214, 215, 216, 217, 218, 219, 220, 221, 222, 223, 224, 225, 226, 227, 228, 229, 230, 231, 232, 233, 234, 235, 236, 237, 238, 239, 240, 241, 242, 243, 244, 245, 246, 247, 248, 249, 250, 251, 252, 253, 254, 255, 256, 257, 258, 259, 260, 261, 262, 263, 264, 265, 266, 267, 268, 269, 270, 271, 272, 273, 274, 275, 276, 277, 278, 279, 280, 281, 282, 283, 284, 285, 286, 287, 288, 289, 290, 291, 292, 293, 294, 295, 296, 297, 298, 299, 300, 301, 302, 303, 304, 305, 306, 307, 308, 309, 310, 311, 312, 313, 314, 315, 316, 317, 318, 319, 320, 321, 322, 323, 324, 325, 326, 327, 328, 329, 330, 331, 332, 333, 334, 335, 336, 337, 338, 339, 340, 341, 342, 343, 344, 345, 346, 347, 348, 349, 350, 351, 352, 353, 354, 355, 356],
      "LargestImagePixelValue": [43409, 42014, 41977, 40732, 40328, 39684, 39416, 39177, 39733, 38650, 38485, 39568, 38739, 37776, 40205, 38965, 39350, 38753, 38924, 37585, 39783, 40053, 38674, 39376, 39487, 39243, 38998, 39099, 38344, 39678, 39660, 39254, 39015, 38959, 39391, 38641, 39412, 38289, 38601, 38724, 38511, 38757, 38730, 39602, 40015, 39014, 38193, 38282, 38764, 38439, 38300, 38038, 38854, 38621, 39135, 39078, 39134, 38753, 38347, 39003, 39066, 38808, 38385, 38347, 38522, 38487, 38979, 38910, 38830, 38245, 38209, 38362, 38878, 38935, 38009, 38366, 38716, 39178, 38958, 40455, 38975, 38159, 38101, 37681, 37887, 38797, 38119, 38270, 37550, 39940, 40354, 39994, 39794, 39631, 39610, 38548, 38616, 38900, 37681, 37984, 38363, 38343, 38357, 38265, 38393, 38400, 38094, 38026, 37902, 38567, 38123, 37778, 38359, 37938, 38401, 37985, 38032, 37737, 38110, 37623, 38093, 37924, 38575, 38147, 38274, 37610, 37827, 39850, 39780, 39232, 38990, 39063, 39116, 38653, 39264, 39129, 39041, 39000, 38873, 39398, 37920, 38215, 39164, 38016, 38152, 38239, 38265, 39574, 39903, 38996, 39430, 39179, 39487, 38845, 39000, 38683, 38357, 38579, 39050, 38336, 38250, 38591, 39023, 38594, 38922, 38656, 38690, 38700, 38675, 38646, 39890, 39390, 38687, 38587, 38508, 39316, 38553, 38970, 38731, 39527, 39554, 38652, 38762, 38195, 38511, 39255, 38668, 39154, 39116, 38650, 38071, 38686, 39090, 39997, 38457, 39410, 39309, 39079, 39353, 38475, 38419, 38772, 38566, 39453, 39496, 38639, 39743, 39415, 39288, 38977, 39088, 38760, 38936, 39467, 38603, 39538, 39313, 38816, 39408, 39118, 39363, 38496, 39092, 39006, 38614, 38112, 38340, 38739, 38587, 38849, 38765, 38605, 38617, 38348, 38886, 38946, 38787, 38615, 38995, 38897, 37989, 38343, 38356, 39067, 38573, 38253, 38635, 38444, 38266, 38753, 38415, 39132, 39077, 38601, 38923, 39776, 39742, 39970, 40068, 39884, 39749, 40125, 40256, 40996, 40442, 40345, 39819, 39530, 39618, 39990, 40019, 39748, 39087, 39581, 38936, 39011, 39320, 40048, 39996, 39680, 39734, 39215, 39292, 39269, 39755, 39543, 39315, 40276, 39911, 39363, 39327, 39295, 39169, 39308, 40074, 39944, 39377, 39570, 39104, 38913, 39795, 39401, 39687, 39482, 39743, 39529, 39279, 39092, 38416, 38525, 38724, 39569, 38869, 38716, 38145, 38392, 38768, 39045, 38503, 38715, 39739, 39370, 40166, 39108, 39714, 38974, 38272, 38335, 36774, 37687, 40203, 39016, 38483, 38712, 37726, 38692, 37925, 37990, 38523, 38247, 38332, 38158, 38837, 38216, 42303, 41488, 40159, 40014, 38705, 40161, 40461, 40434, 40290, 40720, 39987, 40178],
