{
  "AcquisitionMatrixPE": 104,
  "AcquisitionNumber": 1,
  "AcquisitionTime": "18:21:55.290000",
  "BandwidthPerPixelPhaseEncode": 17.17,
  "BaseResolution": 104,
  "BodyPartExamined": "BRAIN",
  "CoilCombinationMethod": "Sum of Squares",
  "ConsistencyInfo": "N4_VE11C_LATEST_20160120",
  "ConversionSoftware": "dcm2niix",
  "ConversionSoftwareVersion": "v1.0.20220505",
  "DerivedVendorReportedEchoSpacing": 0.000560011,
  "DeviceSerialNumber": "167006",
  "DwellTime": 2.1e-06,
  "EchoTime": 0.037,
  "EchoTime1": 0.037,
  "EchoTime2": 0.001,
  "EchoTrainLength": 104,
  "EffectiveEchoSpacing": 0.000560011,
  "FlipAngle": 52,
  "HeudiconvVersion": "0.5.3.post811+g6206e14",
  "ImageComments": "Unaliased MB4/PE3/LB",
  "ImageOrientationPatientDICOM": [0.999937, -0.010556, 0.00372424, 0.0111699, 0.962644, -0.270538],
  "ImageOrientationText": "Tra>Cor(-15.7)>Sag(0.0)",
  "ImageType": [
    "ORIGINAL",
    "PRIMARY",
    "P",
    "MB",
    "ND",
    "MOSAIC",
    "PHASE"
],
  "ImagingFrequency": 123.259,
  "InPlanePhaseEncodingDirectionDICOM": "COL",
  "InstitutionAddress": "Chemin Queen-Mary 4565,Montreal,District,CA,H3W 1W5",
  "InstitutionName": "IUGM",
  "InstitutionalDepartmentName": "Department",
  "MRAcquisitionType": "2D",
  "MagneticFieldStrength": 3,
  "Manufacturer": "Siemens",
  "ManufacturersModelName": "Prisma_fit",
  "MatrixCoilMode": "SENSE",
  "Modality": "MR",
  "MultibandAccelerationFactor": 4,
  "PartialFourier": 1,
  "PatientPosition": "HFS",
  "PercentPhaseFOV": 100,
  "PercentSampling": 100,
  "PhaseEncodingDirection": "j",
  "PhaseEncodingSteps": 104,
  "PhaseResolution": 1,
  "PixelBandwidth": 2290,
  "ProcedureStepDescription": "games^mario3",
  "ProtocolName": "func_task-mario3_run-02",
  "PulseSequenceDetails": "%CustomerSeq%\\cmrr_mbep2d_bold",
  "ReceiveCoilActiveElements": "HC1-7;NC1,2",
  "ReceiveCoilName": "HeadNeck_64",
  "ReconMatrixPE": 104,
  "RepetitionTime": 1.49,
  "SAR": 0.0782892,
  "ScanOptions": "FS",
  "ScanningSequence": "EP",
  "SequenceName": "epfid2d1_104",
  "SequenceVariant": "SK\\SS",
  "SeriesDescription": "func_task-mario3_run-02",
  "SeriesNumber": 14,
  "ShimSetting": [637, -7218, -8755, 684, 37, -30, 50, 0],
  "SliceThickness": 2,
  "SliceTiming": [0, 0.785, 0.0975, 0.8825, 0.195, 0.98, 0.295, 1.0775, 0.3925, 1.175, 0.49, 1.275, 0.5875, 1.3725, 0.685, 0, 0.785, 0.0975, 0.8825, 0.195, 0.98, 0.295, 1.0775, 0.3925, 1.175, 0.49, 1.275, 0.5875, 1.3725, 0.685, 0, 0.785, 0.0975, 0.8825, 0.195, 0.98, 0.295, 1.0775, 0.3925, 1.175, 0.49, 1.275, 0.5875, 1.3725, 0.685, 0, 0.785, 0.0975, 0.8825, 0.195, 0.98, 0.295, 1.0775, 0.3925, 1.175, 0.49, 1.275, 0.5875, 1.3725, 0.685],
  "SoftwareVersions": "syngo MR E11",
  "SpacingBetweenSlices": 2,
  "StationName": "MRC35049",
  "TaskName": "mario3",
  "TotalReadoutTime": 0.0576811,
  "TxRefAmp": 271.349,
  "WipMemBlock": "61827ffa-d3df-4337-b689-97074fe19274||Sequence: R017 ve11c/master r/75a17815+; Jun 28 2022 16:32:11 by eja",
  "dcmmeta_affine": [
    [-1.9998747110366821, 0.022339828312397003, 0.001458634389564395, 108.00880432128906],
    [0.021111981943249702, 1.9252887964248657, -0.5411258339881897, -74.38045501708984],
    [0.007448475807905197, 0.5410765409469604, 1.9254039525985718, -53.165042877197266],
    [0.0, 0.0, 0.0, 1.0]
],
  "dcmmeta_reorient_transform": [
    [0.0, -1.0, 0.0, 103.0],
    [1.0, 0.0, 0.0, 0.0],
    [0.0, 0.0, 1.0, 0.0],
    [0.0, 0.0, 0.0, 1.0]
],
  "dcmmeta_shape": [104, 104, 60, 356],
  "dcmmeta_slice_dim": 2,
  "dcmmeta_version": 0.6,
  "global": {
    "const": {
      "AcquisitionMatrix": [104, 0, 0, 104],
      "AngioFlag": "N",
      "BitsAllocated": 16,
      "BitsStored": 16,
      "BodyPartExamined": "BRAIN",
      "Columns": 832,
      "EchoNumbers": 1,
      "EchoTime": 37.0,
      "EchoTrainLength": 104,
      "FlipAngle": 52.0,
      "HighBit": 15,
      "ImageOrientationPatient": [0.99993734859167, -0.0105559908888, 0.00372423788506, 0.01116991440949, 0.96264441613592, -0.2705382802755],
      "ImagePositionPatient": [-846.39589541249, -817.04466476107, 196.80646390239],
      "ImageType": [
        "ORIGINAL",
        "PRIMARY",
        "P",
        "MB",
        "ND",
        "MOSAIC"
],
      "ImagedNucleus": "1H",
      "ImagingFrequency": 123.258797,
      "InPlanePhaseEncodingDirection": "COL",
      "LargestImagePixelValue": 4095,
      "MRAcquisitionType": "2D",
      "MagneticFieldStrength": 3.0,
      "Manufacturer": "SIEMENS",
      "ManufacturerModelName": "Prisma_fit",
      "Modality": "MR",
      "NumberOfAverages": 1.0,
      "NumberOfPhaseEncodingSteps": 104,
      "PercentPhaseFieldOfView": 100.0,
      "PercentSampling": 100.0,
      "PerformedProcedureStepStartTime": "181017.608000",
      "PhotometricInterpretation": "MONOCHROME2",
      "PixelBandwidth": 2290.0,
      "PixelRepresentation": 0,
      "PixelSpacing": [2.0, 2.0],
      "ProtocolName": "func_task-mario3_run-02",
      "RepetitionTime": 1490.0,
      "RescaleIntercept": -4096.0,
      "RescaleSlope": 2.0,
      "RescaleType": "US",
      "Rows": 832,
      "SAR": 0.07828916772839,
      "SamplesPerPixel": 1,
      "ScanOptions": "FS",
      "ScanningSequence": "EP",
      "SequenceName": "epfid2d1_104",
      "SequenceVariant": [
        "SK",
        "SS"
],
      "SeriesDescription": "func_task-mario3_run-02",
      "SeriesNumber": 14,
      "SeriesTime": "182313.968000",
      "SliceLocation": -30.978728152412,
      "SliceThickness": 2.0,
      "SmallestImagePixelValue": 0,
      "SoftwareVersions": "syngo MR E11",
      "SpacingBetweenSlices": 1.9999999584187,
      "SpecificCharacterSet": "ISO_IR 100",
      "StudyID": "1",
      "StudyTime": "181017.539000",
      "TransmitCoilName": "Body",
      "VariableFlipAngleFlag": "N",
      "WindowCenterWidthExplanation": "Algo1",
      "dBdt": 0.0},
    "slices": {}
  },
  "time": {
    "samples": {
      "AcquisitionNumber": [1, 2, 3, 4, 5, 6, 7, 8, 9, 10, 11, 12, 13, 14, 15, 16, 17, 18, 19, 20, 21, 22, 23, 24, 25, 26, 27, 28, 29, 30, 31, 32, 33, 34, 35, 36, 37, 38, 39, 40, 41, 42, 43, 44, 45, 46, 47, 48, 49, 50, 51, 52, 53, 54, 55, 56, 57, 58, 59, 60, 61, 62, 63, 64, 65, 66, 67, 68, 69, 70, 71, 72, 73, 74, 75, 76, 77, 78, 79, 80, 81, 82, 83, 84, 85, 86, 87, 88, 89, 90, 91, 92, 93, 94, 95, 96, 97, 98, 99, 100, 101, 102, 103, 104, 105, 106, 107, 108, 109, 110, 111, 112, 113, 114, 115, 116, 117, 118, 119, 120, 121, 122, 123, 124, 125, 126, 127, 128, 129, 130, 131, 132, 133, 134, 135, 136, 137, 138, 139, 140, 141, 142, 143, 144, 145, 146, 147, 148, 149, 150, 151, 152, 153, 154, 155, 156, 157, 158, 159, 160, 161, 162, 163, 164, 165, 166, 167, 168, 169, 170, 171, 172, 173, 174, 175, 176, 177, 178, 179, 180, 181, 182, 183, 184, 185, 186, 187, 188, 189, 190, 191, 192, 193, 194, 195, 196, 197, 198, 199, 200, 201, 202, 203, 204, 205, 206, 207, 208, 209, 210, 211, 212, 213, 214, 215, 216, 217, 218, 219, 220, 221, 222, 223, 224, 225, 226, 227, 228, 229, 230, 231, 232, 233, 234, 235, 236, 237, 238, 239, 240, 241, 242, 243, 244, 245, 246, 247, 248, 249, 250, 251, 252, 253, 254, 255, 256, 257, 258, 259, 260, 261, 262, 263, 264, 265, 266, 267, 268, 269, 270, 271, 272, 273, 274, 275, 276, 277, 278, 279, 280, 281, 282, 283, 284, 285, 286, 287, 288, 289, 290, 291, 292, 293, 294, 295, 296, 297, 298, 299, 300, 301, 302, 303, 304, 305, 306, 307, 308, 309, 310, 311, 312, 313, 314, 315, 316, 317, 318, 319, 320, 321, 322, 323, 324, 325, 326, 327, 328, 329, 330, 331, 332, 333, 334, 335, 336, 337, 338, 339, 340, 341, 342, 343, 344, 345, 346, 347, 348, 349, 350, 351, 352, 353, 354, 355, 356],
      "AcquisitionTime": ["182155.290000", "182156.780000", "182158.270000", "182159.760000", "182201.250000", "182202.740000", "182204.230000", "182205.720000", "182207.210000", "182208.700000", "182210.190000", "182211.680000", "182213.170000", "182214.660000", "182216.150000", "182217.640000", "182219.130000", "182220.620000", "182222.110000", "182223.600000", "182225.090000", "182226.580000", "182228.070000", "182229.560000", "182231.050000", "182232.540000", "182234.030000", "182235.520000", "182237.010000", "182238.500000", "182239.990000", "182241.480000", "182242.970000", "182244.460000", "182245.950000", "182247.440000", "182248.930000", "182250.420000", "182251.910000", "182253.400000", "182254.890000", "182256.380000", "182257.870000", "182259.360000", "182300.850000", "182302.340000", "182303.830000", "182305.320000", "182306.810000", "182308.300000", "182309.790000", "182311.280000", "182312.770000", "182314.260000", "182315.750000", "182317.240000", "182318.730000", "182320.220000", "182321.710000", "182323.200000", "182324.690000", "182326.180000", "182327.670000", "182329.160000", "182330.650000", "182332.140000", "182333.630000", "182335.120000", "182336.610000", "182338.100000", "182339.590000", "182341.080000", "182342.570000", "182344.060000", "182345.550000", "182347.040000", "182348.530000", "182350.020000", "182351.510000", "182353.000000", "182354.490000", "182355.980000", "182357.470000", "182358.960000", "182400.450000", "182401.940000", "182403.430000", "182404.920000", "182406.410000", "182407.900000", "182409.390000", "182410.880000", "182412.370000", "182413.860000", "182415.350000", "182416.840000", "182418.330000", "182419.820000", "182421.310000", "182422.800000", "182424.290000", "182425.780000", "182427.270000", "182428.760000", "182430.250000", "182431.740000", "182433.230000", "182434.720000", "182436.210000", "182437.700000", "182439.190000", "182440.680000", "182442.170000", "182443.660000", "182445.150000", "182446.640000", "182448.130000", "182449.620000", "182451.110000", "182452.600000", "182454.090000", "182455.580000", "182457.070000", "182458.560000", "182500.050000", "182501.540000", "182503.030000", "182504.520000", "182506.010000", "182507.500000", "182508.990000", "182510.480000", "182511.970000", "182513.460000", "182514.950000", "182516.440000", "182517.930000", "182519.420000", "182520.910000", "182522.400000", "182523.890000", "182525.380000", "182526.870000", "182528.360000", "182529.850000", "182531.340000", "182532.830000", "182534.320000", "182535.810000", "182537.300000", "182538.790000", "182540.280000", "182541.770000", "182543.260000", "182544.750000", "182546.240000", "182547.730000", "182549.220000", "182550.710000", "182552.200000", "182553.690000", "182555.180000", "182556.670000", "182558.160000", "182559.650000", "182601.140000", "182602.630000", "182604.120000", "182605.610000", "182607.100000", "182608.590000", "182610.080000", "182611.570000", "182613.060000", "182614.550000", "182616.040000", "182617.530000", "182619.020000", "182620.510000", "182622.000000", "182623.490000", "182624.980000", "182626.470000", "182627.960000", "182629.450000", "182630.940000", "182632.430000", "182633.920000", "182635.410000", "182636.900000", "182638.390000", "182639.880000", "182641.370000", "182642.860000", "182644.350000", "182645.840000", "182647.330000", "182648.820000", "182650.310000", "182651.800000", "182653.290000", "182654.780000", "182656.270000", "182657.760000", "182659.250000", "182700.740000", "182702.230000", "182703.720000", "182705.210000", "182706.700000", "182708.190000", "182709.680000", "182711.170000", "182712.660000", "182714.150000", "182715.640000", "182717.130000", "182718.620000", "182720.110000", "182721.600000", "182723.090000", "182724.580000", "182726.070000", "182727.560000", "182729.050000", "182730.540000", "182732.030000", "182733.520000", "182735.010000", "182736.500000", "182737.990000", "182739.480000", "182740.970000", "182742.460000", "182743.950000", "182745.440000", "182746.930000", "182748.420000", "182749.910000", "182751.400000", "182752.890000", "182754.380000", "182755.870000", "182757.360000", "182758.850000", "182800.340000", "182801.830000", "182803.320000", "182804.810000", "182806.300000", "182807.790000", "182809.280000", "182810.770000", "182812.260000", "182813.750000", "182815.240000", "182816.730000", "182818.220000", "182819.710000", "182821.200000", "182822.690000", "182824.180000", "182825.670000", "182827.160000", "182828.650000", "182830.140000", "182831.630000", "182833.120000", "182834.610000", "182836.100000", "182837.590000", "182839.080000", "182840.570000", "182842.060000", "182843.550000", "182845.040000", "182846.530000", "182848.020000", "182849.510000", "182851.000000", "182852.490000", "182853.980000", "182855.470000", "182856.960000", "182858.450000", "182859.940000", "182901.430000", "182902.920000", "182904.410000", "182905.900000", "182907.390000", "182908.880000", "182910.370000", "182911.860000", "182913.350000", "182914.840000", "182916.330000", "182917.820000", "182919.310000", "182920.800000", "182922.290000", "182923.780000", "182925.270000", "182926.760000", "182928.250000", "182929.740000", "182931.230000", "182932.720000", "182934.210000", "182935.700000", "182937.190000", "182938.680000", "182940.170000", "182941.660000", "182943.150000", "182944.640000", "182946.130000", "182947.620000", "182949.110000", "182950.600000", "182952.090000", "182953.580000", "182955.070000", "182956.560000", "182958.050000", "182959.540000", "183001.030000", "183002.520000", "183004.010000", "183005.500000", "183006.990000", "183008.480000", "183009.970000", "183011.460000", "183012.950000", "183014.440000", "183015.930000", "183017.420000", "183018.910000", "183020.400000", "183021.890000", "183023.380000", "183024.870000", "183026.360000", "183027.850000", "183029.340000", "183030.830000", "183032.320000", "183033.810000", "183035.300000", "183036.790000", "183038.280000", "183039.770000", "183041.260000", "183042.750000", "183044.240000"],
      "ContentTime": ["182313.971000", "182313.974000", "182313.977000", "182313.979000", "182313.982000", "182313.996000", "182313.998000", "182314.002000", "182314.004000", "182314.007000", "182314.009000", "182314.012000", "182314.014000", "182314.017000", "182314.019000", "182314.022000", "182314.024000", "182314.027000", "182314.029000", "182314.032000", "182314.034000", "182314.037000", "182314.039000", "182314.042000", "182314.044000", "182314.046000", "182314.049000", "182314.051000", "182314.054000", "182314.056000", "182333.870000", "182333.873000", "182333.876000", "182333.878000", "182333.880000", "182333.883000", "182333.885000", "182333.888000", "182333.891000", "182333.893000", "182333.895000", "182333.898000", "182333.900000", "182333.903000", "182333.905000", "182333.908000", "182333.910000", "182333.913000", "182333.915000", "182333.918000", "182333.920000", "182353.875000", "182353.878000", "182353.881000", "182353.883000", "182353.886000", "182353.888000", "182353.891000", "182353.893000", "182353.896000", "182353.898000", "182353.901000", "182353.903000", "182353.906000", "182353.908000", "182353.911000", "182353.913000", "182353.916000", "182353.918000", "182353.921000", "182353.923000", "182413.868000", "182413.871000", "182413.873000", "182413.876000", "182413.878000", "182413.881000", "182413.884000", "182413.886000", "182413.889000", "182413.891000", "182413.894000", "182413.896000", "182413.899000", "182413.901000", "182413.904000", "182413.906000", "182413.909000", "182413.911000", "182413.914000", "182413.916000", "182453.922000", "182453.924000", "182453.927000", "182453.929000", "182453.932000", "182453.934000", "182453.937000", "182453.939000", "182453.942000", "182453.944000", "182453.947000", "182453.949000", "182453.952000", "182453.954000", "182453.957000", "182453.959000", "182453.962000", "182453.965000", "182453.967000", "182453.969000", "182453.972000", "182453.975000", "182453.977000", "182453.980000", "182453.982000", "182453.985000", "182453.987000", "182453.990000", "182533.896000", "182533.898000", "182533.901000", "182533.903000", "182533.906000", "182533.909000", "182533.911000", "182533.914000", "182533.916000", "182533.919000", "182533.921000", "182533.924000", "182533.926000", "182533.929000", "182533.931000", "182533.934000", "182533.936000", "182533.939000", "182533.942000", "182533.944000", "182533.947000", "182533.949000", "182533.952000", "182533.954000", "182533.957000", "182533.959000", "182613.892000", "182613.895000", "182613.897000", "182613.900000", "182613.902000", "182613.905000", "182613.907000", "182613.910000", "182613.913000", "182613.915000", "182613.918000", "182613.920000", "182613.923000", "182613.925000", "182613.928000", "182613.930000", "182613.933000", "182613.935000", "182613.938000", "182613.941000", "182613.943000", "182613.946000", "182613.948000", "182613.951000", "182613.953000", "182613.956000", "182613.958000", "182633.832000", "182633.835000", "182633.838000", "182633.840000", "182633.843000", "182633.845000", "182633.848000", "182633.850000", "182633.853000", "182633.855000", "182633.858000", "182633.860000", "182633.863000", "182633.865000", "182713.892000", "182713.895000", "182713.897000", "182713.900000", "182713.902000", "182713.905000", "182713.908000", "182713.910000", "182713.913000", "182713.915000", "182713.918000", "182713.920000", "182713.923000", "182713.925000", "182713.928000", "182713.930000", "182713.933000", "182713.941000", "182713.944000", "182713.946000", "182713.949000", "182713.952000", "182713.954000", "182713.976000", "182713.979000", "182713.982000", "182713.984000", "182753.923000", "182753.926000", "182753.928000", "182753.931000", "182753.933000", "182753.936000", "182753.938000", "182753.941000", "182753.953000", "182753.955000", "182753.958000", "182753.960000", "182753.963000", "182753.966000", "182753.968000", "182753.971000", "182753.973000", "182753.976000", "182753.978000", "182753.981000", "182753.983000", "182753.986000", "182753.988000", "182753.991000", "182753.993000", "182753.996000", "182833.896000", "182833.899000", "182833.902000", "182833.904000", "182833.907000", "182833.909000", "182833.912000", "182833.915000", "182833.917000", "182833.920000", "182833.922000", "182833.925000", "182833.927000", "182833.931000", "182833.934000", "182833.936000", "182833.939000", "182833.941000", "182833.949000", "182833.952000", "182833.954000", "182833.957000", "182833.959000", "182833.962000", "182833.964000", "182833.967000", "182833.969000", "182913.899000", "182913.901000", "182913.904000", "182913.906000", "182913.909000", "182913.912000", "182913.914000", "182913.917000", "182913.919000", "182913.922000", "182913.924000", "182913.927000", "182913.929000", "182913.932000", "182913.934000", "182913.937000", "182913.939000", "182913.942000", "182913.944000", "182913.947000", "182913.957000", "182913.959000", "182913.962000", "182913.964000", "182913.967000", "182913.969000", "182913.972000", "182953.907000", "182953.910000", "182953.913000", "182953.916000", "182953.918000", "182953.921000", "182953.924000", "182953.926000", "182953.929000", "182953.931000", "182953.934000", "182953.937000", "182953.939000", "182953.942000", "182953.944000", "182953.947000", "182953.949000", "182953.952000", "182953.955000", "182953.958000", "182953.960000", "182953.962000", "182953.965000", "182953.968000", "182953.970000", "182953.973000", "182953.976000", "183033.898000", "183033.901000", "183033.903000", "183033.906000", "183033.908000", "183033.911000", "183033.913000", "183033.916000", "183033.919000", "183033.921000", "183033.924000", "183033.926000", "183033.929000", "183033.931000", "183033.934000", "183033.937000", "183033.939000", "183033.942000", "183033.944000", "183033.947000", "183033.949000", "183033.952000", "183033.954000", "183033.957000", "183033.960000", "183033.962000", "183033.965000", "183047.547000", "183047.550000", "183047.553000", "183047.555000", "183047.558000", "183047.561000", "183047.563000", "183047.566000", "183047.568000"],
      "InstanceCreationTime": ["182313.971000", "182313.974000", "182313.977000", "182313.979000", "182313.982000", "182313.996000", "182313.998000", "182314.002000", "182314.004000", "182314.007000", "182314.009000", "182314.012000", "182314.014000", "182314.017000", "182314.019000", "182314.022000", "182314.024000", "182314.027000", "182314.029000", "182314.032000", "182314.034000", "182314.037000", "182314.039000", "182314.042000", "182314.044000", "182314.046000", "182314.049000", "182314.051000", "182314.054000", "182314.056000", "182333.870000", "182333.873000", "182333.876000", "182333.878000", "182333.880000", "182333.883000", "182333.885000", "182333.888000", "182333.891000", "182333.893000", "182333.895000", "182333.898000", "182333.900000", "182333.903000", "182333.905000", "182333.908000", "182333.910000", "182333.913000", "182333.915000", "182333.918000", "182333.920000", "182353.875000", "182353.878000", "182353.881000", "182353.883000", "182353.886000", "182353.888000", "182353.891000", "182353.893000", "182353.896000", "182353.898000", "182353.901000", "182353.903000", "182353.906000", "182353.908000", "182353.911000", "182353.913000", "182353.916000", "182353.918000", "182353.921000", "182353.923000", "182413.868000", "182413.871000", "182413.873000", "182413.876000", "182413.878000", "182413.881000", "182413.884000", "182413.886000", "182413.889000", "182413.891000", "182413.894000", "182413.896000", "182413.899000", "182413.901000", "182413.904000", "182413.906000", "182413.909000", "182413.911000", "182413.914000", "182413.916000", "182453.922000", "182453.924000", "182453.927000", "182453.929000", "182453.932000", "182453.934000", "182453.937000", "182453.939000", "182453.942000", "182453.944000", "182453.947000", "182453.949000", "182453.952000", "182453.954000", "182453.957000", "182453.959000", "182453.962000", "182453.965000", "182453.967000", "182453.969000", "182453.972000", "182453.975000", "182453.977000", "182453.980000", "182453.982000", "182453.985000", "182453.987000", "182453.990000", "182533.896000", "182533.898000", "182533.901000", "182533.903000", "182533.906000", "182533.909000", "182533.911000", "182533.914000", "182533.916000", "182533.919000", "182533.921000", "182533.924000", "182533.926000", "182533.929000", "182533.931000", "182533.934000", "182533.936000", "182533.939000", "182533.942000", "182533.944000", "182533.947000", "182533.949000", "182533.952000", "182533.954000", "182533.957000", "182533.959000", "182613.892000", "182613.895000", "182613.897000", "182613.900000", "182613.902000", "182613.905000", "182613.907000", "182613.910000", "182613.913000", "182613.915000", "182613.918000", "182613.920000", "182613.923000", "182613.925000", "182613.928000", "182613.930000", "182613.933000", "182613.935000", "182613.938000", "182613.941000", "182613.943000", "182613.946000", "182613.948000", "182613.951000", "182613.953000", "182613.956000", "182613.958000", "182633.832000", "182633.835000", "182633.838000", "182633.840000", "182633.843000", "182633.845000", "182633.848000", "182633.850000", "182633.853000", "182633.855000", "182633.858000", "182633.860000", "182633.863000", "182633.865000", "182713.892000", "182713.895000", "182713.897000", "182713.900000", "182713.902000", "182713.905000", "182713.908000", "182713.910000", "182713.913000", "182713.915000", "182713.918000", "182713.920000", "182713.923000", "182713.925000", "182713.928000", "182713.930000", "182713.933000", "182713.941000", "182713.944000", "182713.946000", "182713.949000", "182713.952000", "182713.954000", "182713.976000", "182713.979000", "182713.982000", "182713.984000", "182753.923000", "182753.926000", "182753.928000", "182753.931000", "182753.933000", "182753.936000", "182753.938000", "182753.941000", "182753.953000", "182753.955000", "182753.958000", "182753.960000", "182753.963000", "182753.966000", "182753.968000", "182753.971000", "182753.973000", "182753.976000", "182753.978000", "182753.981000", "182753.983000", "182753.986000", "182753.988000", "182753.991000", "182753.993000", "182753.996000", "182833.896000", "182833.899000", "182833.902000", "182833.904000", "182833.907000", "182833.909000", "182833.912000", "182833.915000", "182833.917000", "182833.920000", "182833.922000", "182833.925000", "182833.927000", "182833.931000", "182833.934000", "182833.936000", "182833.939000", "182833.941000", "182833.949000", "182833.952000", "182833.954000", "182833.957000", "182833.959000", "182833.962000", "182833.964000", "182833.967000", "182833.969000", "182913.899000", "182913.901000", "182913.904000", "182913.906000", "182913.909000", "182913.912000", "182913.914000", "182913.917000", "182913.919000", "182913.922000", "182913.924000", "182913.927000", "182913.929000", "182913.932000", "182913.934000", "182913.937000", "182913.939000", "182913.942000", "182913.944000", "182913.947000", "182913.957000", "182913.959000", "182913.962000", "182913.964000", "182913.967000", "182913.969000", "182913.972000", "182953.907000", "182953.910000", "182953.913000", "182953.916000", "182953.918000", "182953.921000", "182953.924000", "182953.926000", "182953.929000", "182953.931000", "182953.934000", "182953.937000", "182953.939000", "182953.942000", "182953.944000", "182953.947000", "182953.949000", "182953.952000", "182953.955000", "182953.958000", "182953.960000", "182953.962000", "182953.965000", "182953.968000", "182953.970000", "182953.973000", "182953.976000", "183033.898000", "183033.901000", "183033.903000", "183033.906000", "183033.908000", "183033.911000", "183033.913000", "183033.916000", "183033.919000", "183033.921000", "183033.924000", "183033.926000", "183033.929000", "183033.931000", "183033.934000", "183033.937000", "183033.939000", "183033.942000", "183033.944000", "183033.947000", "183033.949000", "183033.952000", "183033.954000", "183033.957000", "183033.960000", "183033.962000", "183033.965000", "183047.547000", "183047.550000", "183047.553000", "183047.555000", "183047.558000", "183047.561000", "183047.563000", "183047.566000", "183047.568000"],
      "InstanceNumber": [1, 2, 3, 4, 5, 6, 7, 8, 9, 10, 11, 12, 13, 14, 15, 16, 17, 18, 19, 20, 21, 22, 23, 24, 25, 26, 27, 28, 29, 30, 31, 32, 33, 34, 35, 36, 37, 38, 39, 40, 41, 42, 43, 44, 45, 46, 47, 48, 49, 50, 51, 52, 53, 54, 55, 56, 57, 58, 59, 60, 61, 62, 63, 64, 65, 66, 67, 68, 69, 70, 71, 72, 73, 74, 75, 76, 77, 78, 79, 80, 81, 82, 83, 84, 85, 86, 87, 88, 89, 90, 91, 92, 93, 94, 95, 96, 97, 98, 99, 100, 101, 102, 103, 104, 105, 106, 107, 108, 109, 110, 111, 112, 113, 114, 115, 116, 117, 118, 119, 120, 121, 122, 123, 124, 125, 126, 127, 128, 129, 130, 131, 132, 133, 134, 135, 136, 137, 138, 139, 140, 141, 142, 143, 144, 145, 146, 147, 148, 149, 150, 151, 152, 153, 154, 155, 156, 157, 158, 159, 160, 161, 162, 163, 164, 165, 166, 167, 168, 169, 170, 171, 172, 173, 174, 175, 176, 177, 178, 179, 180, 181, 182, 183, 184, 185, 186, 187, 188, 189, 190, 191, 192, 193, 194, 195, 196, 197, 198, 199, 200, 201, 202, 203, 204, 205, 206, 207, 208, 209, 210, 211, 212, 213, 214, 215, 216, 217, 218, 219, 220, 221, 222, 223, 224, 225, 226, 227, 228, 229, 230, 231, 232, 233, 234, 235, 236, 237, 238, 239, 240, 241, 242, 243, 244, 245, 246, 247, 248, 249, 250, 251, 252, 253, 254, 255, 256, 257, 258, 259, 260, 261, 262, 263, 264, 265, 266, 267, 268, 269, 270, 271, 272, 273, 274, 275, 276, 277, 278, 279, 280, 281, 282, 283, 284, 285, 286, 287, 288, 289, 290, 291, 292, 293, 294, 295, 296, 297, 298, 299, 300, 301, 302, 303, 304, 305, 306, 307, 308, 309, 310, 311, 312, 313, 314, 315, 316, 317, 318, 319, 320, 321, 322, 323, 324, 325, 326, 327, 328, 329, 330, 331, 332, 333, 334, 335, 336, 337, 338, 339, 340, 341, 342, 343, 344, 345, 346, 347, 348, 349, 350, 351, 352, 353, 354, 355, 356],
