{
  "AcquisitionMatrixPE": 104,
  "AcquisitionNumber": 1,
  "AcquisitionTime": "18:31:43.697500",
  "BandwidthPerPixelPhaseEncode": 17.17,
  "BaseResolution": 104,
  "BodyPartExamined": "BRAIN",
  "CoilCombinationMethod": "Sum of Squares",
  "ConsistencyInfo": "N4_VE11C_LATEST_20160120",
  "ConversionSoftware": "dcm2niix",
  "ConversionSoftwareVersion": "v1.0.20220505",
  "DerivedVendorReportedEchoSpacing": 0.000560011,
  "DeviceSerialNumber": "167006",
  "DwellTime": 2.1e-06,
  "EchoTime": 0.037,
  "EchoTime1": 0.037,
  "EchoTime2": 0.001,
  "EchoTrainLength": 104,
  "EffectiveEchoSpacing": 0.000560011,
  "FlipAngle": 52,
  "HeudiconvVersion": "0.5.3.post811+g6206e14",
  "ImageComments": "Unaliased MB4/PE3/LB",
  "ImageOrientationPatientDICOM": [0.999937, -0.010556, 0.00372424, 0.0111699, 0.962644, -0.270538],
  "ImageOrientationText": "Tra>Cor(-15.7)>Sag(0.0)",
  "ImageType": [
    "ORIGINAL",
    "PRIMARY",
    "P",
    "MB",
    "ND",
    "MOSAIC",
    "PHASE"
],
  "ImagingFrequency": 123.259,
  "InPlanePhaseEncodingDirectionDICOM": "COL",
  "InstitutionAddress": "Chemin Queen-Mary 4565,Montreal,District,CA,H3W 1W5",
  "InstitutionName": "IUGM",
  "InstitutionalDepartmentName": "Department",
  "MRAcquisitionType": "2D",
  "MagneticFieldStrength": 3,
  "Manufacturer": "Siemens",
  "ManufacturersModelName": "Prisma_fit",
  "MatrixCoilMode": "SENSE",
  "Modality": "MR",
  "MultibandAccelerationFactor": 4,
  "PartialFourier": 1,
  "PatientPosition": "HFS",
  "PercentPhaseFOV": 100,
  "PercentSampling": 100,
  "PhaseEncodingDirection": "j",
  "PhaseEncodingSteps": 104,
  "PhaseResolution": 1,
  "PixelBandwidth": 2290,
  "ProcedureStepDescription": "games^mario3",
  "ProtocolName": "func_task-mario3_run-03",
  "PulseSequenceDetails": "%CustomerSeq%\\cmrr_mbep2d_bold",
  "ReceiveCoilActiveElements": "HC1-7;NC1,2",
  "ReceiveCoilName": "HeadNeck_64",
  "ReconMatrixPE": 104,
  "RepetitionTime": 1.49,
  "SAR": 0.0782892,
  "ScanOptions": "FS",
  "ScanningSequence": "EP",
  "SequenceName": "epfid2d1_104",
  "SequenceVariant": "SK\\SS",
  "SeriesDescription": "func_task-mario3_run-03",
  "SeriesNumber": 17,
  "ShimSetting": [637, -7218, -8755, 684, 37, -30, 50, 0],
  "SliceThickness": 2,
  "SliceTiming": [0, 0.785, 0.0975, 0.8825, 0.1975, 0.98, 0.295, 1.0775, 0.3925, 1.1775, 0.49, 1.275, 0.5875, 1.3725, 0.6875, 0, 0.785, 0.0975, 0.8825, 0.1975, 0.98, 0.295, 1.0775, 0.3925, 1.1775, 0.49, 1.275, 0.5875, 1.3725, 0.6875, 0, 0.785, 0.0975, 0.8825, 0.1975, 0.98, 0.295, 1.0775, 0.3925, 1.1775, 0.49, 1.275, 0.5875, 1.3725, 0.6875, 0, 0.785, 0.0975, 0.8825, 0.1975, 0.98, 0.295, 1.0775, 0.3925, 1.1775, 0.49, 1.275, 0.5875, 1.3725, 0.6875],
  "SoftwareVersions": "syngo MR E11",
  "SpacingBetweenSlices": 2,
  "StationName": "MRC35049",
  "TaskName": "mario3",
  "TotalReadoutTime": 0.0576811,
  "TxRefAmp": 271.349,
  "WipMemBlock": "5af00abc-4db6-4704-a760-5179fdd94beb||Sequence: R017 ve11c/master r/75a17815+; Jun 28 2022 16:32:11 by eja",
  "dcmmeta_affine": [
    [-1.9998747110366821, 0.022339828312397003, 0.001458634389564395, 108.00880432128906],
    [0.021111981943249702, 1.9252887964248657, -0.5411258339881897, -74.38045501708984],
    [0.007448475807905197, 0.5410765409469604, 1.9254039525985718, -53.165042877197266],
    [0.0, 0.0, 0.0, 1.0]
],
  "dcmmeta_reorient_transform": [
    [0.0, -1.0, 0.0, 103.0],
    [1.0, 0.0, 0.0, 0.0],
    [0.0, 0.0, 1.0, 0.0],
    [0.0, 0.0, 0.0, 1.0]
],
  "dcmmeta_shape": [104, 104, 60, 320],
  "dcmmeta_slice_dim": 2,
  "dcmmeta_version": 0.6,
  "global": {
    "const": {
      "AcquisitionMatrix": [104, 0, 0, 104],
      "AngioFlag": "N",
      "BitsAllocated": 16,
      "BitsStored": 16,
      "BodyPartExamined": "BRAIN",
      "Columns": 832,
      "EchoNumbers": 1,
      "EchoTime": 37.0,
      "EchoTrainLength": 104,
      "FlipAngle": 52.0,
      "HighBit": 15,
      "ImageOrientationPatient": [0.99993734859167, -0.0105559908888, 0.00372423788506, 0.01116991440949, 0.96264441613592, -0.2705382802755],
      "ImagePositionPatient": [-846.39589541249, -817.04466476107, 196.80646390239],
      "ImageType": [
        "ORIGINAL",
        "PRIMARY",
        "P",
        "MB",
        "ND",
        "MOSAIC"
],
      "ImagedNucleus": "1H",
      "ImagingFrequency": 123.258801,
      "InPlanePhaseEncodingDirection": "COL",
      "LargestImagePixelValue": 4095,
      "MRAcquisitionType": "2D",
      "MagneticFieldStrength": 3.0,
      "Manufacturer": "SIEMENS",
      "ManufacturerModelName": "Prisma_fit",
      "Modality": "MR",
      "NumberOfAverages": 1.0,
      "NumberOfPhaseEncodingSteps": 104,
      "PercentPhaseFieldOfView": 100.0,
      "PercentSampling": 100.0,
      "PerformedProcedureStepStartTime": "181017.608000",
      "PhotometricInterpretation": "MONOCHROME2",
      "PixelBandwidth": 2290.0,
      "PixelRepresentation": 0,
      "PixelSpacing": [2.0, 2.0],
      "ProtocolName": "func_task-mario3_run-03",
      "RepetitionTime": 1490.0,
      "RescaleIntercept": -4096.0,
      "RescaleSlope": 2.0,
      "RescaleType": "US",
      "Rows": 832,
      "SAR": 0.07828916772839,
      "SamplesPerPixel": 1,
      "ScanOptions": "FS",
      "ScanningSequence": "EP",
      "SequenceName": "epfid2d1_104",
      "SequenceVariant": [
        "SK",
        "SS"
],
      "SeriesDescription": "func_task-mario3_run-03",
      "SeriesNumber": 17,
      "SeriesTime": "183257.171000",
      "SliceLocation": -30.978728152412,
      "SliceThickness": 2.0,
      "SmallestImagePixelValue": 0,
      "SoftwareVersions": "syngo MR E11",
      "SpacingBetweenSlices": 1.9999999584187,
      "SpecificCharacterSet": "ISO_IR 100",
      "StudyID": "1",
      "StudyTime": "181017.539000",
      "TransmitCoilName": "Body",
      "VariableFlipAngleFlag": "N",
      "WindowCenterWidthExplanation": "Algo1",
      "dBdt": 0.0},
    "slices": {}
  },
  "time": {
    "samples": {
      "AcquisitionNumber": [1, 2, 3, 4, 5, 6, 7, 8, 9, 10, 11, 12, 13, 14, 15, 16, 17, 18, 19, 20, 21, 22, 23, 24, 25, 26, 27, 28, 29, 30, 31, 32, 33, 34, 35, 36, 37, 38, 39, 40, 41, 42, 43, 44, 45, 46, 47, 48, 49, 50, 51, 52, 53, 54, 55, 56, 57, 58, 59, 60, 61, 62, 63, 64, 65, 66, 67, 68, 69, 70, 71, 72, 73, 74, 75, 76, 77, 78, 79, 80, 81, 82, 83, 84, 85, 86, 87, 88, 89, 90, 91, 92, 93, 94, 95, 96, 97, 98, 99, 100, 101, 102, 103, 104, 105, 106, 107, 108, 109, 110, 111, 112, 113, 114, 115, 116, 117, 118, 119, 120, 121, 122, 123, 124, 125, 126, 127, 128, 129, 130, 131, 132, 133, 134, 135, 136, 137, 138, 139, 140, 141, 142, 143, 144, 145, 146, 147, 148, 149, 150, 151, 152, 153, 154, 155, 156, 157, 158, 159, 160, 161, 162, 163, 164, 165, 166, 167, 168, 169, 170, 171, 172, 173, 174, 175, 176, 177, 178, 179, 180, 181, 182, 183, 184, 185, 186, 187, 188, 189, 190, 191, 192, 193, 194, 195, 196, 197, 198, 199, 200, 201, 202, 203, 204, 205, 206, 207, 208, 209, 210, 211, 212, 213, 214, 215, 216, 217, 218, 219, 220, 221, 222, 223, 224, 225, 226, 227, 228, 229, 230, 231, 232, 233, 234, 235, 236, 237, 238, 239, 240, 241, 242, 243, 244, 245, 246, 247, 248, 249, 250, 251, 252, 253, 254, 255, 256, 257, 258, 259, 260, 261, 262, 263, 264, 265, 266, 267, 268, 269, 270, 271, 272, 273, 274, 275, 276, 277, 278, 279, 280, 281, 282, 283, 284, 285, 286, 287, 288, 289, 290, 291, 292, 293, 294, 295, 296, 297, 298, 299, 300, 301, 302, 303, 304, 305, 306, 307, 308, 309, 310, 311, 312, 313, 314, 315, 316, 317, 318, 319, 320],
      "AcquisitionTime": ["183143.697500", "183145.187500", "183146.677500", "183148.167500", "183149.657500", "183151.147500", "183152.637500", "183154.127500", "183155.617500", "183157.107500", "183158.597500", "183200.087500", "183201.577500", "183203.067500", "183204.557500", "183206.047500", "183207.537500", "183209.027500", "183210.517500", "183212.007500", "183213.497500", "183214.987500", "183216.477500", "183217.967500", "183219.457500", "183220.947500", "183222.437500", "183223.927500", "183225.417500", "183226.907500", "183228.397500", "183229.887500", "183231.377500", "183232.867500", "183234.357500", "183235.847500", "183237.337500", "183238.827500", "183240.317500", "183241.807500", "183243.297500", "183244.787500", "183246.277500", "183247.767500", "183249.257500", "183250.747500", "183252.237500", "183253.727500", "183255.217500", "183256.707500", "183258.197500", "183259.687500", "183301.177500", "183302.667500", "183304.157500", "183305.647500", "183307.137500", "183308.627500", "183310.117500", "183311.607500", "183313.097500", "183314.587500", "183316.077500", "183317.567500", "183319.057500", "183320.547500", "183322.037500", "183323.527500", "183325.017500", "183326.507500", "183327.997500", "183329.487500", "183330.977500", "183332.467500", "183333.957500", "183335.447500", "183336.937500", "183338.427500", "183339.917500", "183341.407500", "183342.897500", "183344.387500", "183345.877500", "183347.367500", "183348.857500", "183350.347500", "183351.837500", "183353.327500", "183354.817500", "183356.307500", "183357.797500", "183359.287500", "183400.777500", "183402.267500", "183403.757500", "183405.247500", "183406.737500", "183408.227500", "183409.717500", "183411.207500", "183412.697500", "183414.187500", "183415.677500", "183417.167500", "183418.657500", "183420.147500", "183421.637500", "183423.127500", "183424.617500", "183426.107500", "183427.597500", "183429.087500", "183430.577500", "183432.067500", "183433.557500", "183435.047500", "183436.537500", "183438.027500", "183439.517500", "183441.007500", "183442.497500", "183443.987500", "183445.477500", "183446.967500", "183448.457500", "183449.947500", "183451.437500", "183452.927500", "183454.417500", "183455.907500", "183457.397500", "183458.887500", "183500.377500", "183501.867500", "183503.357500", "183504.847500", "183506.337500", "183507.827500", "183509.317500", "183510.807500", "183512.297500", "183513.787500", "183515.277500", "183516.767500", "183518.257500", "183519.747500", "183521.237500", "183522.727500", "183524.217500", "183525.707500", "183527.197500", "183528.687500", "183530.177500", "183531.667500", "183533.157500", "183534.647500", "183536.137500", "183537.627500", "183539.117500", "183540.607500", "183542.097500", "183543.587500", "183545.077500", "183546.567500", "183548.057500", "183549.547500", "183551.037500", "183552.527500", "183554.017500", "183555.507500", "183556.997500", "183558.487500", "183559.977500", "183601.467500", "183602.957500", "183604.447500", "183605.937500", "183607.427500", "183608.917500", "183610.407500", "183611.897500", "183613.387500", "183614.877500", "183616.367500", "183617.857500", "183619.347500", "183620.837500", "183622.327500", "183623.817500", "183625.307500", "183626.797500", "183628.287500", "183629.777500", "183631.267500", "183632.757500", "183634.247500", "183635.737500", "183637.227500", "183638.717500", "183640.207500", "183641.697500", "183643.187500", "183644.677500", "183646.167500", "183647.657500", "183649.147500", "183650.637500", "183652.127500", "183653.617500", "183655.107500", "183656.597500", "183658.087500", "183659.577500", "183701.067500", "183702.557500", "183704.047500", "183705.537500", "183707.027500", "183708.517500", "183710.007500", "183711.497500", "183712.987500", "183714.477500", "183715.967500", "183717.457500", "183718.947500", "183720.437500", "183721.927500", "183723.417500", "183724.907500", "183726.397500", "183727.887500", "183729.377500", "183730.867500", "183732.357500", "183733.847500", "183735.337500", "183736.827500", "183738.317500", "183739.807500", "183741.297500", "183742.787500", "183744.277500", "183745.767500", "183747.257500", "183748.747500", "183750.237500", "183751.727500", "183753.217500", "183754.707500", "183756.197500", "183757.687500", "183759.177500", "183800.667500", "183802.157500", "183803.647500", "183805.137500", "183806.627500", "183808.117500", "183809.607500", "183811.097500", "183812.587500", "183814.077500", "183815.567500", "183817.057500", "183818.547500", "183820.037500", "183821.527500", "183823.017500", "183824.507500", "183825.997500", "183827.487500", "183828.977500", "183830.467500", "183831.957500", "183833.447500", "183834.937500", "183836.427500", "183837.917500", "183839.407500", "183840.897500", "183842.387500", "183843.877500", "183845.367500", "183846.857500", "183848.347500", "183849.837500", "183851.327500", "183852.817500", "183854.307500", "183855.797500", "183857.287500", "183858.777500", "183900.267500", "183901.757500", "183903.247500", "183904.737500", "183906.227500", "183907.717500", "183909.207500", "183910.697500", "183912.187500", "183913.677500", "183915.167500", "183916.657500", "183918.147500", "183919.637500", "183921.127500", "183922.617500", "183924.107500", "183925.597500", "183927.087500", "183928.577500", "183930.067500", "183931.557500", "183933.047500", "183934.537500", "183936.027500", "183937.517500", "183939.007500"],
      "ContentTime": ["183257.173000", "183257.176000", "183257.179000", "183257.181000", "183257.184000", "183257.187000", "183257.189000", "183257.192000", "183257.194000", "183257.203000", "183257.206000", "183257.208000", "183257.211000", "183257.213000", "183257.216000", "183257.218000", "183257.221000", "183257.224000", "183257.226000", "183257.229000", "183257.231000", "183257.234000", "183257.236000", "183257.239000", "183257.241000", "183317.113000", "183317.116000", "183317.124000", "183317.126000", "183317.129000", "183317.131000", "183317.134000", "183317.136000", "183317.139000", "183317.141000", "183317.144000", "183317.146000", "183317.149000", "183317.151000", "183317.154000", "183317.157000", "183317.159000", "183317.162000", "183317.164000", "183317.167000", "183337.101000", "183337.105000", "183337.108000", "183337.110000", "183337.113000", "183337.116000", "183337.119000", "183337.122000", "183337.125000", "183337.127000", "183337.130000", "183337.132000", "183337.135000", "183337.137000", "183337.140000", "183337.143000", "183337.145000", "183337.148000", "183337.150000", "183337.153000", "183357.112000", "183357.114000", "183357.117000", "183357.120000", "183357.122000", "183357.125000", "183357.127000", "183357.133000", "183357.136000", "183357.138000", "183357.141000", "183357.143000", "183357.146000", "183357.148000", "183357.151000", "183357.153000", "183357.156000", "183357.159000", "183357.161000", "183357.164000", "183357.166000", "183437.132000", "183437.134000", "183437.137000", "183437.140000", "183437.142000", "183437.145000", "183437.147000", "183437.150000", "183437.152000", "183437.155000", "183437.158000", "183437.160000", "183437.163000", "183437.165000", "183437.168000", "183437.171000", "183437.173000", "183437.176000", "183437.178000", "183437.181000", "183437.183000", "183437.186000", "183437.188000", "183437.191000", "183437.193000", "183437.196000", "183437.198000", "183437.201000", "183437.204000", "183437.206000", "183517.150000", "183517.153000", "183517.156000", "183517.158000", "183517.161000", "183517.163000", "183517.166000", "183517.168000", "183517.171000", "183517.174000", "183517.176000", "183517.179000", "183517.181000", "183517.184000", "183517.187000", "183517.189000", "183517.192000", "183517.194000", "183517.197000", "183517.199000", "183517.202000", "183517.204000", "183517.207000", "183517.209000", "183517.212000", "183517.215000", "183557.135000", "183557.138000", "183557.140000", "183557.143000", "183557.145000", "183557.148000", "183557.151000", "183557.153000", "183557.156000", "183557.158000", "183557.161000", "183557.163000", "183557.166000", "183557.169000", "183557.171000", "183557.174000", "183557.176000", "183557.179000", "183557.182000", "183557.184000", "183557.187000", "183557.191000", "183557.195000", "183557.197000", "183557.200000", "183557.203000", "183557.206000", "183617.070000", "183617.073000", "183617.075000", "183617.078000", "183617.081000", "183617.083000", "183617.086000", "183617.088000", "183617.091000", "183617.093000", "183617.096000", "183617.099000", "183617.101000", "183617.104000", "183657.130000", "183657.133000", "183657.136000", "183657.139000", "183657.141000", "183657.144000", "183657.146000", "183657.151000", "183657.154000", "183657.157000", "183657.159000", "183657.162000", "183657.164000", "183657.167000", "183657.170000", "183657.172000", "183657.175000", "183657.177000", "183657.180000", "183657.182000", "183657.185000", "183657.188000", "183657.190000", "183657.193000", "183657.195000", "183657.198000", "183657.200000", "183737.138000", "183737.141000", "183737.143000", "183737.146000", "183737.148000", "183737.151000", "183737.154000", "183737.156000", "183737.159000", "183737.161000", "183737.164000", "183737.166000", "183737.169000", "183737.172000", "183737.175000", "183737.177000", "183737.180000", "183737.182000", "183737.185000", "183737.187000", "183737.190000", "183737.192000", "183737.195000", "183737.197000", "183737.200000", "183737.203000", "183817.123000", "183817.125000", "183817.129000", "183817.132000", "183817.134000", "183817.137000", "183817.139000", "183817.142000", "183817.144000", "183817.147000", "183817.149000", "183817.152000", "183817.155000", "183817.157000", "183817.160000", "183817.162000", "183817.165000", "183817.167000", "183817.170000", "183817.173000", "183817.175000", "183817.178000", "183817.180000", "183817.183000", "183817.186000", "183817.188000", "183817.191000", "183857.120000", "183857.123000", "183857.125000", "183857.128000", "183857.130000", "183857.133000", "183857.135000", "183857.138000", "183857.141000", "183857.144000", "183857.146000", "183857.149000", "183857.151000", "183857.154000", "183857.156000", "183857.159000", "183857.161000", "183857.164000", "183857.166000", "183857.169000", "183857.172000", "183857.174000", "183857.177000", "183857.179000", "183857.182000", "183857.185000", "183857.187000", "183937.139000", "183937.142000", "183937.145000", "183937.147000", "183937.150000", "183937.153000", "183937.155000", "183937.158000", "183937.160000", "183937.163000", "183937.166000", "183937.168000", "183937.171000", "183937.173000", "183937.176000", "183937.179000", "183937.181000", "183937.184000", "183937.186000", "183937.189000", "183937.191000", "183937.194000", "183937.197000", "183937.199000", "183937.202000", "183937.204000", "183937.207000", "183941.879000", "183941.881000", "183941.884000"],
      "InstanceCreationTime": ["183257.173000", "183257.176000", "183257.179000", "183257.181000", "183257.184000", "183257.187000", "183257.189000", "183257.192000", "183257.194000", "183257.203000", "183257.206000", "183257.208000", "183257.211000", "183257.213000", "183257.216000", "183257.218000", "183257.221000", "183257.224000", "183257.226000", "183257.229000", "183257.231000", "183257.234000", "183257.236000", "183257.239000", "183257.241000", "183317.113000", "183317.116000", "183317.124000", "183317.126000", "183317.129000", "183317.131000", "183317.134000", "183317.136000", "183317.139000", "183317.141000", "183317.144000", "183317.146000", "183317.149000", "183317.151000", "183317.154000", "183317.157000", "183317.159000", "183317.162000", "183317.164000", "183317.167000", "183337.101000", "183337.105000", "183337.108000", "183337.110000", "183337.113000", "183337.116000", "183337.119000", "183337.122000", "183337.125000", "183337.127000", "183337.130000", "183337.132000", "183337.135000", "183337.137000", "183337.140000", "183337.143000", "183337.145000", "183337.148000", "183337.150000", "183337.153000", "183357.112000", "183357.114000", "183357.117000", "183357.120000", "183357.122000", "183357.125000", "183357.127000", "183357.133000", "183357.136000", "183357.138000", "183357.141000", "183357.143000", "183357.146000", "183357.148000", "183357.151000", "183357.153000", "183357.156000", "183357.159000", "183357.161000", "183357.164000", "183357.166000", "183437.132000", "183437.134000", "183437.137000", "183437.140000", "183437.142000", "183437.145000", "183437.147000", "183437.150000", "183437.152000", "183437.155000", "183437.158000", "183437.160000", "183437.163000", "183437.165000", "183437.168000", "183437.171000", "183437.173000", "183437.176000", "183437.178000", "183437.181000", "183437.183000", "183437.186000", "183437.188000", "183437.191000", "183437.193000", "183437.196000", "183437.198000", "183437.201000", "183437.204000", "183437.206000", "183517.150000", "183517.153000", "183517.156000", "183517.158000", "183517.161000", "183517.163000", "183517.166000", "183517.168000", "183517.171000", "183517.174000", "183517.176000", "183517.179000", "183517.181000", "183517.184000", "183517.187000", "183517.189000", "183517.192000", "183517.194000", "183517.197000", "183517.199000", "183517.202000", "183517.204000", "183517.207000", "183517.209000", "183517.212000", "183517.215000", "183557.135000", "183557.138000", "183557.140000", "183557.143000", "183557.145000", "183557.148000", "183557.151000", "183557.153000", "183557.156000", "183557.158000", "183557.161000", "183557.163000", "183557.166000", "183557.169000", "183557.171000", "183557.174000", "183557.176000", "183557.179000", "183557.182000", "183557.184000", "183557.187000", "183557.191000", "183557.195000", "183557.197000", "183557.200000", "183557.203000", "183557.206000", "183617.070000", "183617.073000", "183617.075000", "183617.078000", "183617.081000", "183617.083000", "183617.086000", "183617.088000", "183617.091000", "183617.093000", "183617.096000", "183617.099000", "183617.101000", "183617.104000", "183657.130000", "183657.133000", "183657.136000", "183657.139000", "183657.141000", "183657.144000", "183657.146000", "183657.151000", "183657.154000", "183657.157000", "183657.159000", "183657.162000", "183657.164000", "183657.167000", "183657.170000", "183657.172000", "183657.175000", "183657.177000", "183657.180000", "183657.182000", "183657.185000", "183657.188000", "183657.190000", "183657.193000", "183657.195000", "183657.198000", "183657.200000", "183737.138000", "183737.141000", "183737.143000", "183737.146000", "183737.148000", "183737.151000", "183737.154000", "183737.156000", "183737.159000", "183737.161000", "183737.164000", "183737.166000", "183737.169000", "183737.172000", "183737.175000", "183737.177000", "183737.180000", "183737.182000", "183737.185000", "183737.187000", "183737.190000", "183737.192000", "183737.195000", "183737.197000", "183737.200000", "183737.203000", "183817.123000", "183817.125000", "183817.129000", "183817.132000", "183817.134000", "183817.137000", "183817.139000", "183817.142000", "183817.144000", "183817.147000", "183817.149000", "183817.152000", "183817.155000", "183817.157000", "183817.160000", "183817.162000", "183817.165000", "183817.167000", "183817.170000", "183817.173000", "183817.175000", "183817.178000", "183817.180000", "183817.183000", "183817.186000", "183817.188000", "183817.191000", "183857.120000", "183857.123000", "183857.125000", "183857.128000", "183857.130000", "183857.133000", "183857.135000", "183857.138000", "183857.141000", "183857.144000", "183857.146000", "183857.149000", "183857.151000", "183857.154000", "183857.156000", "183857.159000", "183857.161000", "183857.164000", "183857.166000", "183857.169000", "183857.172000", "183857.174000", "183857.177000", "183857.179000", "183857.182000", "183857.185000", "183857.187000", "183937.139000", "183937.142000", "183937.145000", "183937.147000", "183937.150000", "183937.153000", "183937.155000", "183937.158000", "183937.160000", "183937.163000", "183937.166000", "183937.168000", "183937.171000", "183937.173000", "183937.176000", "183937.179000", "183937.181000", "183937.184000", "183937.186000", "183937.189000", "183937.191000", "183937.194000", "183937.197000", "183937.199000", "183937.202000", "183937.204000", "183937.207000", "183941.879000", "183941.881000", "183941.884000"],
      "InstanceNumber": [1, 2, 3, 4, 5, 6, 7, 8, 9, 10, 11, 12, 13, 14, 15, 16, 17, 18, 19, 20, 21, 22, 23, 24, 25, 26, 27, 28, 29, 30, 31, 32, 33, 34, 35, 36, 37, 38, 39, 40, 41, 42, 43, 44, 45, 46, 47, 48, 49, 50, 51, 52, 53, 54, 55, 56, 57, 58, 59, 60, 61, 62, 63, 64, 65, 66, 67, 68, 69, 70, 71, 72, 73, 74, 75, 76, 77, 78, 79, 80, 81, 82, 83, 84, 85, 86, 87, 88, 89, 90, 91, 92, 93, 94, 95, 96, 97, 98, 99, 100, 101, 102, 103, 104, 105, 106, 107, 108, 109, 110, 111, 112, 113, 114, 115, 116, 117, 118, 119, 120, 121, 122, 123, 124, 125, 126, 127, 128, 129, 130, 131, 132, 133, 134, 135, 136, 137, 138, 139, 140, 141, 142, 143, 144, 145, 146, 147, 148, 149, 150, 151, 152, 153, 154, 155, 156, 157, 158, 159, 160, 161, 162, 163, 164, 165, 166, 167, 168, 169, 170, 171, 172, 173, 174, 175, 176, 177, 178, 179, 180, 181, 182, 183, 184, 185, 186, 187, 188, 189, 190, 191, 192, 193, 194, 195, 196, 197, 198, 199, 200, 201, 202, 203, 204, 205, 206, 207, 208, 209, 210, 211, 212, 213, 214, 215, 216, 217, 218, 219, 220, 221, 222, 223, 224, 225, 226, 227, 228, 229, 230, 231, 232, 233, 234, 235, 236, 237, 238, 239, 240, 241, 242, 243, 244, 245, 246, 247, 248, 249, 250, 251, 252, 253, 254, 255, 256, 257, 258, 259, 260, 261, 262, 263, 264, 265, 266, 267, 268, 269, 270, 271, 272, 273, 274, 275, 276, 277, 278, 279, 280, 281, 282, 283, 284, 285, 286, 287, 288, 289, 290, 291, 292, 293, 294, 295, 296, 297, 298, 299, 300, 301, 302, 303, 304, 305, 306, 307, 308, 309, 310, 311, 312, 313, 314, 315, 316, 317, 318, 319, 320],
      "WindowCenter": [4832.0, 4836.0, 4834.0, 4834.0, 4834.0, 4834.0, 4836.0, 4832.0, 4832.0, 4836.0, 4834.0, 4836.0, 4834.0, 4832.0, 4834.0, 4834.0, 4862.0, 4840.0, 4834.0, 4836.0, 4836.0, 4838.0, 4836.0, 4808.0, 4806.0, 4804.0, 4808.0, 4834.0, 4836.0, 4838.0, 4836.0, 4838.0, 4838.0, 4834.0, 4830.0, 4808.0, 4834.0, 4836.0, 4836.0, 4838.0, 4836.0, 4832.0, 4864.0, 4862.0, 4838.0, 4836.0, 4834.0, 4808.0, 4802.0, 4808.0, 4834.0, 4836.0, 4862.0, 4836.0, 4834.0, 4838.0, 4858.0, 4836.0, 4836.0, 4838.0, 4836.0, 4840.0, 4830.0, 4802.0, 4800.0, 4808.0, 4836.0, 4862.0, 4862.0, 4862.0, 4834.0, 4838.0, 4860.0, 4836.0, 4806.0, 4808.0, 4806.0, 4832.0, 4860.0, 4838.0, 4858.0, 4836.0, 4832.0, 4834.0, 4834.0, 4834.0, 4834.0, 4836.0, 4832.0, 4838.0, 4838.0, 4836.0, 4836.0, 4832.0, 4834.0, 4836.0, 4836.0, 4838.0, 4840.0, 4836.0, 4836.0, 4834.0, 4834.0, 4836.0, 4832.0, 4834.0, 4834.0, 4838.0, 4836.0, 4838.0, 4836.0, 4834.0, 4834.0, 4840.0, 4836.0, 4834.0, 4834.0, 4832.0, 4834.0, 4836.0, 4836.0, 4862.0, 4860.0, 4862.0, 4840.0, 4860.0, 4834.0, 4836.0, 4840.0, 4836.0, 4836.0, 4808.0, 4834.0, 4830.0, 4834.0, 4862.0, 4862.0, 4864.0, 4838.0, 4838.0, 4836.0, 4832.0, 4832.0, 4834.0, 4838.0, 4836.0, 4838.0, 4842.0, 4840.0, 4862.0, 4840.0, 4838.0, 4836.0, 4836.0, 4836.0, 4830.0, 4838.0, 4838.0, 4840.0, 4836.0, 4832.0, 4832.0, 4836.0, 4840.0, 4830.0, 4834.0, 4830.0, 4832.0, 4836.0, 4836.0, 4834.0, 4838.0, 4862.0, 4862.0, 4838.0, 4862.0, 4832.0, 4830.0, 4808.0, 4834.0, 4834.0, 4836.0, 4836.0, 4838.0, 4836.0, 4838.0, 4864.0, 4838.0, 4830.0, 4830.0, 4804.0, 4806.0, 4834.0, 4858.0, 4856.0, 4864.0, 4864.0, 4836.0, 4832.0, 4830.0, 4806.0, 4834.0, 4832.0, 4840.0, 4862.0, 4864.0, 4836.0, 4832.0, 4830.0, 4806.0, 4812.0, 4832.0, 4838.0, 4862.0, 4864.0, 4864.0, 4838.0, 4832.0, 4802.0, 4804.0, 4806.0, 4834.0, 4836.0, 4838.0, 4862.0, 4838.0, 4860.0, 4838.0, 4834.0, 4834.0, 4832.0, 4830.0, 4834.0, 4834.0, 4838.0, 4840.0, 4862.0, 4838.0, 4838.0, 4834.0, 4834.0, 4838.0, 4832.0, 4836.0, 4836.0, 4838.0, 4838.0, 4836.0, 4832.0, 4834.0, 4840.0, 4836.0, 4832.0, 4836.0, 4840.0, 4834.0, 4836.0, 4838.0, 4834.0, 4836.0, 4836.0, 4834.0, 4834.0, 4836.0, 4832.0, 4842.0, 4836.0, 4836.0, 4862.0, 4860.0, 4828.0, 4830.0, 4808.0, 4836.0, 4840.0, 4840.0, 4862.0, 4840.0, 4866.0, 4836.0, 4836.0, 4834.0, 4832.0, 4842.0, 4836.0, 4834.0, 4832.0, 4832.0, 4838.0, 4862.0, 4840.0, 4836.0, 4832.0, 4834.0, 4832.0, 4838.0, 4864.0, 4866.0, 4864.0, 4836.0, 4838.0, 4830.0, 4834.0, 4832.0, 4830.0, 4836.0, 4860.0, 4862.0, 4864.0, 4864.0, 4836.0, 4840.0, 4834.0, 4834.0, 4832.0, 4830.0, 4834.0, 4836.0, 4838.0, 4864.0],
