{
  "AcquisitionMatrixPE": 104,
  "AcquisitionNumber": 1,
  "AcquisitionTime": "18:40:32.752500",
  "BandwidthPerPixelPhaseEncode": 17.17,
  "BaseResolution": 104,
  "BodyPartExamined": "BRAIN",
  "CoilCombinationMethod": "Sum of Squares",
  "ConsistencyInfo": "N4_VE11C_LATEST_20160120",
  "ConversionSoftware": "dcm2niix",
  "ConversionSoftwareVersion": "v1.0.20220505",
  "DerivedVendorReportedEchoSpacing": 0.000560011,
  "DeviceSerialNumber": "167006",
  "DwellTime": 2.1e-06,
  "EchoTime": 0.037,
  "EchoTrainLength": 104,
  "EffectiveEchoSpacing": 0.000560011,
  "FlipAngle": 52,
  "HeudiconvVersion": "0.5.3.post811+g6206e14",
  "ImageComments": "Unaliased MB4/PE3/LB",
  "ImageOrientationPatientDICOM": [0.999937, -0.010556, 0.00372424, 0.0111699, 0.962644, -0.270538],
  "ImageOrientationText": "Tra>Cor(-15.7)>Sag(0.0)",
  "ImageType": [
    "ORIGINAL",
    "PRIMARY",
    "M",
    "MB",
    "ND",
    "MOSAIC"
],
  "ImagingFrequency": 123.259,
  "InPlanePhaseEncodingDirectionDICOM": "COL",
  "InstitutionAddress": "Chemin Queen-Mary 4565,Montreal,District,CA,H3W 1W5",
  "InstitutionName": "IUGM",
  "InstitutionalDepartmentName": "Department",
  "MRAcquisitionType": "2D",
  "MagneticFieldStrength": 3,
  "Manufacturer": "Siemens",
  "ManufacturersModelName": "Prisma_fit",
  "MatrixCoilMode": "SENSE",
  "Modality": "MR",
  "MultibandAccelerationFactor": 4,
  "PartialFourier": 1,
  "PatientPosition": "HFS",
  "PercentPhaseFOV": 100,
  "PercentSampling": 100,
  "PhaseEncodingDirection": "j",
  "PhaseEncodingSteps": 104,
  "PhaseResolution": 1,
  "PixelBandwidth": 2290,
  "ProcedureStepDescription": "games^mario3",
  "ProtocolName": "func_task-mario3_run-04",
  "PulseSequenceDetails": "%CustomerSeq%\\cmrr_mbep2d_bold",
  "ReceiveCoilActiveElements": "HC1-7;NC1,2",
  "ReceiveCoilName": "HeadNeck_64",
  "ReconMatrixPE": 104,
  "RepetitionTime": 1.49,
  "SAR": 0.0782892,
  "ScanOptions": "FS",
  "ScanningSequence": "EP",
  "SequenceName": "epfid2d1_104",
  "SequenceVariant": "SK\\SS",
  "SeriesDescription": "func_task-mario3_run-04",
  "SeriesNumber": 19,
  "ShimSetting": [637, -7218, -8755, 684, 37, -30, 50, 0],
  "SliceThickness": 2,
  "SliceTiming": [0, 0.785, 0.1, 0.8825, 0.1975, 0.98, 0.295, 1.08, 0.3925, 1.1775, 0.49, 1.275, 0.59, 1.3725, 0.6875, 0, 0.785, 0.1, 0.8825, 0.1975, 0.98, 0.295, 1.08, 0.3925, 1.1775, 0.49, 1.275, 0.59, 1.3725, 0.6875, 0, 0.785, 0.1, 0.8825, 0.1975, 0.98, 0.295, 1.08, 0.3925, 1.1775, 0.49, 1.275, 0.59, 1.3725, 0.6875, 0, 0.785, 0.1, 0.8825, 0.1975, 0.98, 0.295, 1.08, 0.3925, 1.1775, 0.49, 1.275, 0.59, 1.3725, 0.6875],
  "SoftwareVersions": "syngo MR E11",
  "SpacingBetweenSlices": 2,
  "StationName": "MRC35049",
  "TaskName": "mario3",
  "TotalReadoutTime": 0.0576811,
  "TxRefAmp": 271.349,
  "WipMemBlock": "00aab6c9-7db9-4069-b017-713bc2b879d6||Sequence: R017 ve11c/master r/75a17815+; Jun 28 2022 16:32:11 by eja",
  "dcmmeta_affine": [
    [-1.9998747110366821, 0.022339828312397003, 0.001458634389564395, 108.00880432128906],
    [0.021111981943249702, 1.9252887964248657, -0.5411258339881897, -74.38045501708984],
    [0.007448475807905197, 0.5410765409469604, 1.9254039525985718, -53.165042877197266],
    [0.0, 0.0, 0.0, 1.0]
],
  "dcmmeta_reorient_transform": [
    [0.0, -1.0, 0.0, 103.0],
    [1.0, 0.0, 0.0, 0.0],
    [0.0, 0.0, 1.0, 0.0],
    [0.0, 0.0, 0.0, 1.0]
],
  "dcmmeta_shape": [104, 104, 60, 312],
  "dcmmeta_slice_dim": 2,
  "dcmmeta_version": 0.6,
  "global": {
    "const": {
      "AcquisitionMatrix": [104, 0, 0, 104],
      "AngioFlag": "N",
      "BitsAllocated": 16,
      "BitsStored": 16,
      "BodyPartExamined": "BRAIN",
      "Columns": 832,
      "EchoNumbers": 1,
      "EchoTime": 37.0,
      "EchoTrainLength": 104,
      "FlipAngle": 52.0,
      "HighBit": 15,
      "ImageOrientationPatient": [0.99993734859167, -0.0105559908888, 0.00372423788506, 0.01116991440949, 0.96264441613592, -0.2705382802755],
      "ImagePositionPatient": [-846.39589541249, -817.04466476107, 196.80646390239],
      "ImageType": [
        "ORIGINAL",
        "PRIMARY",
        "M",
        "MB",
        "ND",
        "MOSAIC"
],
      "ImagedNucleus": "1H",
      "ImagingFrequency": 123.258803,
      "InPlanePhaseEncodingDirection": "COL",
      "MRAcquisitionType": "2D",
      "MagneticFieldStrength": 3.0,
      "Manufacturer": "SIEMENS",
      "ManufacturerModelName": "Prisma_fit",
      "Modality": "MR",
      "NumberOfAverages": 1.0,
      "NumberOfPhaseEncodingSteps": 104,
      "PercentPhaseFieldOfView": 100.0,
      "PercentSampling": 100.0,
      "PerformedProcedureStepStartTime": "181017.608000",
      "PhotometricInterpretation": "MONOCHROME2",
      "PixelBandwidth": 2290.0,
      "PixelRepresentation": 0,
      "PixelSpacing": [2.0, 2.0],
      "ProtocolName": "func_task-mario3_run-04",
      "RepetitionTime": 1490.0,
      "Rows": 832,
      "SAR": 0.07828916772839,
      "SamplesPerPixel": 1,
      "ScanOptions": "FS",
      "ScanningSequence": "EP",
      "SequenceName": "epfid2d1_104",
      "SequenceVariant": [
        "SK",
        "SS"
],
      "SeriesDescription": "func_task-mario3_run-04",
      "SeriesNumber": 19,
      "SeriesTime": "184143.321000",
      "SliceLocation": -30.978728152412,
      "SliceThickness": 2.0,
      "SmallestImagePixelValue": 0,
      "SoftwareVersions": "syngo MR E11",
      "SpacingBetweenSlices": 1.9999999584187,
      "SpecificCharacterSet": "ISO_IR 100",
      "StudyID": "1",
      "StudyTime": "181017.539000",
      "TransmitCoilName": "Body",
      "VariableFlipAngleFlag": "N",
      "WindowCenterWidthExplanation": "Algo1",
      "dBdt": 0.0},
    "slices": {}
  },
  "time": {
    "samples": {
      "AcquisitionNumber": [1, 2, 3, 4, 5, 6, 7, 8, 9, 10, 11, 12, 13, 14, 15, 16, 17, 18, 19, 20, 21, 22, 23, 24, 25, 26, 27, 28, 29, 30, 31, 32, 33, 34, 35, 36, 37, 38, 39, 40, 41, 42, 43, 44, 45, 46, 47, 48, 49, 50, 51, 52, 53, 54, 55, 56, 57, 58, 59, 60, 61, 62, 63, 64, 65, 66, 67, 68, 69, 70, 71, 72, 73, 74, 75, 76, 77, 78, 79, 80, 81, 82, 83, 84, 85, 86, 87, 88, 89, 90, 91, 92, 93, 94, 95, 96, 97, 98, 99, 100, 101, 102, 103, 104, 105, 106, 107, 108, 109, 110, 111, 112, 113, 114, 115, 116, 117, 118, 119, 120, 121, 122, 123, 124, 125, 126, 127, 128, 129, 130, 131, 132, 133, 134, 135, 136, 137, 138, 139, 140, 141, 142, 143, 144, 145, 146, 147, 148, 149, 150, 151, 152, 153, 154, 155, 156, 157, 158, 159, 160, 161, 162, 163, 164, 165, 166, 167, 168, 169, 170, 171, 172, 173, 174, 175, 176, 177, 178, 179, 180, 181, 182, 183, 184, 185, 186, 187, 188, 189, 190, 191, 192, 193, 194, 195, 196, 197, 198, 199, 200, 201, 202, 203, 204, 205, 206, 207, 208, 209, 210, 211, 212, 213, 214, 215, 216, 217, 218, 219, 220, 221, 222, 223, 224, 225, 226, 227, 228, 229, 230, 231, 232, 233, 234, 235, 236, 237, 238, 239, 240, 241, 242, 243, 244, 245, 246, 247, 248, 249, 250, 251, 252, 253, 254, 255, 256, 257, 258, 259, 260, 261, 262, 263, 264, 265, 266, 267, 268, 269, 270, 271, 272, 273, 274, 275, 276, 277, 278, 279, 280, 281, 282, 283, 284, 285, 286, 287, 288, 289, 290, 291, 292, 293, 294, 295, 296, 297, 298, 299, 300, 301, 302, 303, 304, 305, 306, 307, 308, 309, 310, 311, 312],
      "AcquisitionTime": ["184032.752500", "184034.242500", "184035.732500", "184037.222500", "184038.712500", "184040.202500", "184041.692500", "184043.182500", "184044.672500", "184046.162500", "184047.652500", "184049.142500", "184050.632500", "184052.122500", "184053.612500", "184055.102500", "184056.592500", "184058.082500", "184059.572500", "184101.062500", "184102.552500", "184104.042500", "184105.532500", "184107.022500", "184108.512500", "184110.002500", "184111.492500", "184112.982500", "184114.472500", "184115.962500", "184117.452500", "184118.942500", "184120.432500", "184121.922500", "184123.412500", "184124.902500", "184126.392500", "184127.882500", "184129.372500", "184130.862500", "184132.352500", "184133.842500", "184135.332500", "184136.822500", "184138.312500", "184139.802500", "184141.292500", "184142.782500", "184144.272500", "184145.762500", "184147.252500", "184148.742500", "184150.232500", "184151.722500", "184153.212500", "184154.702500", "184156.192500", "184157.682500", "184159.172500", "184200.662500", "184202.152500", "184203.642500", "184205.132500", "184206.622500", "184208.112500", "184209.602500", "184211.092500", "184212.582500", "184214.072500", "184215.562500", "184217.052500", "184218.542500", "184220.032500", "184221.522500", "184223.012500", "184224.502500", "184225.992500", "184227.482500", "184228.972500", "184230.462500", "184231.952500", "184233.442500", "184234.932500", "184236.422500", "184237.912500", "184239.402500", "184240.892500", "184242.382500", "184243.872500", "184245.362500", "184246.852500", "184248.342500", "184249.832500", "184251.322500", "184252.812500", "184254.302500", "184255.792500", "184257.282500", "184258.772500", "184300.262500", "184301.752500", "184303.242500", "184304.732500", "184306.222500", "184307.712500", "184309.202500", "184310.692500", "184312.182500", "184313.672500", "184315.162500", "184316.652500", "184318.142500", "184319.632500", "184321.122500", "184322.612500", "184324.102500", "184325.592500", "184327.082500", "184328.572500", "184330.062500", "184331.552500", "184333.042500", "184334.532500", "184336.022500", "184337.512500", "184339.002500", "184340.492500", "184341.982500", "184343.472500", "184344.962500", "184346.452500", "184347.942500", "184349.432500", "184350.922500", "184352.412500", "184353.902500", "184355.392500", "184356.882500", "184358.372500", "184359.862500", "184401.352500", "184402.842500", "184404.332500", "184405.822500", "184407.312500", "184408.802500", "184410.292500", "184411.782500", "184413.272500", "184414.762500", "184416.252500", "184417.742500", "184419.232500", "184420.722500", "184422.212500", "184423.702500", "184425.192500", "184426.682500", "184428.172500", "184429.662500", "184431.152500", "184432.642500", "184434.132500", "184435.622500", "184437.112500", "184438.602500", "184440.092500", "184441.582500", "184443.072500", "184444.562500", "184446.052500", "184447.542500", "184449.032500", "184450.522500", "184452.012500", "184453.502500", "184454.992500", "184456.482500", "184457.972500", "184459.462500", "184500.952500", "184502.442500", "184503.932500", "184505.422500", "184506.912500", "184508.402500", "184509.892500", "184511.382500", "184512.872500", "184514.362500", "184515.852500", "184517.342500", "184518.832500", "184520.322500", "184521.812500", "184523.302500", "184524.792500", "184526.282500", "184527.772500", "184529.262500", "184530.752500", "184532.242500", "184533.732500", "184535.222500", "184536.712500", "184538.202500", "184539.692500", "184541.182500", "184542.672500", "184544.162500", "184545.652500", "184547.142500", "184548.632500", "184550.122500", "184551.612500", "184553.102500", "184554.592500", "184556.082500", "184557.572500", "184559.062500", "184600.552500", "184602.042500", "184603.532500", "184605.022500", "184606.512500", "184608.002500", "184609.492500", "184610.982500", "184612.472500", "184613.962500", "184615.452500", "184616.942500", "184618.432500", "184619.922500", "184621.412500", "184622.902500", "184624.392500", "184625.882500", "184627.372500", "184628.862500", "184630.352500", "184631.842500", "184633.332500", "184634.822500", "184636.312500", "184637.802500", "184639.292500", "184640.782500", "184642.272500", "184643.762500", "184645.252500", "184646.742500", "184648.232500", "184649.722500", "184651.212500", "184652.702500", "184654.192500", "184655.682500", "184657.172500", "184658.662500", "184700.152500", "184701.642500", "184703.132500", "184704.622500", "184706.112500", "184707.602500", "184709.092500", "184710.582500", "184712.072500", "184713.562500", "184715.052500", "184716.542500", "184718.032500", "184719.522500", "184721.012500", "184722.502500", "184723.992500", "184725.482500", "184726.972500", "184728.462500", "184729.952500", "184731.442500", "184732.932500", "184734.422500", "184735.912500", "184737.402500", "184738.892500", "184740.382500", "184741.872500", "184743.362500", "184744.852500", "184746.342500", "184747.832500", "184749.322500", "184750.812500", "184752.302500", "184753.792500", "184755.282500", "184756.772500", "184758.262500", "184759.752500", "184801.242500", "184802.732500", "184804.222500", "184805.712500", "184807.202500", "184808.692500", "184810.182500", "184811.672500", "184813.162500", "184814.652500", "184816.142500"],
      "ContentTime": ["184143.324000", "184143.328000", "184143.335000", "184143.338000", "184143.342000", "184143.345000", "184143.349000", "184143.352000", "184143.355000", "184143.358000", "184143.362000", "184143.365000", "184143.369000", "184143.372000", "184143.375000", "184143.379000", "184143.382000", "184143.392000", "184143.396000", "184143.399000", "184203.280000", "184203.284000", "184203.287000", "184203.290000", "184203.294000", "184203.297000", "184203.301000", "184203.304000", "184203.308000", "184203.311000", "184203.314000", "184203.317000", "184203.321000", "184203.324000", "184203.328000", "184203.331000", "184203.335000", "184203.338000", "184203.341000", "184203.344000", "184223.280000", "184223.284000", "184223.287000", "184223.291000", "184223.294000", "184223.297000", "184223.307000", "184223.310000", "184223.313000", "184223.317000", "184223.320000", "184223.323000", "184223.327000", "184223.330000", "184223.333000", "184223.337000", "184223.340000", "184223.343000", "184223.347000", "184223.350000", "184243.281000", "184243.285000", "184243.288000", "184243.292000", "184243.295000", "184243.298000", "184243.302000", "184243.305000", "184243.308000", "184243.312000", "184243.315000", "184243.319000", "184243.322000", "184243.325000", "184243.329000", "184243.332000", "184243.335000", "184243.339000", "184243.342000", "184243.345000", "184303.281000", "184303.285000", "184303.288000", "184303.291000", "184303.295000", "184303.298000", "184303.309000", "184303.313000", "184303.316000", "184303.319000", "184303.323000", "184303.326000", "184303.329000", "184303.333000", "184303.336000", "184303.339000", "184303.343000", "184303.346000", "184303.350000", "184303.353000", "184343.281000", "184343.285000", "184343.288000", "184343.292000", "184343.295000", "184343.298000", "184343.302000", "184343.305000", "184343.309000", "184343.312000", "184343.315000", "184343.319000", "184343.322000", "184343.325000", "184343.329000", "184343.332000", "184343.336000", "184343.339000", "184343.342000", "184343.346000", "184343.349000", "184343.352000", "184343.356000", "184343.359000", "184343.362000", "184343.366000", "184343.369000", "184423.280000", "184423.284000", "184423.287000", "184423.291000", "184423.294000", "184423.297000", "184423.301000", "184423.304000", "184423.308000", "184423.311000", "184423.314000", "184423.318000", "184423.321000", "184423.325000", "184423.328000", "184423.331000", "184423.343000", "184423.347000", "184423.350000", "184423.353000", "184423.357000", "184423.360000", "184423.363000", "184423.367000", "184423.370000", "184423.374000", "184423.377000", "184503.281000", "184503.285000", "184503.288000", "184503.292000", "184503.295000", "184503.298000", "184503.302000", "184503.305000", "184503.308000", "184503.312000", "184503.315000", "184503.319000", "184503.322000", "184503.326000", "184503.329000", "184503.333000", "184503.336000", "184503.339000", "184503.343000", "184503.346000", "184503.349000", "184503.353000", "184503.356000", "184503.359000", "184503.363000", "184503.366000", "184543.281000", "184543.285000", "184543.288000", "184543.292000", "184543.295000", "184543.298000", "184543.315000", "184543.323000", "184543.326000", "184543.329000", "184543.333000", "184543.336000", "184543.340000", "184543.343000", "184543.346000", "184543.350000", "184543.353000", "184543.356000", "184543.360000", "184543.363000", "184543.367000", "184543.370000", "184543.373000", "184543.377000", "184543.380000", "184543.383000", "184543.387000", "184623.280000", "184623.284000", "184623.287000", "184623.291000", "184623.295000", "184623.298000", "184623.302000", "184623.305000", "184623.308000", "184623.312000", "184623.315000", "184623.319000", "184623.322000", "184623.325000", "184623.329000", "184623.332000", "184623.335000", "184623.339000", "184623.342000", "184623.345000", "184623.349000", "184623.352000", "184623.356000", "184623.359000", "184623.362000", "184623.366000", "184623.369000", "184703.280000", "184703.284000", "184703.287000", "184703.291000", "184703.294000", "184703.297000", "184703.301000", "184703.304000", "184703.308000", "184703.311000", "184703.314000", "184703.318000", "184703.321000", "184703.325000", "184703.328000", "184703.331000", "184703.335000", "184703.338000", "184703.341000", "184703.345000", "184703.348000", "184703.351000", "184703.355000", "184703.358000", "184703.361000", "184703.365000", "184703.368000", "184743.281000", "184743.285000", "184743.288000", "184743.292000", "184743.295000", "184743.298000", "184743.302000", "184743.305000", "184743.309000", "184743.312000", "184743.315000", "184743.319000", "184743.322000", "184743.326000", "184743.329000", "184743.332000", "184743.336000", "184743.339000", "184743.343000", "184743.346000", "184743.356000", "184743.359000", "184743.362000", "184743.366000", "184743.369000", "184743.372000", "184743.376000", "184819.307000", "184819.310000", "184819.314000", "184819.317000", "184819.320000", "184819.324000", "184819.327000", "184819.331000", "184819.334000", "184819.338000", "184819.341000", "184819.344000", "184819.348000", "184819.351000", "184819.355000", "184819.358000", "184819.361000", "184819.365000", "184819.368000", "184819.372000", "184819.375000", "184819.378000", "184819.382000", "184819.385000"],
      "InstanceCreationTime": ["184143.324000", "184143.328000", "184143.335000", "184143.338000", "184143.342000", "184143.345000", "184143.349000", "184143.352000", "184143.355000", "184143.358000", "184143.362000", "184143.365000", "184143.369000", "184143.372000", "184143.375000", "184143.379000", "184143.382000", "184143.392000", "184143.396000", "184143.399000", "184203.280000", "184203.284000", "184203.287000", "184203.290000", "184203.294000", "184203.297000", "184203.301000", "184203.304000", "184203.308000", "184203.311000", "184203.314000", "184203.317000", "184203.321000", "184203.324000", "184203.328000", "184203.331000", "184203.335000", "184203.338000", "184203.341000", "184203.344000", "184223.280000", "184223.284000", "184223.287000", "184223.291000", "184223.294000", "184223.297000", "184223.307000", "184223.310000", "184223.313000", "184223.317000", "184223.320000", "184223.323000", "184223.327000", "184223.330000", "184223.333000", "184223.337000", "184223.340000", "184223.343000", "184223.347000", "184223.350000", "184243.281000", "184243.285000", "184243.288000", "184243.292000", "184243.295000", "184243.298000", "184243.302000", "184243.305000", "184243.308000", "184243.312000", "184243.315000", "184243.319000", "184243.322000", "184243.325000", "184243.329000", "184243.332000", "184243.335000", "184243.339000", "184243.342000", "184243.345000", "184303.281000", "184303.285000", "184303.288000", "184303.291000", "184303.295000", "184303.298000", "184303.309000", "184303.313000", "184303.316000", "184303.319000", "184303.323000", "184303.326000", "184303.329000", "184303.333000", "184303.336000", "184303.339000", "184303.343000", "184303.346000", "184303.350000", "184303.353000", "184343.281000", "184343.285000", "184343.288000", "184343.292000", "184343.295000", "184343.298000", "184343.302000", "184343.305000", "184343.309000", "184343.312000", "184343.315000", "184343.319000", "184343.322000", "184343.325000", "184343.329000", "184343.332000", "184343.336000", "184343.339000", "184343.342000", "184343.346000", "184343.349000", "184343.352000", "184343.356000", "184343.359000", "184343.362000", "184343.366000", "184343.369000", "184423.280000", "184423.284000", "184423.287000", "184423.291000", "184423.294000", "184423.297000", "184423.301000", "184423.304000", "184423.308000", "184423.311000", "184423.314000", "184423.318000", "184423.321000", "184423.325000", "184423.328000", "184423.331000", "184423.343000", "184423.347000", "184423.350000", "184423.353000", "184423.357000", "184423.360000", "184423.363000", "184423.367000", "184423.370000", "184423.374000", "184423.377000", "184503.281000", "184503.285000", "184503.288000", "184503.292000", "184503.295000", "184503.298000", "184503.302000", "184503.305000", "184503.308000", "184503.312000", "184503.315000", "184503.319000", "184503.322000", "184503.326000", "184503.329000", "184503.333000", "184503.336000", "184503.339000", "184503.343000", "184503.346000", "184503.349000", "184503.353000", "184503.356000", "184503.359000", "184503.363000", "184503.366000", "184543.281000", "184543.285000", "184543.288000", "184543.292000", "184543.295000", "184543.298000", "184543.315000", "184543.323000", "184543.326000", "184543.329000", "184543.333000", "184543.336000", "184543.340000", "184543.343000", "184543.346000", "184543.350000", "184543.353000", "184543.356000", "184543.360000", "184543.363000", "184543.367000", "184543.370000", "184543.373000", "184543.377000", "184543.380000", "184543.383000", "184543.387000", "184623.280000", "184623.284000", "184623.287000", "184623.291000", "184623.295000", "184623.298000", "184623.302000", "184623.305000", "184623.308000", "184623.312000", "184623.315000", "184623.319000", "184623.322000", "184623.325000", "184623.329000", "184623.332000", "184623.335000", "184623.339000", "184623.342000", "184623.345000", "184623.349000", "184623.352000", "184623.356000", "184623.359000", "184623.362000", "184623.366000", "184623.369000", "184703.280000", "184703.284000", "184703.287000", "184703.291000", "184703.294000", "184703.297000", "184703.301000", "184703.304000", "184703.308000", "184703.311000", "184703.314000", "184703.318000", "184703.321000", "184703.325000", "184703.328000", "184703.331000", "184703.335000", "184703.338000", "184703.341000", "184703.345000", "184703.348000", "184703.351000", "184703.355000", "184703.358000", "184703.361000", "184703.365000", "184703.368000", "184743.281000", "184743.285000", "184743.288000", "184743.292000", "184743.295000", "184743.298000", "184743.302000", "184743.305000", "184743.309000", "184743.312000", "184743.315000", "184743.319000", "184743.322000", "184743.326000", "184743.329000", "184743.332000", "184743.336000", "184743.339000", "184743.343000", "184743.346000", "184743.356000", "184743.359000", "184743.362000", "184743.366000", "184743.369000", "184743.372000", "184743.376000", "184819.307000", "184819.310000", "184819.314000", "184819.317000", "184819.320000", "184819.324000", "184819.327000", "184819.331000", "184819.334000", "184819.338000", "184819.341000", "184819.344000", "184819.348000", "184819.351000", "184819.355000", "184819.358000", "184819.361000", "184819.365000", "184819.368000", "184819.372000", "184819.375000", "184819.378000", "184819.382000", "184819.385000"],
      "InstanceNumber": [1, 2, 3, 4, 5, 6, 7, 8, 9, 10, 11, 12, 13, 14, 15, 16, 17, 18, 19, 20, 21, 22, 23, 24, 25, 26, 27, 28, 29, 30, 31, 32, 33, 34, 35, 36, 37, 38, 39, 40, 41, 42, 43, 44, 45, 46, 47, 48, 49, 50, 51, 52, 53, 54, 55, 56, 57, 58, 59, 60, 61, 62, 63, 64, 65, 66, 67, 68, 69, 70, 71, 72, 73, 74, 75, 76, 77, 78, 79, 80, 81, 82, 83, 84, 85, 86, 87, 88, 89, 90, 91, 92, 93, 94, 95, 96, 97, 98, 99, 100, 101, 102, 103, 104, 105, 106, 107, 108, 109, 110, 111, 112, 113, 114, 115, 116, 117, 118, 119, 120, 121, 122, 123, 124, 125, 126, 127, 128, 129, 130, 131, 132, 133, 134, 135, 136, 137, 138, 139, 140, 141, 142, 143, 144, 145, 146, 147, 148, 149, 150, 151, 152, 153, 154, 155, 156, 157, 158, 159, 160, 161, 162, 163, 164, 165, 166, 167, 168, 169, 170, 171, 172, 173, 174, 175, 176, 177, 178, 179, 180, 181, 182, 183, 184, 185, 186, 187, 188, 189, 190, 191, 192, 193, 194, 195, 196, 197, 198, 199, 200, 201, 202, 203, 204, 205, 206, 207, 208, 209, 210, 211, 212, 213, 214, 215, 216, 217, 218, 219, 220, 221, 222, 223, 224, 225, 226, 227, 228, 229, 230, 231, 232, 233, 234, 235, 236, 237, 238, 239, 240, 241, 242, 243, 244, 245, 246, 247, 248, 249, 250, 251, 252, 253, 254, 255, 256, 257, 258, 259, 260, 261, 262, 263, 264, 265, 266, 267, 268, 269, 270, 271, 272, 273, 274, 275, 276, 277, 278, 279, 280, 281, 282, 283, 284, 285, 286, 287, 288, 289, 290, 291, 292, 293, 294, 295, 296, 297, 298, 299, 300, 301, 302, 303, 304, 305, 306, 307, 308, 309, 310, 311, 312],
      "LargestImagePixelValue": [42127, 41296, 40472, 40278, 39864, 39750, 40201, 39699, 39280, 38658, 38971, 38683, 38523, 38717, 38548, 38450, 38998, 39289, 39933, 39763, 39130, 40226, 38678, 39050, 38335, 38522, 37841, 39411, 38405, 38969, 37955, 37867, 38358, 38599, 38103, 38562, 38036, 38652, 38505, 38128, 38191, 38213, 38554, 38258, 38560, 39368, 39165, 39461, 39381, 39678, 39222, 39148, 38507, 38446, 38416, 38192, 38705, 38569, 38471, 38553, 38698, 38691, 37123, 37533, 37862, 37988, 37854, 37901, 38138, 38690, 38323, 38129, 37830, 38016, 37713, 37912, 38345, 38345, 38260, 37053, 38505, 39596, 38336, 38082, 37978, 37910, 37923, 38085, 38089, 40415, 39836, 39020, 39027, 38662, 38909, 39180, 39050, 39298, 39309, 38514, 39111, 38377, 39660, 38900, 39362, 38689, 38866, 38620, 38818, 39253, 39147, 38583, 38611, 39426, 39947, 40106, 39611, 39676, 39302, 38358, 38149, 38856, 39421, 37967, 38267, 37983, 38200, 37641, 38433, 38414, 38470, 38346, 37831, 38077, 38497, 39118, 37745, 39134, 39290, 38763, 38417, 38755, 38743, 39102, 38957, 39527, 38905, 38825, 39300, 38437, 39021, 38649, 38716, 38956, 38524, 40914, 40126, 39617, 39760, 39373, 38866, 39466, 39554, 38872, 38499, 38057, 38507, 38134, 38728, 39161, 39449, 38603, 38946, 38205, 37877, 38070, 38177, 38292, 38388, 38272, 38404, 37986, 38688, 38585, 38665, 39433, 39418, 39376, 39253, 38382, 38315, 38357, 38762, 38590, 38922, 38841, 39101, 38736, 39481, 38938, 39414, 39192, 39607, 39266, 38086, 38594, 38463, 38649, 37693, 39119, 37780, 37761, 38377, 37961, 37906, 37943, 37894, 37907, 38534, 38530, 37846, 40470, 39470, 39334, 38829, 38778, 39153, 38565, 39262, 38322, 38348, 37607, 38482, 38573, 39078, 39205, 38746, 39189, 38487, 38947, 38881, 38925, 39348, 37795, 41254, 39792, 39660, 39530, 40209, 39221, 39332, 39661, 38853, 38903, 39226, 38303, 40109, 38603, 38720, 38276, 37801, 36944, 37674, 39278, 37805, 38692, 38640, 39519, 39797, 40195, 39452, 38674, 38808, 38828, 39057, 40347, 39871, 40398, 39710, 39229, 39427, 39021, 39450, 39281, 39459, 38583, 37626, 41310, 40394, 40033, 39815, 39496, 39481, 39016, 37504, 38248, 38650, 38241, 38942, 39086, 38538, 38636, 38446, 38224, 37904, 38806, 39786, 38863, 38692, 38685, 38404, 38358],
      "WindowCenter": [10077.0, 10043.0, 10037.0, 9997.0, 10007.0, 10012.0, 10035.0, 10008.0, 10039.0, 10034.0, 10030.0, 10015.0, 10028.0, 10013.0, 9995.0, 9984.0, 9991.0, 9999.0, 9983.0, 9967.0, 9930.0, 9938.0, 9917.0, 9943.0, 9939.0, 9966.0, 9938.0, 9975.0, 9991.0, 9980.0, 9965.0, 9976.0, 9982.0, 9958.0, 9940.0, 9963.0, 9918.0, 9962.0, 9954.0, 9952.0, 9956.0, 9985.0, 9965.0, 9948.0, 9924.0, 9922.0, 9951.0, 9956.0, 9972.0, 9974.0, 9950.0, 9949.0, 9972.0, 9961.0, 9981.0, 9956.0, 9962.0, 9943.0, 9971.0, 9954.0, 9960.0, 9951.0, 9875.0, 9937.0, 9961.0, 9948.0, 9919.0, 9870.0, 9894.0, 9933.0, 9946.0, 9967.0, 9963.0, 9958.0, 9932.0, 9901.0, 9911.0, 9921.0, 9957.0, 9968.0, 9987.0, 9983.0, 9927.0, 9902.0, 9900.0, 9899.0, 9924.0, 9937.0, 9954.0, 9966.0, 10006.0, 9999.0, 10001.0, 9978.0, 9964.0, 9959.0, 9967.0, 9991.0, 10000.0, 9992.0, 10022.0, 9976.0, 10023.0, 10017.0, 9996.0, 9993.0, 9998.0, 9978.0, 9995.0, 10003.0, 10006.0, 9966.0, 9916.0, 9900.0, 9892.0, 9927.0, 9936.0, 9956.0, 9969.0, 9963.0, 9945.0, 9959.0, 9995.0, 9970.0, 9997.0, 10008.0, 10012.0, 9958.0, 9973.0, 9970.0, 9961.0, 9943.0, 9958.0, 9956.0, 9921.0, 9992.0, 9960.0, 9916.0, 10015.0, 9983.0, 9970.0, 9948.0, 9957.0, 9970.0, 9942.0, 10017.0, 9988.0, 9987.0, 9994.0, 9922.0, 9965.0, 10001.0, 9985.0, 9986.0, 9907.0, 10012.0, 10001.0, 9990.0, 9971.0, 9992.0, 9969.0, 9993.0, 9961.0, 9944.0, 9966.0, 9993.0, 9988.0, 9971.0, 9937.0, 9971.0, 9961.0, 9953.0, 9957.0, 9986.0, 9998.0, 9958.0, 9943.0, 9948.0, 9964.0, 9941.0, 9990.0, 9983.0, 9955.0, 9963.0, 9892.0, 9985.0, 10024.0, 9975.0, 10038.0, 9990.0, 9960.0, 9927.0, 9927.0, 9963.0, 9974.0, 9976.0, 9976.0, 9954.0, 9999.0, 9959.0, 10001.0, 10001.0, 10008.0, 10026.0, 9987.0, 9992.0, 9969.0, 9974.0, 9919.0, 9985.0, 9990.0, 9976.0, 9993.0, 9945.0, 9969.0, 10000.0, 9985.0, 9986.0, 9981.0, 9986.0, 9886.0, 9985.0, 10009.0, 10021.0, 9969.0, 9980.0, 9986.0, 9957.0, 9987.0, 10005.0, 9997.0, 9986.0, 9992.0, 9976.0, 9966.0, 9963.0, 9949.0, 9962.0, 9988.0, 10004.0, 9995.0, 9994.0, 10038.0, 9895.0, 10066.0, 10059.0, 10089.0, 9919.0, 10044.0, 9996.0, 9984.0, 9987.0, 9974.0, 9990.0, 9968.0, 9844.0, 10045.0, 9934.0, 9949.0, 9930.0, 9907.0, 9858.0, 9912.0, 9998.0, 10004.0, 9932.0, 9985.0, 9929.0, 9928.0, 9954.0, 9996.0, 10023.0, 9996.0, 9959.0, 9943.0, 9931.0, 9966.0, 10024.0, 10028.0, 10014.0, 9986.0, 9978.0, 9966.0, 9981.0, 9987.0, 9964.0, 9886.0, 10086.0, 10051.0, 10024.0, 9990.0, 9981.0, 9986.0, 9961.0, 9961.0, 9985.0, 10027.0, 10014.0, 10015.0, 9973.0, 9944.0, 10018.0, 9988.0, 9974.0, 9975.0, 9961.0, 9959.0, 9945.0, 9950.0, 9978.0, 9984.0, 9986.0],
