{
  "AcquisitionMatrixPE": 104,
  "AcquisitionNumber": 1,
  "AcquisitionTime": "18:40:32.752500",
  "BandwidthPerPixelPhaseEncode": 17.17,
  "BaseResolution": 104,
  "BodyPartExamined": "BRAIN",
  "CoilCombinationMethod": "Sum of Squares",
  "ConsistencyInfo": "N4_VE11C_LATEST_20160120",
  "ConversionSoftware": "dcm2niix",
  "ConversionSoftwareVersion": "v1.0.20220505",
  "DerivedVendorReportedEchoSpacing": 0.000560011,
  "DeviceSerialNumber": "167006",
  "DwellTime": 2.1e-06,
  "EchoTime": 0.037,
  "EchoTime1": 0.037,
  "EchoTime2": 0.001,
  "EchoTrainLength": 104,
  "EffectiveEchoSpacing": 0.000560011,
  "FlipAngle": 52,
  "HeudiconvVersion": "0.5.3.post811+g6206e14",
  "ImageComments": "Unaliased MB4/PE3/LB",
  "ImageOrientationPatientDICOM": [0.999937, -0.010556, 0.00372424, 0.0111699, 0.962644, -0.270538],
  "ImageOrientationText": "Tra>Cor(-15.7)>Sag(0.0)",
  "ImageType": [
    "ORIGINAL",
    "PRIMARY",
    "P",
    "MB",
    "ND",
    "MOSAIC",
    "PHASE"
],
  "ImagingFrequency": 123.259,
  "InPlanePhaseEncodingDirectionDICOM": "COL",
  "InstitutionAddress": "Chemin Queen-Mary 4565,Montreal,District,CA,H3W 1W5",
  "InstitutionName": "IUGM",
  "InstitutionalDepartmentName": "Department",
  "MRAcquisitionType": "2D",
  "MagneticFieldStrength": 3,
  "Manufacturer": "Siemens",
  "ManufacturersModelName": "Prisma_fit",
  "MatrixCoilMode": "SENSE",
  "Modality": "MR",
  "MultibandAccelerationFactor": 4,
  "PartialFourier": 1,
  "PatientPosition": "HFS",
  "PercentPhaseFOV": 100,
  "PercentSampling": 100,
  "PhaseEncodingDirection": "j",
  "PhaseEncodingSteps": 104,
  "PhaseResolution": 1,
  "PixelBandwidth": 2290,
  "ProcedureStepDescription": "games^mario3",
  "ProtocolName": "func_task-mario3_run-04",
  "PulseSequenceDetails": "%CustomerSeq%\\cmrr_mbep2d_bold",
  "ReceiveCoilActiveElements": "HC1-7;NC1,2",
  "ReceiveCoilName": "HeadNeck_64",
  "ReconMatrixPE": 104,
  "RepetitionTime": 1.49,
  "SAR": 0.0782892,
  "ScanOptions": "FS",
  "ScanningSequence": "EP",
  "SequenceName": "epfid2d1_104",
  "SequenceVariant": "SK\\SS",
  "SeriesDescription": "func_task-mario3_run-04",
  "SeriesNumber": 20,
  "ShimSetting": [637, -7218, -8755, 684, 37, -30, 50, 0],
  "SliceThickness": 2,
  "SliceTiming": [0, 0.785, 0.1, 0.8825, 0.1975, 0.98, 0.295, 1.08, 0.3925, 1.1775, 0.49, 1.275, 0.59, 1.3725, 0.6875, 0, 0.785, 0.1, 0.8825, 0.1975, 0.98, 0.295, 1.08, 0.3925, 1.1775, 0.49, 1.275, 0.59, 1.3725, 0.6875, 0, 0.785, 0.1, 0.8825, 0.1975, 0.98, 0.295, 1.08, 0.3925, 1.1775, 0.49, 1.275, 0.59, 1.3725, 0.6875, 0, 0.785, 0.1, 0.8825, 0.1975, 0.98, 0.295, 1.08, 0.3925, 1.1775, 0.49, 1.275, 0.59, 1.3725, 0.6875],
  "SoftwareVersions": "syngo MR E11",
  "SpacingBetweenSlices": 2,
  "StationName": "MRC35049",
  "TaskName": "mario3",
  "TotalReadoutTime": 0.0576811,
  "TxRefAmp": 271.349,
  "WipMemBlock": "00aab6c9-7db9-4069-b017-713bc2b879d6||Sequence: R017 ve11c/master r/75a17815+; Jun 28 2022 16:32:11 by eja",
  "dcmmeta_affine": [
    [-1.9998747110366821, 0.022339828312397003, 0.001458634389564395, 108.00880432128906],
    [0.021111981943249702, 1.9252887964248657, -0.5411258339881897, -74.38045501708984],
    [0.007448475807905197, 0.5410765409469604, 1.9254039525985718, -53.165042877197266],
    [0.0, 0.0, 0.0, 1.0]
],
  "dcmmeta_reorient_transform": [
    [0.0, -1.0, 0.0, 103.0],
    [1.0, 0.0, 0.0, 0.0],
    [0.0, 0.0, 1.0, 0.0],
    [0.0, 0.0, 0.0, 1.0]
],
  "dcmmeta_shape": [104, 104, 60, 312],
  "dcmmeta_slice_dim": 2,
  "dcmmeta_version": 0.6,
  "global": {
    "const": {
      "AcquisitionMatrix": [104, 0, 0, 104],
      "AngioFlag": "N",
      "BitsAllocated": 16,
      "BitsStored": 16,
      "BodyPartExamined": "BRAIN",
      "Columns": 832,
      "EchoNumbers": 1,
      "EchoTime": 37.0,
      "EchoTrainLength": 104,
      "FlipAngle": 52.0,
      "HighBit": 15,
      "ImageOrientationPatient": [0.99993734859167, -0.0105559908888, 0.00372423788506, 0.01116991440949, 0.96264441613592, -0.2705382802755],
      "ImagePositionPatient": [-846.39589541249, -817.04466476107, 196.80646390239],
      "ImageType": [
        "ORIGINAL",
        "PRIMARY",
        "P",
        "MB",
        "ND",
        "MOSAIC"
],
      "ImagedNucleus": "1H",
      "ImagingFrequency": 123.258803,
      "InPlanePhaseEncodingDirection": "COL",
      "LargestImagePixelValue": 4095,
      "MRAcquisitionType": "2D",
      "MagneticFieldStrength": 3.0,
      "Manufacturer": "SIEMENS",
      "ManufacturerModelName": "Prisma_fit",
      "Modality": "MR",
      "NumberOfAverages": 1.0,
      "NumberOfPhaseEncodingSteps": 104,
      "PercentPhaseFieldOfView": 100.0,
      "PercentSampling": 100.0,
      "PerformedProcedureStepStartTime": "181017.608000",
      "PhotometricInterpretation": "MONOCHROME2",
      "PixelBandwidth": 2290.0,
      "PixelRepresentation": 0,
      "PixelSpacing": [2.0, 2.0],
      "ProtocolName": "func_task-mario3_run-04",
      "RepetitionTime": 1490.0,
      "RescaleIntercept": -4096.0,
      "RescaleSlope": 2.0,
      "RescaleType": "US",
      "Rows": 832,
      "SAR": 0.07828916772839,
      "SamplesPerPixel": 1,
      "ScanOptions": "FS",
      "ScanningSequence": "EP",
      "SequenceName": "epfid2d1_104",
      "SequenceVariant": [
        "SK",
        "SS"
],
      "SeriesDescription": "func_task-mario3_run-04",
      "SeriesNumber": 20,
      "SeriesTime": "184143.444000",
      "SliceLocation": -30.978728152412,
      "SliceThickness": 2.0,
      "SmallestImagePixelValue": 0,
      "SoftwareVersions": "syngo MR E11",
      "SpacingBetweenSlices": 1.9999999584187,
      "SpecificCharacterSet": "ISO_IR 100",
      "StudyID": "1",
      "StudyTime": "181017.539000",
      "TransmitCoilName": "Body",
      "VariableFlipAngleFlag": "N",
      "WindowCenterWidthExplanation": "Algo1",
      "dBdt": 0.0},
    "slices": {}
  },
  "time": {
    "samples": {
      "AcquisitionNumber": [1, 2, 3, 4, 5, 6, 7, 8, 9, 10, 11, 12, 13, 14, 15, 16, 17, 18, 19, 20, 21, 22, 23, 24, 25, 26, 27, 28, 29, 30, 31, 32, 33, 34, 35, 36, 37, 38, 39, 40, 41, 42, 43, 44, 45, 46, 47, 48, 49, 50, 51, 52, 53, 54, 55, 56, 57, 58, 59, 60, 61, 62, 63, 64, 65, 66, 67, 68, 69, 70, 71, 72, 73, 74, 75, 76, 77, 78, 79, 80, 81, 82, 83, 84, 85, 86, 87, 88, 89, 90, 91, 92, 93, 94, 95, 96, 97, 98, 99, 100, 101, 102, 103, 104, 105, 106, 107, 108, 109, 110, 111, 112, 113, 114, 115, 116, 117, 118, 119, 120, 121, 122, 123, 124, 125, 126, 127, 128, 129, 130, 131, 132, 133, 134, 135, 136, 137, 138, 139, 140, 141, 142, 143, 144, 145, 146, 147, 148, 149, 150, 151, 152, 153, 154, 155, 156, 157, 158, 159, 160, 161, 162, 163, 164, 165, 166, 167, 168, 169, 170, 171, 172, 173, 174, 175, 176, 177, 178, 179, 180, 181, 182, 183, 184, 185, 186, 187, 188, 189, 190, 191, 192, 193, 194, 195, 196, 197, 198, 199, 200, 201, 202, 203, 204, 205, 206, 207, 208, 209, 210, 211, 212, 213, 214, 215, 216, 217, 218, 219, 220, 221, 222, 223, 224, 225, 226, 227, 228, 229, 230, 231, 232, 233, 234, 235, 236, 237, 238, 239, 240, 241, 242, 243, 244, 245, 246, 247, 248, 249, 250, 251, 252, 253, 254, 255, 256, 257, 258, 259, 260, 261, 262, 263, 264, 265, 266, 267, 268, 269, 270, 271, 272, 273, 274, 275, 276, 277, 278, 279, 280, 281, 282, 283, 284, 285, 286, 287, 288, 289, 290, 291, 292, 293, 294, 295, 296, 297, 298, 299, 300, 301, 302, 303, 304, 305, 306, 307, 308, 309, 310, 311, 312],
      "AcquisitionTime": ["184032.752500", "184034.242500", "184035.732500", "184037.222500", "184038.712500", "184040.202500", "184041.692500", "184043.182500", "184044.672500", "184046.162500", "184047.652500", "184049.142500", "184050.632500", "184052.122500", "184053.612500", "184055.102500", "184056.592500", "184058.082500", "184059.572500", "184101.062500", "184102.552500", "184104.042500", "184105.532500", "184107.022500", "184108.512500", "184110.002500", "184111.492500", "184112.982500", "184114.472500", "184115.962500", "184117.452500", "184118.942500", "184120.432500", "184121.922500", "184123.412500", "184124.902500", "184126.392500", "184127.882500", "184129.372500", "184130.862500", "184132.352500", "184133.842500", "184135.332500", "184136.822500", "184138.312500", "184139.802500", "184141.292500", "184142.782500", "184144.272500", "184145.762500", "184147.252500", "184148.742500", "184150.232500", "184151.722500", "184153.212500", "184154.702500", "184156.192500", "184157.682500", "184159.172500", "184200.662500", "184202.152500", "184203.642500", "184205.132500", "184206.622500", "184208.112500", "184209.602500", "184211.092500", "184212.582500", "184214.072500", "184215.562500", "184217.052500", "184218.542500", "184220.032500", "184221.522500", "184223.012500", "184224.502500", "184225.992500", "184227.482500", "184228.972500", "184230.462500", "184231.952500", "184233.442500", "184234.932500", "184236.422500", "184237.912500", "184239.402500", "184240.892500", "184242.382500", "184243.872500", "184245.362500", "184246.852500", "184248.342500", "184249.832500", "184251.322500", "184252.812500", "184254.302500", "184255.792500", "184257.282500", "184258.772500", "184300.262500", "184301.752500", "184303.242500", "184304.732500", "184306.222500", "184307.712500", "184309.202500", "184310.692500", "184312.182500", "184313.672500", "184315.162500", "184316.652500", "184318.142500", "184319.632500", "184321.122500", "184322.612500", "184324.102500", "184325.592500", "184327.082500", "184328.572500", "184330.062500", "184331.552500", "184333.042500", "184334.532500", "184336.022500", "184337.512500", "184339.002500", "184340.492500", "184341.982500", "184343.472500", "184344.962500", "184346.452500", "184347.942500", "184349.432500", "184350.922500", "184352.412500", "184353.902500", "184355.392500", "184356.882500", "184358.372500", "184359.862500", "184401.352500", "184402.842500", "184404.332500", "184405.822500", "184407.312500", "184408.802500", "184410.292500", "184411.782500", "184413.272500", "184414.762500", "184416.252500", "184417.742500", "184419.232500", "184420.722500", "184422.212500", "184423.702500", "184425.192500", "184426.682500", "184428.172500", "184429.662500", "184431.152500", "184432.642500", "184434.132500", "184435.622500", "184437.112500", "184438.602500", "184440.092500", "184441.582500", "184443.072500", "184444.562500", "184446.052500", "184447.542500", "184449.032500", "184450.522500", "184452.012500", "184453.502500", "184454.992500", "184456.482500", "184457.972500", "184459.462500", "184500.952500", "184502.442500", "184503.932500", "184505.422500", "184506.912500", "184508.402500", "184509.892500", "184511.382500", "184512.872500", "184514.362500", "184515.852500", "184517.342500", "184518.832500", "184520.322500", "184521.812500", "184523.302500", "184524.792500", "184526.282500", "184527.772500", "184529.262500", "184530.752500", "184532.242500", "184533.732500", "184535.222500", "184536.712500", "184538.202500", "184539.692500", "184541.182500", "184542.672500", "184544.162500", "184545.652500", "184547.142500", "184548.632500", "184550.122500", "184551.612500", "184553.102500", "184554.592500", "184556.082500", "184557.572500", "184559.062500", "184600.552500", "184602.042500", "184603.532500", "184605.022500", "184606.512500", "184608.002500", "184609.492500", "184610.982500", "184612.472500", "184613.962500", "184615.452500", "184616.942500", "184618.432500", "184619.922500", "184621.412500", "184622.902500", "184624.392500", "184625.882500", "184627.372500", "184628.862500", "184630.352500", "184631.842500", "184633.332500", "184634.822500", "184636.312500", "184637.802500", "184639.292500", "184640.782500", "184642.272500", "184643.762500", "184645.252500", "184646.742500", "184648.232500", "184649.722500", "184651.212500", "184652.702500", "184654.192500", "184655.682500", "184657.172500", "184658.662500", "184700.152500", "184701.642500", "184703.132500", "184704.622500", "184706.112500", "184707.602500", "184709.092500", "184710.582500", "184712.072500", "184713.562500", "184715.052500", "184716.542500", "184718.032500", "184719.522500", "184721.012500", "184722.502500", "184723.992500", "184725.482500", "184726.972500", "184728.462500", "184729.952500", "184731.442500", "184732.932500", "184734.422500", "184735.912500", "184737.402500", "184738.892500", "184740.382500", "184741.872500", "184743.362500", "184744.852500", "184746.342500", "184747.832500", "184749.322500", "184750.812500", "184752.302500", "184753.792500", "184755.282500", "184756.772500", "184758.262500", "184759.752500", "184801.242500", "184802.732500", "184804.222500", "184805.712500", "184807.202500", "184808.692500", "184810.182500", "184811.672500", "184813.162500", "184814.652500", "184816.142500"],
      "ContentTime": ["184143.446000", "184143.449000", "184143.451000", "184143.454000", "184143.456000", "184143.459000", "184143.462000", "184143.470000", "184143.472000", "184143.475000", "184143.477000", "184143.480000", "184143.482000", "184143.485000", "184143.487000", "184143.490000", "184143.492000", "184143.495000", "184143.497000", "184143.500000", "184203.392000", "184203.394000", "184203.397000", "184203.399000", "184203.402000", "184203.405000", "184203.407000", "184203.409000", "184203.412000", "184203.415000", "184203.417000", "184203.420000", "184203.422000", "184203.425000", "184203.427000", "184203.430000", "184203.432000", "184203.435000", "184203.437000", "184203.440000", "184223.385000", "184223.388000", "184223.390000", "184223.393000", "184223.395000", "184223.398000", "184223.400000", "184223.404000", "184223.406000", "184223.409000", "184223.411000", "184223.414000", "184223.416000", "184223.419000", "184223.421000", "184223.424000", "184223.426000", "184223.429000", "184223.431000", "184223.434000", "184243.391000", "184243.393000", "184243.396000", "184243.398000", "184243.401000", "184243.403000", "184243.406000", "184243.408000", "184243.411000", "184243.413000", "184243.416000", "184243.419000", "184243.421000", "184243.423000", "184243.426000", "184243.428000", "184243.431000", "184243.434000", "184243.436000", "184243.439000", "184303.390000", "184303.392000", "184303.395000", "184303.397000", "184303.400000", "184303.402000", "184303.405000", "184303.407000", "184303.410000", "184303.412000", "184303.415000", "184303.417000", "184303.420000", "184303.422000", "184303.425000", "184303.427000", "184303.430000", "184303.432000", "184303.435000", "184303.437000", "184343.426000", "184343.428000", "184343.431000", "184343.433000", "184343.436000", "184343.438000", "184343.441000", "184343.443000", "184343.446000", "184343.448000", "184343.451000", "184343.453000", "184343.456000", "184343.459000", "184343.461000", "184343.464000", "184343.466000", "184343.474000", "184343.476000", "184343.479000", "184343.481000", "184343.484000", "184343.486000", "184343.489000", "184343.491000", "184343.494000", "184343.496000", "184423.421000", "184423.424000", "184423.427000", "184423.429000", "184423.432000", "184423.434000", "184423.437000", "184423.439000", "184423.442000", "184423.444000", "184423.447000", "184423.449000", "184423.452000", "184423.454000", "184423.457000", "184423.459000", "184423.462000", "184423.464000", "184423.467000", "184423.469000", "184423.472000", "184423.474000", "184423.477000", "184423.479000", "184423.482000", "184423.484000", "184423.487000", "184503.434000", "184503.437000", "184503.440000", "184503.442000", "184503.445000", "184503.447000", "184503.450000", "184503.452000", "184503.455000", "184503.457000", "184503.460000", "184503.462000", "184503.465000", "184503.467000", "184503.470000", "184503.472000", "184503.475000", "184503.477000", "184503.480000", "184503.482000", "184503.485000", "184503.487000", "184503.490000", "184503.492000", "184503.495000", "184503.497000", "184543.442000", "184543.444000", "184543.447000", "184543.450000", "184543.452000", "184543.455000", "184543.457000", "184543.460000", "184543.462000", "184543.465000", "184543.467000", "184543.470000", "184543.472000", "184543.475000", "184543.477000", "184543.480000", "184543.482000", "184543.485000", "184543.487000", "184543.490000", "184543.492000", "184543.496000", "184543.499000", "184543.501000", "184543.504000", "184543.506000", "184543.509000", "184623.433000", "184623.435000", "184623.438000", "184623.440000", "184623.443000", "184623.445000", "184623.448000", "184623.450000", "184623.453000", "184623.455000", "184623.458000", "184623.461000", "184623.463000", "184623.466000", "184623.468000", "184623.471000", "184623.473000", "184623.476000", "184623.478000", "184623.481000", "184623.483000", "184623.486000", "184623.488000", "184623.491000", "184623.493000", "184623.496000", "184623.498000", "184703.417000", "184703.420000", "184703.422000", "184703.425000", "184703.427000", "184703.430000", "184703.432000", "184703.435000", "184703.437000", "184703.440000", "184703.442000", "184703.445000", "184703.448000", "184703.450000", "184703.453000", "184703.455000", "184703.458000", "184703.460000", "184703.463000", "184703.465000", "184703.468000", "184703.470000", "184703.473000", "184703.475000", "184703.478000", "184703.480000", "184703.483000", "184743.420000", "184743.423000", "184743.425000", "184743.428000", "184743.430000", "184743.433000", "184743.436000", "184743.438000", "184743.441000", "184743.443000", "184743.446000", "184743.448000", "184743.451000", "184743.453000", "184743.456000", "184743.458000", "184743.461000", "184743.463000", "184743.466000", "184743.468000", "184743.471000", "184743.473000", "184743.476000", "184743.478000", "184743.481000", "184743.483000", "184743.486000", "184819.447000", "184819.450000", "184819.452000", "184819.455000", "184819.457000", "184819.460000", "184819.462000", "184819.465000", "184819.467000", "184819.470000", "184819.472000", "184819.475000", "184819.478000", "184819.480000", "184819.483000", "184819.485000", "184819.488000", "184819.490000", "184819.493000", "184819.495000", "184819.498000", "184819.500000", "184819.503000", "184819.505000"],
      "InstanceCreationTime": ["184143.446000", "184143.449000", "184143.451000", "184143.454000", "184143.456000", "184143.459000", "184143.462000", "184143.470000", "184143.472000", "184143.475000", "184143.477000", "184143.480000", "184143.482000", "184143.485000", "184143.487000", "184143.490000", "184143.492000", "184143.495000", "184143.497000", "184143.500000", "184203.392000", "184203.394000", "184203.397000", "184203.399000", "184203.402000", "184203.405000", "184203.407000", "184203.409000", "184203.412000", "184203.415000", "184203.417000", "184203.420000", "184203.422000", "184203.425000", "184203.427000", "184203.430000", "184203.432000", "184203.435000", "184203.437000", "184203.440000", "184223.385000", "184223.388000", "184223.390000", "184223.393000", "184223.395000", "184223.398000", "184223.400000", "184223.404000", "184223.406000", "184223.409000", "184223.411000", "184223.414000", "184223.416000", "184223.419000", "184223.421000", "184223.424000", "184223.426000", "184223.429000", "184223.431000", "184223.434000", "184243.391000", "184243.393000", "184243.396000", "184243.398000", "184243.401000", "184243.403000", "184243.406000", "184243.408000", "184243.411000", "184243.413000", "184243.416000", "184243.419000", "184243.421000", "184243.423000", "184243.426000", "184243.428000", "184243.431000", "184243.434000", "184243.436000", "184243.439000", "184303.390000", "184303.392000", "184303.395000", "184303.397000", "184303.400000", "184303.402000", "184303.405000", "184303.407000", "184303.410000", "184303.412000", "184303.415000", "184303.417000", "184303.420000", "184303.422000", "184303.425000", "184303.427000", "184303.430000", "184303.432000", "184303.435000", "184303.437000", "184343.426000", "184343.428000", "184343.431000", "184343.433000", "184343.436000", "184343.438000", "184343.441000", "184343.443000", "184343.446000", "184343.448000", "184343.451000", "184343.453000", "184343.456000", "184343.459000", "184343.461000", "184343.464000", "184343.466000", "184343.474000", "184343.476000", "184343.479000", "184343.481000", "184343.484000", "184343.486000", "184343.489000", "184343.491000", "184343.494000", "184343.496000", "184423.421000", "184423.424000", "184423.427000", "184423.429000", "184423.432000", "184423.434000", "184423.437000", "184423.439000", "184423.442000", "184423.444000", "184423.447000", "184423.449000", "184423.452000", "184423.454000", "184423.457000", "184423.459000", "184423.462000", "184423.464000", "184423.467000", "184423.469000", "184423.472000", "184423.474000", "184423.477000", "184423.479000", "184423.482000", "184423.484000", "184423.487000", "184503.434000", "184503.437000", "184503.440000", "184503.442000", "184503.445000", "184503.447000", "184503.450000", "184503.452000", "184503.455000", "184503.457000", "184503.460000", "184503.462000", "184503.465000", "184503.467000", "184503.470000", "184503.472000", "184503.475000", "184503.477000", "184503.480000", "184503.482000", "184503.485000", "184503.487000", "184503.490000", "184503.492000", "184503.495000", "184503.497000", "184543.442000", "184543.444000", "184543.447000", "184543.450000", "184543.452000", "184543.455000", "184543.457000", "184543.460000", "184543.462000", "184543.465000", "184543.467000", "184543.470000", "184543.472000", "184543.475000", "184543.477000", "184543.480000", "184543.482000", "184543.485000", "184543.487000", "184543.490000", "184543.492000", "184543.496000", "184543.499000", "184543.501000", "184543.504000", "184543.506000", "184543.509000", "184623.433000", "184623.435000", "184623.438000", "184623.440000", "184623.443000", "184623.445000", "184623.448000", "184623.450000", "184623.453000", "184623.455000", "184623.458000", "184623.461000", "184623.463000", "184623.466000", "184623.468000", "184623.471000", "184623.473000", "184623.476000", "184623.478000", "184623.481000", "184623.483000", "184623.486000", "184623.488000", "184623.491000", "184623.493000", "184623.496000", "184623.498000", "184703.417000", "184703.420000", "184703.422000", "184703.425000", "184703.427000", "184703.430000", "184703.432000", "184703.435000", "184703.437000", "184703.440000", "184703.442000", "184703.445000", "184703.448000", "184703.450000", "184703.453000", "184703.455000", "184703.458000", "184703.460000", "184703.463000", "184703.465000", "184703.468000", "184703.470000", "184703.473000", "184703.475000", "184703.478000", "184703.480000", "184703.483000", "184743.420000", "184743.423000", "184743.425000", "184743.428000", "184743.430000", "184743.433000", "184743.436000", "184743.438000", "184743.441000", "184743.443000", "184743.446000", "184743.448000", "184743.451000", "184743.453000", "184743.456000", "184743.458000", "184743.461000", "184743.463000", "184743.466000", "184743.468000", "184743.471000", "184743.473000", "184743.476000", "184743.478000", "184743.481000", "184743.483000", "184743.486000", "184819.447000", "184819.450000", "184819.452000", "184819.455000", "184819.457000", "184819.460000", "184819.462000", "184819.465000", "184819.467000", "184819.470000", "184819.472000", "184819.475000", "184819.478000", "184819.480000", "184819.483000", "184819.485000", "184819.488000", "184819.490000", "184819.493000", "184819.495000", "184819.498000", "184819.500000", "184819.503000", "184819.505000"],
      "InstanceNumber": [1, 2, 3, 4, 5, 6, 7, 8, 9, 10, 11, 12, 13, 14, 15, 16, 17, 18, 19, 20, 21, 22, 23, 24, 25, 26, 27, 28, 29, 30, 31, 32, 33, 34, 35, 36, 37, 38, 39, 40, 41, 42, 43, 44, 45, 46, 47, 48, 49, 50, 51, 52, 53, 54, 55, 56, 57, 58, 59, 60, 61, 62, 63, 64, 65, 66, 67, 68, 69, 70, 71, 72, 73, 74, 75, 76, 77, 78, 79, 80, 81, 82, 83, 84, 85, 86, 87, 88, 89, 90, 91, 92, 93, 94, 95, 96, 97, 98, 99, 100, 101, 102, 103, 104, 105, 106, 107, 108, 109, 110, 111, 112, 113, 114, 115, 116, 117, 118, 119, 120, 121, 122, 123, 124, 125, 126, 127, 128, 129, 130, 131, 132, 133, 134, 135, 136, 137, 138, 139, 140, 141, 142, 143, 144, 145, 146, 147, 148, 149, 150, 151, 152, 153, 154, 155, 156, 157, 158, 159, 160, 161, 162, 163, 164, 165, 166, 167, 168, 169, 170, 171, 172, 173, 174, 175, 176, 177, 178, 179, 180, 181, 182, 183, 184, 185, 186, 187, 188, 189, 190, 191, 192, 193, 194, 195, 196, 197, 198, 199, 200, 201, 202, 203, 204, 205, 206, 207, 208, 209, 210, 211, 212, 213, 214, 215, 216, 217, 218, 219, 220, 221, 222, 223, 224, 225, 226, 227, 228, 229, 230, 231, 232, 233, 234, 235, 236, 237, 238, 239, 240, 241, 242, 243, 244, 245, 246, 247, 248, 249, 250, 251, 252, 253, 254, 255, 256, 257, 258, 259, 260, 261, 262, 263, 264, 265, 266, 267, 268, 269, 270, 271, 272, 273, 274, 275, 276, 277, 278, 279, 280, 281, 282, 283, 284, 285, 286, 287, 288, 289, 290, 291, 292, 293, 294, 295, 296, 297, 298, 299, 300, 301, 302, 303, 304, 305, 306, 307, 308, 309, 310, 311, 312],
      "WindowCenter": [4836.0, 4834.0, 4836.0, 4834.0, 4836.0, 4862.0, 4862.0, 4862.0, 4860.0, 4838.0, 4834.0, 4836.0, 4862.0, 4864.0, 4860.0, 4862.0, 4838.0, 4838.0, 4836.0, 4838.0, 4836.0, 4838.0, 4834.0, 4834.0, 4836.0, 4838.0, 4862.0, 4862.0, 4860.0, 4864.0, 4832.0, 4838.0, 4838.0, 4840.0, 4838.0, 4864.0, 4862.0, 4862.0, 4864.0, 4860.0, 4832.0, 4832.0, 4836.0, 4836.0, 4840.0, 4864.0, 4860.0, 4858.0, 4858.0, 4860.0, 4860.0, 4838.0, 4860.0, 4860.0, 4862.0, 4838.0, 4862.0, 4862.0, 4862.0, 4838.0, 4862.0, 4862.0, 4838.0, 4830.0, 4830.0, 4832.0, 4834.0, 4862.0, 4866.0, 4864.0, 4868.0, 4864.0, 4862.0, 4838.0, 4862.0, 4838.0, 4836.0, 4840.0, 4838.0, 4836.0, 4834.0, 4834.0, 4832.0, 4838.0, 4862.0, 4864.0, 4868.0, 4862.0, 4862.0, 4832.0, 4806.0, 4830.0, 4832.0, 4834.0, 4856.0, 4862.0, 4866.0, 4862.0, 4862.0, 4858.0, 4858.0, 4830.0, 4834.0, 4830.0, 4836.0, 4838.0, 4864.0, 4862.0, 4866.0, 4864.0, 4836.0, 4834.0, 4836.0, 4836.0, 4858.0, 4860.0, 4836.0, 4860.0, 4860.0, 4862.0, 4858.0, 4858.0, 4858.0, 4860.0, 4858.0, 4864.0, 4862.0, 4860.0, 4862.0, 4862.0, 4860.0, 4860.0, 4838.0, 4862.0, 4864.0, 4864.0, 4862.0, 4834.0, 4830.0, 4832.0, 4856.0, 4856.0, 4858.0, 4858.0, 4862.0, 4860.0, 4862.0, 4856.0, 4860.0, 4832.0, 4838.0, 4862.0, 4860.0, 4860.0, 4836.0, 4836.0, 4858.0, 4860.0, 4858.0, 4864.0, 4864.0, 4860.0, 4858.0, 4870.0, 4836.0, 4832.0, 4838.0, 4838.0, 4838.0, 4862.0, 4864.0, 4862.0, 4862.0, 4860.0, 4864.0, 4860.0, 4862.0, 4864.0, 4860.0, 4838.0, 4860.0, 4864.0, 4862.0, 4866.0, 4858.0, 4834.0, 4834.0, 4832.0, 4832.0, 4832.0, 4832.0, 4836.0, 4862.0, 4864.0, 4866.0, 4858.0, 4860.0, 4862.0, 4860.0, 4860.0, 4836.0, 4840.0, 4860.0, 4862.0, 4838.0, 4836.0, 4860.0, 4836.0, 4862.0, 4868.0, 4890.0, 4892.0, 4868.0, 4862.0, 4836.0, 4838.0, 4834.0, 4838.0, 4836.0, 4838.0, 4838.0, 4838.0, 4866.0, 4892.0, 4864.0, 4866.0, 4862.0, 4862.0, 4838.0, 4836.0, 4862.0, 4836.0, 4864.0, 4864.0, 4866.0, 4864.0, 4862.0, 4866.0, 4838.0, 4864.0, 4838.0, 4838.0, 4838.0, 4838.0, 4838.0, 4862.0, 4836.0, 4832.0, 4834.0, 4858.0, 4862.0, 4862.0, 4892.0, 4864.0, 4894.0, 4862.0, 4834.0, 4834.0, 4832.0, 4838.0, 4864.0, 4868.0, 4868.0, 4864.0, 4860.0, 4834.0, 4804.0, 4834.0, 4864.0, 4866.0, 4866.0, 4858.0, 4834.0, 4856.0, 4860.0, 4864.0, 4858.0, 4834.0, 4834.0, 4834.0, 4858.0, 4860.0, 4858.0, 4860.0, 4862.0, 4866.0, 4858.0, 4832.0, 4834.0, 4856.0, 4856.0, 4862.0, 4858.0, 4864.0, 4866.0, 4866.0, 4836.0, 4834.0, 4836.0, 4838.0, 4830.0, 4832.0, 4838.0, 4864.0, 4862.0, 4862.0, 4888.0, 4864.0, 4862.0, 4860.0, 4832.0, 4834.0],
