{
  "AcquisitionMatrixPE": 104,
  "AcquisitionNumber": 1,
  "AcquisitionTime": "16:36:40.562500",
  "BandwidthPerPixelPhaseEncode": 17.17,
  "BaseResolution": 104,
  "BodyPartExamined": "BRAIN",
  "CoilCombinationMethod": "Sum of Squares",
  "ConsistencyInfo": "N4_VE11C_LATEST_20160120",
  "ConversionSoftware": "dcm2niix",
  "ConversionSoftwareVersion": "v1.0.20220505",
  "DerivedVendorReportedEchoSpacing": 0.000560011,
  "DeviceSerialNumber": "167006",
  "DwellTime": 2.1e-06,
  "EchoTime": 0.037,
  "EchoTrainLength": 104,
  "EffectiveEchoSpacing": 0.000560011,
  "FlipAngle": 52,
  "HeudiconvVersion": "0.5.3.post811+g6206e14",
  "ImageComments": "Unaliased MB4/PE3/LB",
  "ImageOrientationPatientDICOM": [0.99817, -0.0595147, 0.0107347, 0.0598267, 0.945864, -0.319],
  "ImageOrientationText": "Tra>Cor(-18.6)>Sag(-0.5)",
  "ImageType": [
    "ORIGINAL",
    "PRIMARY",
    "M",
    "MB",
    "ND",
    "MOSAIC"
],
  "ImagingFrequency": 123.259,
  "InPlanePhaseEncodingDirectionDICOM": "COL",
  "InstitutionAddress": "Chemin Queen-Mary 4565,Montreal,District,CA,H3W 1W5",
  "InstitutionName": "IUGM",
  "InstitutionalDepartmentName": "Department",
  "MRAcquisitionType": "2D",
  "MagneticFieldStrength": 3,
  "Manufacturer": "Siemens",
  "ManufacturersModelName": "Prisma_fit",
  "MatrixCoilMode": "SENSE",
  "Modality": "MR",
  "MultibandAccelerationFactor": 4,
  "PartialFourier": 1,
  "PatientPosition": "HFS",
  "PercentPhaseFOV": 100,
  "PercentSampling": 100,
  "PhaseEncodingDirection": "j",
  "PhaseEncodingSteps": 104,
  "PhaseResolution": 1,
  "PixelBandwidth": 2290,
  "ProcedureStepDescription": "games^mario3",
  "ProtocolName": "func_task-mario3_run-02",
  "PulseSequenceDetails": "%CustomerSeq%\\cmrr_mbep2d_bold",
  "ReceiveCoilActiveElements": "HC1-7;NC1,2",
  "ReceiveCoilName": "HeadNeck_64",
  "ReconMatrixPE": 104,
  "RepetitionTime": 1.49,
  "SAR": 0.0896126,
  "ScanOptions": "FS",
  "ScanningSequence": "EP",
  "SequenceName": "epfid2d1_104",
  "SequenceVariant": "SK\\SS",
  "SeriesDescription": "func_task-mario3_run-02",
  "SeriesNumber": 13,
  "ShimSetting": [624, -7265, -8834, 536, 26, -252, -53, -8],
  "SliceThickness": 2,
  "SliceTiming": [0, 0.7825, 0.0975, 0.8825, 0.195, 0.98, 0.2925, 1.0775, 0.3925, 1.175, 0.49, 1.2725, 0.5875, 1.3725, 0.685, 0, 0.7825, 0.0975, 0.8825, 0.195, 0.98, 0.2925, 1.0775, 0.3925, 1.175, 0.49, 1.2725, 0.5875, 1.3725, 0.685, 0, 0.7825, 0.0975, 0.8825, 0.195, 0.98, 0.2925, 1.0775, 0.3925, 1.175, 0.49, 1.2725, 0.5875, 1.3725, 0.685, 0, 0.7825, 0.0975, 0.8825, 0.195, 0.98, 0.2925, 1.0775, 0.3925, 1.175, 0.49, 1.2725, 0.5875, 1.3725, 0.685],
  "SoftwareVersions": "syngo MR E11",
  "SpacingBetweenSlices": 2,
  "StationName": "MRC35049",
  "TaskName": "mario3",
  "TotalReadoutTime": 0.0576811,
  "TxRefAmp": 314.074,
  "WipMemBlock": "31b3a6ed-0d64-4b68-8c1b-4c0f4d029b3a||Sequence: R017 ve11c/master r/75a17815+; Jun 28 2022 16:32:11 by eja",
  "dcmmeta_affine": [
    [-1.9963394403457642, 0.11965342611074448, -0.017663218080997467, 100.93151092529297],
    [0.11902938783168793, 1.8917289972305298, -0.6381170153617859, -72.47587585449219],
    [0.02146943286061287, 0.6380003094673157, 1.8953876495361328, -65.78069305419922],
    [0.0, 0.0, 0.0, 1.0]
],
  "dcmmeta_reorient_transform": [
    [0.0, -1.0, 0.0, 103.0],
    [1.0, 0.0, 0.0, 0.0],
    [0.0, 0.0, 1.0, 0.0],
    [0.0, 0.0, 0.0, 1.0]
],
  "dcmmeta_shape": [104, 104, 60, 586],
  "dcmmeta_slice_dim": 2,
  "dcmmeta_version": 0.6,
  "global": {
    "const": {
      "AcquisitionMatrix": [104, 0, 0, 104],
      "AngioFlag": "N",
      "BitsAllocated": 16,
      "BitsStored": 16,
      "BodyPartExamined": "BRAIN",
      "Columns": 832,
      "EchoNumbers": 1,
      "EchoTime": 37.0,
      "EchoTrainLength": 104,
      "FlipAngle": 52.0,
      "HighBit": 15,
      "ImageOrientationPatient": [0.9981697086213, -0.0595146928104, 0.01073471613804, 0.05982671199899, 0.94586450688841, -0.319000155392],
      "ImagePositionPatient": [-883.47721099913, -767.63487690169, 224.35057897983],
      "ImageType": [
        "ORIGINAL",
        "PRIMARY",
        "M",
        "MB",
        "ND",
        "MOSAIC"
],
      "ImagedNucleus": "1H",
      "ImagingFrequency": 123.259024,
      "InPlanePhaseEncodingDirection": "COL",
      "MRAcquisitionType": "2D",
      "MagneticFieldStrength": 3.0,
      "Manufacturer": "SIEMENS",
      "ManufacturerModelName": "Prisma_fit",
      "Modality": "MR",
      "NumberOfAverages": 1.0,
      "NumberOfPhaseEncodingSteps": 104,
      "PercentPhaseFieldOfView": 100.0,
      "PercentSampling": 100.0,
      "PerformedProcedureStepStartTime": "162056.058000",
      "PhotometricInterpretation": "MONOCHROME2",
      "PixelBandwidth": 2290.0,
      "PixelRepresentation": 0,
      "PixelSpacing": [2.0, 2.0],
      "ProtocolName": "func_task-mario3_run-02",
      "RepetitionTime": 1490.0,
      "Rows": 832,
      "SAR": 0.08961264859162,
      "SamplesPerPixel": 1,
      "ScanOptions": "FS",
      "ScanningSequence": "EP",
      "SequenceName": "epfid2d1_104",
      "SequenceVariant": [
        "SK",
        "SS"
],
      "SeriesDescription": "func_task-mario3_run-02",
      "SeriesNumber": 13,
      "SeriesTime": "163802.249000",
      "SliceLocation": -40.107301459735,
      "SliceThickness": 2.0,
      "SmallestImagePixelValue": 0,
      "SoftwareVersions": "syngo MR E11",
      "SpacingBetweenSlices": 1.9999999469862,
      "SpecificCharacterSet": "ISO_IR 100",
      "StudyID": "1",
      "StudyTime": "162055.987000",
      "TransmitCoilName": "Body",
      "VariableFlipAngleFlag": "N",
      "WindowCenterWidthExplanation": "Algo1",
      "dBdt": 0.0},
    "slices": {}
  },
  "time": {
    "samples": {
      "AcquisitionNumber": [1, 2, 3, 4, 5, 6, 7, 8, 9, 10, 11, 12, 13, 14, 15, 16, 17, 18, 19, 20, 21, 22, 23, 24, 25, 26, 27, 28, 29, 30, 31, 32, 33, 34, 35, 36, 37, 38, 39, 40, 41, 42, 43, 44, 45, 46, 47, 48, 49, 50, 51, 52, 53, 54, 55, 56, 57, 58, 59, 60, 61, 62, 63, 64, 65, 66, 67, 68, 69, 70, 71, 72, 73, 74, 75, 76, 77, 78, 79, 80, 81, 82, 83, 84, 85, 86, 87, 88, 89, 90, 91, 92, 93, 94, 95, 96, 97, 98, 99, 100, 101, 102, 103, 104, 105, 106, 107, 108, 109, 110, 111, 112, 113, 114, 115, 116, 117, 118, 119, 120, 121, 122, 123, 124, 125, 126, 127, 128, 129, 130, 131, 132, 133, 134, 135, 136, 137, 138, 139, 140, 141, 142, 143, 144, 145, 146, 147, 148, 149, 150, 151, 152, 153, 154, 155, 156, 157, 158, 159, 160, 161, 162, 163, 164, 165, 166, 167, 168, 169, 170, 171, 172, 173, 174, 175, 176, 177, 178, 179, 180, 181, 182, 183, 184, 185, 186, 187, 188, 189, 190, 191, 192, 193, 194, 195, 196, 197, 198, 199, 200, 201, 202, 203, 204, 205, 206, 207, 208, 209, 210, 211, 212, 213, 214, 215, 216, 217, 218, 219, 220, 221, 222, 223, 224, 225, 226, 227, 228, 229, 230, 231, 232, 233, 234, 235, 236, 237, 238, 239, 240, 241, 242, 243, 244, 245, 246, 247, 248, 249, 250, 251, 252, 253, 254, 255, 256, 257, 258, 259, 260, 261, 262, 263, 264, 265, 266, 267, 268, 269, 270, 271, 272, 273, 274, 275, 276, 277, 278, 279, 280, 281, 282, 283, 284, 285, 286, 287, 288, 289, 290, 291, 292, 293, 294, 295, 296, 297, 298, 299, 300, 301, 302, 303, 304, 305, 306, 307, 308, 309, 310, 311, 312, 313, 314, 315, 316, 317, 318, 319, 320, 321, 322, 323, 324, 325, 326, 327, 328, 329, 330, 331, 332, 333, 334, 335, 336, 337, 338, 339, 340, 341, 342, 343, 344, 345, 346, 347, 348, 349, 350, 351, 352, 353, 354, 355, 356, 357, 358, 359, 360, 361, 362, 363, 364, 365, 366, 367, 368, 369, 370, 371, 372, 373, 374, 375, 376, 377, 378, 379, 380, 381, 382, 383, 384, 385, 386, 387, 388, 389, 390, 391, 392, 393, 394, 395, 396, 397, 398, 399, 400, 401, 402, 403, 404, 405, 406, 407, 408, 409, 410, 411, 412, 413, 414, 415, 416, 417, 418, 419, 420, 421, 422, 423, 424, 425, 426, 427, 428, 429, 430, 431, 432, 433, 434, 435, 436, 437, 438, 439, 440, 441, 442, 443, 444, 445, 446, 447, 448, 449, 450, 451, 452, 453, 454, 455, 456, 457, 458, 459, 460, 461, 462, 463, 464, 465, 466, 467, 468, 469, 470, 471, 472, 473, 474, 475, 476, 477, 478, 479, 480, 481, 482, 483, 484, 485, 486, 487, 488, 489, 490, 491, 492, 493, 494, 495, 496, 497, 498, 499, 500, 501, 502, 503, 504, 505, 506, 507, 508, 509, 510, 511, 512, 513, 514, 515, 516, 517, 518, 519, 520, 521, 522, 523, 524, 525, 526, 527, 528, 529, 530, 531, 532, 533, 534, 535, 536, 537, 538, 539, 540, 541, 542, 543, 544, 545, 546, 547, 548, 549, 550, 551, 552, 553, 554, 555, 556, 557, 558, 559, 560, 561, 562, 563, 564, 565, 566, 567, 568, 569, 570, 571, 572, 573, 574, 575, 576, 577, 578, 579, 580, 581, 582, 583, 584, 585, 586],
      "AcquisitionTime": ["163640.562500", "163642.052500", "163643.542500", "163645.032500", "163646.522500", "163648.012500", "163649.502500", "163650.992500", "163652.482500", "163653.972500", "163655.462500", "163656.952500", "163658.442500", "163659.932500", "163701.422500", "163702.912500", "163704.402500", "163705.892500", "163707.382500", "163708.872500", "163710.362500", "163711.852500", "163713.342500", "163714.832500", "163716.322500", "163717.812500", "163719.302500", "163720.792500", "163722.282500", "163723.772500", "163725.262500", "163726.752500", "163728.242500", "163729.732500", "163731.222500", "163732.712500", "163734.202500", "163735.692500", "163737.182500", "163738.672500", "163740.162500", "163741.652500", "163743.142500", "163744.632500", "163746.122500", "163747.612500", "163749.102500", "163750.592500", "163752.082500", "163753.572500", "163755.062500", "163756.552500", "163758.042500", "163759.532500", "163801.022500", "163802.512500", "163804.002500", "163805.492500", "163806.982500", "163808.472500", "163809.962500", "163811.452500", "163812.942500", "163814.432500", "163815.922500", "163817.412500", "163818.902500", "163820.392500", "163821.882500", "163823.372500", "163824.862500", "163826.352500", "163827.842500", "163829.332500", "163830.822500", "163832.312500", "163833.802500", "163835.292500", "163836.782500", "163838.272500", "163839.762500", "163841.252500", "163842.742500", "163844.232500", "163845.722500", "163847.212500", "163848.702500", "163850.192500", "163851.682500", "163853.172500", "163854.662500", "163856.152500", "163857.642500", "163859.132500", "163900.622500", "163902.112500", "163903.602500", "163905.092500", "163906.582500", "163908.072500", "163909.562500", "163911.052500", "163912.542500", "163914.032500", "163915.522500", "163917.012500", "163918.502500", "163919.992500", "163921.482500", "163922.972500", "163924.462500", "163925.952500", "163927.442500", "163928.932500", "163930.422500", "163931.912500", "163933.402500", "163934.892500", "163936.382500", "163937.872500", "163939.362500", "163940.852500", "163942.342500", "163943.832500", "163945.322500", "163946.812500", "163948.302500", "163949.792500", "163951.282500", "163952.772500", "163954.262500", "163955.752500", "163957.242500", "163958.732500", "164000.222500", "164001.712500", "164003.202500", "164004.692500", "164006.182500", "164007.672500", "164009.162500", "164010.652500", "164012.142500", "164013.632500", "164015.122500", "164016.612500", "164018.102500", "164019.592500", "164021.082500", "164022.572500", "164024.062500", "164025.552500", "164027.042500", "164028.532500", "164030.022500", "164031.512500", "164033.002500", "164034.492500", "164035.982500", "164037.472500", "164038.962500", "164040.452500", "164041.942500", "164043.432500", "164044.922500", "164046.412500", "164047.902500", "164049.392500", "164050.882500", "164052.372500", "164053.862500", "164055.352500", "164056.842500", "164058.332500", "164059.822500", "164101.312500", "164102.802500", "164104.292500", "164105.782500", "164107.272500", "164108.762500", "164110.252500", "164111.742500", "164113.232500", "164114.722500", "164116.212500", "164117.702500", "164119.192500", "164120.682500", "164122.172500", "164123.662500", "164125.152500", "164126.642500", "164128.132500", "164129.622500", "164131.112500", "164132.602500", "164134.092500", "164135.582500", "164137.072500", "164138.562500", "164140.052500", "164141.542500", "164143.032500", "164144.522500", "164146.012500", "164147.502500", "164148.992500", "164150.482500", "164151.972500", "164153.462500", "164154.952500", "164156.442500", "164157.932500", "164159.422500", "164200.912500", "164202.402500", "164203.892500", "164205.382500", "164206.872500", "164208.362500", "164209.852500", "164211.342500", "164212.832500", "164214.322500", "164215.812500", "164217.302500", "164218.792500", "164220.282500", "164221.772500", "164223.262500", "164224.752500", "164226.242500", "164227.732500", "164229.222500", "164230.712500", "164232.202500", "164233.692500", "164235.182500", "164236.672500", "164238.162500", "164239.652500", "164241.142500", "164242.632500", "164244.122500", "164245.612500", "164247.102500", "164248.592500", "164250.082500", "164251.572500", "164253.062500", "164254.552500", "164256.042500", "164257.532500", "164259.022500", "164300.512500", "164302.002500", "164303.492500", "164304.982500", "164306.472500", "164307.962500", "164309.452500", "164310.942500", "164312.432500", "164313.922500", "164315.412500", "164316.902500", "164318.392500", "164319.882500", "164321.372500", "164322.862500", "164324.352500", "164325.842500", "164327.332500", "164328.822500", "164330.312500", "164331.802500", "164333.292500", "164334.782500", "164336.272500", "164337.762500", "164339.252500", "164340.742500", "164342.232500", "164343.722500", "164345.212500", "164346.702500", "164348.192500", "164349.682500", "164351.172500", "164352.662500", "164354.152500", "164355.642500", "164357.132500", "164358.622500", "164400.112500", "164401.602500", "164403.092500", "164404.582500", "164406.072500", "164407.562500", "164409.052500", "164410.542500", "164412.032500", "164413.522500", "164415.012500", "164416.502500", "164417.992500", "164419.482500", "164420.972500", "164422.462500", "164423.952500", "164425.442500", "164426.932500", "164428.422500", "164429.912500", "164431.402500", "164432.892500", "164434.382500", "164435.872500", "164437.362500", "164438.852500", "164440.342500", "164441.832500", "164443.322500", "164444.812500", "164446.302500", "164447.792500", "164449.282500", "164450.772500", "164452.262500", "164453.752500", "164455.242500", "164456.732500", "164458.222500", "164459.712500", "164501.202500", "164502.692500", "164504.182500", "164505.672500", "164507.162500", "164508.652500", "164510.142500", "164511.632500", "164513.122500", "164514.612500", "164516.102500", "164517.592500", "164519.082500", "164520.572500", "164522.062500", "164523.552500", "164525.042500", "164526.532500", "164528.022500", "164529.512500", "164531.002500", "164532.492500", "164533.982500", "164535.472500", "164536.962500", "164538.452500", "164539.942500", "164541.432500", "164542.922500", "164544.412500", "164545.902500", "164547.392500", "164548.882500", "164550.372500", "164551.862500", "164553.352500", "164554.842500", "164556.332500", "164557.822500", "164559.312500", "164600.802500", "164602.292500", "164603.782500", "164605.272500", "164606.762500", "164608.252500", "164609.742500", "164611.232500", "164612.722500", "164614.212500", "164615.702500", "164617.192500", "164618.682500", "164620.172500", "164621.662500", "164623.152500", "164624.642500", "164626.132500", "164627.622500", "164629.112500", "164630.602500", "164632.092500", "164633.582500", "164635.072500", "164636.562500", "164638.052500", "164639.542500", "164641.032500", "164642.522500", "164644.012500", "164645.502500", "164646.992500", "164648.482500", "164649.972500", "164651.462500", "164652.952500", "164654.442500", "164655.932500", "164657.422500", "164658.912500", "164700.402500", "164701.892500", "164703.382500", "164704.872500", "164706.362500", "164707.852500", "164709.342500", "164710.832500", "164712.322500", "164713.812500", "164715.302500", "164716.792500", "164718.282500", "164719.772500", "164721.262500", "164722.752500", "164724.242500", "164725.732500", "164727.222500", "164728.712500", "164730.202500", "164731.692500", "164733.182500", "164734.672500", "164736.162500", "164737.652500", "164739.142500", "164740.632500", "164742.122500", "164743.612500", "164745.102500", "164746.592500", "164748.082500", "164749.572500", "164751.062500", "164752.552500", "164754.042500", "164755.532500", "164757.022500", "164758.512500", "164800.002500", "164801.492500", "164802.982500", "164804.472500", "164805.962500", "164807.452500", "164808.942500", "164810.432500", "164811.922500", "164813.412500", "164814.902500", "164816.392500", "164817.882500", "164819.372500", "164820.862500", "164822.352500", "164823.842500", "164825.332500", "164826.822500", "164828.312500", "164829.802500", "164831.292500", "164832.782500", "164834.272500", "164835.762500", "164837.252500", "164838.742500", "164840.232500", "164841.722500", "164843.212500", "164844.702500", "164846.192500", "164847.682500", "164849.172500", "164850.662500", "164852.152500", "164853.642500", "164855.132500", "164856.622500", "164858.112500", "164859.602500", "164901.092500", "164902.582500", "164904.072500", "164905.562500", "164907.052500", "164908.542500", "164910.032500", "164911.522500", "164913.012500", "164914.502500", "164915.992500", "164917.482500", "164918.972500", "164920.462500", "164921.952500", "164923.442500", "164924.932500", "164926.422500", "164927.912500", "164929.402500", "164930.892500", "164932.382500", "164933.872500", "164935.362500", "164936.852500", "164938.342500", "164939.832500", "164941.322500", "164942.812500", "164944.302500", "164945.792500", "164947.282500", "164948.772500", "164950.262500", "164951.752500", "164953.242500", "164954.732500", "164956.222500", "164957.712500", "164959.202500", "165000.692500", "165002.182500", "165003.672500", "165005.162500", "165006.652500", "165008.142500", "165009.632500", "165011.122500", "165012.612500", "165014.102500", "165015.592500", "165017.082500", "165018.572500", "165020.062500", "165021.552500", "165023.042500", "165024.532500", "165026.022500", "165027.512500", "165029.002500", "165030.492500", "165031.982500", "165033.472500", "165034.962500", "165036.452500", "165037.942500", "165039.432500", "165040.922500", "165042.412500", "165043.902500", "165045.392500", "165046.882500", "165048.372500", "165049.862500", "165051.352500", "165052.842500", "165054.332500", "165055.822500", "165057.312500", "165058.802500", "165100.292500", "165101.782500", "165103.272500", "165104.762500", "165106.252500", "165107.742500", "165109.232500", "165110.722500", "165112.212500"],
      "ContentTime": ["163802.253000", "163802.263000", "163802.266000", "163802.269000", "163802.273000", "163802.276000", "163802.286000", "163802.290000", "163802.293000", "163802.297000", "163802.300000", "163802.304000", "163802.307000", "163802.311000", "163802.314000", "163802.326000", "163802.329000", "163802.332000", "163802.336000", "163802.339000", "163802.343000", "163802.346000", "163802.350000", "163802.353000", "163802.356000", "163802.360000", "163802.363000", "163802.367000", "163802.370000", "163802.374000", "163802.377000", "163802.380000", "163802.384000", "163802.387000", "163822.214000", "163822.218000", "163822.221000", "163822.225000", "163822.228000", "163822.232000", "163822.235000", "163822.238000", "163822.242000", "163822.246000", "163822.249000", "163822.252000", "163822.256000", "163822.259000", "163822.263000", "163822.266000", "163822.270000", "163822.273000", "163822.277000", "163822.280000", "163842.214000", "163842.218000", "163842.221000", "163842.233000", "163842.237000", "163842.240000", "163842.244000", "163842.247000", "163842.251000", "163842.254000", "163842.258000", "163842.261000", "163842.265000", "163842.268000", "163842.272000", "163842.275000", "163842.279000", "163842.282000", "163842.285000", "163842.289000", "163902.214000", "163902.218000", "163902.221000", "163902.225000", "163902.228000", "163902.232000", "163902.235000", "163902.239000", "163902.242000", "163902.246000", "163902.249000", "163902.253000", "163902.256000", "163902.260000", "163902.263000", "163902.266000", "163902.270000", "163902.273000", "163902.277000", "163902.280000", "163942.214000", "163942.218000", "163942.222000", "163942.225000", "163942.228000", "163942.232000", "163942.235000", "163942.239000", "163942.242000", "163942.246000", "163942.249000", "163942.253000", "163942.256000", "163942.260000", "163942.263000", "163942.266000", "163942.270000", "163942.291000", "163942.294000", "163942.298000", "163942.301000", "163942.305000", "163942.308000", "163942.311000", "163942.315000", "163942.318000", "163942.322000", "164022.214000", "164022.218000", "164022.222000", "164022.225000", "164022.229000", "164022.232000", "164022.236000", "164022.239000", "164022.243000", "164022.246000", "164022.249000", "164022.253000", "164022.256000", "164022.260000", "164022.263000", "164022.267000", "164022.270000", "164022.274000", "164022.277000", "164022.281000", "164022.284000", "164022.287000", "164022.291000", "164022.294000", "164022.298000", "164022.301000", "164022.305000", "164102.214000", "164102.218000", "164102.222000", "164102.225000", "164102.229000", "164102.232000", "164102.235000", "164102.239000", "164102.242000", "164102.246000", "164102.249000", "164102.253000", "164102.256000", "164102.260000", "164102.263000", "164102.267000", "164102.270000", "164102.274000", "164102.277000", "164102.281000", "164102.284000", "164102.288000", "164102.291000", "164102.295000", "164102.298000", "164102.301000", "164102.305000", "164142.215000", "164142.218000", "164142.222000", "164142.225000", "164142.229000", "164142.232000", "164142.236000", "164142.239000", "164142.243000", "164142.246000", "164142.250000", "164142.253000", "164142.257000", "164142.260000", "164142.264000", "164142.267000", "164142.271000", "164142.274000", "164142.278000", "164142.281000", "164142.284000", "164142.288000", "164142.291000", "164142.295000", "164142.298000", "164142.302000", "164142.305000", "164222.214000", "164222.218000", "164222.222000", "164222.225000", "164222.228000", "164222.232000", "164222.235000", "164222.239000", "164222.242000", "164222.246000", "164222.249000", "164222.253000", "164222.256000", "164222.260000", "164222.263000", "164222.267000", "164222.270000", "164222.273000", "164222.277000", "164222.280000", "164222.284000", "164222.287000", "164222.291000", "164222.294000", "164222.297000", "164222.301000", "164222.304000", "164302.214000", "164302.218000", "164302.221000", "164302.225000", "164302.228000", "164302.232000", "164302.235000", "164302.239000", "164302.259000", "164302.262000", "164302.266000", "164302.269000", "164302.272000", "164302.276000", "164302.279000", "164302.283000", "164302.286000", "164302.290000", "164302.293000", "164302.297000", "164302.300000", "164302.303000", "164302.307000", "164302.310000", "164302.314000", "164302.317000", "164342.214000", "164342.218000", "164342.222000", "164342.225000", "164342.229000", "164342.232000", "164342.236000", "164342.239000", "164342.243000", "164342.246000", "164342.250000", "164342.253000", "164342.256000", "164342.260000", "164342.263000", "164342.267000", "164342.270000", "164342.274000", "164342.277000", "164342.281000", "164342.284000", "164342.288000", "164342.291000", "164342.295000", "164342.298000", "164342.301000", "164342.305000", "164422.214000", "164422.218000", "164422.221000", "164422.237000", "164422.241000", "164422.245000", "164422.248000", "164422.252000", "164422.255000", "164422.259000", "164422.262000", "164422.266000", "164422.269000", "164422.272000", "164422.276000", "164422.279000", "164422.283000", "164422.286000", "164422.290000", "164422.293000", "164422.297000", "164422.300000", "164422.303000", "164422.307000", "164422.310000", "164422.314000", "164422.317000", "164502.214000", "164502.218000", "164502.222000", "164502.225000", "164502.228000", "164502.232000", "164502.235000", "164502.239000", "164502.242000", "164502.246000", "164502.249000", "164502.253000", "164502.256000", "164502.260000", "164502.263000", "164502.267000", "164502.270000", "164502.274000", "164502.277000", "164502.280000", "164502.284000", "164502.287000", "164502.291000", "164502.294000", "164502.297000", "164502.301000", "164502.305000", "164542.215000", "164542.218000", "164542.222000", "164542.225000", "164542.229000", "164542.232000", "164542.236000", "164542.239000", "164542.243000", "164542.246000", "164542.250000", "164542.253000", "164542.257000", "164542.260000", "164542.264000", "164542.267000", "164542.271000", "164542.274000", "164542.278000", "164542.281000", "164542.285000", "164542.288000", "164542.292000", "164542.295000", "164542.299000", "164542.302000", "164542.305000", "164622.214000", "164622.218000", "164622.222000", "164622.225000", "164622.229000", "164622.232000", "164622.237000", "164622.240000", "164622.244000", "164622.248000", "164622.251000", "164622.254000", "164622.258000", "164622.261000", "164622.265000", "164622.279000", "164622.282000", "164622.286000", "164622.289000", "164622.292000", "164622.296000", "164622.299000", "164622.303000", "164622.306000", "164622.310000", "164622.313000", "164622.317000", "164702.215000", "164702.219000", "164702.223000", "164702.227000", "164702.231000", "164702.234000", "164702.238000", "164702.243000", "164702.246000", "164702.250000", "164702.253000", "164702.257000", "164702.260000", "164702.264000", "164702.268000", "164702.271000", "164702.275000", "164702.278000", "164702.282000", "164702.285000", "164702.288000", "164702.292000", "164702.296000", "164702.299000", "164702.302000", "164702.306000", "164742.215000", "164742.218000", "164742.222000", "164742.225000", "164742.229000", "164742.233000", "164742.236000", "164742.239000", "164742.243000", "164742.247000", "164742.250000", "164742.253000", "164742.257000", "164742.260000", "164742.264000", "164742.267000", "164742.271000", "164742.274000", "164742.278000", "164742.281000", "164742.285000", "164742.288000", "164742.292000", "164742.295000", "164742.299000", "164742.302000", "164742.306000", "164822.215000", "164822.218000", "164822.222000", "164822.225000", "164822.229000", "164822.232000", "164822.236000", "164822.240000", "164822.243000", "164822.247000", "164822.250000", "164822.254000", "164822.257000", "164822.261000", "164822.264000", "164822.268000", "164822.271000", "164822.275000", "164822.278000", "164822.282000", "164822.285000", "164822.289000", "164822.292000", "164822.296000", "164822.299000", "164822.303000", "164822.306000", "164902.214000", "164902.218000", "164902.222000", "164902.225000", "164902.229000", "164902.233000", "164902.236000", "164902.240000", "164902.243000", "164902.247000", "164902.250000", "164902.253000", "164902.257000", "164902.261000", "164902.264000", "164902.268000", "164902.271000", "164902.275000", "164902.278000", "164902.282000", "164902.285000", "164902.289000", "164902.292000", "164902.296000", "164902.299000", "164902.303000", "164902.306000", "164942.214000", "164942.218000", "164942.222000", "164942.226000", "164942.229000", "164942.233000", "164942.236000", "164942.240000", "164942.243000", "164942.247000", "164942.250000", "164942.254000", "164942.257000", "164942.261000", "164942.264000", "164942.268000", "164942.271000", "164942.275000", "164942.278000", "164942.282000", "164942.285000", "164942.289000", "164942.292000", "164942.296000", "164942.299000", "164942.303000", "164942.306000", "165022.215000", "165022.219000", "165022.222000", "165022.226000", "165022.229000", "165022.233000", "165022.236000", "165022.240000", "165022.243000", "165022.247000", "165022.250000", "165022.254000", "165022.257000", "165022.261000", "165022.264000", "165022.268000", "165022.271000", "165022.275000", "165022.278000", "165022.282000", "165022.285000", "165022.289000", "165022.292000", "165022.296000", "165022.299000", "165022.303000", "165022.306000", "165102.214000", "165102.218000", "165102.222000", "165102.232000", "165102.236000", "165102.239000", "165102.243000", "165102.246000", "165102.250000", "165102.253000", "165102.257000", "165102.260000", "165102.264000", "165102.267000", "165102.271000", "165102.274000", "165102.278000", "165102.281000", "165102.285000", "165102.288000", "165102.292000", "165102.295000", "165102.299000", "165102.302000", "165102.306000", "165102.309000", "165102.313000", "165114.118000", "165114.123000", "165114.126000", "165114.130000", "165114.133000", "165114.137000", "165114.141000", "165114.144000"],
