{
  "AcquisitionMatrixPE": 104,
  "AcquisitionNumber": 1,
  "AcquisitionTime": "16:52:24.332500",
  "BandwidthPerPixelPhaseEncode": 17.17,
  "BaseResolution": 104,
  "BodyPartExamined": "BRAIN",
  "CoilCombinationMethod": "Sum of Squares",
  "ConsistencyInfo": "N4_VE11C_LATEST_20160120",
  "ConversionSoftware": "dcm2niix",
  "ConversionSoftwareVersion": "v1.0.20220505",
  "DerivedVendorReportedEchoSpacing": 0.000560011,
  "DeviceSerialNumber": "167006",
  "DwellTime": 2.1e-06,
  "EchoTime": 0.037,
  "EchoTrainLength": 104,
  "EffectiveEchoSpacing": 0.000560011,
  "FlipAngle": 52,
  "HeudiconvVersion": "0.5.3.post811+g6206e14",
  "ImageComments": "Unaliased MB4/PE3/LB",
  "ImageOrientationPatientDICOM": [0.99817, -0.0595147, 0.0107347, 0.0598267, 0.945864, -0.319],
  "ImageOrientationText": "Tra>Cor(-18.6)>Sag(-0.5)",
  "ImageType": [
    "ORIGINAL",
    "PRIMARY",
    "M",
    "MB",
    "ND",
    "MOSAIC"
],
  "ImagingFrequency": 123.259,
  "InPlanePhaseEncodingDirectionDICOM": "COL",
  "InstitutionAddress": "Chemin Queen-Mary 4565,Montreal,District,CA,H3W 1W5",
  "InstitutionName": "IUGM",
  "InstitutionalDepartmentName": "Department",
  "MRAcquisitionType": "2D",
  "MagneticFieldStrength": 3,
  "Manufacturer": "Siemens",
  "ManufacturersModelName": "Prisma_fit",
  "MatrixCoilMode": "SENSE",
  "Modality": "MR",
  "MultibandAccelerationFactor": 4,
  "PartialFourier": 1,
  "PatientPosition": "HFS",
  "PercentPhaseFOV": 100,
  "PercentSampling": 100,
  "PhaseEncodingDirection": "j",
  "PhaseEncodingSteps": 104,
  "PhaseResolution": 1,
  "PixelBandwidth": 2290,
  "ProcedureStepDescription": "games^mario3",
  "ProtocolName": "func_task-mario3_run-03",
  "PulseSequenceDetails": "%CustomerSeq%\\cmrr_mbep2d_bold",
  "ReceiveCoilActiveElements": "HC1-7;NC1,2",
  "ReceiveCoilName": "HeadNeck_64",
  "ReconMatrixPE": 104,
  "RepetitionTime": 1.49,
  "SAR": 0.0896126,
  "ScanOptions": "FS",
  "ScanningSequence": "EP",
  "SequenceName": "epfid2d1_104",
  "SequenceVariant": "SK\\SS",
  "SeriesDescription": "func_task-mario3_run-03",
  "SeriesNumber": 16,
  "ShimSetting": [624, -7265, -8834, 536, 26, -252, -53, -8],
  "SliceThickness": 2,
  "SliceTiming": [0, 0.785, 0.1, 0.8825, 0.1975, 0.98, 0.295, 1.08, 0.3925, 1.1775, 0.49, 1.275, 0.59, 1.3725, 0.6875, 0, 0.785, 0.1, 0.8825, 0.1975, 0.98, 0.295, 1.08, 0.3925, 1.1775, 0.49, 1.275, 0.59, 1.3725, 0.6875, 0, 0.785, 0.1, 0.8825, 0.1975, 0.98, 0.295, 1.08, 0.3925, 1.1775, 0.49, 1.275, 0.59, 1.3725, 0.6875, 0, 0.785, 0.1, 0.8825, 0.1975, 0.98, 0.295, 1.08, 0.3925, 1.1775, 0.49, 1.275, 0.59, 1.3725, 0.6875],
  "SoftwareVersions": "syngo MR E11",
  "SpacingBetweenSlices": 2,
  "StationName": "MRC35049",
  "TaskName": "mario3",
  "TotalReadoutTime": 0.0576811,
  "TxRefAmp": 314.074,
  "WipMemBlock": "b5309ceb-6f6e-40ff-863f-47f55cd6dfe5||Sequence: R017 ve11c/master r/75a17815+; Jun 28 2022 16:32:11 by eja",
  "dcmmeta_affine": [
    [-1.9963394403457642, 0.11965342611074448, -0.017663218080997467, 100.93151092529297],
    [0.11902938783168793, 1.8917289972305298, -0.6381170153617859, -72.47587585449219],
    [0.02146943286061287, 0.6380003094673157, 1.8953876495361328, -65.78069305419922],
    [0.0, 0.0, 0.0, 1.0]
],
  "dcmmeta_reorient_transform": [
    [0.0, -1.0, 0.0, 103.0],
    [1.0, 0.0, 0.0, 0.0],
    [0.0, 0.0, 1.0, 0.0],
    [0.0, 0.0, 0.0, 1.0]
],
  "dcmmeta_shape": [104, 104, 60, 347],
  "dcmmeta_slice_dim": 2,
  "dcmmeta_version": 0.6,
  "global": {
    "const": {
      "AcquisitionMatrix": [104, 0, 0, 104],
      "AngioFlag": "N",
      "BitsAllocated": 16,
      "BitsStored": 16,
      "BodyPartExamined": "BRAIN",
      "Columns": 832,
      "EchoNumbers": 1,
      "EchoTime": 37.0,
      "EchoTrainLength": 104,
      "FlipAngle": 52.0,
      "HighBit": 15,
      "ImageOrientationPatient": [0.9981697086213, -0.0595146928104, 0.01073471613804, 0.05982671199899, 0.94586450688841, -0.319000155392],
      "ImagePositionPatient": [-883.47721099913, -767.63487690169, 224.35057897983],
      "ImageType": [
        "ORIGINAL",
        "PRIMARY",
        "M",
        "MB",
        "ND",
        "MOSAIC"
],
      "ImagedNucleus": "1H",
      "ImagingFrequency": 123.259027,
      "InPlanePhaseEncodingDirection": "COL",
      "MRAcquisitionType": "2D",
      "MagneticFieldStrength": 3.0,
      "Manufacturer": "SIEMENS",
      "ManufacturerModelName": "Prisma_fit",
      "Modality": "MR",
      "NumberOfAverages": 1.0,
      "NumberOfPhaseEncodingSteps": 104,
      "PercentPhaseFieldOfView": 100.0,
      "PercentSampling": 100.0,
      "PerformedProcedureStepStartTime": "162056.058000",
      "PhotometricInterpretation": "MONOCHROME2",
      "PixelBandwidth": 2290.0,
      "PixelRepresentation": 0,
      "PixelSpacing": [2.0, 2.0],
      "ProtocolName": "func_task-mario3_run-03",
      "RepetitionTime": 1490.0,
      "Rows": 832,
      "SAR": 0.08961264859162,
      "SamplesPerPixel": 1,
      "ScanOptions": "FS",
      "ScanningSequence": "EP",
      "SequenceName": "epfid2d1_104",
      "SequenceVariant": [
        "SK",
        "SS"
],
      "SeriesDescription": "func_task-mario3_run-03",
      "SeriesNumber": 16,
      "SeriesTime": "165352.589000",
      "SliceLocation": -40.107301459735,
      "SliceThickness": 2.0,
      "SmallestImagePixelValue": 0,
      "SoftwareVersions": "syngo MR E11",
      "SpacingBetweenSlices": 1.9999999469862,
      "SpecificCharacterSet": "ISO_IR 100",
      "StudyID": "1",
      "StudyTime": "162055.987000",
      "TransmitCoilName": "Body",
      "VariableFlipAngleFlag": "N",
      "WindowCenterWidthExplanation": "Algo1",
      "dBdt": 0.0},
    "slices": {}
  },
  "time": {
    "samples": {
      "AcquisitionNumber": [1, 2, 3, 4, 5, 6, 7, 8, 9, 10, 11, 12, 13, 14, 15, 16, 17, 18, 19, 20, 21, 22, 23, 24, 25, 26, 27, 28, 29, 30, 31, 32, 33, 34, 35, 36, 37, 38, 39, 40, 41, 42, 43, 44, 45, 46, 47, 48, 49, 50, 51, 52, 53, 54, 55, 56, 57, 58, 59, 60, 61, 62, 63, 64, 65, 66, 67, 68, 69, 70, 71, 72, 73, 74, 75, 76, 77, 78, 79, 80, 81, 82, 83, 84, 85, 86, 87, 88, 89, 90, 91, 92, 93, 94, 95, 96, 97, 98, 99, 100, 101, 102, 103, 104, 105, 106, 107, 108, 109, 110, 111, 112, 113, 114, 115, 116, 117, 118, 119, 120, 121, 122, 123, 124, 125, 126, 127, 128, 129, 130, 131, 132, 133, 134, 135, 136, 137, 138, 139, 140, 141, 142, 143, 144, 145, 146, 147, 148, 149, 150, 151, 152, 153, 154, 155, 156, 157, 158, 159, 160, 161, 162, 163, 164, 165, 166, 167, 168, 169, 170, 171, 172, 173, 174, 175, 176, 177, 178, 179, 180, 181, 182, 183, 184, 185, 186, 187, 188, 189, 190, 191, 192, 193, 194, 195, 196, 197, 198, 199, 200, 201, 202, 203, 204, 205, 206, 207, 208, 209, 210, 211, 212, 213, 214, 215, 216, 217, 218, 219, 220, 221, 222, 223, 224, 225, 226, 227, 228, 229, 230, 231, 232, 233, 234, 235, 236, 237, 238, 239, 240, 241, 242, 243, 244, 245, 246, 247, 248, 249, 250, 251, 252, 253, 254, 255, 256, 257, 258, 259, 260, 261, 262, 263, 264, 265, 266, 267, 268, 269, 270, 271, 272, 273, 274, 275, 276, 277, 278, 279, 280, 281, 282, 283, 284, 285, 286, 287, 288, 289, 290, 291, 292, 293, 294, 295, 296, 297, 298, 299, 300, 301, 302, 303, 304, 305, 306, 307, 308, 309, 310, 311, 312, 313, 314, 315, 316, 317, 318, 319, 320, 321, 322, 323, 324, 325, 326, 327, 328, 329, 330, 331, 332, 333, 334, 335, 336, 337, 338, 339, 340, 341, 342, 343, 344, 345, 346, 347],
      "AcquisitionTime": ["165224.332500", "165225.822500", "165227.312500", "165228.802500", "165230.292500", "165231.782500", "165233.272500", "165234.762500", "165236.252500", "165237.742500", "165239.232500", "165240.722500", "165242.212500", "165243.702500", "165245.192500", "165246.682500", "165248.172500", "165249.662500", "165251.152500", "165252.642500", "165254.132500", "165255.622500", "165257.112500", "165258.602500", "165300.092500", "165301.582500", "165303.072500", "165304.562500", "165306.052500", "165307.542500", "165309.032500", "165310.522500", "165312.012500", "165313.502500", "165314.992500", "165316.482500", "165317.972500", "165319.462500", "165320.952500", "165322.442500", "165323.932500", "165325.422500", "165326.912500", "165328.402500", "165329.892500", "165331.382500", "165332.872500", "165334.362500", "165335.852500", "165337.342500", "165338.832500", "165340.322500", "165341.812500", "165343.302500", "165344.792500", "165346.282500", "165347.772500", "165349.262500", "165350.752500", "165352.242500", "165353.732500", "165355.222500", "165356.712500", "165358.202500", "165359.692500", "165401.182500", "165402.672500", "165404.162500", "165405.652500", "165407.142500", "165408.632500", "165410.122500", "165411.612500", "165413.102500", "165414.592500", "165416.082500", "165417.572500", "165419.062500", "165420.552500", "165422.042500", "165423.532500", "165425.022500", "165426.512500", "165428.002500", "165429.492500", "165430.982500", "165432.472500", "165433.962500", "165435.452500", "165436.942500", "165438.432500", "165439.922500", "165441.412500", "165442.902500", "165444.392500", "165445.882500", "165447.372500", "165448.862500", "165450.352500", "165451.842500", "165453.332500", "165454.822500", "165456.312500", "165457.802500", "165459.292500", "165500.782500", "165502.272500", "165503.762500", "165505.252500", "165506.742500", "165508.232500", "165509.722500", "165511.212500", "165512.702500", "165514.192500", "165515.682500", "165517.172500", "165518.662500", "165520.152500", "165521.642500", "165523.132500", "165524.622500", "165526.112500", "165527.602500", "165529.092500", "165530.582500", "165532.072500", "165533.562500", "165535.052500", "165536.542500", "165538.032500", "165539.522500", "165541.012500", "165542.502500", "165543.992500", "165545.482500", "165546.972500", "165548.462500", "165549.952500", "165551.442500", "165552.932500", "165554.422500", "165555.912500", "165557.402500", "165558.892500", "165600.382500", "165601.872500", "165603.362500", "165604.852500", "165606.342500", "165607.832500", "165609.322500", "165610.812500", "165612.302500", "165613.792500", "165615.282500", "165616.772500", "165618.262500", "165619.752500", "165621.242500", "165622.732500", "165624.222500", "165625.712500", "165627.202500", "165628.692500", "165630.182500", "165631.672500", "165633.162500", "165634.652500", "165636.142500", "165637.632500", "165639.122500", "165640.612500", "165642.102500", "165643.592500", "165645.082500", "165646.572500", "165648.062500", "165649.552500", "165651.042500", "165652.532500", "165654.022500", "165655.512500", "165657.002500", "165658.492500", "165659.982500", "165701.472500", "165702.962500", "165704.452500", "165705.942500", "165707.432500", "165708.922500", "165710.412500", "165711.902500", "165713.392500", "165714.882500", "165716.372500", "165717.862500", "165719.352500", "165720.842500", "165722.332500", "165723.822500", "165725.312500", "165726.802500", "165728.292500", "165729.782500", "165731.272500", "165732.762500", "165734.252500", "165735.742500", "165737.232500", "165738.722500", "165740.212500", "165741.702500", "165743.192500", "165744.682500", "165746.172500", "165747.662500", "165749.152500", "165750.642500", "165752.132500", "165753.622500", "165755.112500", "165756.602500", "165758.092500", "165759.582500", "165801.072500", "165802.562500", "165804.052500", "165805.542500", "165807.032500", "165808.522500", "165810.012500", "165811.502500", "165812.992500", "165814.482500", "165815.972500", "165817.462500", "165818.952500", "165820.442500", "165821.932500", "165823.422500", "165824.912500", "165826.402500", "165827.892500", "165829.382500", "165830.872500", "165832.362500", "165833.852500", "165835.342500", "165836.832500", "165838.322500", "165839.812500", "165841.302500", "165842.792500", "165844.282500", "165845.772500", "165847.262500", "165848.752500", "165850.242500", "165851.732500", "165853.222500", "165854.712500", "165856.202500", "165857.692500", "165859.182500", "165900.672500", "165902.162500", "165903.652500", "165905.142500", "165906.632500", "165908.122500", "165909.612500", "165911.102500", "165912.592500", "165914.082500", "165915.572500", "165917.062500", "165918.552500", "165920.042500", "165921.532500", "165923.022500", "165924.512500", "165926.002500", "165927.492500", "165928.982500", "165930.472500", "165931.962500", "165933.452500", "165934.942500", "165936.432500", "165937.922500", "165939.412500", "165940.902500", "165942.392500", "165943.882500", "165945.372500", "165946.862500", "165948.352500", "165949.842500", "165951.332500", "165952.822500", "165954.312500", "165955.802500", "165957.292500", "165958.782500", "170000.272500", "170001.762500", "170003.252500", "170004.742500", "170006.232500", "170007.722500", "170009.212500", "170010.702500", "170012.192500", "170013.682500", "170015.172500", "170016.662500", "170018.152500", "170019.642500", "170021.132500", "170022.622500", "170024.112500", "170025.602500", "170027.092500", "170028.582500", "170030.072500", "170031.562500", "170033.052500", "170034.542500", "170036.032500", "170037.522500", "170039.012500", "170040.502500", "170041.992500", "170043.482500", "170044.972500", "170046.462500", "170047.952500", "170049.442500", "170050.932500", "170052.422500", "170053.912500", "170055.402500", "170056.892500", "170058.382500", "170059.872500"],
      "ContentTime": ["165352.593000", "165352.596000", "165352.600000", "165352.603000", "165352.607000", "165352.610000", "165352.614000", "165352.617000", "165352.621000", "165352.624000", "165352.628000", "165352.631000", "165352.635000", "165352.638000", "165352.642000", "165352.645000", "165352.648000", "165352.652000", "165352.655000", "165352.659000", "165352.662000", "165352.666000", "165352.669000", "165352.673000", "165352.676000", "165352.680000", "165352.683000", "165352.686000", "165352.690000", "165352.693000", "165352.697000", "165352.700000", "165352.704000", "165352.707000", "165352.711000", "165352.714000", "165352.718000", "165352.721000", "165352.724000", "165352.728000", "165412.554000", "165412.558000", "165412.562000", "165412.565000", "165412.573000", "165412.577000", "165412.581000", "165412.584000", "165412.588000", "165412.591000", "165412.595000", "165412.598000", "165412.616000", "165412.620000", "165412.623000", "165412.627000", "165412.630000", "165412.634000", "165412.637000", "165412.641000", "165432.555000", "165432.559000", "165432.563000", "165432.566000", "165432.570000", "165432.573000", "165432.577000", "165432.581000", "165432.584000", "165432.587000", "165432.591000", "165432.595000", "165432.598000", "165432.601000", "165432.605000", "165432.608000", "165432.612000", "165432.615000", "165432.619000", "165432.622000", "165512.555000", "165512.559000", "165512.563000", "165512.566000", "165512.570000", "165512.573000", "165512.577000", "165512.580000", "165512.584000", "165512.587000", "165512.591000", "165512.594000", "165512.597000", "165512.601000", "165512.604000", "165512.608000", "165512.611000", "165512.615000", "165512.618000", "165512.622000", "165512.625000", "165512.629000", "165512.641000", "165512.644000", "165512.648000", "165512.651000", "165512.655000", "165512.658000", "165512.662000", "165512.665000", "165512.668000", "165512.672000", "165552.557000", "165552.561000", "165552.565000", "165552.569000", "165552.573000", "165552.577000", "165552.580000", "165552.584000", "165552.587000", "165552.591000", "165552.595000", "165552.598000", "165552.602000", "165552.605000", "165552.609000", "165552.612000", "165552.616000", "165552.619000", "165552.623000", "165552.626000", "165552.630000", "165552.633000", "165552.637000", "165552.640000", "165552.643000", "165552.647000", "165552.650000", "165632.555000", "165632.558000", "165632.562000", "165632.565000", "165632.569000", "165632.572000", "165632.576000", "165632.579000", "165632.583000", "165632.586000", "165632.589000", "165632.593000", "165632.596000", "165632.600000", "165632.603000", "165632.607000", "165632.610000", "165632.618000", "165632.626000", "165632.630000", "165632.633000", "165632.638000", "165632.642000", "165632.645000", "165632.649000", "165632.652000", "165712.555000", "165712.559000", "165712.563000", "165712.566000", "165712.570000", "165712.573000", "165712.577000", "165712.580000", "165712.584000", "165712.588000", "165712.591000", "165712.595000", "165712.598000", "165712.602000", "165712.605000", "165712.608000", "165712.612000", "165712.616000", "165712.619000", "165712.623000", "165712.626000", "165712.630000", "165712.633000", "165712.637000", "165712.640000", "165712.644000", "165712.647000", "165752.555000", "165752.559000", "165752.563000", "165752.566000", "165752.570000", "165752.573000", "165752.577000", "165752.580000", "165752.584000", "165752.587000", "165752.591000", "165752.594000", "165752.598000", "165752.601000", "165752.605000", "165752.608000", "165752.612000", "165752.615000", "165752.619000", "165752.622000", "165752.625000", "165752.629000", "165752.632000", "165752.636000", "165752.639000", "165752.643000", "165752.646000", "165832.554000", "165832.558000", "165832.562000", "165832.565000", "165832.569000", "165832.572000", "165832.576000", "165832.579000", "165832.583000", "165832.586000", "165832.590000", "165832.593000", "165832.597000", "165832.600000", "165832.603000", "165832.607000", "165832.610000", "165832.614000", "165832.617000", "165832.621000", "165832.624000", "165832.628000", "165832.631000", "165832.635000", "165832.638000", "165832.641000", "165832.645000", "165912.567000", "165912.571000", "165912.574000", "165912.578000", "165912.581000", "165912.585000", "165912.589000", "165912.592000", "165912.596000", "165912.599000", "165912.603000", "165912.606000", "165912.610000", "165912.613000", "165912.617000", "165912.620000", "165912.624000", "165912.627000", "165912.631000", "165912.634000", "165912.638000", "165912.641000", "165912.645000", "165912.648000", "165912.652000", "165912.655000", "165912.659000", "165952.555000", "165952.559000", "165952.563000", "165952.566000", "165952.570000", "165952.574000", "165952.577000", "165952.581000", "165952.584000", "165952.588000", "165952.591000", "165952.595000", "165952.598000", "165952.601000", "165952.605000", "165952.608000", "165952.612000", "165952.615000", "165952.619000", "165952.622000", "165952.626000", "165952.629000", "165952.633000", "165952.636000", "165952.639000", "165952.643000", "165952.646000", "170032.556000", "170032.559000", "170032.563000", "170032.566000", "170032.570000", "170032.574000", "170032.577000", "170032.581000", "170032.584000", "170032.588000", "170032.591000", "170032.595000", "170032.598000", "170032.602000", "170032.605000", "170032.609000", "170032.612000", "170032.615000", "170032.619000", "170032.622000", "170032.626000", "170032.629000", "170032.633000", "170032.636000", "170032.640000", "170032.643000", "170103.469000", "170103.473000", "170103.477000", "170103.480000", "170103.484000", "170103.487000", "170103.491000", "170103.494000", "170103.498000", "170103.501000", "170103.504000", "170103.508000", "170103.511000", "170103.528000", "170103.532000", "170103.536000", "170103.539000", "170103.543000", "170103.546000", "170103.550000", "170103.553000"],
      "InstanceCreationTime": ["165352.593000", "165352.596000", "165352.600000", "165352.603000", "165352.607000", "165352.610000", "165352.614000", "165352.617000", "165352.621000", "165352.624000", "165352.628000", "165352.631000", "165352.635000", "165352.638000", "165352.642000", "165352.645000", "165352.648000", "165352.652000", "165352.655000", "165352.659000", "165352.662000", "165352.666000", "165352.669000", "165352.673000", "165352.676000", "165352.680000", "165352.683000", "165352.686000", "165352.690000", "165352.693000", "165352.697000", "165352.700000", "165352.704000", "165352.707000", "165352.711000", "165352.714000", "165352.718000", "165352.721000", "165352.724000", "165352.728000", "165412.554000", "165412.558000", "165412.562000", "165412.565000", "165412.573000", "165412.577000", "165412.581000", "165412.584000", "165412.588000", "165412.591000", "165412.595000", "165412.598000", "165412.616000", "165412.620000", "165412.623000", "165412.627000", "165412.630000", "165412.634000", "165412.637000", "165412.641000", "165432.555000", "165432.559000", "165432.563000", "165432.566000", "165432.570000", "165432.573000", "165432.577000", "165432.581000", "165432.584000", "165432.587000", "165432.591000", "165432.595000", "165432.598000", "165432.601000", "165432.605000", "165432.608000", "165432.612000", "165432.615000", "165432.619000", "165432.622000", "165512.555000", "165512.559000", "165512.563000", "165512.566000", "165512.570000", "165512.573000", "165512.577000", "165512.580000", "165512.584000", "165512.587000", "165512.591000", "165512.594000", "165512.597000", "165512.601000", "165512.604000", "165512.608000", "165512.611000", "165512.615000", "165512.618000", "165512.622000", "165512.625000", "165512.629000", "165512.641000", "165512.644000", "165512.648000", "165512.651000", "165512.655000", "165512.658000", "165512.662000", "165512.665000", "165512.668000", "165512.672000", "165552.557000", "165552.561000", "165552.565000", "165552.569000", "165552.573000", "165552.577000", "165552.580000", "165552.584000", "165552.587000", "165552.591000", "165552.595000", "165552.598000", "165552.602000", "165552.605000", "165552.609000", "165552.612000", "165552.616000", "165552.619000", "165552.623000", "165552.626000", "165552.630000", "165552.633000", "165552.637000", "165552.640000", "165552.643000", "165552.647000", "165552.650000", "165632.555000", "165632.558000", "165632.562000", "165632.565000", "165632.569000", "165632.572000", "165632.576000", "165632.579000", "165632.583000", "165632.586000", "165632.589000", "165632.593000", "165632.596000", "165632.600000", "165632.603000", "165632.607000", "165632.610000", "165632.618000", "165632.626000", "165632.630000", "165632.633000", "165632.638000", "165632.642000", "165632.645000", "165632.649000", "165632.652000", "165712.555000", "165712.559000", "165712.563000", "165712.566000", "165712.570000", "165712.573000", "165712.577000", "165712.580000", "165712.584000", "165712.588000", "165712.591000", "165712.595000", "165712.598000", "165712.602000", "165712.605000", "165712.608000", "165712.612000", "165712.616000", "165712.619000", "165712.623000", "165712.626000", "165712.630000", "165712.633000", "165712.637000", "165712.640000", "165712.644000", "165712.647000", "165752.555000", "165752.559000", "165752.563000", "165752.566000", "165752.570000", "165752.573000", "165752.577000", "165752.580000", "165752.584000", "165752.587000", "165752.591000", "165752.594000", "165752.598000", "165752.601000", "165752.605000", "165752.608000", "165752.612000", "165752.615000", "165752.619000", "165752.622000", "165752.625000", "165752.629000", "165752.632000", "165752.636000", "165752.639000", "165752.643000", "165752.646000", "165832.554000", "165832.558000", "165832.562000", "165832.565000", "165832.569000", "165832.572000", "165832.576000", "165832.579000", "165832.583000", "165832.586000", "165832.590000", "165832.593000", "165832.597000", "165832.600000", "165832.603000", "165832.607000", "165832.610000", "165832.614000", "165832.617000", "165832.621000", "165832.624000", "165832.628000", "165832.631000", "165832.635000", "165832.638000", "165832.641000", "165832.645000", "165912.567000", "165912.571000", "165912.574000", "165912.578000", "165912.581000", "165912.585000", "165912.589000", "165912.592000", "165912.596000", "165912.599000", "165912.603000", "165912.606000", "165912.610000", "165912.613000", "165912.617000", "165912.620000", "165912.624000", "165912.627000", "165912.631000", "165912.634000", "165912.638000", "165912.641000", "165912.645000", "165912.648000", "165912.652000", "165912.655000", "165912.659000", "165952.555000", "165952.559000", "165952.563000", "165952.566000", "165952.570000", "165952.574000", "165952.577000", "165952.581000", "165952.584000", "165952.588000", "165952.591000", "165952.595000", "165952.598000", "165952.601000", "165952.605000", "165952.608000", "165952.612000", "165952.615000", "165952.619000", "165952.622000", "165952.626000", "165952.629000", "165952.633000", "165952.636000", "165952.639000", "165952.643000", "165952.646000", "170032.556000", "170032.559000", "170032.563000", "170032.566000", "170032.570000", "170032.574000", "170032.577000", "170032.581000", "170032.584000", "170032.588000", "170032.591000", "170032.595000", "170032.598000", "170032.602000", "170032.605000", "170032.609000", "170032.612000", "170032.615000", "170032.619000", "170032.622000", "170032.626000", "170032.629000", "170032.633000", "170032.636000", "170032.640000", "170032.643000", "170103.469000", "170103.473000", "170103.477000", "170103.480000", "170103.484000", "170103.487000", "170103.491000", "170103.494000", "170103.498000", "170103.501000", "170103.504000", "170103.508000", "170103.511000", "170103.528000", "170103.532000", "170103.536000", "170103.539000", "170103.543000", "170103.546000", "170103.550000", "170103.553000"],
      "InstanceNumber": [1, 2, 3, 4, 5, 6, 7, 8, 9, 10, 11, 12, 13, 14, 15, 16, 17, 18, 19, 20, 21, 22, 23, 24, 25, 26, 27, 28, 29, 30, 31, 32, 33, 34, 35, 36, 37, 38, 39, 40, 41, 42, 43, 44, 45, 46, 47, 48, 49, 50, 51, 52, 53, 54, 55, 56, 57, 58, 59, 60, 61, 62, 63, 64, 65, 66, 67, 68, 69, 70, 71, 72, 73, 74, 75, 76, 77, 78, 79, 80, 81, 82, 83, 84, 85, 86, 87, 88, 89, 90, 91, 92, 93, 94, 95, 96, 97, 98, 99, 100, 101, 102, 103, 104, 105, 106, 107, 108, 109, 110, 111, 112, 113, 114, 115, 116, 117, 118, 119, 120, 121, 122, 123, 124, 125, 126, 127, 128, 129, 130, 131, 132, 133, 134, 135, 136, 137, 138, 139, 140, 141, 142, 143, 144, 145, 146, 147, 148, 149, 150, 151, 152, 153, 154, 155, 156, 157, 158, 159, 160, 161, 162, 163, 164, 165, 166, 167, 168, 169, 170, 171, 172, 173, 174, 175, 176, 177, 178, 179, 180, 181, 182, 183, 184, 185, 186, 187, 188, 189, 190, 191, 192, 193, 194, 195, 196, 197, 198, 199, 200, 201, 202, 203, 204, 205, 206, 207, 208, 209, 210, 211, 212, 213, 214, 215, 216, 217, 218, 219, 220, 221, 222, 223, 224, 225, 226, 227, 228, 229, 230, 231, 232, 233, 234, 235, 236, 237, 238, 239, 240, 241, 242, 243, 244, 245, 246, 247, 248, 249, 250, 251, 252, 253, 254, 255, 256, 257, 258, 259, 260, 261, 262, 263, 264, 265, 266, 267, 268, 269, 270, 271, 272, 273, 274, 275, 276, 277, 278, 279, 280, 281, 282, 283, 284, 285, 286, 287, 288, 289, 290, 291, 292, 293, 294, 295, 296, 297, 298, 299, 300, 301, 302, 303, 304, 305, 306, 307, 308, 309, 310, 311, 312, 313, 314, 315, 316, 317, 318, 319, 320, 321, 322, 323, 324, 325, 326, 327, 328, 329, 330, 331, 332, 333, 334, 335, 336, 337, 338, 339, 340, 341, 342, 343, 344, 345, 346, 347],
      "LargestImagePixelValue": [41618, 40468, 39615, 39511, 39126, 39581, 39703, 39005, 38953, 38799, 39432, 38393, 38299, 38635, 37951, 38220, 37993, 37640, 37593, 38585, 39037, 37866, 37132, 38699, 35720, 36230, 36002, 36599, 35702, 35800, 36743, 37929, 38480, 39505, 38878, 39301, 39308, 38048, 38383, 39104, 38658, 37559, 37794, 37536, 37924, 37821, 38289, 37345, 37598, 37094, 37697, 37958, 37810, 37711, 38303, 37993, 38310, 38800, 38012, 38088, 38077, 38259, 38336, 37926, 38128, 38456, 38058, 38610, 38471, 38730, 38906, 38160, 37953, 38027, 38391, 37949, 37879, 38087, 37826, 38380, 38075, 37847, 37694, 37985, 38317, 37957, 38132, 37920, 38103, 37643, 37339, 38218, 38706, 38417, 38090, 38256, 38482, 37541, 37482, 37880, 37803, 37702, 38759, 38428, 38445, 37844, 38254, 37725, 37945, 37129, 37778, 38389, 38554, 37678, 37745, 37269, 37164, 37607, 37578, 38215, 38148, 37402, 37853, 38394, 37715, 38339, 37898, 38315, 37665, 38465, 37690, 37341, 37072, 37351, 37922, 37686, 37428, 37796, 37568, 37778, 37313, 38541, 38147, 38037, 38098, 37524, 37607, 38162, 37010, 37919, 37926, 36892, 38473, 38482, 38162, 38150, 37782, 37659, 37673, 37575, 36923, 37034, 36906, 37241, 37282, 36863, 36953, 36914, 37520, 37365, 37259, 36494, 37035, 37471, 37694, 36790, 37065, 38107, 38015, 37486, 37765, 37289, 37388, 36552, 36498, 36351, 37533, 36895, 36905, 36749, 36459, 36426, 36410, 36530, 35753, 36047, 35892, 35727, 35491, 35680, 36207, 36263, 36907, 35816, 35845, 36179, 36175, 37374, 36886, 36293, 36750, 37021, 36299, 36473, 36734, 36186, 35872, 36132, 35648, 36731, 36057, 36002, 36391, 36253, 35548, 35667, 36153, 35973, 35586, 35922, 36116, 36363, 36550, 36303, 36599, 35605, 36141, 36258, 36466, 36643, 36576, 36610, 36784, 36813, 37078, 35641, 36596, 35884, 35940, 35898, 36156, 35356, 35479, 35748, 36401, 36375, 35923, 36706, 36287, 36191, 36446, 35775, 36119, 36783, 36034, 36886, 36296, 36935, 37007, 37029, 37071, 37263, 37530, 37101, 37394, 37422, 37678, 37359, 36927, 37052, 36934, 37543, 37059, 37364, 36809, 37073, 36682, 37280, 36750, 37156, 37653, 37237, 36844, 37108, 36958, 37202, 37334, 36998, 37312, 37637, 37430, 37850, 37387, 37285, 37587, 37463, 37257, 37179, 37231, 37365, 37127, 37495, 36940, 37435, 37554, 37326, 37765, 37097, 36899, 37059, 37133, 36792, 37423, 37391, 37464, 37324, 37385, 37045, 37241, 37248, 37206, 37342, 37103, 37150, 37110, 37366, 36960, 37401, 36855, 36286, 36164, 36084, 36381, 36688, 37402, 37598, 36908],
