{
  "AcquisitionMatrixPE": 104,
  "AcquisitionNumber": 1,
  "AcquisitionTime": "16:24:13.992500",
  "BandwidthPerPixelPhaseEncode": 17.17,
  "BaseResolution": 104,
  "BodyPartExamined": "BRAIN",
  "CoilCombinationMethod": "Sum of Squares",
  "ConsistencyInfo": "N4_VE11C_LATEST_20160120",
  "ConversionSoftware": "dcm2niix",
  "ConversionSoftwareVersion": "v1.0.20220505",
  "DerivedVendorReportedEchoSpacing": 0.000560011,
  "DeviceSerialNumber": "167006",
  "DwellTime": 2.1e-06,
  "EchoTime": 0.037,
  "EchoTrainLength": 104,
  "EffectiveEchoSpacing": 0.000560011,
  "FlipAngle": 52,
  "HeudiconvVersion": "0.5.3.post811+g6206e14",
  "ImageComments": "Unaliased MB4/PE3/LB",
  "ImageOrientationPatientDICOM": [0.99817, -0.0595147, 0.0107347, 0.0598267, 0.945864, -0.319],
  "ImageOrientationText": "Tra>Cor(-18.6)>Sag(-0.5)",
  "ImageType": [
    "ORIGINAL",
    "PRIMARY",
    "M",
    "MB",
    "ND",
    "MOSAIC"
],
  "ImagingFrequency": 123.259,
  "InPlanePhaseEncodingDirectionDICOM": "COL",
  "InstitutionAddress": "Chemin Queen-Mary 4565,Montreal,District,CA,H3W 1W5",
  "InstitutionName": "IUGM",
  "InstitutionalDepartmentName": "Department",
  "MRAcquisitionType": "2D",
  "MagneticFieldStrength": 3,
  "Manufacturer": "Siemens",
  "ManufacturersModelName": "Prisma_fit",
  "MatrixCoilMode": "SENSE",
  "Modality": "MR",
  "MultibandAccelerationFactor": 4,
  "PartialFourier": 1,
  "PatientPosition": "HFS",
  "PercentPhaseFOV": 100,
  "PercentSampling": 100,
  "PhaseEncodingDirection": "j",
  "PhaseEncodingSteps": 104,
  "PhaseResolution": 1,
  "PixelBandwidth": 2290,
  "ProcedureStepDescription": "games^mario3",
  "ProtocolName": "func_task-mario3_run-01",
  "PulseSequenceDetails": "%CustomerSeq%\\cmrr_mbep2d_bold",
  "ReceiveCoilActiveElements": "HC1-7;NC1,2",
  "ReceiveCoilName": "HeadNeck_64",
  "ReconMatrixPE": 104,
  "RepetitionTime": 1.49,
  "SAR": 0.0896126,
  "ScanOptions": "FS",
  "ScanningSequence": "EP",
  "SequenceName": "epfid2d1_104",
  "SequenceVariant": "SK\\SS",
  "SeriesDescription": "func_task-mario3_run-01",
  "SeriesNumber": 10,
  "ShimSetting": [624, -7265, -8834, 536, 26, -252, -53, -8],
  "SliceThickness": 2,
  "SliceTiming": [0, 0.7825, 0.0975, 0.8825, 0.195, 0.98, 0.2925, 1.0775, 0.3925, 1.175, 0.49, 1.2725, 0.5875, 1.3725, 0.685, 0, 0.7825, 0.0975, 0.8825, 0.195, 0.98, 0.2925, 1.0775, 0.3925, 1.175, 0.49, 1.2725, 0.5875, 1.3725, 0.685, 0, 0.7825, 0.0975, 0.8825, 0.195, 0.98, 0.2925, 1.0775, 0.3925, 1.175, 0.49, 1.2725, 0.5875, 1.3725, 0.685, 0, 0.7825, 0.0975, 0.8825, 0.195, 0.98, 0.2925, 1.0775, 0.3925, 1.175, 0.49, 1.2725, 0.5875, 1.3725, 0.685],
  "SoftwareVersions": "syngo MR E11",
  "SpacingBetweenSlices": 2,
  "StationName": "MRC35049",
  "TaskName": "mario3",
  "TotalReadoutTime": 0.0576811,
  "TxRefAmp": 314.074,
  "WipMemBlock": "da299ac8-1cd7-4c72-9e12-eb1b4dbf8c35||Sequence: R017 ve11c/master r/75a17815+; Jun 28 2022 16:32:11 by eja",
  "dcmmeta_affine": [
    [-1.9963394403457642, 0.11965342611074448, -0.017663218080997467, 100.93151092529297],
    [0.11902938783168793, 1.8917289972305298, -0.6381170153617859, -72.47587585449219],
    [0.02146943286061287, 0.6380003094673157, 1.8953876495361328, -65.78069305419922],
    [0.0, 0.0, 0.0, 1.0]
],
  "dcmmeta_reorient_transform": [
    [0.0, -1.0, 0.0, 103.0],
    [1.0, 0.0, 0.0, 0.0],
    [0.0, 0.0, 1.0, 0.0],
    [0.0, 0.0, 0.0, 1.0]
],
  "dcmmeta_shape": [104, 104, 60, 461],
  "dcmmeta_slice_dim": 2,
  "dcmmeta_version": 0.6,
  "global": {
    "const": {
      "AcquisitionMatrix": [104, 0, 0, 104],
      "AngioFlag": "N",
      "BitsAllocated": 16,
      "BitsStored": 16,
      "BodyPartExamined": "BRAIN",
      "Columns": 832,
      "EchoNumbers": 1,
      "EchoTime": 37.0,
      "EchoTrainLength": 104,
      "FlipAngle": 52.0,
      "HighBit": 15,
      "ImageOrientationPatient": [0.9981697086213, -0.0595146928104, 0.01073471613804, 0.05982671199899, 0.94586450688841, -0.319000155392],
      "ImagePositionPatient": [-883.47721099913, -767.63487690169, 224.35057897983],
      "ImageType": [
        "ORIGINAL",
        "PRIMARY",
        "M",
        "MB",
        "ND",
        "MOSAIC"
],
      "ImagedNucleus": "1H",
      "ImagingFrequency": 123.259017,
      "InPlanePhaseEncodingDirection": "COL",
      "MRAcquisitionType": "2D",
      "MagneticFieldStrength": 3.0,
      "Manufacturer": "SIEMENS",
      "ManufacturerModelName": "Prisma_fit",
      "Modality": "MR",
      "NumberOfAverages": 1.0,
      "NumberOfPhaseEncodingSteps": 104,
      "PercentPhaseFieldOfView": 100.0,
      "PercentSampling": 100.0,
      "PerformedProcedureStepStartTime": "162056.058000",
      "PhotometricInterpretation": "MONOCHROME2",
      "PixelBandwidth": 2290.0,
      "PixelRepresentation": 0,
      "PixelSpacing": [2.0, 2.0],
      "ProtocolName": "func_task-mario3_run-01",
      "RepetitionTime": 1490.0,
      "Rows": 832,
      "SAR": 0.08961264859162,
      "SamplesPerPixel": 1,
      "ScanOptions": "FS",
      "ScanningSequence": "EP",
      "SequenceName": "epfid2d1_104",
      "SequenceVariant": [
        "SK",
        "SS"
],
      "SeriesDescription": "func_task-mario3_run-01",
      "SeriesNumber": 10,
      "SeriesTime": "162533.675000",
      "SliceLocation": -40.107301459735,
      "SliceThickness": 2.0,
      "SmallestImagePixelValue": 0,
      "SoftwareVersions": "syngo MR E11",
      "SpacingBetweenSlices": 1.9999999469862,
      "SpecificCharacterSet": "ISO_IR 100",
      "StudyID": "1",
      "StudyTime": "162055.987000",
      "TransmitCoilName": "Body",
      "VariableFlipAngleFlag": "N",
      "WindowCenterWidthExplanation": "Algo1",
      "dBdt": 0.0},
    "slices": {}
  },
  "time": {
    "samples": {
      "AcquisitionNumber": [1, 2, 3, 4, 5, 6, 7, 8, 9, 10, 11, 12, 13, 14, 15, 16, 17, 18, 19, 20, 21, 22, 23, 24, 25, 26, 27, 28, 29, 30, 31, 32, 33, 34, 35, 36, 37, 38, 39, 40, 41, 42, 43, 44, 45, 46, 47, 48, 49, 50, 51, 52, 53, 54, 55, 56, 57, 58, 59, 60, 61, 62, 63, 64, 65, 66, 67, 68, 69, 70, 71, 72, 73, 74, 75, 76, 77, 78, 79, 80, 81, 82, 83, 84, 85, 86, 87, 88, 89, 90, 91, 92, 93, 94, 95, 96, 97, 98, 99, 100, 101, 102, 103, 104, 105, 106, 107, 108, 109, 110, 111, 112, 113, 114, 115, 116, 117, 118, 119, 120, 121, 122, 123, 124, 125, 126, 127, 128, 129, 130, 131, 132, 133, 134, 135, 136, 137, 138, 139, 140, 141, 142, 143, 144, 145, 146, 147, 148, 149, 150, 151, 152, 153, 154, 155, 156, 157, 158, 159, 160, 161, 162, 163, 164, 165, 166, 167, 168, 169, 170, 171, 172, 173, 174, 175, 176, 177, 178, 179, 180, 181, 182, 183, 184, 185, 186, 187, 188, 189, 190, 191, 192, 193, 194, 195, 196, 197, 198, 199, 200, 201, 202, 203, 204, 205, 206, 207, 208, 209, 210, 211, 212, 213, 214, 215, 216, 217, 218, 219, 220, 221, 222, 223, 224, 225, 226, 227, 228, 229, 230, 231, 232, 233, 234, 235, 236, 237, 238, 239, 240, 241, 242, 243, 244, 245, 246, 247, 248, 249, 250, 251, 252, 253, 254, 255, 256, 257, 258, 259, 260, 261, 262, 263, 264, 265, 266, 267, 268, 269, 270, 271, 272, 273, 274, 275, 276, 277, 278, 279, 280, 281, 282, 283, 284, 285, 286, 287, 288, 289, 290, 291, 292, 293, 294, 295, 296, 297, 298, 299, 300, 301, 302, 303, 304, 305, 306, 307, 308, 309, 310, 311, 312, 313, 314, 315, 316, 317, 318, 319, 320, 321, 322, 323, 324, 325, 326, 327, 328, 329, 330, 331, 332, 333, 334, 335, 336, 337, 338, 339, 340, 341, 342, 343, 344, 345, 346, 347, 348, 349, 350, 351, 352, 353, 354, 355, 356, 357, 358, 359, 360, 361, 362, 363, 364, 365, 366, 367, 368, 369, 370, 371, 372, 373, 374, 375, 376, 377, 378, 379, 380, 381, 382, 383, 384, 385, 386, 387, 388, 389, 390, 391, 392, 393, 394, 395, 396, 397, 398, 399, 400, 401, 402, 403, 404, 405, 406, 407, 408, 409, 410, 411, 412, 413, 414, 415, 416, 417, 418, 419, 420, 421, 422, 423, 424, 425, 426, 427, 428, 429, 430, 431, 432, 433, 434, 435, 436, 437, 438, 439, 440, 441, 442, 443, 444, 445, 446, 447, 448, 449, 450, 451, 452, 453, 454, 455, 456, 457, 458, 459, 460, 461],
      "AcquisitionTime": ["162413.992500", "162415.482500", "162416.972500", "162418.462500", "162419.952500", "162421.442500", "162422.932500", "162424.422500", "162425.912500", "162427.402500", "162428.892500", "162430.382500", "162431.872500", "162433.362500", "162434.852500", "162436.342500", "162437.832500", "162439.322500", "162440.812500", "162442.302500", "162443.792500", "162445.282500", "162446.772500", "162448.262500", "162449.752500", "162451.242500", "162452.732500", "162454.222500", "162455.712500", "162457.202500", "162458.692500", "162500.182500", "162501.672500", "162503.162500", "162504.652500", "162506.142500", "162507.632500", "162509.122500", "162510.612500", "162512.102500", "162513.592500", "162515.082500", "162516.572500", "162518.062500", "162519.552500", "162521.042500", "162522.532500", "162524.022500", "162525.512500", "162527.002500", "162528.492500", "162529.982500", "162531.472500", "162532.962500", "162534.452500", "162535.942500", "162537.432500", "162538.922500", "162540.412500", "162541.902500", "162543.392500", "162544.882500", "162546.372500", "162547.862500", "162549.352500", "162550.842500", "162552.332500", "162553.822500", "162555.312500", "162556.802500", "162558.292500", "162559.782500", "162601.272500", "162602.762500", "162604.252500", "162605.742500", "162607.232500", "162608.722500", "162610.212500", "162611.702500", "162613.192500", "162614.682500", "162616.172500", "162617.662500", "162619.152500", "162620.642500", "162622.132500", "162623.622500", "162625.112500", "162626.602500", "162628.092500", "162629.582500", "162631.072500", "162632.562500", "162634.052500", "162635.542500", "162637.032500", "162638.522500", "162640.012500", "162641.502500", "162642.992500", "162644.482500", "162645.972500", "162647.462500", "162648.952500", "162650.442500", "162651.932500", "162653.422500", "162654.912500", "162656.402500", "162657.892500", "162659.382500", "162700.872500", "162702.362500", "162703.852500", "162705.342500", "162706.832500", "162708.322500", "162709.812500", "162711.302500", "162712.792500", "162714.282500", "162715.772500", "162717.262500", "162718.752500", "162720.242500", "162721.732500", "162723.222500", "162724.712500", "162726.202500", "162727.692500", "162729.182500", "162730.672500", "162732.162500", "162733.652500", "162735.142500", "162736.632500", "162738.122500", "162739.612500", "162741.102500", "162742.592500", "162744.082500", "162745.572500", "162747.062500", "162748.552500", "162750.042500", "162751.532500", "162753.022500", "162754.512500", "162756.002500", "162757.492500", "162758.982500", "162800.472500", "162801.962500", "162803.452500", "162804.942500", "162806.432500", "162807.922500", "162809.412500", "162810.902500", "162812.392500", "162813.882500", "162815.372500", "162816.862500", "162818.352500", "162819.842500", "162821.332500", "162822.822500", "162824.312500", "162825.802500", "162827.292500", "162828.782500", "162830.272500", "162831.762500", "162833.252500", "162834.742500", "162836.232500", "162837.722500", "162839.212500", "162840.702500", "162842.192500", "162843.682500", "162845.172500", "162846.662500", "162848.152500", "162849.642500", "162851.132500", "162852.622500", "162854.112500", "162855.602500", "162857.092500", "162858.582500", "162900.072500", "162901.562500", "162903.052500", "162904.542500", "162906.032500", "162907.522500", "162909.012500", "162910.502500", "162911.992500", "162913.482500", "162914.972500", "162916.462500", "162917.952500", "162919.442500", "162920.932500", "162922.422500", "162923.912500", "162925.402500", "162926.892500", "162928.382500", "162929.872500", "162931.362500", "162932.852500", "162934.342500", "162935.832500", "162937.322500", "162938.812500", "162940.302500", "162941.792500", "162943.282500", "162944.772500", "162946.262500", "162947.752500", "162949.242500", "162950.732500", "162952.222500", "162953.712500", "162955.202500", "162956.692500", "162958.182500", "162959.672500", "163001.162500", "163002.652500", "163004.142500", "163005.632500", "163007.122500", "163008.612500", "163010.102500", "163011.592500", "163013.082500", "163014.572500", "163016.062500", "163017.552500", "163019.042500", "163020.532500", "163022.022500", "163023.512500", "163025.002500", "163026.492500", "163027.982500", "163029.472500", "163030.962500", "163032.452500", "163033.942500", "163035.432500", "163036.922500", "163038.412500", "163039.902500", "163041.392500", "163042.882500", "163044.372500", "163045.862500", "163047.352500", "163048.842500", "163050.332500", "163051.822500", "163053.312500", "163054.802500", "163056.292500", "163057.782500", "163059.272500", "163100.762500", "163102.252500", "163103.742500", "163105.232500", "163106.722500", "163108.212500", "163109.702500", "163111.192500", "163112.682500", "163114.172500", "163115.662500", "163117.152500", "163118.642500", "163120.132500", "163121.622500", "163123.112500", "163124.602500", "163126.092500", "163127.582500", "163129.072500", "163130.562500", "163132.052500", "163133.542500", "163135.032500", "163136.522500", "163138.012500", "163139.502500", "163140.992500", "163142.482500", "163143.972500", "163145.462500", "163146.952500", "163148.442500", "163149.932500", "163151.422500", "163152.912500", "163154.402500", "163155.892500", "163157.382500", "163158.872500", "163200.362500", "163201.852500", "163203.342500", "163204.832500", "163206.322500", "163207.812500", "163209.302500", "163210.792500", "163212.282500", "163213.772500", "163215.262500", "163216.752500", "163218.242500", "163219.732500", "163221.222500", "163222.712500", "163224.202500", "163225.692500", "163227.182500", "163228.672500", "163230.162500", "163231.652500", "163233.142500", "163234.632500", "163236.122500", "163237.612500", "163239.102500", "163240.592500", "163242.082500", "163243.572500", "163245.062500", "163246.552500", "163248.042500", "163249.532500", "163251.022500", "163252.512500", "163254.002500", "163255.492500", "163256.982500", "163258.472500", "163259.962500", "163301.452500", "163302.942500", "163304.432500", "163305.922500", "163307.412500", "163308.902500", "163310.392500", "163311.882500", "163313.372500", "163314.862500", "163316.352500", "163317.842500", "163319.332500", "163320.822500", "163322.312500", "163323.802500", "163325.292500", "163326.782500", "163328.272500", "163329.762500", "163331.252500", "163332.742500", "163334.232500", "163335.722500", "163337.212500", "163338.702500", "163340.192500", "163341.682500", "163343.172500", "163344.662500", "163346.152500", "163347.642500", "163349.132500", "163350.622500", "163352.112500", "163353.602500", "163355.092500", "163356.582500", "163358.072500", "163359.562500", "163401.052500", "163402.542500", "163404.032500", "163405.522500", "163407.012500", "163408.502500", "163409.992500", "163411.482500", "163412.972500", "163414.462500", "163415.952500", "163417.442500", "163418.932500", "163420.422500", "163421.912500", "163423.402500", "163424.892500", "163426.382500", "163427.872500", "163429.362500", "163430.852500", "163432.342500", "163433.832500", "163435.322500", "163436.812500", "163438.302500", "163439.792500", "163441.282500", "163442.772500", "163444.262500", "163445.752500", "163447.242500", "163448.732500", "163450.222500", "163451.712500", "163453.202500", "163454.692500", "163456.182500", "163457.672500", "163459.162500", "163500.652500", "163502.142500", "163503.632500", "163505.122500", "163506.612500", "163508.102500", "163509.592500", "163511.082500", "163512.572500", "163514.062500", "163515.552500", "163517.042500", "163518.532500", "163520.022500", "163521.512500", "163523.002500", "163524.492500", "163525.982500", "163527.472500", "163528.962500", "163530.452500", "163531.942500", "163533.432500", "163534.922500", "163536.412500", "163537.902500", "163539.392500"],
      "ContentTime": ["162533.679000", "162533.683000", "162533.686000", "162533.689000", "162533.693000", "162533.696000", "162533.700000", "162533.703000", "162533.707000", "162533.713000", "162533.717000", "162533.720000", "162533.724000", "162533.753000", "162533.756000", "162533.759000", "162533.763000", "162533.766000", "162533.770000", "162533.773000", "162533.777000", "162533.780000", "162533.784000", "162533.787000", "162533.790000", "162533.794000", "162533.797000", "162533.801000", "162533.804000", "162553.645000", "162553.649000", "162553.653000", "162553.656000", "162553.660000", "162553.663000", "162553.667000", "162553.671000", "162553.674000", "162553.678000", "162553.681000", "162553.685000", "162553.688000", "162553.691000", "162553.695000", "162553.698000", "162553.702000", "162553.705000", "162553.708000", "162553.712000", "162613.645000", "162613.649000", "162613.652000", "162613.656000", "162613.659000", "162613.663000", "162613.666000", "162613.670000", "162613.673000", "162613.677000", "162613.686000", "162613.690000", "162613.693000", "162613.697000", "162613.701000", "162613.705000", "162613.708000", "162613.712000", "162613.716000", "162613.720000", "162633.646000", "162633.650000", "162633.654000", "162633.657000", "162633.661000", "162633.670000", "162633.673000", "162633.677000", "162633.680000", "162633.684000", "162633.687000", "162633.691000", "162633.694000", "162633.697000", "162633.701000", "162633.704000", "162633.708000", "162633.711000", "162633.715000", "162633.718000", "162633.722000", "162713.645000", "162713.649000", "162713.653000", "162713.656000", "162713.660000", "162713.663000", "162713.667000", "162713.670000", "162713.673000", "162713.677000", "162713.680000", "162713.684000", "162713.687000", "162713.691000", "162713.694000", "162713.698000", "162713.701000", "162713.705000", "162713.708000", "162713.711000", "162713.715000", "162713.718000", "162713.736000", "162713.740000", "162713.743000", "162713.746000", "162713.750000", "162713.753000", "162713.757000", "162713.760000", "162753.645000", "162753.649000", "162753.653000", "162753.656000", "162753.660000", "162753.663000", "162753.667000", "162753.670000", "162753.674000", "162753.677000", "162753.681000", "162753.684000", "162753.688000", "162753.691000", "162753.695000", "162753.698000", "162753.702000", "162753.705000", "162753.709000", "162753.712000", "162753.715000", "162753.719000", "162753.722000", "162753.726000", "162753.729000", "162753.733000", "162753.736000", "162833.645000", "162833.649000", "162833.653000", "162833.656000", "162833.660000", "162833.663000", "162833.667000", "162833.670000", "162833.673000", "162833.677000", "162833.680000", "162833.684000", "162833.687000", "162833.691000", "162833.694000", "162833.697000", "162833.701000", "162833.704000", "162833.708000", "162833.711000", "162833.715000", "162833.718000", "162833.722000", "162833.725000", "162833.729000", "162833.732000", "162833.735000", "162913.645000", "162913.649000", "162913.653000", "162913.656000", "162913.660000", "162913.663000", "162913.667000", "162913.671000", "162913.676000", "162913.679000", "162913.683000", "162913.686000", "162913.690000", "162913.693000", "162913.696000", "162913.700000", "162913.703000", "162913.707000", "162913.710000", "162913.714000", "162913.717000", "162913.721000", "162913.724000", "162913.728000", "162913.731000", "162913.735000", "162953.659000", "162953.663000", "162953.666000", "162953.669000", "162953.673000", "162953.676000", "162953.680000", "162953.683000", "162953.687000", "162953.690000", "162953.694000", "162953.697000", "162953.700000", "162953.704000", "162953.707000", "162953.711000", "162953.714000", "162953.718000", "162953.721000", "162953.725000", "162953.728000", "162953.731000", "162953.735000", "162953.738000", "162953.742000", "162953.745000", "162953.749000", "163013.645000", "163013.649000", "163013.653000", "163013.656000", "163013.659000", "163013.663000", "163013.666000", "163013.670000", "163013.673000", "163013.677000", "163013.680000", "163013.684000", "163013.687000", "163013.690000", "163053.646000", "163053.650000", "163053.653000", "163053.657000", "163053.661000", "163053.664000", "163053.668000", "163053.672000", "163053.675000", "163053.679000", "163053.682000", "163053.685000", "163053.689000", "163053.692000", "163053.696000", "163053.699000", "163053.703000", "163053.706000", "163053.710000", "163053.713000", "163053.716000", "163053.720000", "163053.723000", "163053.727000", "163053.730000", "163053.734000", "163053.737000", "163133.645000", "163133.649000", "163133.653000", "163133.656000", "163133.660000", "163133.663000", "163133.667000", "163133.670000", "163133.674000", "163133.677000", "163133.680000", "163133.684000", "163133.687000", "163133.691000", "163133.694000", "163133.698000", "163133.701000", "163133.704000", "163133.708000", "163133.711000", "163133.715000", "163133.719000", "163133.723000", "163133.726000", "163133.730000", "163133.733000", "163213.645000", "163213.649000", "163213.653000", "163213.656000", "163213.660000", "163213.663000", "163213.666000", "163213.670000", "163213.673000", "163213.677000", "163213.680000", "163213.684000", "163213.687000", "163213.691000", "163213.694000", "163213.698000", "163213.701000", "163213.705000", "163213.708000", "163213.712000", "163213.715000", "163213.718000", "163213.722000", "163213.725000", "163213.729000", "163213.732000", "163213.735000", "163253.645000", "163253.649000", "163253.653000", "163253.656000", "163253.660000", "163253.663000", "163253.667000", "163253.670000", "163253.674000", "163253.677000", "163253.680000", "163253.684000", "163253.687000", "163253.691000", "163253.694000", "163253.698000", "163253.701000", "163253.705000", "163253.708000", "163253.712000", "163253.715000", "163253.718000", "163253.722000", "163253.725000", "163253.729000", "163253.732000", "163253.736000", "163333.646000", "163333.650000", "163333.654000", "163333.657000", "163333.661000", "163333.664000", "163333.668000", "163333.671000", "163333.674000", "163333.678000", "163333.681000", "163333.685000", "163333.688000", "163333.692000", "163333.695000", "163333.699000", "163333.702000", "163333.706000", "163333.709000", "163333.713000", "163333.716000", "163333.720000", "163333.723000", "163333.726000", "163333.730000", "163333.734000", "163333.737000", "163413.645000", "163413.649000", "163413.653000", "163413.656000", "163413.659000", "163413.663000", "163413.666000", "163413.670000", "163413.673000", "163413.685000", "163413.688000", "163413.692000", "163413.695000", "163413.698000", "163413.702000", "163413.705000", "163413.709000", "163413.712000", "163413.716000", "163413.719000", "163413.722000", "163413.726000", "163413.729000", "163413.733000", "163413.736000", "163413.740000", "163413.743000", "163453.646000", "163453.649000", "163453.653000", "163453.656000", "163453.660000", "163453.663000", "163453.667000", "163453.670000", "163453.674000", "163453.677000", "163453.681000", "163453.684000", "163453.688000", "163453.691000", "163453.695000", "163453.698000", "163453.702000", "163453.705000", "163453.709000", "163453.712000", "163453.716000", "163453.719000", "163453.723000", "163453.726000", "163453.730000", "163453.733000", "163453.737000", "163533.646000", "163533.649000", "163533.653000", "163533.656000", "163533.660000", "163533.663000", "163533.667000", "163533.670000", "163533.674000", "163533.677000", "163533.681000", "163533.684000", "163533.688000", "163533.691000", "163533.694000", "163533.698000", "163533.701000", "163533.705000", "163533.708000", "163533.712000", "163533.715000", "163533.719000", "163533.722000", "163533.726000", "163533.729000", "163533.733000", "163541.427000", "163541.432000", "163541.435000", "163541.440000", "163541.444000", "163541.448000"],
