{
  "AcquisitionMatrixPE": 104,
  "AcquisitionNumber": 1,
  "AcquisitionTime": "16:36:40.562500",
  "BandwidthPerPixelPhaseEncode": 17.17,
  "BaseResolution": 104,
  "BodyPartExamined": "BRAIN",
  "CoilCombinationMethod": "Sum of Squares",
  "ConsistencyInfo": "N4_VE11C_LATEST_20160120",
  "ConversionSoftware": "dcm2niix",
  "ConversionSoftwareVersion": "v1.0.20220505",
  "DerivedVendorReportedEchoSpacing": 0.000560011,
  "DeviceSerialNumber": "167006",
  "DwellTime": 2.1e-06,
  "EchoTime": 0.037,
  "EchoTime1": 0.037,
  "EchoTime2": 0.001,
  "EchoTrainLength": 104,
  "EffectiveEchoSpacing": 0.000560011,
  "FlipAngle": 52,
  "HeudiconvVersion": "0.5.3.post811+g6206e14",
  "ImageComments": "Unaliased MB4/PE3/LB",
  "ImageOrientationPatientDICOM": [0.99817, -0.0595147, 0.0107347, 0.0598267, 0.945864, -0.319],
  "ImageOrientationText": "Tra>Cor(-18.6)>Sag(-0.5)",
  "ImageType": [
    "ORIGINAL",
    "PRIMARY",
    "P",
    "MB",
    "ND",
    "MOSAIC",
    "PHASE"
],
  "ImagingFrequency": 123.259,
  "InPlanePhaseEncodingDirectionDICOM": "COL",
  "InstitutionAddress": "Chemin Queen-Mary 4565,Montreal,District,CA,H3W 1W5",
  "InstitutionName": "IUGM",
  "InstitutionalDepartmentName": "Department",
  "MRAcquisitionType": "2D",
  "MagneticFieldStrength": 3,
  "Manufacturer": "Siemens",
  "ManufacturersModelName": "Prisma_fit",
  "MatrixCoilMode": "SENSE",
  "Modality": "MR",
  "MultibandAccelerationFactor": 4,
  "PartialFourier": 1,
  "PatientPosition": "HFS",
  "PercentPhaseFOV": 100,
  "PercentSampling": 100,
  "PhaseEncodingDirection": "j",
  "PhaseEncodingSteps": 104,
  "PhaseResolution": 1,
  "PixelBandwidth": 2290,
  "ProcedureStepDescription": "games^mario3",
  "ProtocolName": "func_task-mario3_run-02",
  "PulseSequenceDetails": "%CustomerSeq%\\cmrr_mbep2d_bold",
  "ReceiveCoilActiveElements": "HC1-7;NC1,2",
  "ReceiveCoilName": "HeadNeck_64",
  "ReconMatrixPE": 104,
  "RepetitionTime": 1.49,
  "SAR": 0.0896126,
  "ScanOptions": "FS",
  "ScanningSequence": "EP",
  "SequenceName": "epfid2d1_104",
  "SequenceVariant": "SK\\SS",
  "SeriesDescription": "func_task-mario3_run-02",
  "SeriesNumber": 14,
  "ShimSetting": [624, -7265, -8834, 536, 26, -252, -53, -8],
  "SliceThickness": 2,
  "SliceTiming": [0, 0.7825, 0.0975, 0.8825, 0.195, 0.98, 0.2925, 1.0775, 0.3925, 1.175, 0.49, 1.2725, 0.5875, 1.3725, 0.685, 0, 0.7825, 0.0975, 0.8825, 0.195, 0.98, 0.2925, 1.0775, 0.3925, 1.175, 0.49, 1.2725, 0.5875, 1.3725, 0.685, 0, 0.7825, 0.0975, 0.8825, 0.195, 0.98, 0.2925, 1.0775, 0.3925, 1.175, 0.49, 1.2725, 0.5875, 1.3725, 0.685, 0, 0.7825, 0.0975, 0.8825, 0.195, 0.98, 0.2925, 1.0775, 0.3925, 1.175, 0.49, 1.2725, 0.5875, 1.3725, 0.685],
  "SoftwareVersions": "syngo MR E11",
  "SpacingBetweenSlices": 2,
  "StationName": "MRC35049",
  "TaskName": "mario3",
  "TotalReadoutTime": 0.0576811,
  "TxRefAmp": 314.074,
  "WipMemBlock": "31b3a6ed-0d64-4b68-8c1b-4c0f4d029b3a||Sequence: R017 ve11c/master r/75a17815+; Jun 28 2022 16:32:11 by eja",
  "dcmmeta_affine": [
    [-1.9963394403457642, 0.11965342611074448, -0.017663218080997467, 100.93151092529297],
    [0.11902938783168793, 1.8917289972305298, -0.6381170153617859, -72.47587585449219],
    [0.02146943286061287, 0.6380003094673157, 1.8953876495361328, -65.78069305419922],
    [0.0, 0.0, 0.0, 1.0]
],
  "dcmmeta_reorient_transform": [
    [0.0, -1.0, 0.0, 103.0],
    [1.0, 0.0, 0.0, 0.0],
    [0.0, 0.0, 1.0, 0.0],
    [0.0, 0.0, 0.0, 1.0]
],
  "dcmmeta_shape": [104, 104, 60, 586],
  "dcmmeta_slice_dim": 2,
  "dcmmeta_version": 0.6,
  "global": {
    "const": {
      "AcquisitionMatrix": [104, 0, 0, 104],
      "AngioFlag": "N",
      "BitsAllocated": 16,
      "BitsStored": 16,
      "BodyPartExamined": "BRAIN",
      "Columns": 832,
      "EchoNumbers": 1,
      "EchoTime": 37.0,
      "EchoTrainLength": 104,
      "FlipAngle": 52.0,
      "HighBit": 15,
      "ImageOrientationPatient": [0.9981697086213, -0.0595146928104, 0.01073471613804, 0.05982671199899, 0.94586450688841, -0.319000155392],
      "ImagePositionPatient": [-883.47721099913, -767.63487690169, 224.35057897983],
      "ImageType": [
        "ORIGINAL",
        "PRIMARY",
        "P",
        "MB",
        "ND",
        "MOSAIC"
],
      "ImagedNucleus": "1H",
      "ImagingFrequency": 123.259024,
      "InPlanePhaseEncodingDirection": "COL",
      "LargestImagePixelValue": 4095,
      "MRAcquisitionType": "2D",
      "MagneticFieldStrength": 3.0,
      "Manufacturer": "SIEMENS",
      "ManufacturerModelName": "Prisma_fit",
      "Modality": "MR",
      "NumberOfAverages": 1.0,
      "NumberOfPhaseEncodingSteps": 104,
      "PercentPhaseFieldOfView": 100.0,
      "PercentSampling": 100.0,
      "PerformedProcedureStepStartTime": "162056.058000",
      "PhotometricInterpretation": "MONOCHROME2",
      "PixelBandwidth": 2290.0,
      "PixelRepresentation": 0,
      "PixelSpacing": [2.0, 2.0],
      "ProtocolName": "func_task-mario3_run-02",
      "RepetitionTime": 1490.0,
      "RescaleIntercept": -4096.0,
      "RescaleSlope": 2.0,
      "RescaleType": "US",
      "Rows": 832,
      "SAR": 0.08961264859162,
      "SamplesPerPixel": 1,
      "ScanOptions": "FS",
      "ScanningSequence": "EP",
      "SequenceName": "epfid2d1_104",
      "SequenceVariant": [
        "SK",
        "SS"
],
      "SeriesDescription": "func_task-mario3_run-02",
      "SeriesNumber": 14,
      "SeriesTime": "163802.431000",
      "SliceLocation": -40.107301459735,
      "SliceThickness": 2.0,
      "SmallestImagePixelValue": 0,
      "SoftwareVersions": "syngo MR E11",
      "SpacingBetweenSlices": 1.9999999469862,
      "SpecificCharacterSet": "ISO_IR 100",
      "StudyID": "1",
      "StudyTime": "162055.987000",
      "TransmitCoilName": "Body",
      "VariableFlipAngleFlag": "N",
      "WindowCenterWidthExplanation": "Algo1",
      "dBdt": 0.0},
    "slices": {}
  },
  "time": {
    "samples": {
      "AcquisitionNumber": [1, 2, 3, 4, 5, 6, 7, 8, 9, 10, 11, 12, 13, 14, 15, 16, 17, 18, 19, 20, 21, 22, 23, 24, 25, 26, 27, 28, 29, 30, 31, 32, 33, 34, 35, 36, 37, 38, 39, 40, 41, 42, 43, 44, 45, 46, 47, 48, 49, 50, 51, 52, 53, 54, 55, 56, 57, 58, 59, 60, 61, 62, 63, 64, 65, 66, 67, 68, 69, 70, 71, 72, 73, 74, 75, 76, 77, 78, 79, 80, 81, 82, 83, 84, 85, 86, 87, 88, 89, 90, 91, 92, 93, 94, 95, 96, 97, 98, 99, 100, 101, 102, 103, 104, 105, 106, 107, 108, 109, 110, 111, 112, 113, 114, 115, 116, 117, 118, 119, 120, 121, 122, 123, 124, 125, 126, 127, 128, 129, 130, 131, 132, 133, 134, 135, 136, 137, 138, 139, 140, 141, 142, 143, 144, 145, 146, 147, 148, 149, 150, 151, 152, 153, 154, 155, 156, 157, 158, 159, 160, 161, 162, 163, 164, 165, 166, 167, 168, 169, 170, 171, 172, 173, 174, 175, 176, 177, 178, 179, 180, 181, 182, 183, 184, 185, 186, 187, 188, 189, 190, 191, 192, 193, 194, 195, 196, 197, 198, 199, 200, 201, 202, 203, 204, 205, 206, 207, 208, 209, 210, 211, 212, 213, 214, 215, 216, 217, 218, 219, 220, 221, 222, 223, 224, 225, 226, 227, 228, 229, 230, 231, 232, 233, 234, 235, 236, 237, 238, 239, 240, 241, 242, 243, 244, 245, 246, 247, 248, 249, 250, 251, 252, 253, 254, 255, 256, 257, 258, 259, 260, 261, 262, 263, 264, 265, 266, 267, 268, 269, 270, 271, 272, 273, 274, 275, 276, 277, 278, 279, 280, 281, 282, 283, 284, 285, 286, 287, 288, 289, 290, 291, 292, 293, 294, 295, 296, 297, 298, 299, 300, 301, 302, 303, 304, 305, 306, 307, 308, 309, 310, 311, 312, 313, 314, 315, 316, 317, 318, 319, 320, 321, 322, 323, 324, 325, 326, 327, 328, 329, 330, 331, 332, 333, 334, 335, 336, 337, 338, 339, 340, 341, 342, 343, 344, 345, 346, 347, 348, 349, 350, 351, 352, 353, 354, 355, 356, 357, 358, 359, 360, 361, 362, 363, 364, 365, 366, 367, 368, 369, 370, 371, 372, 373, 374, 375, 376, 377, 378, 379, 380, 381, 382, 383, 384, 385, 386, 387, 388, 389, 390, 391, 392, 393, 394, 395, 396, 397, 398, 399, 400, 401, 402, 403, 404, 405, 406, 407, 408, 409, 410, 411, 412, 413, 414, 415, 416, 417, 418, 419, 420, 421, 422, 423, 424, 425, 426, 427, 428, 429, 430, 431, 432, 433, 434, 435, 436, 437, 438, 439, 440, 441, 442, 443, 444, 445, 446, 447, 448, 449, 450, 451, 452, 453, 454, 455, 456, 457, 458, 459, 460, 461, 462, 463, 464, 465, 466, 467, 468, 469, 470, 471, 472, 473, 474, 475, 476, 477, 478, 479, 480, 481, 482, 483, 484, 485, 486, 487, 488, 489, 490, 491, 492, 493, 494, 495, 496, 497, 498, 499, 500, 501, 502, 503, 504, 505, 506, 507, 508, 509, 510, 511, 512, 513, 514, 515, 516, 517, 518, 519, 520, 521, 522, 523, 524, 525, 526, 527, 528, 529, 530, 531, 532, 533, 534, 535, 536, 537, 538, 539, 540, 541, 542, 543, 544, 545, 546, 547, 548, 549, 550, 551, 552, 553, 554, 555, 556, 557, 558, 559, 560, 561, 562, 563, 564, 565, 566, 567, 568, 569, 570, 571, 572, 573, 574, 575, 576, 577, 578, 579, 580, 581, 582, 583, 584, 585, 586],
      "AcquisitionTime": ["163640.562500", "163642.052500", "163643.542500", "163645.032500", "163646.522500", "163648.012500", "163649.502500", "163650.992500", "163652.482500", "163653.972500", "163655.462500", "163656.952500", "163658.442500", "163659.932500", "163701.422500", "163702.912500", "163704.402500", "163705.892500", "163707.382500", "163708.872500", "163710.362500", "163711.852500", "163713.342500", "163714.832500", "163716.322500", "163717.812500", "163719.302500", "163720.792500", "163722.282500", "163723.772500", "163725.262500", "163726.752500", "163728.242500", "163729.732500", "163731.222500", "163732.712500", "163734.202500", "163735.692500", "163737.182500", "163738.672500", "163740.162500", "163741.652500", "163743.142500", "163744.632500", "163746.122500", "163747.612500", "163749.102500", "163750.592500", "163752.082500", "163753.572500", "163755.062500", "163756.552500", "163758.042500", "163759.532500", "163801.022500", "163802.512500", "163804.002500", "163805.492500", "163806.982500", "163808.472500", "163809.962500", "163811.452500", "163812.942500", "163814.432500", "163815.922500", "163817.412500", "163818.902500", "163820.392500", "163821.882500", "163823.372500", "163824.862500", "163826.352500", "163827.842500", "163829.332500", "163830.822500", "163832.312500", "163833.802500", "163835.292500", "163836.782500", "163838.272500", "163839.762500", "163841.252500", "163842.742500", "163844.232500", "163845.722500", "163847.212500", "163848.702500", "163850.192500", "163851.682500", "163853.172500", "163854.662500", "163856.152500", "163857.642500", "163859.132500", "163900.622500", "163902.112500", "163903.602500", "163905.092500", "163906.582500", "163908.072500", "163909.562500", "163911.052500", "163912.542500", "163914.032500", "163915.522500", "163917.012500", "163918.502500", "163919.992500", "163921.482500", "163922.972500", "163924.462500", "163925.952500", "163927.442500", "163928.932500", "163930.422500", "163931.912500", "163933.402500", "163934.892500", "163936.382500", "163937.872500", "163939.362500", "163940.852500", "163942.342500", "163943.832500", "163945.322500", "163946.812500", "163948.302500", "163949.792500", "163951.282500", "163952.772500", "163954.262500", "163955.752500", "163957.242500", "163958.732500", "164000.222500", "164001.712500", "164003.202500", "164004.692500", "164006.182500", "164007.672500", "164009.162500", "164010.652500", "164012.142500", "164013.632500", "164015.122500", "164016.612500", "164018.102500", "164019.592500", "164021.082500", "164022.572500", "164024.062500", "164025.552500", "164027.042500", "164028.532500", "164030.022500", "164031.512500", "164033.002500", "164034.492500", "164035.982500", "164037.472500", "164038.962500", "164040.452500", "164041.942500", "164043.432500", "164044.922500", "164046.412500", "164047.902500", "164049.392500", "164050.882500", "164052.372500", "164053.862500", "164055.352500", "164056.842500", "164058.332500", "164059.822500", "164101.312500", "164102.802500", "164104.292500", "164105.782500", "164107.272500", "164108.762500", "164110.252500", "164111.742500", "164113.232500", "164114.722500", "164116.212500", "164117.702500", "164119.192500", "164120.682500", "164122.172500", "164123.662500", "164125.152500", "164126.642500", "164128.132500", "164129.622500", "164131.112500", "164132.602500", "164134.092500", "164135.582500", "164137.072500", "164138.562500", "164140.052500", "164141.542500", "164143.032500", "164144.522500", "164146.012500", "164147.502500", "164148.992500", "164150.482500", "164151.972500", "164153.462500", "164154.952500", "164156.442500", "164157.932500", "164159.422500", "164200.912500", "164202.402500", "164203.892500", "164205.382500", "164206.872500", "164208.362500", "164209.852500", "164211.342500", "164212.832500", "164214.322500", "164215.812500", "164217.302500", "164218.792500", "164220.282500", "164221.772500", "164223.262500", "164224.752500", "164226.242500", "164227.732500", "164229.222500", "164230.712500", "164232.202500", "164233.692500", "164235.182500", "164236.672500", "164238.162500", "164239.652500", "164241.142500", "164242.632500", "164244.122500", "164245.612500", "164247.102500", "164248.592500", "164250.082500", "164251.572500", "164253.062500", "164254.552500", "164256.042500", "164257.532500", "164259.022500", "164300.512500", "164302.002500", "164303.492500", "164304.982500", "164306.472500", "164307.962500", "164309.452500", "164310.942500", "164312.432500", "164313.922500", "164315.412500", "164316.902500", "164318.392500", "164319.882500", "164321.372500", "164322.862500", "164324.352500", "164325.842500", "164327.332500", "164328.822500", "164330.312500", "164331.802500", "164333.292500", "164334.782500", "164336.272500", "164337.762500", "164339.252500", "164340.742500", "164342.232500", "164343.722500", "164345.212500", "164346.702500", "164348.192500", "164349.682500", "164351.172500", "164352.662500", "164354.152500", "164355.642500", "164357.132500", "164358.622500", "164400.112500", "164401.602500", "164403.092500", "164404.582500", "164406.072500", "164407.562500", "164409.052500", "164410.542500", "164412.032500", "164413.522500", "164415.012500", "164416.502500", "164417.992500", "164419.482500", "164420.972500", "164422.462500", "164423.952500", "164425.442500", "164426.932500", "164428.422500", "164429.912500", "164431.402500", "164432.892500", "164434.382500", "164435.872500", "164437.362500", "164438.852500", "164440.342500", "164441.832500", "164443.322500", "164444.812500", "164446.302500", "164447.792500", "164449.282500", "164450.772500", "164452.262500", "164453.752500", "164455.242500", "164456.732500", "164458.222500", "164459.712500", "164501.202500", "164502.692500", "164504.182500", "164505.672500", "164507.162500", "164508.652500", "164510.142500", "164511.632500", "164513.122500", "164514.612500", "164516.102500", "164517.592500", "164519.082500", "164520.572500", "164522.062500", "164523.552500", "164525.042500", "164526.532500", "164528.022500", "164529.512500", "164531.002500", "164532.492500", "164533.982500", "164535.472500", "164536.962500", "164538.452500", "164539.942500", "164541.432500", "164542.922500", "164544.412500", "164545.902500", "164547.392500", "164548.882500", "164550.372500", "164551.862500", "164553.352500", "164554.842500", "164556.332500", "164557.822500", "164559.312500", "164600.802500", "164602.292500", "164603.782500", "164605.272500", "164606.762500", "164608.252500", "164609.742500", "164611.232500", "164612.722500", "164614.212500", "164615.702500", "164617.192500", "164618.682500", "164620.172500", "164621.662500", "164623.152500", "164624.642500", "164626.132500", "164627.622500", "164629.112500", "164630.602500", "164632.092500", "164633.582500", "164635.072500", "164636.562500", "164638.052500", "164639.542500", "164641.032500", "164642.522500", "164644.012500", "164645.502500", "164646.992500", "164648.482500", "164649.972500", "164651.462500", "164652.952500", "164654.442500", "164655.932500", "164657.422500", "164658.912500", "164700.402500", "164701.892500", "164703.382500", "164704.872500", "164706.362500", "164707.852500", "164709.342500", "164710.832500", "164712.322500", "164713.812500", "164715.302500", "164716.792500", "164718.282500", "164719.772500", "164721.262500", "164722.752500", "164724.242500", "164725.732500", "164727.222500", "164728.712500", "164730.202500", "164731.692500", "164733.182500", "164734.672500", "164736.162500", "164737.652500", "164739.142500", "164740.632500", "164742.122500", "164743.612500", "164745.102500", "164746.592500", "164748.082500", "164749.572500", "164751.062500", "164752.552500", "164754.042500", "164755.532500", "164757.022500", "164758.512500", "164800.002500", "164801.492500", "164802.982500", "164804.472500", "164805.962500", "164807.452500", "164808.942500", "164810.432500", "164811.922500", "164813.412500", "164814.902500", "164816.392500", "164817.882500", "164819.372500", "164820.862500", "164822.352500", "164823.842500", "164825.332500", "164826.822500", "164828.312500", "164829.802500", "164831.292500", "164832.782500", "164834.272500", "164835.762500", "164837.252500", "164838.742500", "164840.232500", "164841.722500", "164843.212500", "164844.702500", "164846.192500", "164847.682500", "164849.172500", "164850.662500", "164852.152500", "164853.642500", "164855.132500", "164856.622500", "164858.112500", "164859.602500", "164901.092500", "164902.582500", "164904.072500", "164905.562500", "164907.052500", "164908.542500", "164910.032500", "164911.522500", "164913.012500", "164914.502500", "164915.992500", "164917.482500", "164918.972500", "164920.462500", "164921.952500", "164923.442500", "164924.932500", "164926.422500", "164927.912500", "164929.402500", "164930.892500", "164932.382500", "164933.872500", "164935.362500", "164936.852500", "164938.342500", "164939.832500", "164941.322500", "164942.812500", "164944.302500", "164945.792500", "164947.282500", "164948.772500", "164950.262500", "164951.752500", "164953.242500", "164954.732500", "164956.222500", "164957.712500", "164959.202500", "165000.692500", "165002.182500", "165003.672500", "165005.162500", "165006.652500", "165008.142500", "165009.632500", "165011.122500", "165012.612500", "165014.102500", "165015.592500", "165017.082500", "165018.572500", "165020.062500", "165021.552500", "165023.042500", "165024.532500", "165026.022500", "165027.512500", "165029.002500", "165030.492500", "165031.982500", "165033.472500", "165034.962500", "165036.452500", "165037.942500", "165039.432500", "165040.922500", "165042.412500", "165043.902500", "165045.392500", "165046.882500", "165048.372500", "165049.862500", "165051.352500", "165052.842500", "165054.332500", "165055.822500", "165057.312500", "165058.802500", "165100.292500", "165101.782500", "165103.272500", "165104.762500", "165106.252500", "165107.742500", "165109.232500", "165110.722500", "165112.212500"],
      "ContentTime": ["163802.433000", "163802.436000", "163802.439000", "163802.441000", "163802.444000", "163802.446000", "163802.449000", "163802.452000", "163802.454000", "163802.457000", "163802.459000", "163802.462000", "163802.464000", "163802.467000", "163802.470000", "163802.472000", "163802.475000", "163802.477000", "163802.480000", "163802.482000", "163802.485000", "163802.488000", "163802.490000", "163802.493000", "163802.495000", "163802.498000", "163802.504000", "163802.507000", "163802.509000", "163802.512000", "163802.515000", "163802.517000", "163802.520000", "163802.522000", "163822.328000", "163822.330000", "163822.333000", "163822.335000", "163822.338000", "163822.341000", "163822.343000", "163822.346000", "163822.349000", "163822.351000", "163822.354000", "163822.356000", "163822.359000", "163822.362000", "163822.364000", "163822.367000", "163822.370000", "163822.379000", "163822.381000", "163822.384000", "163842.332000", "163842.335000", "163842.337000", "163842.340000", "163842.343000", "163842.345000", "163842.348000", "163842.351000", "163842.355000", "163842.359000", "163842.363000", "163842.366000", "163842.369000", "163842.372000", "163842.375000", "163842.377000", "163842.380000", "163842.383000", "163842.385000", "163842.388000", "163902.324000", "163902.327000", "163902.330000", "163902.332000", "163902.335000", "163902.338000", "163902.340000", "163902.343000", "163902.345000", "163902.348000", "163902.350000", "163902.353000", "163902.356000", "163902.358000", "163902.361000", "163902.363000", "163902.366000", "163902.368000", "163902.371000", "163902.374000", "163942.367000", "163942.370000", "163942.372000", "163942.375000", "163942.378000", "163942.380000", "163942.383000", "163942.385000", "163942.388000", "163942.390000", "163942.393000", "163942.396000", "163942.398000", "163942.401000", "163942.403000", "163942.406000", "163942.409000", "163942.411000", "163942.414000", "163942.416000", "163942.419000", "163942.422000", "163942.424000", "163942.427000", "163942.429000", "163942.432000", "163942.435000", "164022.358000", "164022.360000", "164022.363000", "164022.366000", "164022.368000", "164022.371000", "164022.373000", "164022.376000", "164022.379000", "164022.381000", "164022.384000", "164022.386000", "164022.389000", "164022.392000", "164022.394000", "164022.397000", "164022.399000", "164022.402000", "164022.404000", "164022.407000", "164022.409000", "164022.412000", "164022.415000", "164022.417000", "164022.420000", "164022.422000", "164022.425000", "164102.348000", "164102.350000", "164102.353000", "164102.356000", "164102.358000", "164102.361000", "164102.363000", "164102.366000", "164102.369000", "164102.371000", "164102.374000", "164102.376000", "164102.379000", "164102.382000", "164102.384000", "164102.387000", "164102.389000", "164102.392000", "164102.394000", "164102.397000", "164102.400000", "164102.402000", "164102.405000", "164102.407000", "164102.410000", "164102.413000", "164102.415000", "164142.362000", "164142.365000", "164142.368000", "164142.370000", "164142.373000", "164142.376000", "164142.379000", "164142.381000", "164142.384000", "164142.387000", "164142.390000", "164142.392000", "164142.395000", "164142.398000", "164142.400000", "164142.403000", "164142.406000", "164142.408000", "164142.411000", "164142.413000", "164142.416000", "164142.419000", "164142.421000", "164142.424000", "164142.427000", "164142.429000", "164142.432000", "164222.352000", "164222.355000", "164222.358000", "164222.360000", "164222.363000", "164222.365000", "164222.368000", "164222.371000", "164222.373000", "164222.376000", "164222.378000", "164222.381000", "164222.383000", "164222.386000", "164222.389000", "164222.391000", "164222.394000", "164222.396000", "164222.399000", "164222.401000", "164222.404000", "164222.407000", "164222.409000", "164222.412000", "164222.414000", "164222.417000", "164222.420000", "164302.371000", "164302.374000", "164302.377000", "164302.380000", "164302.382000", "164302.385000", "164302.388000", "164302.390000", "164302.393000", "164302.395000", "164302.398000", "164302.401000", "164302.403000", "164302.406000", "164302.408000", "164302.411000", "164302.414000", "164302.416000", "164302.419000", "164302.421000", "164302.424000", "164302.427000", "164302.429000", "164302.432000", "164302.434000", "164302.437000", "164342.875000", "164342.878000", "164342.881000", "164342.883000", "164342.886000", "164342.888000", "164342.891000", "164342.894000", "164342.896000", "164342.899000", "164342.901000", "164342.904000", "164342.907000", "164342.909000", "164342.912000", "164342.914000", "164342.917000", "164342.920000", "164342.922000", "164342.925000", "164342.927000", "164342.930000", "164342.933000", "164342.935000", "164342.938000", "164342.940000", "164342.943000", "164422.371000", "164422.374000", "164422.376000", "164422.379000", "164422.381000", "164422.384000", "164422.386000", "164422.389000", "164422.392000", "164422.394000", "164422.397000", "164422.399000", "164422.402000", "164422.405000", "164422.407000", "164422.410000", "164422.412000", "164422.415000", "164422.417000", "164422.420000", "164422.423000", "164422.425000", "164422.428000", "164422.430000", "164422.433000", "164422.435000", "164422.438000", "164502.356000", "164502.359000", "164502.361000", "164502.364000", "164502.367000", "164502.369000", "164502.372000", "164502.374000", "164502.377000", "164502.380000", "164502.382000", "164502.385000", "164502.387000", "164502.390000", "164502.393000", "164502.395000", "164502.398000", "164502.400000", "164502.403000", "164502.405000", "164502.408000", "164502.411000", "164502.413000", "164502.416000", "164502.419000", "164502.421000", "164502.424000", "164542.369000", "164542.372000", "164542.374000", "164542.377000", "164542.379000", "164542.382000", "164542.385000", "164542.387000", "164542.390000", "164542.392000", "164542.395000", "164542.398000", "164542.400000", "164542.403000", "164542.405000", "164542.408000", "164542.410000", "164542.413000", "164542.416000", "164542.418000", "164542.421000", "164542.423000", "164542.426000", "164542.429000", "164542.431000", "164542.434000", "164542.436000", "164622.378000", "164622.380000", "164622.383000", "164622.385000", "164622.388000", "164622.391000", "164622.393000", "164622.396000", "164622.398000", "164622.401000", "164622.404000", "164622.406000", "164622.409000", "164622.411000", "164622.414000", "164622.417000", "164622.419000", "164622.422000", "164622.424000", "164622.427000", "164622.429000", "164622.432000", "164622.435000", "164622.437000", "164622.440000", "164622.443000", "164622.445000", "164702.357000", "164702.360000", "164702.362000", "164702.373000", "164702.375000", "164702.378000", "164702.380000", "164702.383000", "164702.386000", "164702.388000", "164702.391000", "164702.394000", "164702.396000", "164702.399000", "164702.401000", "164702.404000", "164702.407000", "164702.409000", "164702.412000", "164702.415000", "164702.417000", "164702.420000", "164702.422000", "164702.425000", "164702.428000", "164702.430000", "164742.359000", "164742.362000", "164742.365000", "164742.367000", "164742.370000", "164742.373000", "164742.376000", "164742.378000", "164742.381000", "164742.383000", "164742.386000", "164742.389000", "164742.391000", "164742.394000", "164742.397000", "164742.399000", "164742.402000", "164742.405000", "164742.408000", "164742.410000", "164742.413000", "164742.415000", "164742.418000", "164742.421000", "164742.423000", "164742.426000", "164742.428000", "164822.362000", "164822.365000", "164822.368000", "164822.370000", "164822.373000", "164822.375000", "164822.378000", "164822.381000", "164822.383000", "164822.400000", "164822.402000", "164822.405000", "164822.408000", "164822.410000", "164822.413000", "164822.415000", "164822.418000", "164822.421000", "164822.423000", "164822.426000", "164822.429000", "164822.431000", "164822.434000", "164822.437000", "164822.439000", "164822.442000", "164822.444000", "164902.349000", "164902.352000", "164902.355000", "164902.358000", "164902.360000", "164902.363000", "164902.366000", "164902.368000", "164902.371000", "164902.374000", "164902.376000", "164902.379000", "164902.382000", "164902.384000", "164902.387000", "164902.390000", "164902.392000", "164902.395000", "164902.397000", "164902.400000", "164902.403000", "164902.405000", "164902.408000", "164902.411000", "164902.413000", "164902.416000", "164902.419000", "164942.351000", "164942.354000", "164942.357000", "164942.359000", "164942.362000", "164942.365000", "164942.367000", "164942.370000", "164942.373000", "164942.376000", "164942.378000", "164942.381000", "164942.384000", "164942.386000", "164942.389000", "164942.392000", "164942.394000", "164942.397000", "164942.399000", "164942.402000", "164942.405000", "164942.408000", "164942.410000", "164942.413000", "164942.416000", "164942.418000", "164942.421000", "165022.355000", "165022.357000", "165022.360000", "165022.363000", "165022.365000", "165022.368000", "165022.371000", "165022.373000", "165022.376000", "165022.378000", "165022.381000", "165022.384000", "165022.386000", "165022.389000", "165022.392000", "165022.394000", "165022.397000", "165022.399000", "165022.402000", "165022.405000", "165022.407000", "165022.410000", "165022.413000", "165022.415000", "165022.418000", "165022.420000", "165022.423000", "165102.364000", "165102.367000", "165102.370000", "165102.372000", "165102.375000", "165102.377000", "165102.380000", "165102.383000", "165102.385000", "165102.388000", "165102.391000", "165102.393000", "165102.396000", "165102.399000", "165102.401000", "165102.404000", "165102.407000", "165102.409000", "165102.412000", "165102.414000", "165102.417000", "165102.420000", "165102.422000", "165102.425000", "165102.428000", "165102.431000", "165102.433000", "165114.194000", "165114.197000", "165114.199000", "165114.202000", "165114.205000", "165114.207000", "165114.210000", "165114.213000"],
