{
  "AcquisitionMatrixPE": 104,
  "AcquisitionNumber": 1,
  "AcquisitionTime": "16:52:24.332500",
  "BandwidthPerPixelPhaseEncode": 17.17,
  "BaseResolution": 104,
  "BodyPartExamined": "BRAIN",
  "CoilCombinationMethod": "Sum of Squares",
  "ConsistencyInfo": "N4_VE11C_LATEST_20160120",
  "ConversionSoftware": "dcm2niix",
  "ConversionSoftwareVersion": "v1.0.20220505",
  "DerivedVendorReportedEchoSpacing": 0.000560011,
  "DeviceSerialNumber": "167006",
  "DwellTime": 2.1e-06,
  "EchoTime": 0.037,
  "EchoTime1": 0.037,
  "EchoTime2": 0.001,
  "EchoTrainLength": 104,
  "EffectiveEchoSpacing": 0.000560011,
  "FlipAngle": 52,
  "HeudiconvVersion": "0.5.3.post811+g6206e14",
  "ImageComments": "Unaliased MB4/PE3/LB",
  "ImageOrientationPatientDICOM": [0.99817, -0.0595147, 0.0107347, 0.0598267, 0.945864, -0.319],
  "ImageOrientationText": "Tra>Cor(-18.6)>Sag(-0.5)",
  "ImageType": [
    "ORIGINAL",
    "PRIMARY",
    "P",
    "MB",
    "ND",
    "MOSAIC",
    "PHASE"
],
  "ImagingFrequency": 123.259,
  "InPlanePhaseEncodingDirectionDICOM": "COL",
  "InstitutionAddress": "Chemin Queen-Mary 4565,Montreal,District,CA,H3W 1W5",
  "InstitutionName": "IUGM",
  "InstitutionalDepartmentName": "Department",
  "MRAcquisitionType": "2D",
  "MagneticFieldStrength": 3,
  "Manufacturer": "Siemens",
  "ManufacturersModelName": "Prisma_fit",
  "MatrixCoilMode": "SENSE",
  "Modality": "MR",
  "MultibandAccelerationFactor": 4,
  "PartialFourier": 1,
  "PatientPosition": "HFS",
  "PercentPhaseFOV": 100,
  "PercentSampling": 100,
  "PhaseEncodingDirection": "j",
  "PhaseEncodingSteps": 104,
  "PhaseResolution": 1,
  "PixelBandwidth": 2290,
  "ProcedureStepDescription": "games^mario3",
  "ProtocolName": "func_task-mario3_run-03",
  "PulseSequenceDetails": "%CustomerSeq%\\cmrr_mbep2d_bold",
  "ReceiveCoilActiveElements": "HC1-7;NC1,2",
  "ReceiveCoilName": "HeadNeck_64",
  "ReconMatrixPE": 104,
  "RepetitionTime": 1.49,
  "SAR": 0.0896126,
  "ScanOptions": "FS",
  "ScanningSequence": "EP",
  "SequenceName": "epfid2d1_104",
  "SequenceVariant": "SK\\SS",
  "SeriesDescription": "func_task-mario3_run-03",
  "SeriesNumber": 17,
  "ShimSetting": [624, -7265, -8834, 536, 26, -252, -53, -8],
  "SliceThickness": 2,
  "SliceTiming": [0, 0.785, 0.1, 0.8825, 0.1975, 0.98, 0.295, 1.08, 0.3925, 1.1775, 0.49, 1.275, 0.59, 1.3725, 0.6875, 0, 0.785, 0.1, 0.8825, 0.1975, 0.98, 0.295, 1.08, 0.3925, 1.1775, 0.49, 1.275, 0.59, 1.3725, 0.6875, 0, 0.785, 0.1, 0.8825, 0.1975, 0.98, 0.295, 1.08, 0.3925, 1.1775, 0.49, 1.275, 0.59, 1.3725, 0.6875, 0, 0.785, 0.1, 0.8825, 0.1975, 0.98, 0.295, 1.08, 0.3925, 1.1775, 0.49, 1.275, 0.59, 1.3725, 0.6875],
  "SoftwareVersions": "syngo MR E11",
  "SpacingBetweenSlices": 2,
  "StationName": "MRC35049",
  "TaskName": "mario3",
  "TotalReadoutTime": 0.0576811,
  "TxRefAmp": 314.074,
  "WipMemBlock": "b5309ceb-6f6e-40ff-863f-47f55cd6dfe5||Sequence: R017 ve11c/master r/75a17815+; Jun 28 2022 16:32:11 by eja",
  "dcmmeta_affine": [
    [-1.9963394403457642, 0.11965342611074448, -0.017663218080997467, 100.93151092529297],
    [0.11902938783168793, 1.8917289972305298, -0.6381170153617859, -72.47587585449219],
    [0.02146943286061287, 0.6380003094673157, 1.8953876495361328, -65.78069305419922],
    [0.0, 0.0, 0.0, 1.0]
],
  "dcmmeta_reorient_transform": [
    [0.0, -1.0, 0.0, 103.0],
    [1.0, 0.0, 0.0, 0.0],
    [0.0, 0.0, 1.0, 0.0],
    [0.0, 0.0, 0.0, 1.0]
],
  "dcmmeta_shape": [104, 104, 60, 347],
  "dcmmeta_slice_dim": 2,
  "dcmmeta_version": 0.6,
  "global": {
    "const": {
      "AcquisitionMatrix": [104, 0, 0, 104],
      "AngioFlag": "N",
      "BitsAllocated": 16,
      "BitsStored": 16,
      "BodyPartExamined": "BRAIN",
      "Columns": 832,
      "EchoNumbers": 1,
      "EchoTime": 37.0,
      "EchoTrainLength": 104,
      "FlipAngle": 52.0,
      "HighBit": 15,
      "ImageOrientationPatient": [0.9981697086213, -0.0595146928104, 0.01073471613804, 0.05982671199899, 0.94586450688841, -0.319000155392],
      "ImagePositionPatient": [-883.47721099913, -767.63487690169, 224.35057897983],
      "ImageType": [
        "ORIGINAL",
        "PRIMARY",
        "P",
        "MB",
        "ND",
        "MOSAIC"
],
      "ImagedNucleus": "1H",
      "ImagingFrequency": 123.259027,
      "InPlanePhaseEncodingDirection": "COL",
      "LargestImagePixelValue": 4095,
      "MRAcquisitionType": "2D",
      "MagneticFieldStrength": 3.0,
      "Manufacturer": "SIEMENS",
      "ManufacturerModelName": "Prisma_fit",
      "Modality": "MR",
      "NumberOfAverages": 1.0,
      "NumberOfPhaseEncodingSteps": 104,
      "PercentPhaseFieldOfView": 100.0,
      "PercentSampling": 100.0,
      "PerformedProcedureStepStartTime": "162056.058000",
      "PhotometricInterpretation": "MONOCHROME2",
      "PixelBandwidth": 2290.0,
      "PixelRepresentation": 0,
      "PixelSpacing": [2.0, 2.0],
      "ProtocolName": "func_task-mario3_run-03",
      "RepetitionTime": 1490.0,
      "RescaleIntercept": -4096.0,
      "RescaleSlope": 2.0,
      "RescaleType": "US",
      "Rows": 832,
      "SAR": 0.08961264859162,
      "SamplesPerPixel": 1,
      "ScanOptions": "FS",
      "ScanningSequence": "EP",
      "SequenceName": "epfid2d1_104",
      "SequenceVariant": [
        "SK",
        "SS"
],
      "SeriesDescription": "func_task-mario3_run-03",
      "SeriesNumber": 17,
      "SeriesTime": "165352.772000",
      "SliceLocation": -40.107301459735,
      "SliceThickness": 2.0,
      "SmallestImagePixelValue": 0,
      "SoftwareVersions": "syngo MR E11",
      "SpacingBetweenSlices": 1.9999999469862,
      "SpecificCharacterSet": "ISO_IR 100",
      "StudyID": "1",
      "StudyTime": "162055.987000",
      "TransmitCoilName": "Body",
      "VariableFlipAngleFlag": "N",
      "WindowCenterWidthExplanation": "Algo1",
      "dBdt": 0.0},
    "slices": {}
  },
  "time": {
    "samples": {
      "AcquisitionNumber": [1, 2, 3, 4, 5, 6, 7, 8, 9, 10, 11, 12, 13, 14, 15, 16, 17, 18, 19, 20, 21, 22, 23, 24, 25, 26, 27, 28, 29, 30, 31, 32, 33, 34, 35, 36, 37, 38, 39, 40, 41, 42, 43, 44, 45, 46, 47, 48, 49, 50, 51, 52, 53, 54, 55, 56, 57, 58, 59, 60, 61, 62, 63, 64, 65, 66, 67, 68, 69, 70, 71, 72, 73, 74, 75, 76, 77, 78, 79, 80, 81, 82, 83, 84, 85, 86, 87, 88, 89, 90, 91, 92, 93, 94, 95, 96, 97, 98, 99, 100, 101, 102, 103, 104, 105, 106, 107, 108, 109, 110, 111, 112, 113, 114, 115, 116, 117, 118, 119, 120, 121, 122, 123, 124, 125, 126, 127, 128, 129, 130, 131, 132, 133, 134, 135, 136, 137, 138, 139, 140, 141, 142, 143, 144, 145, 146, 147, 148, 149, 150, 151, 152, 153, 154, 155, 156, 157, 158, 159, 160, 161, 162, 163, 164, 165, 166, 167, 168, 169, 170, 171, 172, 173, 174, 175, 176, 177, 178, 179, 180, 181, 182, 183, 184, 185, 186, 187, 188, 189, 190, 191, 192, 193, 194, 195, 196, 197, 198, 199, 200, 201, 202, 203, 204, 205, 206, 207, 208, 209, 210, 211, 212, 213, 214, 215, 216, 217, 218, 219, 220, 221, 222, 223, 224, 225, 226, 227, 228, 229, 230, 231, 232, 233, 234, 235, 236, 237, 238, 239, 240, 241, 242, 243, 244, 245, 246, 247, 248, 249, 250, 251, 252, 253, 254, 255, 256, 257, 258, 259, 260, 261, 262, 263, 264, 265, 266, 267, 268, 269, 270, 271, 272, 273, 274, 275, 276, 277, 278, 279, 280, 281, 282, 283, 284, 285, 286, 287, 288, 289, 290, 291, 292, 293, 294, 295, 296, 297, 298, 299, 300, 301, 302, 303, 304, 305, 306, 307, 308, 309, 310, 311, 312, 313, 314, 315, 316, 317, 318, 319, 320, 321, 322, 323, 324, 325, 326, 327, 328, 329, 330, 331, 332, 333, 334, 335, 336, 337, 338, 339, 340, 341, 342, 343, 344, 345, 346, 347],
      "AcquisitionTime": ["165224.332500", "165225.822500", "165227.312500", "165228.802500", "165230.292500", "165231.782500", "165233.272500", "165234.762500", "165236.252500", "165237.742500", "165239.232500", "165240.722500", "165242.212500", "165243.702500", "165245.192500", "165246.682500", "165248.172500", "165249.662500", "165251.152500", "165252.642500", "165254.132500", "165255.622500", "165257.112500", "165258.602500", "165300.092500", "165301.582500", "165303.072500", "165304.562500", "165306.052500", "165307.542500", "165309.032500", "165310.522500", "165312.012500", "165313.502500", "165314.992500", "165316.482500", "165317.972500", "165319.462500", "165320.952500", "165322.442500", "165323.932500", "165325.422500", "165326.912500", "165328.402500", "165329.892500", "165331.382500", "165332.872500", "165334.362500", "165335.852500", "165337.342500", "165338.832500", "165340.322500", "165341.812500", "165343.302500", "165344.792500", "165346.282500", "165347.772500", "165349.262500", "165350.752500", "165352.242500", "165353.732500", "165355.222500", "165356.712500", "165358.202500", "165359.692500", "165401.182500", "165402.672500", "165404.162500", "165405.652500", "165407.142500", "165408.632500", "165410.122500", "165411.612500", "165413.102500", "165414.592500", "165416.082500", "165417.572500", "165419.062500", "165420.552500", "165422.042500", "165423.532500", "165425.022500", "165426.512500", "165428.002500", "165429.492500", "165430.982500", "165432.472500", "165433.962500", "165435.452500", "165436.942500", "165438.432500", "165439.922500", "165441.412500", "165442.902500", "165444.392500", "165445.882500", "165447.372500", "165448.862500", "165450.352500", "165451.842500", "165453.332500", "165454.822500", "165456.312500", "165457.802500", "165459.292500", "165500.782500", "165502.272500", "165503.762500", "165505.252500", "165506.742500", "165508.232500", "165509.722500", "165511.212500", "165512.702500", "165514.192500", "165515.682500", "165517.172500", "165518.662500", "165520.152500", "165521.642500", "165523.132500", "165524.622500", "165526.112500", "165527.602500", "165529.092500", "165530.582500", "165532.072500", "165533.562500", "165535.052500", "165536.542500", "165538.032500", "165539.522500", "165541.012500", "165542.502500", "165543.992500", "165545.482500", "165546.972500", "165548.462500", "165549.952500", "165551.442500", "165552.932500", "165554.422500", "165555.912500", "165557.402500", "165558.892500", "165600.382500", "165601.872500", "165603.362500", "165604.852500", "165606.342500", "165607.832500", "165609.322500", "165610.812500", "165612.302500", "165613.792500", "165615.282500", "165616.772500", "165618.262500", "165619.752500", "165621.242500", "165622.732500", "165624.222500", "165625.712500", "165627.202500", "165628.692500", "165630.182500", "165631.672500", "165633.162500", "165634.652500", "165636.142500", "165637.632500", "165639.122500", "165640.612500", "165642.102500", "165643.592500", "165645.082500", "165646.572500", "165648.062500", "165649.552500", "165651.042500", "165652.532500", "165654.022500", "165655.512500", "165657.002500", "165658.492500", "165659.982500", "165701.472500", "165702.962500", "165704.452500", "165705.942500", "165707.432500", "165708.922500", "165710.412500", "165711.902500", "165713.392500", "165714.882500", "165716.372500", "165717.862500", "165719.352500", "165720.842500", "165722.332500", "165723.822500", "165725.312500", "165726.802500", "165728.292500", "165729.782500", "165731.272500", "165732.762500", "165734.252500", "165735.742500", "165737.232500", "165738.722500", "165740.212500", "165741.702500", "165743.192500", "165744.682500", "165746.172500", "165747.662500", "165749.152500", "165750.642500", "165752.132500", "165753.622500", "165755.112500", "165756.602500", "165758.092500", "165759.582500", "165801.072500", "165802.562500", "165804.052500", "165805.542500", "165807.032500", "165808.522500", "165810.012500", "165811.502500", "165812.992500", "165814.482500", "165815.972500", "165817.462500", "165818.952500", "165820.442500", "165821.932500", "165823.422500", "165824.912500", "165826.402500", "165827.892500", "165829.382500", "165830.872500", "165832.362500", "165833.852500", "165835.342500", "165836.832500", "165838.322500", "165839.812500", "165841.302500", "165842.792500", "165844.282500", "165845.772500", "165847.262500", "165848.752500", "165850.242500", "165851.732500", "165853.222500", "165854.712500", "165856.202500", "165857.692500", "165859.182500", "165900.672500", "165902.162500", "165903.652500", "165905.142500", "165906.632500", "165908.122500", "165909.612500", "165911.102500", "165912.592500", "165914.082500", "165915.572500", "165917.062500", "165918.552500", "165920.042500", "165921.532500", "165923.022500", "165924.512500", "165926.002500", "165927.492500", "165928.982500", "165930.472500", "165931.962500", "165933.452500", "165934.942500", "165936.432500", "165937.922500", "165939.412500", "165940.902500", "165942.392500", "165943.882500", "165945.372500", "165946.862500", "165948.352500", "165949.842500", "165951.332500", "165952.822500", "165954.312500", "165955.802500", "165957.292500", "165958.782500", "170000.272500", "170001.762500", "170003.252500", "170004.742500", "170006.232500", "170007.722500", "170009.212500", "170010.702500", "170012.192500", "170013.682500", "170015.172500", "170016.662500", "170018.152500", "170019.642500", "170021.132500", "170022.622500", "170024.112500", "170025.602500", "170027.092500", "170028.582500", "170030.072500", "170031.562500", "170033.052500", "170034.542500", "170036.032500", "170037.522500", "170039.012500", "170040.502500", "170041.992500", "170043.482500", "170044.972500", "170046.462500", "170047.952500", "170049.442500", "170050.932500", "170052.422500", "170053.912500", "170055.402500", "170056.892500", "170058.382500", "170059.872500"],
      "ContentTime": ["165352.774000", "165352.777000", "165352.780000", "165352.782000", "165352.785000", "165352.788000", "165352.790000", "165352.793000", "165352.795000", "165352.798000", "165352.800000", "165352.803000", "165352.810000", "165352.813000", "165352.815000", "165352.818000", "165352.821000", "165352.823000", "165352.826000", "165352.828000", "165352.831000", "165352.834000", "165352.836000", "165352.839000", "165352.842000", "165352.852000", "165352.855000", "165352.858000", "165352.860000", "165352.863000", "165352.866000", "165352.868000", "165352.871000", "165352.873000", "165352.876000", "165352.878000", "165352.881000", "165352.884000", "165352.886000", "165352.889000", "165412.679000", "165412.682000", "165412.685000", "165412.687000", "165412.690000", "165412.692000", "165412.695000", "165412.698000", "165412.700000", "165412.703000", "165412.705000", "165412.708000", "165412.711000", "165412.713000", "165412.716000", "165412.718000", "165412.721000", "165412.724000", "165412.726000", "165412.729000", "165433.090000", "165433.093000", "165433.096000", "165433.098000", "165433.101000", "165433.103000", "165433.106000", "165433.109000", "165433.111000", "165433.114000", "165433.116000", "165433.119000", "165433.122000", "165433.124000", "165433.127000", "165433.129000", "165433.132000", "165433.135000", "165433.137000", "165433.140000", "165512.733000", "165512.736000", "165512.739000", "165512.741000", "165512.744000", "165512.747000", "165512.749000", "165512.752000", "165512.754000", "165512.757000", "165512.760000", "165512.762000", "165512.765000", "165512.768000", "165512.770000", "165512.773000", "165512.775000", "165512.778000", "165512.781000", "165512.783000", "165512.786000", "165512.788000", "165512.791000", "165512.794000", "165512.796000", "165512.799000", "165512.801000", "165512.804000", "165512.806000", "165512.809000", "165512.812000", "165512.814000", "165552.706000", "165552.709000", "165552.712000", "165552.715000", "165552.717000", "165552.720000", "165552.722000", "165552.725000", "165552.728000", "165552.730000", "165552.733000", "165552.736000", "165552.738000", "165552.741000", "165552.744000", "165552.746000", "165552.749000", "165552.751000", "165552.754000", "165552.757000", "165552.759000", "165552.762000", "165552.764000", "165552.767000", "165552.770000", "165552.772000", "165632.691000", "165632.694000", "165632.697000", "165632.700000", "165632.702000", "165632.705000", "165632.707000", "165632.710000", "165632.713000", "165632.715000", "165632.718000", "165632.721000", "165632.723000", "165632.726000", "165632.729000", "165632.731000", "165632.734000", "165632.737000", "165632.739000", "165632.742000", "165632.745000", "165632.747000", "165632.750000", "165632.753000", "165632.756000", "165632.760000", "165632.763000", "165712.704000", "165712.707000", "165712.710000", "165712.712000", "165712.715000", "165712.717000", "165712.720000", "165712.723000", "165712.725000", "165712.728000", "165712.730000", "165712.733000", "165712.736000", "165712.738000", "165712.741000", "165712.743000", "165712.746000", "165712.749000", "165712.751000", "165712.754000", "165712.756000", "165712.759000", "165712.762000", "165712.764000", "165712.767000", "165712.770000", "165712.772000", "165752.695000", "165752.697000", "165752.700000", "165752.703000", "165752.705000", "165752.708000", "165752.710000", "165752.713000", "165752.716000", "165752.718000", "165752.721000", "165752.723000", "165752.726000", "165752.729000", "165752.731000", "165752.734000", "165752.736000", "165752.739000", "165752.742000", "165752.744000", "165752.747000", "165752.749000", "165752.752000", "165752.755000", "165752.757000", "165752.760000", "165752.762000", "165832.730000", "165832.733000", "165832.736000", "165832.739000", "165832.741000", "165832.744000", "165832.746000", "165832.749000", "165832.751000", "165832.754000", "165832.757000", "165832.759000", "165832.762000", "165832.764000", "165832.767000", "165832.770000", "165832.772000", "165832.775000", "165832.777000", "165832.780000", "165832.783000", "165832.785000", "165832.788000", "165832.790000", "165832.793000", "165832.796000", "165832.798000", "165912.700000", "165912.702000", "165912.705000", "165912.708000", "165912.710000", "165912.713000", "165912.716000", "165912.718000", "165912.721000", "165912.723000", "165912.726000", "165912.728000", "165912.731000", "165912.734000", "165912.736000", "165912.739000", "165912.742000", "165912.744000", "165912.747000", "165912.750000", "165912.752000", "165912.755000", "165912.758000", "165912.760000", "165912.763000", "165912.767000", "165912.769000", "165952.742000", "165952.744000", "165952.747000", "165952.750000", "165952.752000", "165952.755000", "165952.757000", "165952.760000", "165952.763000", "165952.765000", "165952.768000", "165952.770000", "165952.773000", "165952.776000", "165952.778000", "165952.781000", "165952.783000", "165952.786000", "165952.789000", "165952.791000", "165952.794000", "165952.796000", "165952.799000", "165952.802000", "165952.804000", "165952.807000", "165952.810000", "170032.699000", "170032.702000", "170032.704000", "170032.707000", "170032.709000", "170032.712000", "170032.715000", "170032.717000", "170032.720000", "170032.722000", "170032.725000", "170032.728000", "170032.730000", "170032.733000", "170032.735000", "170032.738000", "170032.741000", "170032.743000", "170032.746000", "170032.748000", "170032.751000", "170032.754000", "170032.756000", "170032.759000", "170032.761000", "170032.764000", "170103.609000", "170103.612000", "170103.614000", "170103.617000", "170103.620000", "170103.623000", "170103.625000", "170103.628000", "170103.630000", "170103.633000", "170103.636000", "170103.638000", "170103.641000", "170103.643000", "170103.646000", "170103.649000", "170103.651000", "170103.654000", "170103.657000", "170103.659000", "170103.662000"],
      "InstanceCreationTime": ["165352.774000", "165352.777000", "165352.780000", "165352.782000", "165352.785000", "165352.788000", "165352.790000", "165352.793000", "165352.795000", "165352.798000", "165352.800000", "165352.803000", "165352.810000", "165352.813000", "165352.815000", "165352.818000", "165352.821000", "165352.823000", "165352.826000", "165352.828000", "165352.831000", "165352.834000", "165352.836000", "165352.839000", "165352.842000", "165352.852000", "165352.855000", "165352.858000", "165352.860000", "165352.863000", "165352.866000", "165352.868000", "165352.871000", "165352.873000", "165352.876000", "165352.878000", "165352.881000", "165352.884000", "165352.886000", "165352.889000", "165412.679000", "165412.682000", "165412.685000", "165412.687000", "165412.690000", "165412.692000", "165412.695000", "165412.698000", "165412.700000", "165412.703000", "165412.705000", "165412.708000", "165412.711000", "165412.713000", "165412.716000", "165412.718000", "165412.721000", "165412.724000", "165412.726000", "165412.729000", "165433.090000", "165433.093000", "165433.096000", "165433.098000", "165433.101000", "165433.103000", "165433.106000", "165433.109000", "165433.111000", "165433.114000", "165433.116000", "165433.119000", "165433.122000", "165433.124000", "165433.127000", "165433.129000", "165433.132000", "165433.135000", "165433.137000", "165433.140000", "165512.733000", "165512.736000", "165512.739000", "165512.741000", "165512.744000", "165512.747000", "165512.749000", "165512.752000", "165512.754000", "165512.757000", "165512.760000", "165512.762000", "165512.765000", "165512.768000", "165512.770000", "165512.773000", "165512.775000", "165512.778000", "165512.781000", "165512.783000", "165512.786000", "165512.788000", "165512.791000", "165512.794000", "165512.796000", "165512.799000", "165512.801000", "165512.804000", "165512.806000", "165512.809000", "165512.812000", "165512.814000", "165552.706000", "165552.709000", "165552.712000", "165552.715000", "165552.717000", "165552.720000", "165552.722000", "165552.725000", "165552.728000", "165552.730000", "165552.733000", "165552.736000", "165552.738000", "165552.741000", "165552.744000", "165552.746000", "165552.749000", "165552.751000", "165552.754000", "165552.757000", "165552.759000", "165552.762000", "165552.764000", "165552.767000", "165552.770000", "165552.772000", "165632.691000", "165632.694000", "165632.697000", "165632.700000", "165632.702000", "165632.705000", "165632.707000", "165632.710000", "165632.713000", "165632.715000", "165632.718000", "165632.721000", "165632.723000", "165632.726000", "165632.729000", "165632.731000", "165632.734000", "165632.737000", "165632.739000", "165632.742000", "165632.745000", "165632.747000", "165632.750000", "165632.753000", "165632.756000", "165632.760000", "165632.763000", "165712.704000", "165712.707000", "165712.710000", "165712.712000", "165712.715000", "165712.717000", "165712.720000", "165712.723000", "165712.725000", "165712.728000", "165712.730000", "165712.733000", "165712.736000", "165712.738000", "165712.741000", "165712.743000", "165712.746000", "165712.749000", "165712.751000", "165712.754000", "165712.756000", "165712.759000", "165712.762000", "165712.764000", "165712.767000", "165712.770000", "165712.772000", "165752.695000", "165752.697000", "165752.700000", "165752.703000", "165752.705000", "165752.708000", "165752.710000", "165752.713000", "165752.716000", "165752.718000", "165752.721000", "165752.723000", "165752.726000", "165752.729000", "165752.731000", "165752.734000", "165752.736000", "165752.739000", "165752.742000", "165752.744000", "165752.747000", "165752.749000", "165752.752000", "165752.755000", "165752.757000", "165752.760000", "165752.762000", "165832.730000", "165832.733000", "165832.736000", "165832.739000", "165832.741000", "165832.744000", "165832.746000", "165832.749000", "165832.751000", "165832.754000", "165832.757000", "165832.759000", "165832.762000", "165832.764000", "165832.767000", "165832.770000", "165832.772000", "165832.775000", "165832.777000", "165832.780000", "165832.783000", "165832.785000", "165832.788000", "165832.790000", "165832.793000", "165832.796000", "165832.798000", "165912.700000", "165912.702000", "165912.705000", "165912.708000", "165912.710000", "165912.713000", "165912.716000", "165912.718000", "165912.721000", "165912.723000", "165912.726000", "165912.728000", "165912.731000", "165912.734000", "165912.736000", "165912.739000", "165912.742000", "165912.744000", "165912.747000", "165912.750000", "165912.752000", "165912.755000", "165912.758000", "165912.760000", "165912.763000", "165912.767000", "165912.769000", "165952.742000", "165952.744000", "165952.747000", "165952.750000", "165952.752000", "165952.755000", "165952.757000", "165952.760000", "165952.763000", "165952.765000", "165952.768000", "165952.770000", "165952.773000", "165952.776000", "165952.778000", "165952.781000", "165952.783000", "165952.786000", "165952.789000", "165952.791000", "165952.794000", "165952.796000", "165952.799000", "165952.802000", "165952.804000", "165952.807000", "165952.810000", "170032.699000", "170032.702000", "170032.704000", "170032.707000", "170032.709000", "170032.712000", "170032.715000", "170032.717000", "170032.720000", "170032.722000", "170032.725000", "170032.728000", "170032.730000", "170032.733000", "170032.735000", "170032.738000", "170032.741000", "170032.743000", "170032.746000", "170032.748000", "170032.751000", "170032.754000", "170032.756000", "170032.759000", "170032.761000", "170032.764000", "170103.609000", "170103.612000", "170103.614000", "170103.617000", "170103.620000", "170103.623000", "170103.625000", "170103.628000", "170103.630000", "170103.633000", "170103.636000", "170103.638000", "170103.641000", "170103.643000", "170103.646000", "170103.649000", "170103.651000", "170103.654000", "170103.657000", "170103.659000", "170103.662000"],
      "InstanceNumber": [1, 2, 3, 4, 5, 6, 7, 8, 9, 10, 11, 12, 13, 14, 15, 16, 17, 18, 19, 20, 21, 22, 23, 24, 25, 26, 27, 28, 29, 30, 31, 32, 33, 34, 35, 36, 37, 38, 39, 40, 41, 42, 43, 44, 45, 46, 47, 48, 49, 50, 51, 52, 53, 54, 55, 56, 57, 58, 59, 60, 61, 62, 63, 64, 65, 66, 67, 68, 69, 70, 71, 72, 73, 74, 75, 76, 77, 78, 79, 80, 81, 82, 83, 84, 85, 86, 87, 88, 89, 90, 91, 92, 93, 94, 95, 96, 97, 98, 99, 100, 101, 102, 103, 104, 105, 106, 107, 108, 109, 110, 111, 112, 113, 114, 115, 116, 117, 118, 119, 120, 121, 122, 123, 124, 125, 126, 127, 128, 129, 130, 131, 132, 133, 134, 135, 136, 137, 138, 139, 140, 141, 142, 143, 144, 145, 146, 147, 148, 149, 150, 151, 152, 153, 154, 155, 156, 157, 158, 159, 160, 161, 162, 163, 164, 165, 166, 167, 168, 169, 170, 171, 172, 173, 174, 175, 176, 177, 178, 179, 180, 181, 182, 183, 184, 185, 186, 187, 188, 189, 190, 191, 192, 193, 194, 195, 196, 197, 198, 199, 200, 201, 202, 203, 204, 205, 206, 207, 208, 209, 210, 211, 212, 213, 214, 215, 216, 217, 218, 219, 220, 221, 222, 223, 224, 225, 226, 227, 228, 229, 230, 231, 232, 233, 234, 235, 236, 237, 238, 239, 240, 241, 242, 243, 244, 245, 246, 247, 248, 249, 250, 251, 252, 253, 254, 255, 256, 257, 258, 259, 260, 261, 262, 263, 264, 265, 266, 267, 268, 269, 270, 271, 272, 273, 274, 275, 276, 277, 278, 279, 280, 281, 282, 283, 284, 285, 286, 287, 288, 289, 290, 291, 292, 293, 294, 295, 296, 297, 298, 299, 300, 301, 302, 303, 304, 305, 306, 307, 308, 309, 310, 311, 312, 313, 314, 315, 316, 317, 318, 319, 320, 321, 322, 323, 324, 325, 326, 327, 328, 329, 330, 331, 332, 333, 334, 335, 336, 337, 338, 339, 340, 341, 342, 343, 344, 345, 346, 347],
      "WindowCenter": [4780.0, 4778.0, 4782.0, 4756.0, 4790.0, 4786.0, 4780.0, 4792.0, 4762.0, 4776.0, 4778.0, 4778.0, 4778.0, 4784.0, 4786.0, 4784.0, 4786.0, 4784.0, 4790.0, 4786.0, 4780.0, 4784.0, 4790.0, 4786.0, 4788.0, 4782.0, 4786.0, 4782.0, 4784.0, 4810.0, 4788.0, 4786.0, 4784.0, 4760.0, 4762.0, 4786.0, 4782.0, 4792.0, 4802.0, 4786.0, 4776.0, 4780.0, 4812.0, 4806.0, 4786.0, 4786.0, 4824.0, 4800.0, 4786.0, 4780.0, 4778.0, 4782.0, 4786.0, 4790.0, 4778.0, 4778.0, 4776.0, 4778.0, 4782.0, 4786.0, 4788.0, 4786.0, 4792.0, 4790.0, 4782.0, 4780.0, 4778.0, 4774.0, 4782.0, 4786.0, 4782.0, 4762.0, 4758.0, 4782.0, 4792.0, 4784.0, 4778.0, 4778.0, 4778.0, 4782.0, 4784.0, 4788.0, 4790.0, 4794.0, 4788.0, 4784.0, 4780.0, 4780.0, 4776.0, 4786.0, 4800.0, 4792.0, 4780.0, 4778.0, 4778.0, 4780.0, 4806.0, 4784.0, 4822.0, 4826.0, 4790.0, 4782.0, 4780.0, 4778.0, 4776.0, 4778.0, 4782.0, 4786.0, 4784.0, 4798.0, 4792.0, 4786.0, 4782.0, 4778.0, 4802.0, 4778.0, 4780.0, 4784.0, 4784.0, 4790.0, 4794.0, 4760.0, 4784.0, 4784.0, 4778.0, 4780.0, 4780.0, 4782.0, 4782.0, 4758.0, 4786.0, 4784.0, 4784.0, 4780.0, 4780.0, 4780.0, 4780.0, 4780.0, 4782.0, 4782.0, 4784.0, 4758.0, 4782.0, 4782.0, 4786.0, 4784.0, 4780.0, 4782.0, 4782.0, 4780.0, 4776.0, 4786.0, 4824.0, 4790.0, 4782.0, 4778.0, 4806.0, 4778.0, 4780.0, 4782.0, 4788.0, 4788.0, 4784.0, 4782.0, 4788.0, 4782.0, 4782.0, 4764.0, 4758.0, 4782.0, 4782.0, 4778.0, 4782.0, 4782.0, 4784.0, 4788.0, 4820.0, 4788.0, 4788.0, 4778.0, 4802.0, 4780.0, 4780.0, 4786.0, 4786.0, 4788.0, 4790.0, 4790.0, 4784.0, 4782.0, 4780.0, 4788.0, 4778.0, 4778.0, 4784.0, 4782.0, 4786.0, 4784.0, 4784.0, 4788.0, 4790.0, 4788.0, 4784.0, 4778.0, 4786.0, 4786.0, 4788.0, 4788.0, 4786.0, 4790.0, 4788.0, 4780.0, 4784.0, 4780.0, 4786.0, 4786.0, 4786.0, 4786.0, 4796.0, 4828.0, 4790.0, 4780.0, 4804.0, 4806.0, 4800.0, 4784.0, 4790.0, 4790.0, 4820.0, 4792.0, 4790.0, 4788.0, 4782.0, 4782.0, 4802.0, 4804.0, 4786.0, 4794.0, 4786.0, 4784.0, 4780.0, 4782.0, 4784.0, 4784.0, 4790.0, 4786.0, 4790.0, 4788.0, 4792.0, 4782.0, 4782.0, 4804.0, 4782.0, 4788.0, 4786.0, 4784.0, 4784.0, 4782.0, 4786.0, 4782.0, 4788.0, 4784.0, 4778.0, 4782.0, 4786.0, 4794.0, 4818.0, 4806.0, 4806.0, 4804.0, 4802.0, 4780.0, 4786.0, 4812.0, 4812.0, 4814.0, 4790.0, 4792.0, 4780.0, 4786.0, 4780.0, 4782.0, 4780.0, 4804.0, 4786.0, 4786.0, 4790.0, 4786.0, 4788.0, 4782.0, 4784.0, 4786.0, 4782.0, 4784.0, 4782.0, 4786.0, 4782.0, 4788.0, 4790.0, 4788.0, 4788.0, 4786.0, 4786.0, 4788.0, 4782.0, 4786.0, 4784.0, 4784.0, 4786.0, 4792.0, 4788.0, 4782.0, 4782.0, 4780.0, 4782.0, 4784.0, 4784.0, 4786.0, 4788.0, 4788.0, 4784.0, 4786.0, 4786.0, 4784.0, 4782.0, 4788.0, 4786.0, 4782.0, 4788.0, 4800.0, 4790.0, 4780.0, 4782.0, 4806.0, 4780.0, 4778.0, 4782.0, 4792.0, 4824.0, 4798.0, 4782.0, 4780.0, 4776.0, 4776.0, 4780.0, 4780.0, 4788.0],
