{
  "AcquisitionMatrixPE": 104,
  "AcquisitionNumber": 1,
  "AcquisitionTime": "17:44:32.975000",
  "BandwidthPerPixelPhaseEncode": 17.17,
  "BaseResolution": 104,
  "BodyPartExamined": "BRAIN",
  "CoilCombinationMethod": "Sum of Squares",
  "ConsistencyInfo": "N4_VE11C_LATEST_20160120",
  "ConversionSoftware": "dcm2niix",
  "ConversionSoftwareVersion": "v1.0.20220505",
  "DerivedVendorReportedEchoSpacing": 0.000560011,
  "DeviceSerialNumber": "167006",
  "DwellTime": 2.1e-06,
  "EchoTime": 0.037,
  "EchoTrainLength": 104,
  "EffectiveEchoSpacing": 0.000560011,
  "FlipAngle": 52,
  "HeudiconvVersion": "0.5.3.post811+g6206e14",
  "ImageComments": "Unaliased MB4/PE3/LB",
  "ImageOrientationPatientDICOM": [0.99383, 0.10984, 0.0153844, -0.0946447, 0.912188, -0.398692],
  "ImageOrientationText": "Tra>Cor(-23.3)>Sag(3.3)",
  "ImageType": [
    "ORIGINAL",
    "PRIMARY",
    "M",
    "MB",
    "ND",
    "MOSAIC"
],
  "ImagingFrequency": 123.26,
  "InPlanePhaseEncodingDirectionDICOM": "COL",
  "InstitutionAddress": "Chemin Queen-Mary 4565,Montreal,District,CA,H3W 1W5",
  "InstitutionName": "IUGM",
  "InstitutionalDepartmentName": "Department",
  "MRAcquisitionType": "2D",
  "MagneticFieldStrength": 3,
  "Manufacturer": "Siemens",
  "ManufacturersModelName": "Prisma_fit",
  "MatrixCoilMode": "SENSE",
  "Modality": "MR",
  "MultibandAccelerationFactor": 4,
  "PartialFourier": 1,
  "PatientPosition": "HFS",
  "PercentPhaseFOV": 100,
  "PercentSampling": 100,
  "PhaseEncodingDirection": "j",
  "PhaseEncodingSteps": 104,
  "PhaseResolution": 1,
  "PixelBandwidth": 2290,
  "ProcedureStepDescription": "games^mario3",
  "ProtocolName": "func_task-mario3_run-03",
  "PulseSequenceDetails": "%CustomerSeq%\\cmrr_mbep2d_bold",
  "ReceiveCoilActiveElements": "HC1-7;NC1,2",
  "ReceiveCoilName": "HeadNeck_64",
  "ReconMatrixPE": 104,
  "RepetitionTime": 1.49,
  "SAR": 0.05253,
  "ScanOptions": "FS",
  "ScanningSequence": "EP",
  "SequenceName": "epfid2d1_104",
  "SequenceVariant": "SK\\SS",
  "SeriesDescription": "func_task-mario3_run-03",
  "SeriesNumber": 16,
  "ShimSetting": [617, -7199, -8827, 602, 81, -27, -77, 8],
  "SliceThickness": 2,
  "SliceTiming": [0, 0.785, 0.0975, 0.8825, 0.1975, 0.98, 0.295, 1.0775, 0.3925, 1.1775, 0.49, 1.275, 0.5875, 1.3725, 0.6875, 0, 0.785, 0.0975, 0.8825, 0.1975, 0.98, 0.295, 1.0775, 0.3925, 1.1775, 0.49, 1.275, 0.5875, 1.3725, 0.6875, 0, 0.785, 0.0975, 0.8825, 0.1975, 0.98, 0.295, 1.0775, 0.3925, 1.1775, 0.49, 1.275, 0.5875, 1.3725, 0.6875, 0, 0.785, 0.0975, 0.8825, 0.1975, 0.98, 0.295, 1.0775, 0.3925, 1.1775, 0.49, 1.275, 0.5875, 1.3725, 0.6875],
  "SoftwareVersions": "syngo MR E11",
  "SpacingBetweenSlices": 2,
  "StationName": "MRC35049",
  "TaskName": "mario3",
  "TotalReadoutTime": 0.0576811,
  "TxRefAmp": 254.896,
  "WipMemBlock": "bf8b6f96-79c2-499c-941d-08df5dfa8664||Sequence: R017 ve11c/master r/75a17815+; Jun 28 2022 16:32:11 by eja",
  "dcmmeta_affine": [
    [-1.987660527229309, -0.18928945064544678, 0.11565130949020386, 111.3165512084961],
    [-0.2196793109178543, 1.8243764638900757, -0.7895515561103821, -45.51988983154297],
    [0.030768873170018196, 0.7973833084106445, 1.8339120149612427, -67.08881378173828],
    [0.0, 0.0, 0.0, 1.0]
],
  "dcmmeta_reorient_transform": [
    [0.0, -1.0, 0.0, 103.0],
    [1.0, 0.0, 0.0, 0.0],
    [0.0, 0.0, 1.0, 0.0],
    [0.0, 0.0, 0.0, 1.0]
],
  "dcmmeta_shape": [104, 104, 60, 427],
  "dcmmeta_slice_dim": 2,
  "dcmmeta_version": 0.6,
  "global": {
    "const": {
      "AcquisitionMatrix": [104, 0, 0, 104],
      "AngioFlag": "N",
      "BitsAllocated": 16,
      "BitsStored": 16,
      "BodyPartExamined": "BRAIN",
      "Columns": 832,
      "EchoNumbers": 1,
      "EchoTime": 37.0,
      "EchoTrainLength": 104,
      "FlipAngle": 52.0,
      "HighBit": 15,
      "ImageOrientationPatient": [0.9938302519543, 0.10983965324194, 0.01538443616611, -0.0946447258184, 0.9121882205548, -0.3986916429471],
      "ImagePositionPatient": [-746.42679693212, -886.42717421422, 294.08931134328],
      "ImageType": [
        "ORIGINAL",
        "PRIMARY",
        "M",
        "MB",
        "ND",
        "MOSAIC"
],
      "ImagedNucleus": "1H",
      "ImagingFrequency": 123.260395,
      "InPlanePhaseEncodingDirection": "COL",
      "MRAcquisitionType": "2D",
      "MagneticFieldStrength": 3.0,
      "Manufacturer": "SIEMENS",
      "ManufacturerModelName": "Prisma_fit",
      "Modality": "MR",
      "NumberOfAverages": 1.0,
      "NumberOfPhaseEncodingSteps": 104,
      "PercentPhaseFieldOfView": 100.0,
      "PercentSampling": 100.0,
      "PerformedProcedureStepStartTime": "171437.906000",
      "PhotometricInterpretation": "MONOCHROME2",
      "PixelBandwidth": 2290.0,
      "PixelRepresentation": 0,
      "PixelSpacing": [2.0, 2.0],
      "ProtocolName": "func_task-mario3_run-03",
      "RepetitionTime": 1490.0,
      "Rows": 832,
      "SAR": 0.05253002063703,
      "SamplesPerPixel": 1,
      "ScanOptions": "FS",
      "ScanningSequence": "EP",
      "SequenceName": "epfid2d1_104",
      "SequenceVariant": [
        "SK",
        "SS"
],
      "SeriesDescription": "func_task-mario3_run-03",
      "SeriesNumber": 16,
      "SeriesTime": "174540.508000",
      "SliceLocation": -37.110387941855,
      "SliceThickness": 2.0,
      "SmallestImagePixelValue": 0,
      "SoftwareVersions": "syngo MR E11",
      "SpacingBetweenSlices": 2.0000000367307,
      "SpecificCharacterSet": "ISO_IR 100",
      "StudyID": "1",
      "StudyTime": "171437.757000",
      "TransmitCoilName": "Body",
      "VariableFlipAngleFlag": "N",
      "WindowCenterWidthExplanation": "Algo1",
      "dBdt": 0.0},
    "slices": {}
  },
  "time": {
    "samples": {
      "AcquisitionNumber": [1, 2, 3, 4, 5, 6, 7, 8, 9, 10, 11, 12, 13, 14, 15, 16, 17, 18, 19, 20, 21, 22, 23, 24, 25, 26, 27, 28, 29, 30, 31, 32, 33, 34, 35, 36, 37, 38, 39, 40, 41, 42, 43, 44, 45, 46, 47, 48, 49, 50, 51, 52, 53, 54, 55, 56, 57, 58, 59, 60, 61, 62, 63, 64, 65, 66, 67, 68, 69, 70, 71, 72, 73, 74, 75, 76, 77, 78, 79, 80, 81, 82, 83, 84, 85, 86, 87, 88, 89, 90, 91, 92, 93, 94, 95, 96, 97, 98, 99, 100, 101, 102, 103, 104, 105, 106, 107, 108, 109, 110, 111, 112, 113, 114, 115, 116, 117, 118, 119, 120, 121, 122, 123, 124, 125, 126, 127, 128, 129, 130, 131, 132, 133, 134, 135, 136, 137, 138, 139, 140, 141, 142, 143, 144, 145, 146, 147, 148, 149, 150, 151, 152, 153, 154, 155, 156, 157, 158, 159, 160, 161, 162, 163, 164, 165, 166, 167, 168, 169, 170, 171, 172, 173, 174, 175, 176, 177, 178, 179, 180, 181, 182, 183, 184, 185, 186, 187, 188, 189, 190, 191, 192, 193, 194, 195, 196, 197, 198, 199, 200, 201, 202, 203, 204, 205, 206, 207, 208, 209, 210, 211, 212, 213, 214, 215, 216, 217, 218, 219, 220, 221, 222, 223, 224, 225, 226, 227, 228, 229, 230, 231, 232, 233, 234, 235, 236, 237, 238, 239, 240, 241, 242, 243, 244, 245, 246, 247, 248, 249, 250, 251, 252, 253, 254, 255, 256, 257, 258, 259, 260, 261, 262, 263, 264, 265, 266, 267, 268, 269, 270, 271, 272, 273, 274, 275, 276, 277, 278, 279, 280, 281, 282, 283, 284, 285, 286, 287, 288, 289, 290, 291, 292, 293, 294, 295, 296, 297, 298, 299, 300, 301, 302, 303, 304, 305, 306, 307, 308, 309, 310, 311, 312, 313, 314, 315, 316, 317, 318, 319, 320, 321, 322, 323, 324, 325, 326, 327, 328, 329, 330, 331, 332, 333, 334, 335, 336, 337, 338, 339, 340, 341, 342, 343, 344, 345, 346, 347, 348, 349, 350, 351, 352, 353, 354, 355, 356, 357, 358, 359, 360, 361, 362, 363, 364, 365, 366, 367, 368, 369, 370, 371, 372, 373, 374, 375, 376, 377, 378, 379, 380, 381, 382, 383, 384, 385, 386, 387, 388, 389, 390, 391, 392, 393, 394, 395, 396, 397, 398, 399, 400, 401, 402, 403, 404, 405, 406, 407, 408, 409, 410, 411, 412, 413, 414, 415, 416, 417, 418, 419, 420, 421, 422, 423, 424, 425, 426, 427],
      "AcquisitionTime": ["174432.975000", "174434.465000", "174435.955000", "174437.445000", "174438.935000", "174440.425000", "174441.915000", "174443.405000", "174444.895000", "174446.385000", "174447.875000", "174449.365000", "174450.855000", "174452.345000", "174453.835000", "174455.325000", "174456.815000", "174458.305000", "174459.795000", "174501.285000", "174502.775000", "174504.265000", "174505.755000", "174507.245000", "174508.735000", "174510.225000", "174511.715000", "174513.205000", "174514.695000", "174516.185000", "174517.675000", "174519.165000", "174520.655000", "174522.145000", "174523.635000", "174525.125000", "174526.615000", "174528.105000", "174529.595000", "174531.085000", "174532.575000", "174534.065000", "174535.555000", "174537.045000", "174538.535000", "174540.025000", "174541.515000", "174543.005000", "174544.495000", "174545.985000", "174547.475000", "174548.965000", "174550.455000", "174551.945000", "174553.435000", "174554.925000", "174556.415000", "174557.905000", "174559.395000", "174600.885000", "174602.375000", "174603.865000", "174605.355000", "174606.845000", "174608.335000", "174609.825000", "174611.315000", "174612.805000", "174614.295000", "174615.785000", "174617.275000", "174618.765000", "174620.255000", "174621.745000", "174623.235000", "174624.725000", "174626.215000", "174627.705000", "174629.195000", "174630.685000", "174632.175000", "174633.665000", "174635.155000", "174636.645000", "174638.135000", "174639.625000", "174641.115000", "174642.605000", "174644.095000", "174645.585000", "174647.075000", "174648.565000", "174650.055000", "174651.545000", "174653.035000", "174654.525000", "174656.015000", "174657.505000", "174658.995000", "174700.485000", "174701.975000", "174703.465000", "174704.955000", "174706.445000", "174707.935000", "174709.425000", "174710.915000", "174712.405000", "174713.895000", "174715.385000", "174716.875000", "174718.365000", "174719.855000", "174721.345000", "174722.835000", "174724.325000", "174725.815000", "174727.305000", "174728.795000", "174730.285000", "174731.775000", "174733.265000", "174734.755000", "174736.245000", "174737.735000", "174739.225000", "174740.715000", "174742.205000", "174743.695000", "174745.185000", "174746.675000", "174748.165000", "174749.655000", "174751.145000", "174752.635000", "174754.125000", "174755.615000", "174757.105000", "174758.595000", "174800.085000", "174801.575000", "174803.065000", "174804.555000", "174806.045000", "174807.535000", "174809.025000", "174810.515000", "174812.005000", "174813.495000", "174814.985000", "174816.475000", "174817.965000", "174819.455000", "174820.945000", "174822.435000", "174823.925000", "174825.415000", "174826.905000", "174828.395000", "174829.885000", "174831.375000", "174832.865000", "174834.355000", "174835.845000", "174837.335000", "174838.825000", "174840.315000", "174841.805000", "174843.295000", "174844.785000", "174846.275000", "174847.765000", "174849.255000", "174850.745000", "174852.235000", "174853.725000", "174855.215000", "174856.705000", "174858.195000", "174859.685000", "174901.175000", "174902.665000", "174904.155000", "174905.645000", "174907.135000", "174908.625000", "174910.115000", "174911.605000", "174913.095000", "174914.585000", "174916.075000", "174917.565000", "174919.055000", "174920.545000", "174922.035000", "174923.525000", "174925.015000", "174926.505000", "174927.995000", "174929.485000", "174930.975000", "174932.465000", "174933.955000", "174935.445000", "174936.935000", "174938.425000", "174939.915000", "174941.405000", "174942.895000", "174944.385000", "174945.875000", "174947.365000", "174948.855000", "174950.345000", "174951.835000", "174953.325000", "174954.815000", "174956.305000", "174957.795000", "174959.285000", "175000.775000", "175002.265000", "175003.755000", "175005.245000", "175006.735000", "175008.225000", "175009.715000", "175011.205000", "175012.695000", "175014.185000", "175015.675000", "175017.165000", "175018.655000", "175020.145000", "175021.635000", "175023.125000", "175024.615000", "175026.105000", "175027.595000", "175029.085000", "175030.575000", "175032.065000", "175033.555000", "175035.045000", "175036.535000", "175038.025000", "175039.515000", "175041.005000", "175042.495000", "175043.985000", "175045.475000", "175046.965000", "175048.455000", "175049.945000", "175051.435000", "175052.925000", "175054.415000", "175055.905000", "175057.395000", "175058.885000", "175100.375000", "175101.865000", "175103.355000", "175104.845000", "175106.335000", "175107.825000", "175109.315000", "175110.805000", "175112.295000", "175113.785000", "175115.275000", "175116.765000", "175118.255000", "175119.745000", "175121.235000", "175122.725000", "175124.215000", "175125.705000", "175127.195000", "175128.685000", "175130.175000", "175131.665000", "175133.155000", "175134.645000", "175136.135000", "175137.625000", "175139.115000", "175140.605000", "175142.095000", "175143.585000", "175145.075000", "175146.565000", "175148.055000", "175149.545000", "175151.035000", "175152.525000", "175154.015000", "175155.505000", "175156.995000", "175158.485000", "175159.975000", "175201.465000", "175202.955000", "175204.445000", "175205.935000", "175207.425000", "175208.915000", "175210.405000", "175211.895000", "175213.385000", "175214.875000", "175216.365000", "175217.855000", "175219.345000", "175220.835000", "175222.325000", "175223.815000", "175225.305000", "175226.795000", "175228.285000", "175229.775000", "175231.265000", "175232.755000", "175234.245000", "175235.735000", "175237.225000", "175238.715000", "175240.205000", "175241.695000", "175243.185000", "175244.675000", "175246.165000", "175247.655000", "175249.145000", "175250.635000", "175252.125000", "175253.615000", "175255.105000", "175256.595000", "175258.085000", "175259.575000", "175301.065000", "175302.555000", "175304.045000", "175305.535000", "175307.025000", "175308.515000", "175310.005000", "175311.495000", "175312.985000", "175314.475000", "175315.965000", "175317.455000", "175318.945000", "175320.435000", "175321.925000", "175323.415000", "175324.905000", "175326.395000", "175327.885000", "175329.375000", "175330.865000", "175332.355000", "175333.845000", "175335.335000", "175336.825000", "175338.315000", "175339.805000", "175341.295000", "175342.785000", "175344.275000", "175345.765000", "175347.255000", "175348.745000", "175350.235000", "175351.725000", "175353.215000", "175354.705000", "175356.195000", "175357.685000", "175359.175000", "175400.665000", "175402.155000", "175403.645000", "175405.135000", "175406.625000", "175408.115000", "175409.605000", "175411.095000", "175412.585000", "175414.075000", "175415.565000", "175417.055000", "175418.545000", "175420.035000", "175421.525000", "175423.015000", "175424.505000", "175425.995000", "175427.485000", "175428.975000", "175430.465000", "175431.955000", "175433.445000", "175434.935000", "175436.425000", "175437.915000", "175439.405000", "175440.895000", "175442.385000", "175443.875000", "175445.365000", "175446.855000", "175448.345000", "175449.835000", "175451.325000", "175452.815000", "175454.305000", "175455.795000", "175457.285000", "175458.775000", "175500.265000", "175501.755000", "175503.245000", "175504.735000", "175506.225000", "175507.715000"],
      "ContentTime": ["174540.511000", "174540.515000", "174540.519000", "174540.523000", "174540.527000", "174540.531000", "174540.535000", "174540.539000", "174540.542000", "174540.546000", "174540.549000", "174540.553000", "174540.556000", "174540.559000", "174540.563000", "174540.566000", "174540.570000", "174540.573000", "174540.584000", "174540.588000", "174600.471000", "174600.475000", "174600.478000", "174600.481000", "174600.485000", "174600.488000", "174600.501000", "174600.505000", "174600.508000", "174600.511000", "174600.515000", "174600.518000", "174600.521000", "174600.524000", "174600.528000", "174600.531000", "174600.534000", "174600.537000", "174600.541000", "174600.544000", "174620.471000", "174620.475000", "174620.478000", "174620.481000", "174620.485000", "174620.488000", "174620.492000", "174620.495000", "174620.498000", "174620.501000", "174620.505000", "174620.508000", "174620.511000", "174620.515000", "174620.518000", "174620.521000", "174620.525000", "174620.528000", "174620.531000", "174620.534000", "174640.471000", "174640.475000", "174640.478000", "174640.482000", "174640.485000", "174640.488000", "174640.499000", "174640.503000", "174640.506000", "174640.509000", "174640.513000", "174640.516000", "174640.520000", "174640.523000", "174640.526000", "174640.530000", "174640.533000", "174640.536000", "174640.540000", "174640.543000", "174720.472000", "174720.476000", "174720.479000", "174720.483000", "174720.487000", "174720.490000", "174720.494000", "174720.497000", "174720.500000", "174720.503000", "174720.507000", "174720.510000", "174720.513000", "174720.516000", "174720.520000", "174720.523000", "174720.526000", "174720.529000", "174720.533000", "174720.536000", "174720.540000", "174720.544000", "174720.547000", "174720.551000", "174720.554000", "174720.557000", "174720.560000", "174720.564000", "174720.567000", "174720.571000", "174720.574000", "174800.472000", "174800.476000", "174800.479000", "174800.483000", "174800.486000", "174800.489000", "174800.493000", "174800.496000", "174800.499000", "174800.502000", "174800.506000", "174800.509000", "174800.512000", "174800.516000", "174800.519000", "174800.522000", "174800.525000", "174800.529000", "174800.532000", "174800.535000", "174800.538000", "174800.542000", "174800.545000", "174800.548000", "174800.552000", "174800.555000", "174800.558000", "174840.471000", "174840.475000", "174840.478000", "174840.482000", "174840.485000", "174840.488000", "174840.491000", "174840.495000", "174840.498000", "174840.501000", "174840.505000", "174840.508000", "174840.512000", "174840.515000", "174840.518000", "174840.521000", "174840.525000", "174840.528000", "174840.531000", "174840.535000", "174840.538000", "174840.541000", "174840.545000", "174840.548000", "174840.551000", "174840.555000", "174840.558000", "174920.472000", "174920.476000", "174920.480000", "174920.483000", "174920.486000", "174920.489000", "174920.493000", "174920.496000", "174920.500000", "174920.503000", "174920.506000", "174920.510000", "174920.513000", "174920.516000", "174920.520000", "174920.523000", "174920.527000", "174920.530000", "174920.533000", "174920.536000", "174920.540000", "174920.543000", "174920.546000", "174920.550000", "174920.553000", "174920.556000", "174920.560000", "175000.472000", "175000.476000", "175000.479000", "175000.483000", "175000.486000", "175000.489000", "175000.492000", "175000.496000", "175000.499000", "175000.502000", "175000.505000", "175000.509000", "175000.512000", "175000.515000", "175000.519000", "175000.522000", "175000.525000", "175000.529000", "175000.532000", "175000.535000", "175000.538000", "175000.542000", "175000.545000", "175000.548000", "175000.552000", "175000.555000", "175000.558000", "175040.471000", "175040.475000", "175040.478000", "175040.482000", "175040.485000", "175040.488000", "175040.491000", "175040.495000", "175040.498000", "175040.501000", "175040.505000", "175040.508000", "175040.511000", "175040.514000", "175040.518000", "175040.521000", "175040.524000", "175040.528000", "175040.531000", "175040.534000", "175040.537000", "175040.541000", "175040.544000", "175040.547000", "175040.551000", "175040.554000", "175040.557000", "175120.471000", "175120.475000", "175120.478000", "175120.482000", "175120.488000", "175120.492000", "175120.495000", "175120.499000", "175120.503000", "175120.506000", "175120.511000", "175120.515000", "175120.518000", "175120.522000", "175120.526000", "175120.536000", "175120.555000", "175120.559000", "175120.562000", "175120.565000", "175120.569000", "175120.572000", "175120.575000", "175120.579000", "175120.582000", "175120.585000", "175200.472000", "175200.476000", "175200.480000", "175200.483000", "175200.486000", "175200.490000", "175200.493000", "175200.496000", "175200.500000", "175200.503000", "175200.506000", "175200.510000", "175200.513000", "175200.516000", "175200.519000", "175200.523000", "175200.526000", "175200.529000", "175200.533000", "175200.536000", "175200.539000", "175200.542000", "175200.546000", "175200.549000", "175200.552000", "175200.556000", "175200.559000", "175240.472000", "175240.476000", "175240.479000", "175240.483000", "175240.486000", "175240.489000", "175240.493000", "175240.496000", "175240.499000", "175240.503000", "175240.506000", "175240.509000", "175240.513000", "175240.521000", "175240.524000", "175240.528000", "175240.531000", "175240.534000", "175240.538000", "175240.541000", "175240.544000", "175240.547000", "175240.551000", "175240.554000", "175240.557000", "175240.560000", "175240.564000", "175320.471000", "175320.475000", "175320.478000", "175320.482000", "175320.485000", "175320.488000", "175320.492000", "175320.495000", "175320.499000", "175320.502000", "175320.505000", "175320.508000", "175320.512000", "175320.515000", "175320.518000", "175320.522000", "175320.525000", "175320.528000", "175320.531000", "175320.535000", "175320.546000", "175320.550000", "175320.553000", "175320.556000", "175320.559000", "175320.563000", "175320.566000", "175400.472000", "175400.476000", "175400.479000", "175400.483000", "175400.486000", "175400.489000", "175400.493000", "175400.496000", "175400.500000", "175400.503000", "175400.506000", "175400.510000", "175400.513000", "175400.516000", "175400.520000", "175400.523000", "175400.526000", "175400.530000", "175400.533000", "175400.536000", "175400.540000", "175400.543000", "175400.546000", "175400.550000", "175400.553000", "175400.556000", "175400.561000", "175440.472000", "175440.476000", "175440.479000", "175440.483000", "175440.486000", "175440.489000", "175440.492000", "175440.496000", "175440.499000", "175440.502000", "175440.506000", "175440.509000", "175440.512000", "175440.515000", "175440.519000", "175440.522000", "175440.525000", "175440.529000", "175440.532000", "175440.535000", "175440.538000", "175440.542000", "175440.545000", "175440.549000", "175440.552000", "175440.555000", "175440.559000", "175510.095000", "175510.098000", "175510.102000", "175510.105000", "175510.108000", "175510.111000", "175510.115000", "175510.118000", "175510.121000", "175510.124000", "175510.128000", "175510.131000", "175510.134000", "175510.138000", "175510.141000", "175510.144000", "175510.147000", "175510.151000", "175510.154000", "175510.157000"],
      "InstanceCreationTime": ["174540.511000", "174540.515000", "174540.519000", "174540.523000", "174540.527000", "174540.531000", "174540.535000", "174540.539000", "174540.542000", "174540.546000", "174540.549000", "174540.553000", "174540.556000", "174540.559000", "174540.563000", "174540.566000", "174540.570000", "174540.573000", "174540.584000", "174540.588000", "174600.471000", "174600.475000", "174600.478000", "174600.481000", "174600.485000", "174600.488000", "174600.501000", "174600.505000", "174600.508000", "174600.511000", "174600.515000", "174600.518000", "174600.521000", "174600.524000", "174600.528000", "174600.531000", "174600.534000", "174600.537000", "174600.541000", "174600.544000", "174620.471000", "174620.475000", "174620.478000", "174620.481000", "174620.485000", "174620.488000", "174620.492000", "174620.495000", "174620.498000", "174620.501000", "174620.505000", "174620.508000", "174620.511000", "174620.515000", "174620.518000", "174620.521000", "174620.525000", "174620.528000", "174620.531000", "174620.534000", "174640.471000", "174640.475000", "174640.478000", "174640.482000", "174640.485000", "174640.488000", "174640.499000", "174640.503000", "174640.506000", "174640.509000", "174640.513000", "174640.516000", "174640.520000", "174640.523000", "174640.526000", "174640.530000", "174640.533000", "174640.536000", "174640.540000", "174640.543000", "174720.472000", "174720.476000", "174720.479000", "174720.483000", "174720.487000", "174720.490000", "174720.494000", "174720.497000", "174720.500000", "174720.503000", "174720.507000", "174720.510000", "174720.513000", "174720.516000", "174720.520000", "174720.523000", "174720.526000", "174720.529000", "174720.533000", "174720.536000", "174720.540000", "174720.544000", "174720.547000", "174720.551000", "174720.554000", "174720.557000", "174720.560000", "174720.564000", "174720.567000", "174720.571000", "174720.574000", "174800.472000", "174800.476000", "174800.479000", "174800.483000", "174800.486000", "174800.489000", "174800.493000", "174800.496000", "174800.499000", "174800.502000", "174800.506000", "174800.509000", "174800.512000", "174800.516000", "174800.519000", "174800.522000", "174800.525000", "174800.529000", "174800.532000", "174800.535000", "174800.538000", "174800.542000", "174800.545000", "174800.548000", "174800.552000", "174800.555000", "174800.558000", "174840.471000", "174840.475000", "174840.478000", "174840.482000", "174840.485000", "174840.488000", "174840.491000", "174840.495000", "174840.498000", "174840.501000", "174840.505000", "174840.508000", "174840.512000", "174840.515000", "174840.518000", "174840.521000", "174840.525000", "174840.528000", "174840.531000", "174840.535000", "174840.538000", "174840.541000", "174840.545000", "174840.548000", "174840.551000", "174840.555000", "174840.558000", "174920.472000", "174920.476000", "174920.480000", "174920.483000", "174920.486000", "174920.489000", "174920.493000", "174920.496000", "174920.500000", "174920.503000", "174920.506000", "174920.510000", "174920.513000", "174920.516000", "174920.520000", "174920.523000", "174920.527000", "174920.530000", "174920.533000", "174920.536000", "174920.540000", "174920.543000", "174920.546000", "174920.550000", "174920.553000", "174920.556000", "174920.560000", "175000.472000", "175000.476000", "175000.479000", "175000.483000", "175000.486000", "175000.489000", "175000.492000", "175000.496000", "175000.499000", "175000.502000", "175000.505000", "175000.509000", "175000.512000", "175000.515000", "175000.519000", "175000.522000", "175000.525000", "175000.529000", "175000.532000", "175000.535000", "175000.538000", "175000.542000", "175000.545000", "175000.548000", "175000.552000", "175000.555000", "175000.558000", "175040.471000", "175040.475000", "175040.478000", "175040.482000", "175040.485000", "175040.488000", "175040.491000", "175040.495000", "175040.498000", "175040.501000", "175040.505000", "175040.508000", "175040.511000", "175040.514000", "175040.518000", "175040.521000", "175040.524000", "175040.528000", "175040.531000", "175040.534000", "175040.537000", "175040.541000", "175040.544000", "175040.547000", "175040.551000", "175040.554000", "175040.557000", "175120.471000", "175120.475000", "175120.478000", "175120.482000", "175120.488000", "175120.492000", "175120.495000", "175120.499000", "175120.503000", "175120.506000", "175120.511000", "175120.515000", "175120.518000", "175120.522000", "175120.526000", "175120.536000", "175120.555000", "175120.559000", "175120.562000", "175120.565000", "175120.569000", "175120.572000", "175120.575000", "175120.579000", "175120.582000", "175120.585000", "175200.472000", "175200.476000", "175200.480000", "175200.483000", "175200.486000", "175200.490000", "175200.493000", "175200.496000", "175200.500000", "175200.503000", "175200.506000", "175200.510000", "175200.513000", "175200.516000", "175200.519000", "175200.523000", "175200.526000", "175200.529000", "175200.533000", "175200.536000", "175200.539000", "175200.542000", "175200.546000", "175200.549000", "175200.552000", "175200.556000", "175200.559000", "175240.472000", "175240.476000", "175240.479000", "175240.483000", "175240.486000", "175240.489000", "175240.493000", "175240.496000", "175240.499000", "175240.503000", "175240.506000", "175240.509000", "175240.513000", "175240.521000", "175240.524000", "175240.528000", "175240.531000", "175240.534000", "175240.538000", "175240.541000", "175240.544000", "175240.547000", "175240.551000", "175240.554000", "175240.557000", "175240.560000", "175240.564000", "175320.471000", "175320.475000", "175320.478000", "175320.482000", "175320.485000", "175320.488000", "175320.492000", "175320.495000", "175320.499000", "175320.502000", "175320.505000", "175320.508000", "175320.512000", "175320.515000", "175320.518000", "175320.522000", "175320.525000", "175320.528000", "175320.531000", "175320.535000", "175320.546000", "175320.550000", "175320.553000", "175320.556000", "175320.559000", "175320.563000", "175320.566000", "175400.472000", "175400.476000", "175400.479000", "175400.483000", "175400.486000", "175400.489000", "175400.493000", "175400.496000", "175400.500000", "175400.503000", "175400.506000", "175400.510000", "175400.513000", "175400.516000", "175400.520000", "175400.523000", "175400.526000", "175400.530000", "175400.533000", "175400.536000", "175400.540000", "175400.543000", "175400.546000", "175400.550000", "175400.553000", "175400.556000", "175400.561000", "175440.472000", "175440.476000", "175440.479000", "175440.483000", "175440.486000", "175440.489000", "175440.492000", "175440.496000", "175440.499000", "175440.502000", "175440.506000", "175440.509000", "175440.512000", "175440.515000", "175440.519000", "175440.522000", "175440.525000", "175440.529000", "175440.532000", "175440.535000", "175440.538000", "175440.542000", "175440.545000", "175440.549000", "175440.552000", "175440.555000", "175440.559000", "175510.095000", "175510.098000", "175510.102000", "175510.105000", "175510.108000", "175510.111000", "175510.115000", "175510.118000", "175510.121000", "175510.124000", "175510.128000", "175510.131000", "175510.134000", "175510.138000", "175510.141000", "175510.144000", "175510.147000", "175510.151000", "175510.154000", "175510.157000"],
