{
  "AcquisitionMatrixPE": 104,
  "AcquisitionNumber": 1,
  "AcquisitionTime": "17:29:43.280000",
  "BandwidthPerPixelPhaseEncode": 17.17,
  "BaseResolution": 104,
  "BodyPartExamined": "BRAIN",
  "CoilCombinationMethod": "Sum of Squares",
  "ConsistencyInfo": "N4_VE11C_LATEST_20160120",
  "ConversionSoftware": "dcm2niix",
  "ConversionSoftwareVersion": "v1.0.20220505",
  "DerivedVendorReportedEchoSpacing": 0.000560011,
  "DeviceSerialNumber": "167006",
  "DwellTime": 2.1e-06,
  "EchoTime": 0.037,
  "EchoTrainLength": 104,
  "EffectiveEchoSpacing": 0.000560011,
  "FlipAngle": 52,
  "HeudiconvVersion": "0.5.3.post811+g6206e14",
  "ImageComments": "Unaliased MB4/PE3/LB",
  "ImageOrientationPatientDICOM": [0.99383, 0.10984, 0.0153844, -0.0946447, 0.912188, -0.398692],
  "ImageOrientationText": "Tra>Cor(-23.3)>Sag(3.3)",
  "ImageType": [
    "ORIGINAL",
    "PRIMARY",
    "M",
    "MB",
    "ND",
    "MOSAIC"
],
  "ImagingFrequency": 123.26,
  "InPlanePhaseEncodingDirectionDICOM": "COL",
  "InstitutionAddress": "Chemin Queen-Mary 4565,Montreal,District,CA,H3W 1W5",
  "InstitutionName": "IUGM",
  "InstitutionalDepartmentName": "Department",
  "MRAcquisitionType": "2D",
  "MagneticFieldStrength": 3,
  "Manufacturer": "Siemens",
  "ManufacturersModelName": "Prisma_fit",
  "MatrixCoilMode": "SENSE",
  "Modality": "MR",
  "MultibandAccelerationFactor": 4,
  "PartialFourier": 1,
  "PatientPosition": "HFS",
  "PercentPhaseFOV": 100,
  "PercentSampling": 100,
  "PhaseEncodingDirection": "j",
  "PhaseEncodingSteps": 104,
  "PhaseResolution": 1,
  "PixelBandwidth": 2290,
  "ProcedureStepDescription": "games^mario3",
  "ProtocolName": "func_task-mario3_run-02",
  "PulseSequenceDetails": "%CustomerSeq%\\cmrr_mbep2d_bold",
  "ReceiveCoilActiveElements": "HC1-7;NC1,2",
  "ReceiveCoilName": "HeadNeck_64",
  "ReconMatrixPE": 104,
  "RepetitionTime": 1.49,
  "SAR": 0.05253,
  "ScanOptions": "FS",
  "ScanningSequence": "EP",
  "SequenceName": "epfid2d1_104",
  "SequenceVariant": "SK\\SS",
  "SeriesDescription": "func_task-mario3_run-02",
  "SeriesNumber": 13,
  "ShimSetting": [617, -7199, -8827, 602, 81, -27, -77, 8],
  "SliceThickness": 2,
  "SliceTiming": [0, 0.7825, 0.0975, 0.88, 0.195, 0.9775, 0.2925, 1.0775, 0.39, 1.175, 0.4875, 1.2725, 0.5875, 1.37, 0.685, 0, 0.7825, 0.0975, 0.88, 0.195, 0.9775, 0.2925, 1.0775, 0.39, 1.175, 0.4875, 1.2725, 0.5875, 1.37, 0.685, 0, 0.7825, 0.0975, 0.88, 0.195, 0.9775, 0.2925, 1.0775, 0.39, 1.175, 0.4875, 1.2725, 0.5875, 1.37, 0.685, 0, 0.7825, 0.0975, 0.88, 0.195, 0.9775, 0.2925, 1.0775, 0.39, 1.175, 0.4875, 1.2725, 0.5875, 1.37, 0.685],
  "SoftwareVersions": "syngo MR E11",
  "SpacingBetweenSlices": 2,
  "StationName": "MRC35049",
  "TaskName": "mario3",
  "TotalReadoutTime": 0.0576811,
  "TxRefAmp": 254.896,
  "WipMemBlock": "ac13696c-05fe-4335-a1fc-a4daa2274112||Sequence: R017 ve11c/master r/75a17815+; Jun 28 2022 16:32:11 by eja",
  "dcmmeta_affine": [
    [-1.987660527229309, -0.18928945064544678, 0.11565130949020386, 111.3165512084961],
    [-0.2196793109178543, 1.8243764638900757, -0.7895515561103821, -45.51988983154297],
    [0.030768873170018196, 0.7973833084106445, 1.8339120149612427, -67.08881378173828],
    [0.0, 0.0, 0.0, 1.0]
],
  "dcmmeta_reorient_transform": [
    [0.0, -1.0, 0.0, 103.0],
    [1.0, 0.0, 0.0, 0.0],
    [0.0, 0.0, 1.0, 0.0],
    [0.0, 0.0, 0.0, 1.0]
],
  "dcmmeta_shape": [104, 104, 60, 390],
  "dcmmeta_slice_dim": 2,
  "dcmmeta_version": 0.6,
  "global": {
    "const": {
      "AcquisitionMatrix": [104, 0, 0, 104],
      "AngioFlag": "N",
      "BitsAllocated": 16,
      "BitsStored": 16,
      "BodyPartExamined": "BRAIN",
      "Columns": 832,
      "EchoNumbers": 1,
      "EchoTime": 37.0,
      "EchoTrainLength": 104,
      "FlipAngle": 52.0,
      "HighBit": 15,
      "ImageOrientationPatient": [0.9938302519543, 0.10983965324194, 0.01538443616611, -0.0946447258184, 0.9121882205548, -0.3986916429471],
      "ImagePositionPatient": [-746.42679693212, -886.42717421422, 294.08931134328],
      "ImageType": [
        "ORIGINAL",
        "PRIMARY",
        "M",
        "MB",
        "ND",
        "MOSAIC"
],
      "ImagedNucleus": "1H",
      "ImagingFrequency": 123.260393,
      "InPlanePhaseEncodingDirection": "COL",
      "MRAcquisitionType": "2D",
      "MagneticFieldStrength": 3.0,
      "Manufacturer": "SIEMENS",
      "ManufacturerModelName": "Prisma_fit",
      "Modality": "MR",
      "NumberOfAverages": 1.0,
      "NumberOfPhaseEncodingSteps": 104,
      "PercentPhaseFieldOfView": 100.0,
      "PercentSampling": 100.0,
      "PerformedProcedureStepStartTime": "171437.906000",
      "PhotometricInterpretation": "MONOCHROME2",
      "PixelBandwidth": 2290.0,
      "PixelRepresentation": 0,
      "PixelSpacing": [2.0, 2.0],
      "ProtocolName": "func_task-mario3_run-02",
      "RepetitionTime": 1490.0,
      "Rows": 832,
      "SAR": 0.05253002063703,
      "SamplesPerPixel": 1,
      "ScanOptions": "FS",
      "ScanningSequence": "EP",
      "SequenceName": "epfid2d1_104",
      "SequenceVariant": [
        "SK",
        "SS"
],
      "SeriesDescription": "func_task-mario3_run-02",
      "SeriesNumber": 13,
      "SeriesTime": "173109.998000",
      "SliceLocation": -37.110387941855,
      "SliceThickness": 2.0,
      "SmallestImagePixelValue": 0,
      "SoftwareVersions": "syngo MR E11",
      "SpacingBetweenSlices": 2.0000000367307,
      "SpecificCharacterSet": "ISO_IR 100",
      "StudyID": "1",
      "StudyTime": "171437.757000",
      "TransmitCoilName": "Body",
      "VariableFlipAngleFlag": "N",
      "WindowCenterWidthExplanation": "Algo1",
      "dBdt": 0.0},
    "slices": {}
  },
  "time": {
    "samples": {
      "AcquisitionNumber": [1, 2, 3, 4, 5, 6, 7, 8, 9, 10, 11, 12, 13, 14, 15, 16, 17, 18, 19, 20, 21, 22, 23, 24, 25, 26, 27, 28, 29, 30, 31, 32, 33, 34, 35, 36, 37, 38, 39, 40, 41, 42, 43, 44, 45, 46, 47, 48, 49, 50, 51, 52, 53, 54, 55, 56, 57, 58, 59, 60, 61, 62, 63, 64, 65, 66, 67, 68, 69, 70, 71, 72, 73, 74, 75, 76, 77, 78, 79, 80, 81, 82, 83, 84, 85, 86, 87, 88, 89, 90, 91, 92, 93, 94, 95, 96, 97, 98, 99, 100, 101, 102, 103, 104, 105, 106, 107, 108, 109, 110, 111, 112, 113, 114, 115, 116, 117, 118, 119, 120, 121, 122, 123, 124, 125, 126, 127, 128, 129, 130, 131, 132, 133, 134, 135, 136, 137, 138, 139, 140, 141, 142, 143, 144, 145, 146, 147, 148, 149, 150, 151, 152, 153, 154, 155, 156, 157, 158, 159, 160, 161, 162, 163, 164, 165, 166, 167, 168, 169, 170, 171, 172, 173, 174, 175, 176, 177, 178, 179, 180, 181, 182, 183, 184, 185, 186, 187, 188, 189, 190, 191, 192, 193, 194, 195, 196, 197, 198, 199, 200, 201, 202, 203, 204, 205, 206, 207, 208, 209, 210, 211, 212, 213, 214, 215, 216, 217, 218, 219, 220, 221, 222, 223, 224, 225, 226, 227, 228, 229, 230, 231, 232, 233, 234, 235, 236, 237, 238, 239, 240, 241, 242, 243, 244, 245, 246, 247, 248, 249, 250, 251, 252, 253, 254, 255, 256, 257, 258, 259, 260, 261, 262, 263, 264, 265, 266, 267, 268, 269, 270, 271, 272, 273, 274, 275, 276, 277, 278, 279, 280, 281, 282, 283, 284, 285, 286, 287, 288, 289, 290, 291, 292, 293, 294, 295, 296, 297, 298, 299, 300, 301, 302, 303, 304, 305, 306, 307, 308, 309, 310, 311, 312, 313, 314, 315, 316, 317, 318, 319, 320, 321, 322, 323, 324, 325, 326, 327, 328, 329, 330, 331, 332, 333, 334, 335, 336, 337, 338, 339, 340, 341, 342, 343, 344, 345, 346, 347, 348, 349, 350, 351, 352, 353, 354, 355, 356, 357, 358, 359, 360, 361, 362, 363, 364, 365, 366, 367, 368, 369, 370, 371, 372, 373, 374, 375, 376, 377, 378, 379, 380, 381, 382, 383, 384, 385, 386, 387, 388, 389, 390],
      "AcquisitionTime": ["172943.280000", "172944.770000", "172946.260000", "172947.750000", "172949.240000", "172950.730000", "172952.220000", "172953.710000", "172955.200000", "172956.690000", "172958.180000", "172959.670000", "173001.160000", "173002.650000", "173004.140000", "173005.630000", "173007.120000", "173008.610000", "173010.100000", "173011.590000", "173013.080000", "173014.570000", "173016.060000", "173017.550000", "173019.040000", "173020.530000", "173022.020000", "173023.510000", "173025.000000", "173026.490000", "173027.980000", "173029.470000", "173030.960000", "173032.450000", "173033.940000", "173035.430000", "173036.920000", "173038.410000", "173039.900000", "173041.390000", "173042.880000", "173044.370000", "173045.860000", "173047.350000", "173048.840000", "173050.330000", "173051.820000", "173053.310000", "173054.800000", "173056.290000", "173057.780000", "173059.270000", "173100.760000", "173102.250000", "173103.740000", "173105.230000", "173106.720000", "173108.210000", "173109.700000", "173111.190000", "173112.680000", "173114.170000", "173115.660000", "173117.150000", "173118.640000", "173120.130000", "173121.620000", "173123.110000", "173124.600000", "173126.090000", "173127.580000", "173129.070000", "173130.560000", "173132.050000", "173133.540000", "173135.030000", "173136.520000", "173138.010000", "173139.500000", "173140.990000", "173142.480000", "173143.970000", "173145.460000", "173146.950000", "173148.440000", "173149.930000", "173151.420000", "173152.910000", "173154.400000", "173155.890000", "173157.380000", "173158.870000", "173200.360000", "173201.850000", "173203.340000", "173204.830000", "173206.320000", "173207.810000", "173209.300000", "173210.790000", "173212.280000", "173213.770000", "173215.260000", "173216.750000", "173218.240000", "173219.730000", "173221.220000", "173222.710000", "173224.200000", "173225.690000", "173227.180000", "173228.670000", "173230.160000", "173231.650000", "173233.140000", "173234.630000", "173236.120000", "173237.610000", "173239.100000", "173240.590000", "173242.080000", "173243.570000", "173245.060000", "173246.550000", "173248.040000", "173249.530000", "173251.020000", "173252.510000", "173254.000000", "173255.490000", "173256.980000", "173258.470000", "173259.960000", "173301.450000", "173302.940000", "173304.430000", "173305.920000", "173307.410000", "173308.900000", "173310.390000", "173311.880000", "173313.370000", "173314.860000", "173316.350000", "173317.840000", "173319.330000", "173320.820000", "173322.310000", "173323.800000", "173325.290000", "173326.780000", "173328.270000", "173329.760000", "173331.250000", "173332.740000", "173334.230000", "173335.720000", "173337.210000", "173338.700000", "173340.190000", "173341.680000", "173343.170000", "173344.660000", "173346.150000", "173347.640000", "173349.130000", "173350.620000", "173352.110000", "173353.600000", "173355.090000", "173356.580000", "173358.070000", "173359.560000", "173401.050000", "173402.540000", "173404.030000", "173405.520000", "173407.010000", "173408.500000", "173409.990000", "173411.480000", "173412.970000", "173414.460000", "173415.950000", "173417.440000", "173418.930000", "173420.420000", "173421.910000", "173423.400000", "173424.890000", "173426.380000", "173427.870000", "173429.360000", "173430.850000", "173432.340000", "173433.830000", "173435.320000", "173436.810000", "173438.300000", "173439.790000", "173441.280000", "173442.770000", "173444.260000", "173445.750000", "173447.240000", "173448.730000", "173450.220000", "173451.710000", "173453.200000", "173454.690000", "173456.180000", "173457.670000", "173459.160000", "173500.650000", "173502.140000", "173503.630000", "173505.120000", "173506.610000", "173508.100000", "173509.590000", "173511.080000", "173512.570000", "173514.060000", "173515.550000", "173517.040000", "173518.530000", "173520.020000", "173521.510000", "173523.000000", "173524.490000", "173525.980000", "173527.470000", "173528.960000", "173530.450000", "173531.940000", "173533.430000", "173534.920000", "173536.410000", "173537.900000", "173539.390000", "173540.880000", "173542.370000", "173543.860000", "173545.350000", "173546.840000", "173548.330000", "173549.820000", "173551.310000", "173552.800000", "173554.290000", "173555.780000", "173557.270000", "173558.760000", "173600.250000", "173601.740000", "173603.230000", "173604.720000", "173606.210000", "173607.700000", "173609.190000", "173610.680000", "173612.170000", "173613.660000", "173615.150000", "173616.640000", "173618.130000", "173619.620000", "173621.110000", "173622.600000", "173624.090000", "173625.580000", "173627.070000", "173628.560000", "173630.050000", "173631.540000", "173633.030000", "173634.520000", "173636.010000", "173637.500000", "173638.990000", "173640.480000", "173641.970000", "173643.460000", "173644.950000", "173646.440000", "173647.930000", "173649.420000", "173650.910000", "173652.400000", "173653.890000", "173655.380000", "173656.870000", "173658.360000", "173659.850000", "173701.340000", "173702.830000", "173704.320000", "173705.810000", "173707.300000", "173708.790000", "173710.280000", "173711.770000", "173713.260000", "173714.750000", "173716.240000", "173717.730000", "173719.220000", "173720.710000", "173722.200000", "173723.690000", "173725.180000", "173726.670000", "173728.160000", "173729.650000", "173731.140000", "173732.630000", "173734.120000", "173735.610000", "173737.100000", "173738.590000", "173740.080000", "173741.570000", "173743.060000", "173744.550000", "173746.040000", "173747.530000", "173749.020000", "173750.510000", "173752.000000", "173753.490000", "173754.980000", "173756.470000", "173757.960000", "173759.450000", "173800.940000", "173802.430000", "173803.920000", "173805.410000", "173806.900000", "173808.390000", "173809.880000", "173811.370000", "173812.860000", "173814.350000", "173815.840000", "173817.330000", "173818.820000", "173820.310000", "173821.800000", "173823.290000", "173824.780000", "173826.270000", "173827.760000", "173829.250000", "173830.740000", "173832.230000", "173833.720000", "173835.210000", "173836.700000", "173838.190000", "173839.680000", "173841.170000", "173842.660000", "173844.150000", "173845.640000", "173847.130000", "173848.620000", "173850.110000", "173851.600000", "173853.090000", "173854.580000", "173856.070000", "173857.560000", "173859.050000", "173900.540000", "173902.030000", "173903.520000", "173905.010000", "173906.500000", "173907.990000", "173909.480000", "173910.970000", "173912.460000", "173913.950000", "173915.440000", "173916.930000", "173918.420000", "173919.910000", "173921.400000", "173922.890000"],
      "ContentTime": ["173110.003000", "173110.007000", "173110.010000", "173110.013000", "173110.017000", "173110.020000", "173110.023000", "173110.026000", "173110.030000", "173110.033000", "173110.036000", "173110.039000", "173110.043000", "173110.046000", "173110.049000", "173110.053000", "173110.063000", "173110.066000", "173110.070000", "173110.073000", "173110.076000", "173110.080000", "173110.083000", "173110.086000", "173110.089000", "173110.093000", "173110.096000", "173110.099000", "173110.102000", "173110.106000", "173110.109000", "173110.112000", "173110.115000", "173110.119000", "173110.122000", "173110.125000", "173110.129000", "173129.973000", "173129.977000", "173129.980000", "173129.983000", "173129.987000", "173129.990000", "173129.993000", "173129.996000", "173130.001000", "173130.004000", "173130.008000", "173130.011000", "173130.014000", "173130.018000", "173130.021000", "173130.024000", "173130.043000", "173130.046000", "173130.050000", "173130.053000", "173149.973000", "173149.977000", "173149.980000", "173149.983000", "173149.987000", "173149.990000", "173149.993000", "173149.996000", "173150.001000", "173150.013000", "173150.016000", "173150.019000", "173150.023000", "173150.026000", "173150.029000", "173150.032000", "173150.035000", "173150.039000", "173150.042000", "173150.045000", "173150.049000", "173229.974000", "173229.978000", "173229.981000", "173229.984000", "173229.988000", "173229.991000", "173229.994000", "173229.998000", "173230.002000", "173230.005000", "173230.009000", "173230.012000", "173230.015000", "173230.018000", "173230.021000", "173230.025000", "173230.028000", "173230.031000", "173230.035000", "173230.038000", "173230.041000", "173230.044000", "173230.048000", "173230.051000", "173230.054000", "173230.058000", "173230.061000", "173230.064000", "173230.067000", "173230.071000", "173230.074000", "173230.077000", "173230.080000", "173309.974000", "173309.978000", "173309.981000", "173309.984000", "173309.988000", "173309.991000", "173309.994000", "173309.997000", "173310.002000", "173310.005000", "173310.008000", "173310.012000", "173310.015000", "173310.018000", "173310.022000", "173310.025000", "173310.028000", "173310.031000", "173310.035000", "173310.038000", "173310.041000", "173310.044000", "173310.048000", "173310.051000", "173310.054000", "173310.058000", "173310.061000", "173349.973000", "173349.977000", "173349.980000", "173349.983000", "173349.986000", "173349.990000", "173349.993000", "173349.996000", "173350.001000", "173350.004000", "173350.007000", "173350.010000", "173350.014000", "173350.017000", "173350.020000", "173350.024000", "173350.027000", "173350.030000", "173350.033000", "173350.037000", "173350.040000", "173350.043000", "173350.046000", "173350.050000", "173350.053000", "173350.056000", "173350.059000", "173429.987000", "173429.991000", "173429.994000", "173429.997000", "173430.002000", "173430.005000", "173430.008000", "173430.011000", "173430.015000", "173430.018000", "173430.021000", "173430.025000", "173430.028000", "173430.031000", "173430.034000", "173430.038000", "173430.041000", "173430.044000", "173430.048000", "173430.051000", "173430.054000", "173430.057000", "173430.061000", "173430.064000", "173430.067000", "173430.071000", "173509.974000", "173509.978000", "173509.981000", "173509.984000", "173509.988000", "173509.991000", "173509.994000", "173509.997000", "173510.002000", "173510.005000", "173510.022000", "173510.025000", "173510.028000", "173510.032000", "173510.035000", "173510.038000", "173510.042000", "173510.045000", "173510.049000", "173510.052000", "173510.055000", "173510.058000", "173510.062000", "173510.065000", "173510.068000", "173510.072000", "173510.075000", "173549.973000", "173549.977000", "173549.980000", "173549.991000", "173549.995000", "173549.998000", "173550.002000", "173550.006000", "173550.009000", "173550.012000", "173550.016000", "173550.019000", "173550.022000", "173550.025000", "173550.029000", "173550.032000", "173550.035000", "173550.039000", "173550.042000", "173550.045000", "173550.048000", "173550.052000", "173550.055000", "173550.058000", "173550.062000", "173550.065000", "173550.068000", "173629.973000", "173629.977000", "173629.980000", "173629.983000", "173629.987000", "173629.990000", "173629.993000", "173629.996000", "173630.001000", "173630.004000", "173630.007000", "173630.011000", "173630.014000", "173630.017000", "173630.020000", "173630.024000", "173630.044000", "173630.048000", "173630.051000", "173630.054000", "173630.057000", "173630.061000", "173630.064000", "173630.067000", "173630.070000", "173630.074000", "173630.077000", "173709.974000", "173709.978000", "173709.981000", "173709.985000", "173709.988000", "173709.991000", "173709.995000", "173709.998000", "173710.002000", "173710.006000", "173710.009000", "173710.012000", "173710.016000", "173710.019000", "173710.022000", "173710.025000", "173710.029000", "173710.032000", "173710.036000", "173710.039000", "173710.042000", "173710.045000", "173710.049000", "173710.052000", "173710.055000", "173710.059000", "173710.062000", "173749.974000", "173749.978000", "173749.981000", "173749.984000", "173749.988000", "173749.991000", "173749.994000", "173749.998000", "173750.002000", "173750.005000", "173750.009000", "173750.012000", "173750.015000", "173750.018000", "173750.022000", "173750.025000", "173750.028000", "173750.032000", "173750.035000", "173750.038000", "173750.041000", "173750.045000", "173750.048000", "173750.051000", "173750.055000", "173750.058000", "173750.061000", "173829.973000", "173829.977000", "173829.980000", "173829.983000", "173829.987000", "173829.990000", "173829.993000", "173829.997000", "173830.001000", "173830.004000", "173830.008000", "173830.011000", "173830.014000", "173830.018000", "173830.021000", "173830.024000", "173830.027000", "173830.031000", "173830.034000", "173830.037000", "173830.041000", "173830.044000", "173830.047000", "173830.051000", "173830.054000", "173830.057000", "173830.060000", "173909.974000", "173909.978000", "173909.981000", "173909.984000", "173909.988000", "173909.991000", "173909.994000", "173910.009000", "173910.013000", "173910.016000", "173910.019000", "173910.022000", "173910.026000", "173910.029000", "173910.032000", "173910.036000", "173910.039000", "173910.042000", "173910.045000", "173910.049000", "173910.052000", "173910.055000", "173910.060000", "173910.064000", "173910.067000", "173910.070000", "173925.159000", "173925.162000", "173925.166000", "173925.169000", "173925.172000", "173925.176000", "173925.179000", "173925.182000", "173925.185000", "173925.189000", "173925.192000"],
      "InstanceCreationTime": ["173110.003000", "173110.007000", "173110.010000", "173110.013000", "173110.017000", "173110.020000", "173110.023000", "173110.026000", "173110.030000", "173110.033000", "173110.036000", "173110.039000", "173110.043000", "173110.046000", "173110.049000", "173110.053000", "173110.063000", "173110.066000", "173110.070000", "173110.073000", "173110.076000", "173110.080000", "173110.083000", "173110.086000", "173110.089000", "173110.093000", "173110.096000", "173110.099000", "173110.102000", "173110.106000", "173110.109000", "173110.112000", "173110.115000", "173110.119000", "173110.122000", "173110.125000", "173110.129000", "173129.973000", "173129.977000", "173129.980000", "173129.983000", "173129.987000", "173129.990000", "173129.993000", "173129.996000", "173130.001000", "173130.004000", "173130.008000", "173130.011000", "173130.014000", "173130.018000", "173130.021000", "173130.024000", "173130.043000", "173130.046000", "173130.050000", "173130.053000", "173149.973000", "173149.977000", "173149.980000", "173149.983000", "173149.987000", "173149.990000", "173149.993000", "173149.996000", "173150.001000", "173150.013000", "173150.016000", "173150.019000", "173150.023000", "173150.026000", "173150.029000", "173150.032000", "173150.035000", "173150.039000", "173150.042000", "173150.045000", "173150.049000", "173229.974000", "173229.978000", "173229.981000", "173229.984000", "173229.988000", "173229.991000", "173229.994000", "173229.998000", "173230.002000", "173230.005000", "173230.009000", "173230.012000", "173230.015000", "173230.018000", "173230.021000", "173230.025000", "173230.028000", "173230.031000", "173230.035000", "173230.038000", "173230.041000", "173230.044000", "173230.048000", "173230.051000", "173230.054000", "173230.058000", "173230.061000", "173230.064000", "173230.067000", "173230.071000", "173230.074000", "173230.077000", "173230.080000", "173309.974000", "173309.978000", "173309.981000", "173309.984000", "173309.988000", "173309.991000", "173309.994000", "173309.997000", "173310.002000", "173310.005000", "173310.008000", "173310.012000", "173310.015000", "173310.018000", "173310.022000", "173310.025000", "173310.028000", "173310.031000", "173310.035000", "173310.038000", "173310.041000", "173310.044000", "173310.048000", "173310.051000", "173310.054000", "173310.058000", "173310.061000", "173349.973000", "173349.977000", "173349.980000", "173349.983000", "173349.986000", "173349.990000", "173349.993000", "173349.996000", "173350.001000", "173350.004000", "173350.007000", "173350.010000", "173350.014000", "173350.017000", "173350.020000", "173350.024000", "173350.027000", "173350.030000", "173350.033000", "173350.037000", "173350.040000", "173350.043000", "173350.046000", "173350.050000", "173350.053000", "173350.056000", "173350.059000", "173429.987000", "173429.991000", "173429.994000", "173429.997000", "173430.002000", "173430.005000", "173430.008000", "173430.011000", "173430.015000", "173430.018000", "173430.021000", "173430.025000", "173430.028000", "173430.031000", "173430.034000", "173430.038000", "173430.041000", "173430.044000", "173430.048000", "173430.051000", "173430.054000", "173430.057000", "173430.061000", "173430.064000", "173430.067000", "173430.071000", "173509.974000", "173509.978000", "173509.981000", "173509.984000", "173509.988000", "173509.991000", "173509.994000", "173509.997000", "173510.002000", "173510.005000", "173510.022000", "173510.025000", "173510.028000", "173510.032000", "173510.035000", "173510.038000", "173510.042000", "173510.045000", "173510.049000", "173510.052000", "173510.055000", "173510.058000", "173510.062000", "173510.065000", "173510.068000", "173510.072000", "173510.075000", "173549.973000", "173549.977000", "173549.980000", "173549.991000", "173549.995000", "173549.998000", "173550.002000", "173550.006000", "173550.009000", "173550.012000", "173550.016000", "173550.019000", "173550.022000", "173550.025000", "173550.029000", "173550.032000", "173550.035000", "173550.039000", "173550.042000", "173550.045000", "173550.048000", "173550.052000", "173550.055000", "173550.058000", "173550.062000", "173550.065000", "173550.068000", "173629.973000", "173629.977000", "173629.980000", "173629.983000", "173629.987000", "173629.990000", "173629.993000", "173629.996000", "173630.001000", "173630.004000", "173630.007000", "173630.011000", "173630.014000", "173630.017000", "173630.020000", "173630.024000", "173630.044000", "173630.048000", "173630.051000", "173630.054000", "173630.057000", "173630.061000", "173630.064000", "173630.067000", "173630.070000", "173630.074000", "173630.077000", "173709.974000", "173709.978000", "173709.981000", "173709.985000", "173709.988000", "173709.991000", "173709.995000", "173709.998000", "173710.002000", "173710.006000", "173710.009000", "173710.012000", "173710.016000", "173710.019000", "173710.022000", "173710.025000", "173710.029000", "173710.032000", "173710.036000", "173710.039000", "173710.042000", "173710.045000", "173710.049000", "173710.052000", "173710.055000", "173710.059000", "173710.062000", "173749.974000", "173749.978000", "173749.981000", "173749.984000", "173749.988000", "173749.991000", "173749.994000", "173749.998000", "173750.002000", "173750.005000", "173750.009000", "173750.012000", "173750.015000", "173750.018000", "173750.022000", "173750.025000", "173750.028000", "173750.032000", "173750.035000", "173750.038000", "173750.041000", "173750.045000", "173750.048000", "173750.051000", "173750.055000", "173750.058000", "173750.061000", "173829.973000", "173829.977000", "173829.980000", "173829.983000", "173829.987000", "173829.990000", "173829.993000", "173829.997000", "173830.001000", "173830.004000", "173830.008000", "173830.011000", "173830.014000", "173830.018000", "173830.021000", "173830.024000", "173830.027000", "173830.031000", "173830.034000", "173830.037000", "173830.041000", "173830.044000", "173830.047000", "173830.051000", "173830.054000", "173830.057000", "173830.060000", "173909.974000", "173909.978000", "173909.981000", "173909.984000", "173909.988000", "173909.991000", "173909.994000", "173910.009000", "173910.013000", "173910.016000", "173910.019000", "173910.022000", "173910.026000", "173910.029000", "173910.032000", "173910.036000", "173910.039000", "173910.042000", "173910.045000", "173910.049000", "173910.052000", "173910.055000", "173910.060000", "173910.064000", "173910.067000", "173910.070000", "173925.159000", "173925.162000", "173925.166000", "173925.169000", "173925.172000", "173925.176000", "173925.179000", "173925.182000", "173925.185000", "173925.189000", "173925.192000"],
      "InstanceNumber": [1, 2, 3, 4, 5, 6, 7, 8, 9, 10, 11, 12, 13, 14, 15, 16, 17, 18, 19, 20, 21, 22, 23, 24, 25, 26, 27, 28, 29, 30, 31, 32, 33, 34, 35, 36, 37, 38, 39, 40, 41, 42, 43, 44, 45, 46, 47, 48, 49, 50, 51, 52, 53, 54, 55, 56, 57, 58, 59, 60, 61, 62, 63, 64, 65, 66, 67, 68, 69, 70, 71, 72, 73, 74, 75, 76, 77, 78, 79, 80, 81, 82, 83, 84, 85, 86, 87, 88, 89, 90, 91, 92, 93, 94, 95, 96, 97, 98, 99, 100, 101, 102, 103, 104, 105, 106, 107, 108, 109, 110, 111, 112, 113, 114, 115, 116, 117, 118, 119, 120, 121, 122, 123, 124, 125, 126, 127, 128, 129, 130, 131, 132, 133, 134, 135, 136, 137, 138, 139, 140, 141, 142, 143, 144, 145, 146, 147, 148, 149, 150, 151, 152, 153, 154, 155, 156, 157, 158, 159, 160, 161, 162, 163, 164, 165, 166, 167, 168, 169, 170, 171, 172, 173, 174, 175, 176, 177, 178, 179, 180, 181, 182, 183, 184, 185, 186, 187, 188, 189, 190, 191, 192, 193, 194, 195, 196, 197, 198, 199, 200, 201, 202, 203, 204, 205, 206, 207, 208, 209, 210, 211, 212, 213, 214, 215, 216, 217, 218, 219, 220, 221, 222, 223, 224, 225, 226, 227, 228, 229, 230, 231, 232, 233, 234, 235, 236, 237, 238, 239, 240, 241, 242, 243, 244, 245, 246, 247, 248, 249, 250, 251, 252, 253, 254, 255, 256, 257, 258, 259, 260, 261, 262, 263, 264, 265, 266, 267, 268, 269, 270, 271, 272, 273, 274, 275, 276, 277, 278, 279, 280, 281, 282, 283, 284, 285, 286, 287, 288, 289, 290, 291, 292, 293, 294, 295, 296, 297, 298, 299, 300, 301, 302, 303, 304, 305, 306, 307, 308, 309, 310, 311, 312, 313, 314, 315, 316, 317, 318, 319, 320, 321, 322, 323, 324, 325, 326, 327, 328, 329, 330, 331, 332, 333, 334, 335, 336, 337, 338, 339, 340, 341, 342, 343, 344, 345, 346, 347, 348, 349, 350, 351, 352, 353, 354, 355, 356, 357, 358, 359, 360, 361, 362, 363, 364, 365, 366, 367, 368, 369, 370, 371, 372, 373, 374, 375, 376, 377, 378, 379, 380, 381, 382, 383, 384, 385, 386, 387, 388, 389, 390],
