{
  "AcquisitionMatrixPE": 104,
  "AcquisitionNumber": 1,
  "AcquisitionTime": "17:29:43.280000",
  "BandwidthPerPixelPhaseEncode": 17.17,
  "BaseResolution": 104,
  "BodyPartExamined": "BRAIN",
  "CoilCombinationMethod": "Sum of Squares",
  "ConsistencyInfo": "N4_VE11C_LATEST_20160120",
  "ConversionSoftware": "dcm2niix",
  "ConversionSoftwareVersion": "v1.0.20220505",
  "DerivedVendorReportedEchoSpacing": 0.000560011,
  "DeviceSerialNumber": "167006",
  "DwellTime": 2.1e-06,
  "EchoTime": 0.037,
  "EchoTime1": 0.037,
  "EchoTime2": 0.001,
  "EchoTrainLength": 104,
  "EffectiveEchoSpacing": 0.000560011,
  "FlipAngle": 52,
  "HeudiconvVersion": "0.5.3.post811+g6206e14",
  "ImageComments": "Unaliased MB4/PE3/LB",
  "ImageOrientationPatientDICOM": [0.99383, 0.10984, 0.0153844, -0.0946447, 0.912188, -0.398692],
  "ImageOrientationText": "Tra>Cor(-23.3)>Sag(3.3)",
  "ImageType": [
    "ORIGINAL",
    "PRIMARY",
    "P",
    "MB",
    "ND",
    "MOSAIC",
    "PHASE"
],
  "ImagingFrequency": 123.26,
  "InPlanePhaseEncodingDirectionDICOM": "COL",
  "InstitutionAddress": "Chemin Queen-Mary 4565,Montreal,District,CA,H3W 1W5",
  "InstitutionName": "IUGM",
  "InstitutionalDepartmentName": "Department",
  "MRAcquisitionType": "2D",
  "MagneticFieldStrength": 3,
  "Manufacturer": "Siemens",
  "ManufacturersModelName": "Prisma_fit",
  "MatrixCoilMode": "SENSE",
  "Modality": "MR",
  "MultibandAccelerationFactor": 4,
  "PartialFourier": 1,
  "PatientPosition": "HFS",
  "PercentPhaseFOV": 100,
  "PercentSampling": 100,
  "PhaseEncodingDirection": "j",
  "PhaseEncodingSteps": 104,
  "PhaseResolution": 1,
  "PixelBandwidth": 2290,
  "ProcedureStepDescription": "games^mario3",
  "ProtocolName": "func_task-mario3_run-02",
  "PulseSequenceDetails": "%CustomerSeq%\\cmrr_mbep2d_bold",
  "ReceiveCoilActiveElements": "HC1-7;NC1,2",
  "ReceiveCoilName": "HeadNeck_64",
  "ReconMatrixPE": 104,
  "RepetitionTime": 1.49,
  "SAR": 0.05253,
  "ScanOptions": "FS",
  "ScanningSequence": "EP",
  "SequenceName": "epfid2d1_104",
  "SequenceVariant": "SK\\SS",
  "SeriesDescription": "func_task-mario3_run-02",
  "SeriesNumber": 14,
  "ShimSetting": [617, -7199, -8827, 602, 81, -27, -77, 8],
  "SliceThickness": 2,
  "SliceTiming": [0, 0.7825, 0.0975, 0.88, 0.195, 0.9775, 0.2925, 1.0775, 0.39, 1.175, 0.4875, 1.2725, 0.5875, 1.37, 0.685, 0, 0.7825, 0.0975, 0.88, 0.195, 0.9775, 0.2925, 1.0775, 0.39, 1.175, 0.4875, 1.2725, 0.5875, 1.37, 0.685, 0, 0.7825, 0.0975, 0.88, 0.195, 0.9775, 0.2925, 1.0775, 0.39, 1.175, 0.4875, 1.2725, 0.5875, 1.37, 0.685, 0, 0.7825, 0.0975, 0.88, 0.195, 0.9775, 0.2925, 1.0775, 0.39, 1.175, 0.4875, 1.2725, 0.5875, 1.37, 0.685],
  "SoftwareVersions": "syngo MR E11",
  "SpacingBetweenSlices": 2,
  "StationName": "MRC35049",
  "TaskName": "mario3",
  "TotalReadoutTime": 0.0576811,
  "TxRefAmp": 254.896,
  "WipMemBlock": "ac13696c-05fe-4335-a1fc-a4daa2274112||Sequence: R017 ve11c/master r/75a17815+; Jun 28 2022 16:32:11 by eja",
  "dcmmeta_affine": [
    [-1.987660527229309, -0.18928945064544678, 0.11565130949020386, 111.3165512084961],
    [-0.2196793109178543, 1.8243764638900757, -0.7895515561103821, -45.51988983154297],
    [0.030768873170018196, 0.7973833084106445, 1.8339120149612427, -67.08881378173828],
    [0.0, 0.0, 0.0, 1.0]
],
  "dcmmeta_reorient_transform": [
    [0.0, -1.0, 0.0, 103.0],
    [1.0, 0.0, 0.0, 0.0],
    [0.0, 0.0, 1.0, 0.0],
    [0.0, 0.0, 0.0, 1.0]
],
  "dcmmeta_shape": [104, 104, 60, 390],
  "dcmmeta_slice_dim": 2,
  "dcmmeta_version": 0.6,
  "global": {
    "const": {
      "AcquisitionMatrix": [104, 0, 0, 104],
      "AngioFlag": "N",
      "BitsAllocated": 16,
      "BitsStored": 16,
      "BodyPartExamined": "BRAIN",
      "Columns": 832,
      "EchoNumbers": 1,
      "EchoTime": 37.0,
      "EchoTrainLength": 104,
      "FlipAngle": 52.0,
      "HighBit": 15,
      "ImageOrientationPatient": [0.9938302519543, 0.10983965324194, 0.01538443616611, -0.0946447258184, 0.9121882205548, -0.3986916429471],
      "ImagePositionPatient": [-746.42679693212, -886.42717421422, 294.08931134328],
      "ImageType": [
        "ORIGINAL",
        "PRIMARY",
        "P",
        "MB",
        "ND",
        "MOSAIC"
],
      "ImagedNucleus": "1H",
      "ImagingFrequency": 123.260393,
      "InPlanePhaseEncodingDirection": "COL",
      "LargestImagePixelValue": 4095,
      "MRAcquisitionType": "2D",
      "MagneticFieldStrength": 3.0,
      "Manufacturer": "SIEMENS",
      "ManufacturerModelName": "Prisma_fit",
      "Modality": "MR",
      "NumberOfAverages": 1.0,
      "NumberOfPhaseEncodingSteps": 104,
      "PercentPhaseFieldOfView": 100.0,
      "PercentSampling": 100.0,
      "PerformedProcedureStepStartTime": "171437.906000",
      "PhotometricInterpretation": "MONOCHROME2",
      "PixelBandwidth": 2290.0,
      "PixelRepresentation": 0,
      "PixelSpacing": [2.0, 2.0],
      "ProtocolName": "func_task-mario3_run-02",
      "RepetitionTime": 1490.0,
      "RescaleIntercept": -4096.0,
      "RescaleSlope": 2.0,
      "RescaleType": "US",
      "Rows": 832,
      "SAR": 0.05253002063703,
      "SamplesPerPixel": 1,
      "ScanOptions": "FS",
      "ScanningSequence": "EP",
      "SequenceName": "epfid2d1_104",
      "SequenceVariant": [
        "SK",
        "SS"
],
      "SeriesDescription": "func_task-mario3_run-02",
      "SeriesNumber": 14,
      "SeriesTime": "173110.175000",
      "SliceLocation": -37.110387941855,
      "SliceThickness": 2.0,
      "SmallestImagePixelValue": 0,
      "SoftwareVersions": "syngo MR E11",
      "SpacingBetweenSlices": 2.0000000367307,
      "SpecificCharacterSet": "ISO_IR 100",
      "StudyID": "1",
      "StudyTime": "171437.757000",
      "TransmitCoilName": "Body",
      "VariableFlipAngleFlag": "N",
      "WindowCenterWidthExplanation": "Algo1",
      "dBdt": 0.0},
    "slices": {}
  },
  "time": {
    "samples": {
      "AcquisitionNumber": [1, 2, 3, 4, 5, 6, 7, 8, 9, 10, 11, 12, 13, 14, 15, 16, 17, 18, 19, 20, 21, 22, 23, 24, 25, 26, 27, 28, 29, 30, 31, 32, 33, 34, 35, 36, 37, 38, 39, 40, 41, 42, 43, 44, 45, 46, 47, 48, 49, 50, 51, 52, 53, 54, 55, 56, 57, 58, 59, 60, 61, 62, 63, 64, 65, 66, 67, 68, 69, 70, 71, 72, 73, 74, 75, 76, 77, 78, 79, 80, 81, 82, 83, 84, 85, 86, 87, 88, 89, 90, 91, 92, 93, 94, 95, 96, 97, 98, 99, 100, 101, 102, 103, 104, 105, 106, 107, 108, 109, 110, 111, 112, 113, 114, 115, 116, 117, 118, 119, 120, 121, 122, 123, 124, 125, 126, 127, 128, 129, 130, 131, 132, 133, 134, 135, 136, 137, 138, 139, 140, 141, 142, 143, 144, 145, 146, 147, 148, 149, 150, 151, 152, 153, 154, 155, 156, 157, 158, 159, 160, 161, 162, 163, 164, 165, 166, 167, 168, 169, 170, 171, 172, 173, 174, 175, 176, 177, 178, 179, 180, 181, 182, 183, 184, 185, 186, 187, 188, 189, 190, 191, 192, 193, 194, 195, 196, 197, 198, 199, 200, 201, 202, 203, 204, 205, 206, 207, 208, 209, 210, 211, 212, 213, 214, 215, 216, 217, 218, 219, 220, 221, 222, 223, 224, 225, 226, 227, 228, 229, 230, 231, 232, 233, 234, 235, 236, 237, 238, 239, 240, 241, 242, 243, 244, 245, 246, 247, 248, 249, 250, 251, 252, 253, 254, 255, 256, 257, 258, 259, 260, 261, 262, 263, 264, 265, 266, 267, 268, 269, 270, 271, 272, 273, 274, 275, 276, 277, 278, 279, 280, 281, 282, 283, 284, 285, 286, 287, 288, 289, 290, 291, 292, 293, 294, 295, 296, 297, 298, 299, 300, 301, 302, 303, 304, 305, 306, 307, 308, 309, 310, 311, 312, 313, 314, 315, 316, 317, 318, 319, 320, 321, 322, 323, 324, 325, 326, 327, 328, 329, 330, 331, 332, 333, 334, 335, 336, 337, 338, 339, 340, 341, 342, 343, 344, 345, 346, 347, 348, 349, 350, 351, 352, 353, 354, 355, 356, 357, 358, 359, 360, 361, 362, 363, 364, 365, 366, 367, 368, 369, 370, 371, 372, 373, 374, 375, 376, 377, 378, 379, 380, 381, 382, 383, 384, 385, 386, 387, 388, 389, 390],
      "AcquisitionTime": ["172943.280000", "172944.770000", "172946.260000", "172947.750000", "172949.240000", "172950.730000", "172952.220000", "172953.710000", "172955.200000", "172956.690000", "172958.180000", "172959.670000", "173001.160000", "173002.650000", "173004.140000", "173005.630000", "173007.120000", "173008.610000", "173010.100000", "173011.590000", "173013.080000", "173014.570000", "173016.060000", "173017.550000", "173019.040000", "173020.530000", "173022.020000", "173023.510000", "173025.000000", "173026.490000", "173027.980000", "173029.470000", "173030.960000", "173032.450000", "173033.940000", "173035.430000", "173036.920000", "173038.410000", "173039.900000", "173041.390000", "173042.880000", "173044.370000", "173045.860000", "173047.350000", "173048.840000", "173050.330000", "173051.820000", "173053.310000", "173054.800000", "173056.290000", "173057.780000", "173059.270000", "173100.760000", "173102.250000", "173103.740000", "173105.230000", "173106.720000", "173108.210000", "173109.700000", "173111.190000", "173112.680000", "173114.170000", "173115.660000", "173117.150000", "173118.640000", "173120.130000", "173121.620000", "173123.110000", "173124.600000", "173126.090000", "173127.580000", "173129.070000", "173130.560000", "173132.050000", "173133.540000", "173135.030000", "173136.520000", "173138.010000", "173139.500000", "173140.990000", "173142.480000", "173143.970000", "173145.460000", "173146.950000", "173148.440000", "173149.930000", "173151.420000", "173152.910000", "173154.400000", "173155.890000", "173157.380000", "173158.870000", "173200.360000", "173201.850000", "173203.340000", "173204.830000", "173206.320000", "173207.810000", "173209.300000", "173210.790000", "173212.280000", "173213.770000", "173215.260000", "173216.750000", "173218.240000", "173219.730000", "173221.220000", "173222.710000", "173224.200000", "173225.690000", "173227.180000", "173228.670000", "173230.160000", "173231.650000", "173233.140000", "173234.630000", "173236.120000", "173237.610000", "173239.100000", "173240.590000", "173242.080000", "173243.570000", "173245.060000", "173246.550000", "173248.040000", "173249.530000", "173251.020000", "173252.510000", "173254.000000", "173255.490000", "173256.980000", "173258.470000", "173259.960000", "173301.450000", "173302.940000", "173304.430000", "173305.920000", "173307.410000", "173308.900000", "173310.390000", "173311.880000", "173313.370000", "173314.860000", "173316.350000", "173317.840000", "173319.330000", "173320.820000", "173322.310000", "173323.800000", "173325.290000", "173326.780000", "173328.270000", "173329.760000", "173331.250000", "173332.740000", "173334.230000", "173335.720000", "173337.210000", "173338.700000", "173340.190000", "173341.680000", "173343.170000", "173344.660000", "173346.150000", "173347.640000", "173349.130000", "173350.620000", "173352.110000", "173353.600000", "173355.090000", "173356.580000", "173358.070000", "173359.560000", "173401.050000", "173402.540000", "173404.030000", "173405.520000", "173407.010000", "173408.500000", "173409.990000", "173411.480000", "173412.970000", "173414.460000", "173415.950000", "173417.440000", "173418.930000", "173420.420000", "173421.910000", "173423.400000", "173424.890000", "173426.380000", "173427.870000", "173429.360000", "173430.850000", "173432.340000", "173433.830000", "173435.320000", "173436.810000", "173438.300000", "173439.790000", "173441.280000", "173442.770000", "173444.260000", "173445.750000", "173447.240000", "173448.730000", "173450.220000", "173451.710000", "173453.200000", "173454.690000", "173456.180000", "173457.670000", "173459.160000", "173500.650000", "173502.140000", "173503.630000", "173505.120000", "173506.610000", "173508.100000", "173509.590000", "173511.080000", "173512.570000", "173514.060000", "173515.550000", "173517.040000", "173518.530000", "173520.020000", "173521.510000", "173523.000000", "173524.490000", "173525.980000", "173527.470000", "173528.960000", "173530.450000", "173531.940000", "173533.430000", "173534.920000", "173536.410000", "173537.900000", "173539.390000", "173540.880000", "173542.370000", "173543.860000", "173545.350000", "173546.840000", "173548.330000", "173549.820000", "173551.310000", "173552.800000", "173554.290000", "173555.780000", "173557.270000", "173558.760000", "173600.250000", "173601.740000", "173603.230000", "173604.720000", "173606.210000", "173607.700000", "173609.190000", "173610.680000", "173612.170000", "173613.660000", "173615.150000", "173616.640000", "173618.130000", "173619.620000", "173621.110000", "173622.600000", "173624.090000", "173625.580000", "173627.070000", "173628.560000", "173630.050000", "173631.540000", "173633.030000", "173634.520000", "173636.010000", "173637.500000", "173638.990000", "173640.480000", "173641.970000", "173643.460000", "173644.950000", "173646.440000", "173647.930000", "173649.420000", "173650.910000", "173652.400000", "173653.890000", "173655.380000", "173656.870000", "173658.360000", "173659.850000", "173701.340000", "173702.830000", "173704.320000", "173705.810000", "173707.300000", "173708.790000", "173710.280000", "173711.770000", "173713.260000", "173714.750000", "173716.240000", "173717.730000", "173719.220000", "173720.710000", "173722.200000", "173723.690000", "173725.180000", "173726.670000", "173728.160000", "173729.650000", "173731.140000", "173732.630000", "173734.120000", "173735.610000", "173737.100000", "173738.590000", "173740.080000", "173741.570000", "173743.060000", "173744.550000", "173746.040000", "173747.530000", "173749.020000", "173750.510000", "173752.000000", "173753.490000", "173754.980000", "173756.470000", "173757.960000", "173759.450000", "173800.940000", "173802.430000", "173803.920000", "173805.410000", "173806.900000", "173808.390000", "173809.880000", "173811.370000", "173812.860000", "173814.350000", "173815.840000", "173817.330000", "173818.820000", "173820.310000", "173821.800000", "173823.290000", "173824.780000", "173826.270000", "173827.760000", "173829.250000", "173830.740000", "173832.230000", "173833.720000", "173835.210000", "173836.700000", "173838.190000", "173839.680000", "173841.170000", "173842.660000", "173844.150000", "173845.640000", "173847.130000", "173848.620000", "173850.110000", "173851.600000", "173853.090000", "173854.580000", "173856.070000", "173857.560000", "173859.050000", "173900.540000", "173902.030000", "173903.520000", "173905.010000", "173906.500000", "173907.990000", "173909.480000", "173910.970000", "173912.460000", "173913.950000", "173915.440000", "173916.930000", "173918.420000", "173919.910000", "173921.400000", "173922.890000"],
      "ContentTime": ["173110.177000", "173110.180000", "173110.182000", "173110.185000", "173110.187000", "173110.190000", "173110.192000", "173110.195000", "173110.197000", "173110.200000", "173110.202000", "173110.213000", "173110.215000", "173110.218000", "173110.221000", "173110.223000", "173110.226000", "173110.228000", "173110.230000", "173110.233000", "173110.235000", "173110.238000", "173110.240000", "173110.243000", "173110.245000", "173110.248000", "173110.250000", "173110.252000", "173110.255000", "173110.257000", "173110.260000", "173110.262000", "173110.265000", "173110.267000", "173110.270000", "173110.272000", "173110.275000", "173130.117000", "173130.120000", "173130.122000", "173130.125000", "173130.127000", "173130.130000", "173130.132000", "173130.135000", "173130.137000", "173130.139000", "173130.142000", "173130.145000", "173130.147000", "173130.149000", "173130.157000", "173130.166000", "173130.169000", "173130.171000", "173130.174000", "173130.176000", "173150.099000", "173150.102000", "173150.105000", "173150.107000", "173150.110000", "173150.112000", "173150.115000", "173150.117000", "173150.120000", "173150.122000", "173150.125000", "173150.127000", "173150.130000", "173150.132000", "173150.135000", "173150.137000", "173150.139000", "173150.142000", "173150.144000", "173150.147000", "173150.149000", "173230.137000", "173230.140000", "173230.142000", "173230.144000", "173230.147000", "173230.149000", "173230.152000", "173230.154000", "173230.157000", "173230.159000", "173230.162000", "173230.164000", "173230.167000", "173230.169000", "173230.172000", "173230.174000", "173230.177000", "173230.179000", "173230.182000", "173230.184000", "173230.187000", "173230.189000", "173230.192000", "173230.194000", "173230.197000", "173230.199000", "173230.202000", "173230.204000", "173230.207000", "173230.209000", "173230.212000", "173230.214000", "173230.216000", "173310.110000", "173310.113000", "173310.115000", "173310.118000", "173310.120000", "173310.123000", "173310.125000", "173310.128000", "173310.130000", "173310.133000", "173310.135000", "173310.138000", "173310.140000", "173310.143000", "173310.145000", "173310.148000", "173310.150000", "173310.153000", "173310.155000", "173310.157000", "173310.160000", "173310.162000", "173310.165000", "173310.167000", "173310.170000", "173310.172000", "173310.175000", "173350.112000", "173350.114000", "173350.117000", "173350.119000", "173350.122000", "173350.124000", "173350.127000", "173350.129000", "173350.132000", "173350.134000", "173350.137000", "173350.139000", "173350.141000", "173350.144000", "173350.146000", "173350.149000", "173350.151000", "173350.154000", "173350.156000", "173350.159000", "173350.161000", "173350.164000", "173350.166000", "173350.169000", "173350.171000", "173350.174000", "173350.176000", "173430.126000", "173430.128000", "173430.131000", "173430.133000", "173430.136000", "173430.138000", "173430.141000", "173430.143000", "173430.146000", "173430.148000", "173430.151000", "173430.153000", "173430.159000", "173430.162000", "173430.164000", "173430.167000", "173430.170000", "173430.172000", "173430.175000", "173430.177000", "173430.180000", "173430.182000", "173430.185000", "173430.187000", "173430.190000", "173430.192000", "173510.122000", "173510.124000", "173510.127000", "173510.129000", "173510.132000", "173510.134000", "173510.137000", "173510.139000", "173510.142000", "173510.144000", "173510.147000", "173510.149000", "173510.152000", "173510.154000", "173510.157000", "173510.159000", "173510.161000", "173510.164000", "173510.166000", "173510.169000", "173510.173000", "173510.176000", "173510.179000", "173510.181000", "173510.184000", "173510.186000", "173510.188000", "173550.106000", "173550.109000", "173550.112000", "173550.114000", "173550.117000", "173550.119000", "173550.122000", "173550.124000", "173550.127000", "173550.129000", "173550.132000", "173550.134000", "173550.137000", "173550.139000", "173550.142000", "173550.144000", "173550.147000", "173550.150000", "173550.152000", "173550.154000", "173550.157000", "173550.160000", "173550.162000", "173550.165000", "173550.167000", "173550.170000", "173550.172000", "173630.120000", "173630.123000", "173630.125000", "173630.128000", "173630.130000", "173630.133000", "173630.135000", "173630.137000", "173630.140000", "173630.142000", "173630.145000", "173630.156000", "173630.159000", "173630.162000", "173630.164000", "173630.167000", "173630.169000", "173630.172000", "173630.174000", "173630.177000", "173630.179000", "173630.182000", "173630.184000", "173630.187000", "173630.190000", "173630.193000", "173630.196000", "173710.129000", "173710.132000", "173710.134000", "173710.137000", "173710.139000", "173710.141000", "173710.144000", "173710.147000", "173710.149000", "173710.152000", "173710.154000", "173710.157000", "173710.159000", "173710.161000", "173710.164000", "173710.166000", "173710.169000", "173710.171000", "173710.174000", "173710.177000", "173710.179000", "173710.182000", "173710.184000", "173710.187000", "173710.189000", "173710.192000", "173710.194000", "173750.119000", "173750.122000", "173750.125000", "173750.127000", "173750.130000", "173750.132000", "173750.135000", "173750.138000", "173750.140000", "173750.143000", "173750.145000", "173750.148000", "173750.150000", "173750.153000", "173750.155000", "173750.158000", "173750.160000", "173750.163000", "173750.165000", "173750.168000", "173750.170000", "173750.173000", "173750.175000", "173750.178000", "173750.180000", "173750.183000", "173750.185000", "173830.116000", "173830.119000", "173830.121000", "173830.131000", "173830.134000", "173830.136000", "173830.139000", "173830.141000", "173830.144000", "173830.146000", "173830.149000", "173830.151000", "173830.154000", "173830.156000", "173830.159000", "173830.161000", "173830.164000", "173830.166000", "173830.175000", "173830.178000", "173830.180000", "173830.183000", "173830.185000", "173830.188000", "173830.190000", "173830.193000", "173910.125000", "173910.128000", "173910.131000", "173910.133000", "173910.135000", "173910.138000", "173910.140000", "173910.143000", "173910.145000", "173910.148000", "173910.150000", "173910.153000", "173910.155000", "173910.158000", "173910.160000", "173910.163000", "173910.165000", "173910.168000", "173910.170000", "173910.173000", "173910.175000", "173910.178000", "173910.181000", "173910.183000", "173910.186000", "173910.188000", "173910.191000", "173925.243000", "173925.245000", "173925.248000", "173925.250000", "173925.253000", "173925.256000", "173925.258000", "173925.260000", "173925.263000", "173925.265000", "173925.268000"],
      "InstanceCreationTime": ["173110.177000", "173110.180000", "173110.182000", "173110.185000", "173110.187000", "173110.190000", "173110.192000", "173110.195000", "173110.197000", "173110.200000", "173110.202000", "173110.213000", "173110.215000", "173110.218000", "173110.221000", "173110.223000", "173110.226000", "173110.228000", "173110.230000", "173110.233000", "173110.235000", "173110.238000", "173110.240000", "173110.243000", "173110.245000", "173110.248000", "173110.250000", "173110.252000", "173110.255000", "173110.257000", "173110.260000", "173110.262000", "173110.265000", "173110.267000", "173110.270000", "173110.272000", "173110.275000", "173130.117000", "173130.120000", "173130.122000", "173130.125000", "173130.127000", "173130.130000", "173130.132000", "173130.135000", "173130.137000", "173130.139000", "173130.142000", "173130.145000", "173130.147000", "173130.149000", "173130.157000", "173130.166000", "173130.169000", "173130.171000", "173130.174000", "173130.176000", "173150.099000", "173150.102000", "173150.105000", "173150.107000", "173150.110000", "173150.112000", "173150.115000", "173150.117000", "173150.120000", "173150.122000", "173150.125000", "173150.127000", "173150.130000", "173150.132000", "173150.135000", "173150.137000", "173150.139000", "173150.142000", "173150.144000", "173150.147000", "173150.149000", "173230.137000", "173230.140000", "173230.142000", "173230.144000", "173230.147000", "173230.149000", "173230.152000", "173230.154000", "173230.157000", "173230.159000", "173230.162000", "173230.164000", "173230.167000", "173230.169000", "173230.172000", "173230.174000", "173230.177000", "173230.179000", "173230.182000", "173230.184000", "173230.187000", "173230.189000", "173230.192000", "173230.194000", "173230.197000", "173230.199000", "173230.202000", "173230.204000", "173230.207000", "173230.209000", "173230.212000", "173230.214000", "173230.216000", "173310.110000", "173310.113000", "173310.115000", "173310.118000", "173310.120000", "173310.123000", "173310.125000", "173310.128000", "173310.130000", "173310.133000", "173310.135000", "173310.138000", "173310.140000", "173310.143000", "173310.145000", "173310.148000", "173310.150000", "173310.153000", "173310.155000", "173310.157000", "173310.160000", "173310.162000", "173310.165000", "173310.167000", "173310.170000", "173310.172000", "173310.175000", "173350.112000", "173350.114000", "173350.117000", "173350.119000", "173350.122000", "173350.124000", "173350.127000", "173350.129000", "173350.132000", "173350.134000", "173350.137000", "173350.139000", "173350.141000", "173350.144000", "173350.146000", "173350.149000", "173350.151000", "173350.154000", "173350.156000", "173350.159000", "173350.161000", "173350.164000", "173350.166000", "173350.169000", "173350.171000", "173350.174000", "173350.176000", "173430.126000", "173430.128000", "173430.131000", "173430.133000", "173430.136000", "173430.138000", "173430.141000", "173430.143000", "173430.146000", "173430.148000", "173430.151000", "173430.153000", "173430.159000", "173430.162000", "173430.164000", "173430.167000", "173430.170000", "173430.172000", "173430.175000", "173430.177000", "173430.180000", "173430.182000", "173430.185000", "173430.187000", "173430.190000", "173430.192000", "173510.122000", "173510.124000", "173510.127000", "173510.129000", "173510.132000", "173510.134000", "173510.137000", "173510.139000", "173510.142000", "173510.144000", "173510.147000", "173510.149000", "173510.152000", "173510.154000", "173510.157000", "173510.159000", "173510.161000", "173510.164000", "173510.166000", "173510.169000", "173510.173000", "173510.176000", "173510.179000", "173510.181000", "173510.184000", "173510.186000", "173510.188000", "173550.106000", "173550.109000", "173550.112000", "173550.114000", "173550.117000", "173550.119000", "173550.122000", "173550.124000", "173550.127000", "173550.129000", "173550.132000", "173550.134000", "173550.137000", "173550.139000", "173550.142000", "173550.144000", "173550.147000", "173550.150000", "173550.152000", "173550.154000", "173550.157000", "173550.160000", "173550.162000", "173550.165000", "173550.167000", "173550.170000", "173550.172000", "173630.120000", "173630.123000", "173630.125000", "173630.128000", "173630.130000", "173630.133000", "173630.135000", "173630.137000", "173630.140000", "173630.142000", "173630.145000", "173630.156000", "173630.159000", "173630.162000", "173630.164000", "173630.167000", "173630.169000", "173630.172000", "173630.174000", "173630.177000", "173630.179000", "173630.182000", "173630.184000", "173630.187000", "173630.190000", "173630.193000", "173630.196000", "173710.129000", "173710.132000", "173710.134000", "173710.137000", "173710.139000", "173710.141000", "173710.144000", "173710.147000", "173710.149000", "173710.152000", "173710.154000", "173710.157000", "173710.159000", "173710.161000", "173710.164000", "173710.166000", "173710.169000", "173710.171000", "173710.174000", "173710.177000", "173710.179000", "173710.182000", "173710.184000", "173710.187000", "173710.189000", "173710.192000", "173710.194000", "173750.119000", "173750.122000", "173750.125000", "173750.127000", "173750.130000", "173750.132000", "173750.135000", "173750.138000", "173750.140000", "173750.143000", "173750.145000", "173750.148000", "173750.150000", "173750.153000", "173750.155000", "173750.158000", "173750.160000", "173750.163000", "173750.165000", "173750.168000", "173750.170000", "173750.173000", "173750.175000", "173750.178000", "173750.180000", "173750.183000", "173750.185000", "173830.116000", "173830.119000", "173830.121000", "173830.131000", "173830.134000", "173830.136000", "173830.139000", "173830.141000", "173830.144000", "173830.146000", "173830.149000", "173830.151000", "173830.154000", "173830.156000", "173830.159000", "173830.161000", "173830.164000", "173830.166000", "173830.175000", "173830.178000", "173830.180000", "173830.183000", "173830.185000", "173830.188000", "173830.190000", "173830.193000", "173910.125000", "173910.128000", "173910.131000", "173910.133000", "173910.135000", "173910.138000", "173910.140000", "173910.143000", "173910.145000", "173910.148000", "173910.150000", "173910.153000", "173910.155000", "173910.158000", "173910.160000", "173910.163000", "173910.165000", "173910.168000", "173910.170000", "173910.173000", "173910.175000", "173910.178000", "173910.181000", "173910.183000", "173910.186000", "173910.188000", "173910.191000", "173925.243000", "173925.245000", "173925.248000", "173925.250000", "173925.253000", "173925.256000", "173925.258000", "173925.260000", "173925.263000", "173925.265000", "173925.268000"],
      "InstanceNumber": [1, 2, 3, 4, 5, 6, 7, 8, 9, 10, 11, 12, 13, 14, 15, 16, 17, 18, 19, 20, 21, 22, 23, 24, 25, 26, 27, 28, 29, 30, 31, 32, 33, 34, 35, 36, 37, 38, 39, 40, 41, 42, 43, 44, 45, 46, 47, 48, 49, 50, 51, 52, 53, 54, 55, 56, 57, 58, 59, 60, 61, 62, 63, 64, 65, 66, 67, 68, 69, 70, 71, 72, 73, 74, 75, 76, 77, 78, 79, 80, 81, 82, 83, 84, 85, 86, 87, 88, 89, 90, 91, 92, 93, 94, 95, 96, 97, 98, 99, 100, 101, 102, 103, 104, 105, 106, 107, 108, 109, 110, 111, 112, 113, 114, 115, 116, 117, 118, 119, 120, 121, 122, 123, 124, 125, 126, 127, 128, 129, 130, 131, 132, 133, 134, 135, 136, 137, 138, 139, 140, 141, 142, 143, 144, 145, 146, 147, 148, 149, 150, 151, 152, 153, 154, 155, 156, 157, 158, 159, 160, 161, 162, 163, 164, 165, 166, 167, 168, 169, 170, 171, 172, 173, 174, 175, 176, 177, 178, 179, 180, 181, 182, 183, 184, 185, 186, 187, 188, 189, 190, 191, 192, 193, 194, 195, 196, 197, 198, 199, 200, 201, 202, 203, 204, 205, 206, 207, 208, 209, 210, 211, 212, 213, 214, 215, 216, 217, 218, 219, 220, 221, 222, 223, 224, 225, 226, 227, 228, 229, 230, 231, 232, 233, 234, 235, 236, 237, 238, 239, 240, 241, 242, 243, 244, 245, 246, 247, 248, 249, 250, 251, 252, 253, 254, 255, 256, 257, 258, 259, 260, 261, 262, 263, 264, 265, 266, 267, 268, 269, 270, 271, 272, 273, 274, 275, 276, 277, 278, 279, 280, 281, 282, 283, 284, 285, 286, 287, 288, 289, 290, 291, 292, 293, 294, 295, 296, 297, 298, 299, 300, 301, 302, 303, 304, 305, 306, 307, 308, 309, 310, 311, 312, 313, 314, 315, 316, 317, 318, 319, 320, 321, 322, 323, 324, 325, 326, 327, 328, 329, 330, 331, 332, 333, 334, 335, 336, 337, 338, 339, 340, 341, 342, 343, 344, 345, 346, 347, 348, 349, 350, 351, 352, 353, 354, 355, 356, 357, 358, 359, 360, 361, 362, 363, 364, 365, 366, 367, 368, 369, 370, 371, 372, 373, 374, 375, 376, 377, 378, 379, 380, 381, 382, 383, 384, 385, 386, 387, 388, 389, 390],
