{
  "AcquisitionMatrixPE": 104,
  "AcquisitionNumber": 1,
  "AcquisitionTime": "17:17:58.490000",
  "BandwidthPerPixelPhaseEncode": 17.17,
  "BaseResolution": 104,
  "BodyPartExamined": "BRAIN",
  "CoilCombinationMethod": "Sum of Squares",
  "ConsistencyInfo": "N4_VE11C_LATEST_20160120",
  "ConversionSoftware": "dcm2niix",
  "ConversionSoftwareVersion": "v1.0.20220505",
  "DerivedVendorReportedEchoSpacing": 0.000560011,
  "DeviceSerialNumber": "167006",
  "DwellTime": 2.1e-06,
  "EchoTime": 0.037,
  "EchoTime1": 0.037,
  "EchoTime2": 0.001,
  "EchoTrainLength": 104,
  "EffectiveEchoSpacing": 0.000560011,
  "FlipAngle": 52,
  "HeudiconvVersion": "0.5.3.post811+g6206e14",
  "ImageComments": "Unaliased MB4/PE3/LB",
  "ImageOrientationPatientDICOM": [0.99383, 0.10984, 0.0153844, -0.0946447, 0.912188, -0.398692],
  "ImageOrientationText": "Tra>Cor(-23.3)>Sag(3.3)",
  "ImageType": [
    "ORIGINAL",
    "PRIMARY",
    "P",
    "MB",
    "ND",
    "MOSAIC",
    "PHASE"
],
  "ImagingFrequency": 123.26,
  "InPlanePhaseEncodingDirectionDICOM": "COL",
  "InstitutionAddress": "Chemin Queen-Mary 4565,Montreal,District,CA,H3W 1W5",
  "InstitutionName": "IUGM",
  "InstitutionalDepartmentName": "Department",
  "MRAcquisitionType": "2D",
  "MagneticFieldStrength": 3,
  "Manufacturer": "Siemens",
  "ManufacturersModelName": "Prisma_fit",
  "MatrixCoilMode": "SENSE",
  "Modality": "MR",
  "MultibandAccelerationFactor": 4,
  "PartialFourier": 1,
  "PatientPosition": "HFS",
  "PercentPhaseFOV": 100,
  "PercentSampling": 100,
  "PhaseEncodingDirection": "j",
  "PhaseEncodingSteps": 104,
  "PhaseResolution": 1,
  "PixelBandwidth": 2290,
  "ProcedureStepDescription": "games^mario3",
  "ProtocolName": "func_task-mario3_run-01",
  "PulseSequenceDetails": "%CustomerSeq%\\cmrr_mbep2d_bold",
  "ReceiveCoilActiveElements": "HC1-7;NC1,2",
  "ReceiveCoilName": "HeadNeck_64",
  "ReconMatrixPE": 104,
  "RepetitionTime": 1.49,
  "SAR": 0.05253,
  "ScanOptions": "FS",
  "ScanningSequence": "EP",
  "SequenceName": "epfid2d1_104",
  "SequenceVariant": "SK\\SS",
  "SeriesDescription": "func_task-mario3_run-01",
  "SeriesNumber": 11,
  "ShimSetting": [617, -7199, -8827, 602, 81, -27, -77, 8],
  "SliceThickness": 2,
  "SliceTiming": [0, 0.785, 0.0975, 0.8825, 0.195, 0.98, 0.295, 1.0775, 0.3925, 1.175, 0.49, 1.275, 0.5875, 1.3725, 0.685, 0, 0.785, 0.0975, 0.8825, 0.195, 0.98, 0.295, 1.0775, 0.3925, 1.175, 0.49, 1.275, 0.5875, 1.3725, 0.685, 0, 0.785, 0.0975, 0.8825, 0.195, 0.98, 0.295, 1.0775, 0.3925, 1.175, 0.49, 1.275, 0.5875, 1.3725, 0.685, 0, 0.785, 0.0975, 0.8825, 0.195, 0.98, 0.295, 1.0775, 0.3925, 1.175, 0.49, 1.275, 0.5875, 1.3725, 0.685],
  "SoftwareVersions": "syngo MR E11",
  "SpacingBetweenSlices": 2,
  "StationName": "MRC35049",
  "TaskName": "mario3",
  "TotalReadoutTime": 0.0576811,
  "TxRefAmp": 254.896,
  "WipMemBlock": "b732b422-767b-435b-91c0-04cbe11eccf0||Sequence: R017 ve11c/master r/75a17815+; Jun 28 2022 16:32:11 by eja",
  "dcmmeta_affine": [
    [-1.987660527229309, -0.18928945064544678, 0.11565130949020386, 111.3165512084961],
    [-0.2196793109178543, 1.8243764638900757, -0.7895515561103821, -45.51988983154297],
    [0.030768873170018196, 0.7973833084106445, 1.8339120149612427, -67.08881378173828],
    [0.0, 0.0, 0.0, 1.0]
],
  "dcmmeta_reorient_transform": [
    [0.0, -1.0, 0.0, 103.0],
    [1.0, 0.0, 0.0, 0.0],
    [0.0, 0.0, 1.0, 0.0],
    [0.0, 0.0, 0.0, 1.0]
],
  "dcmmeta_shape": [104, 104, 60, 430],
  "dcmmeta_slice_dim": 2,
  "dcmmeta_version": 0.6,
  "global": {
    "const": {
      "AcquisitionMatrix": [104, 0, 0, 104],
      "AngioFlag": "N",
      "BitsAllocated": 16,
      "BitsStored": 16,
      "BodyPartExamined": "BRAIN",
      "Columns": 832,
      "EchoNumbers": 1,
      "EchoTime": 37.0,
      "EchoTrainLength": 104,
      "FlipAngle": 52.0,
      "HighBit": 15,
      "ImageOrientationPatient": [0.9938302519543, 0.10983965324194, 0.01538443616611, -0.0946447258184, 0.9121882205548, -0.3986916429471],
      "ImagePositionPatient": [-746.42679693212, -886.42717421422, 294.08931134328],
      "ImageType": [
        "ORIGINAL",
        "PRIMARY",
        "P",
        "MB",
        "ND",
        "MOSAIC"
],
      "ImagedNucleus": "1H",
      "ImagingFrequency": 123.260387,
      "InPlanePhaseEncodingDirection": "COL",
      "LargestImagePixelValue": 4095,
      "MRAcquisitionType": "2D",
      "MagneticFieldStrength": 3.0,
      "Manufacturer": "SIEMENS",
      "ManufacturerModelName": "Prisma_fit",
      "Modality": "MR",
      "NumberOfAverages": 1.0,
      "NumberOfPhaseEncodingSteps": 104,
      "PercentPhaseFieldOfView": 100.0,
      "PercentSampling": 100.0,
      "PerformedProcedureStepStartTime": "171437.906000",
      "PhotometricInterpretation": "MONOCHROME2",
      "PixelBandwidth": 2290.0,
      "PixelRepresentation": 0,
      "PixelSpacing": [2.0, 2.0],
      "ProtocolName": "func_task-mario3_run-01",
      "RepetitionTime": 1490.0,
      "RescaleIntercept": -4096.0,
      "RescaleSlope": 2.0,
      "RescaleType": "US",
      "Rows": 832,
      "SAR": 0.05253002063703,
      "SamplesPerPixel": 1,
      "ScanOptions": "FS",
      "ScanningSequence": "EP",
      "SequenceName": "epfid2d1_104",
      "SequenceVariant": [
        "SK",
        "SS"
],
      "SeriesDescription": "func_task-mario3_run-01",
      "SeriesNumber": 11,
      "SeriesTime": "171920.679000",
      "SliceLocation": -37.110387941855,
      "SliceThickness": 2.0,
      "SmallestImagePixelValue": 0,
      "SoftwareVersions": "syngo MR E11",
      "SpacingBetweenSlices": 2.0000000367307,
      "SpecificCharacterSet": "ISO_IR 100",
      "StudyID": "1",
      "StudyTime": "171437.757000",
      "TransmitCoilName": "Body",
      "VariableFlipAngleFlag": "N",
      "WindowCenterWidthExplanation": "Algo1",
      "dBdt": 0.0},
    "slices": {}
  },
  "time": {
    "samples": {
      "AcquisitionNumber": [1, 2, 3, 4, 5, 6, 7, 8, 9, 10, 11, 12, 13, 14, 15, 16, 17, 18, 19, 20, 21, 22, 23, 24, 25, 26, 27, 28, 29, 30, 31, 32, 33, 34, 35, 36, 37, 38, 39, 40, 41, 42, 43, 44, 45, 46, 47, 48, 49, 50, 51, 52, 53, 54, 55, 56, 57, 58, 59, 60, 61, 62, 63, 64, 65, 66, 67, 68, 69, 70, 71, 72, 73, 74, 75, 76, 77, 78, 79, 80, 81, 82, 83, 84, 85, 86, 87, 88, 89, 90, 91, 92, 93, 94, 95, 96, 97, 98, 99, 100, 101, 102, 103, 104, 105, 106, 107, 108, 109, 110, 111, 112, 113, 114, 115, 116, 117, 118, 119, 120, 121, 122, 123, 124, 125, 126, 127, 128, 129, 130, 131, 132, 133, 134, 135, 136, 137, 138, 139, 140, 141, 142, 143, 144, 145, 146, 147, 148, 149, 150, 151, 152, 153, 154, 155, 156, 157, 158, 159, 160, 161, 162, 163, 164, 165, 166, 167, 168, 169, 170, 171, 172, 173, 174, 175, 176, 177, 178, 179, 180, 181, 182, 183, 184, 185, 186, 187, 188, 189, 190, 191, 192, 193, 194, 195, 196, 197, 198, 199, 200, 201, 202, 203, 204, 205, 206, 207, 208, 209, 210, 211, 212, 213, 214, 215, 216, 217, 218, 219, 220, 221, 222, 223, 224, 225, 226, 227, 228, 229, 230, 231, 232, 233, 234, 235, 236, 237, 238, 239, 240, 241, 242, 243, 244, 245, 246, 247, 248, 249, 250, 251, 252, 253, 254, 255, 256, 257, 258, 259, 260, 261, 262, 263, 264, 265, 266, 267, 268, 269, 270, 271, 272, 273, 274, 275, 276, 277, 278, 279, 280, 281, 282, 283, 284, 285, 286, 287, 288, 289, 290, 291, 292, 293, 294, 295, 296, 297, 298, 299, 300, 301, 302, 303, 304, 305, 306, 307, 308, 309, 310, 311, 312, 313, 314, 315, 316, 317, 318, 319, 320, 321, 322, 323, 324, 325, 326, 327, 328, 329, 330, 331, 332, 333, 334, 335, 336, 337, 338, 339, 340, 341, 342, 343, 344, 345, 346, 347, 348, 349, 350, 351, 352, 353, 354, 355, 356, 357, 358, 359, 360, 361, 362, 363, 364, 365, 366, 367, 368, 369, 370, 371, 372, 373, 374, 375, 376, 377, 378, 379, 380, 381, 382, 383, 384, 385, 386, 387, 388, 389, 390, 391, 392, 393, 394, 395, 396, 397, 398, 399, 400, 401, 402, 403, 404, 405, 406, 407, 408, 409, 410, 411, 412, 413, 414, 415, 416, 417, 418, 419, 420, 421, 422, 423, 424, 425, 426, 427, 428, 429, 430],
      "AcquisitionTime": ["171758.490000", "171759.980000", "171801.470000", "171802.960000", "171804.450000", "171805.940000", "171807.430000", "171808.920000", "171810.410000", "171811.900000", "171813.390000", "171814.880000", "171816.370000", "171817.860000", "171819.350000", "171820.840000", "171822.330000", "171823.820000", "171825.310000", "171826.800000", "171828.290000", "171829.780000", "171831.270000", "171832.760000", "171834.250000", "171835.740000", "171837.230000", "171838.720000", "171840.210000", "171841.700000", "171843.190000", "171844.680000", "171846.170000", "171847.660000", "171849.150000", "171850.640000", "171852.130000", "171853.620000", "171855.110000", "171856.600000", "171858.090000", "171859.580000", "171901.070000", "171902.560000", "171904.050000", "171905.540000", "171907.030000", "171908.520000", "171910.010000", "171911.500000", "171912.990000", "171914.480000", "171915.970000", "171917.460000", "171918.950000", "171920.440000", "171921.930000", "171923.420000", "171924.910000", "171926.400000", "171927.890000", "171929.380000", "171930.870000", "171932.360000", "171933.850000", "171935.340000", "171936.830000", "171938.320000", "171939.810000", "171941.300000", "171942.790000", "171944.280000", "171945.770000", "171947.260000", "171948.750000", "171950.240000", "171951.730000", "171953.220000", "171954.710000", "171956.200000", "171957.690000", "171959.180000", "172000.670000", "172002.160000", "172003.650000", "172005.140000", "172006.630000", "172008.120000", "172009.610000", "172011.100000", "172012.590000", "172014.080000", "172015.570000", "172017.060000", "172018.550000", "172020.040000", "172021.530000", "172023.020000", "172024.510000", "172026.000000", "172027.490000", "172028.980000", "172030.470000", "172031.960000", "172033.450000", "172034.940000", "172036.430000", "172037.920000", "172039.410000", "172040.900000", "172042.390000", "172043.880000", "172045.370000", "172046.860000", "172048.350000", "172049.840000", "172051.330000", "172052.820000", "172054.310000", "172055.800000", "172057.290000", "172058.780000", "172100.270000", "172101.760000", "172103.250000", "172104.740000", "172106.230000", "172107.720000", "172109.210000", "172110.700000", "172112.190000", "172113.680000", "172115.170000", "172116.660000", "172118.150000", "172119.640000", "172121.130000", "172122.620000", "172124.110000", "172125.600000", "172127.090000", "172128.580000", "172130.070000", "172131.560000", "172133.050000", "172134.540000", "172136.030000", "172137.520000", "172139.010000", "172140.500000", "172141.990000", "172143.480000", "172144.970000", "172146.460000", "172147.950000", "172149.440000", "172150.930000", "172152.420000", "172153.910000", "172155.400000", "172156.890000", "172158.380000", "172159.870000", "172201.360000", "172202.850000", "172204.340000", "172205.830000", "172207.320000", "172208.810000", "172210.300000", "172211.790000", "172213.280000", "172214.770000", "172216.260000", "172217.750000", "172219.240000", "172220.730000", "172222.220000", "172223.710000", "172225.200000", "172226.690000", "172228.180000", "172229.670000", "172231.160000", "172232.650000", "172234.140000", "172235.630000", "172237.120000", "172238.610000", "172240.100000", "172241.590000", "172243.080000", "172244.570000", "172246.060000", "172247.550000", "172249.040000", "172250.530000", "172252.020000", "172253.510000", "172255.000000", "172256.490000", "172257.980000", "172259.470000", "172300.960000", "172302.450000", "172303.940000", "172305.430000", "172306.920000", "172308.410000", "172309.900000", "172311.390000", "172312.880000", "172314.370000", "172315.860000", "172317.350000", "172318.840000", "172320.330000", "172321.820000", "172323.310000", "172324.800000", "172326.290000", "172327.780000", "172329.270000", "172330.760000", "172332.250000", "172333.740000", "172335.230000", "172336.720000", "172338.210000", "172339.700000", "172341.190000", "172342.680000", "172344.170000", "172345.660000", "172347.150000", "172348.640000", "172350.130000", "172351.620000", "172353.110000", "172354.600000", "172356.090000", "172357.580000", "172359.070000", "172400.560000", "172402.050000", "172403.540000", "172405.030000", "172406.520000", "172408.010000", "172409.500000", "172410.990000", "172412.480000", "172413.970000", "172415.460000", "172416.950000", "172418.440000", "172419.930000", "172421.420000", "172422.910000", "172424.400000", "172425.890000", "172427.380000", "172428.870000", "172430.360000", "172431.850000", "172433.340000", "172434.830000", "172436.320000", "172437.810000", "172439.300000", "172440.790000", "172442.280000", "172443.770000", "172445.260000", "172446.750000", "172448.240000", "172449.730000", "172451.220000", "172452.710000", "172454.200000", "172455.690000", "172457.180000", "172458.670000", "172500.160000", "172501.650000", "172503.140000", "172504.630000", "172506.120000", "172507.610000", "172509.100000", "172510.590000", "172512.080000", "172513.570000", "172515.060000", "172516.550000", "172518.040000", "172519.530000", "172521.020000", "172522.510000", "172524.000000", "172525.490000", "172526.980000", "172528.470000", "172529.960000", "172531.450000", "172532.940000", "172534.430000", "172535.920000", "172537.410000", "172538.900000", "172540.390000", "172541.880000", "172543.370000", "172544.860000", "172546.350000", "172547.840000", "172549.330000", "172550.820000", "172552.310000", "172553.800000", "172555.290000", "172556.780000", "172558.270000", "172559.760000", "172601.250000", "172602.740000", "172604.230000", "172605.720000", "172607.210000", "172608.700000", "172610.190000", "172611.680000", "172613.170000", "172614.660000", "172616.150000", "172617.640000", "172619.130000", "172620.620000", "172622.110000", "172623.600000", "172625.090000", "172626.580000", "172628.070000", "172629.560000", "172631.050000", "172632.540000", "172634.030000", "172635.520000", "172637.010000", "172638.500000", "172639.990000", "172641.480000", "172642.970000", "172644.460000", "172645.950000", "172647.440000", "172648.930000", "172650.420000", "172651.910000", "172653.400000", "172654.890000", "172656.380000", "172657.870000", "172659.360000", "172700.850000", "172702.340000", "172703.830000", "172705.320000", "172706.810000", "172708.300000", "172709.790000", "172711.280000", "172712.770000", "172714.260000", "172715.750000", "172717.240000", "172718.730000", "172720.220000", "172721.710000", "172723.200000", "172724.690000", "172726.180000", "172727.670000", "172729.160000", "172730.650000", "172732.140000", "172733.630000", "172735.120000", "172736.610000", "172738.100000", "172739.590000", "172741.080000", "172742.570000", "172744.060000", "172745.550000", "172747.040000", "172748.530000", "172750.020000", "172751.510000", "172753.000000", "172754.490000", "172755.980000", "172757.470000", "172758.960000", "172800.450000", "172801.940000", "172803.430000", "172804.920000", "172806.410000", "172807.900000", "172809.390000", "172810.880000", "172812.370000", "172813.860000", "172815.350000", "172816.840000", "172818.330000", "172819.820000", "172821.310000", "172822.800000", "172824.290000", "172825.780000", "172827.270000", "172828.760000", "172830.250000", "172831.740000", "172833.230000", "172834.720000", "172836.210000", "172837.700000"],
      "ContentTime": ["171920.681000", "171920.684000", "171920.686000", "171920.689000", "171920.691000", "171920.694000", "171920.696000", "171920.698000", "171920.701000", "171920.713000", "171920.715000", "171920.718000", "171920.720000", "171920.723000", "171920.725000", "171920.728000", "171920.730000", "171920.733000", "171920.735000", "171920.738000", "171920.740000", "171920.743000", "171920.746000", "171920.748000", "171920.751000", "171920.753000", "171920.756000", "171920.758000", "171920.760000", "171920.763000", "171920.765000", "171920.768000", "171920.771000", "171920.774000", "171920.777000", "171940.575000", "171940.578000", "171940.581000", "171940.583000", "171940.586000", "171940.588000", "171940.591000", "171940.593000", "171940.596000", "171940.598000", "171940.601000", "171940.603000", "171940.606000", "171940.608000", "171940.611000", "171940.613000", "171940.616000", "171940.618000", "171940.621000", "171940.627000", "172000.586000", "172000.589000", "172000.591000", "172000.594000", "172000.596000", "172000.599000", "172000.601000", "172000.604000", "172000.606000", "172000.609000", "172000.611000", "172000.614000", "172000.616000", "172000.619000", "172000.621000", "172000.624000", "172000.626000", "172000.629000", "172000.631000", "172000.634000", "172000.636000", "172040.635000", "172040.637000", "172040.640000", "172040.642000", "172040.645000", "172040.647000", "172040.650000", "172040.652000", "172040.655000", "172040.657000", "172040.660000", "172040.662000", "172040.665000", "172040.667000", "172040.670000", "172040.672000", "172040.675000", "172040.677000", "172040.680000", "172040.682000", "172040.685000", "172040.687000", "172040.690000", "172040.692000", "172040.695000", "172040.697000", "172040.700000", "172040.702000", "172040.705000", "172040.707000", "172040.710000", "172040.712000", "172120.607000", "172120.610000", "172120.613000", "172120.615000", "172120.618000", "172120.620000", "172120.623000", "172120.625000", "172120.628000", "172120.630000", "172120.633000", "172120.635000", "172120.638000", "172120.640000", "172120.643000", "172120.645000", "172120.648000", "172120.650000", "172120.652000", "172120.655000", "172120.657000", "172120.660000", "172120.662000", "172120.665000", "172120.667000", "172120.670000", "172120.673000", "172200.599000", "172200.602000", "172200.604000", "172200.607000", "172200.609000", "172200.612000", "172200.614000", "172200.617000", "172200.619000", "172200.622000", "172200.624000", "172200.627000", "172200.629000", "172200.632000", "172200.634000", "172200.637000", "172200.645000", "172200.647000", "172200.650000", "172200.652000", "172200.655000", "172200.657000", "172200.660000", "172200.662000", "172200.665000", "172200.667000", "172200.670000", "172240.612000", "172240.615000", "172240.618000", "172240.620000", "172240.623000", "172240.625000", "172240.627000", "172240.630000", "172240.633000", "172240.635000", "172240.638000", "172240.640000", "172240.643000", "172240.645000", "172240.647000", "172240.650000", "172240.652000", "172240.655000", "172240.657000", "172240.660000", "172240.662000", "172240.665000", "172240.667000", "172240.670000", "172240.672000", "172240.675000", "172320.608000", "172320.611000", "172320.613000", "172320.616000", "172320.618000", "172320.621000", "172320.623000", "172320.626000", "172320.628000", "172320.631000", "172320.633000", "172320.636000", "172320.638000", "172320.641000", "172320.643000", "172320.646000", "172320.648000", "172320.651000", "172320.653000", "172320.656000", "172320.659000", "172320.662000", "172320.664000", "172320.667000", "172320.669000", "172320.672000", "172320.674000", "172400.622000", "172400.625000", "172400.627000", "172400.630000", "172400.632000", "172400.635000", "172400.637000", "172400.640000", "172400.642000", "172400.645000", "172400.647000", "172400.650000", "172400.652000", "172400.655000", "172400.657000", "172400.660000", "172400.662000", "172400.665000", "172400.667000", "172400.670000", "172400.672000", "172400.675000", "172400.677000", "172400.680000", "172400.682000", "172400.685000", "172400.687000", "172440.601000", "172440.604000", "172440.607000", "172440.609000", "172440.612000", "172440.614000", "172440.617000", "172440.619000", "172440.622000", "172440.624000", "172440.627000", "172440.629000", "172440.632000", "172440.634000", "172440.637000", "172440.639000", "172440.641000", "172440.644000", "172440.646000", "172440.649000", "172440.651000", "172440.654000", "172440.656000", "172440.659000", "172440.661000", "172440.664000", "172440.666000", "172520.604000", "172520.606000", "172520.609000", "172520.612000", "172520.614000", "172520.617000", "172520.619000", "172520.621000", "172520.624000", "172520.626000", "172520.629000", "172520.631000", "172520.634000", "172520.636000", "172520.639000", "172520.641000", "172520.644000", "172520.646000", "172520.649000", "172520.651000", "172520.654000", "172520.656000", "172520.659000", "172520.661000", "172520.664000", "172520.666000", "172520.669000", "172600.640000", "172600.643000", "172600.645000", "172600.648000", "172600.650000", "172600.653000", "172600.655000", "172600.658000", "172600.660000", "172600.669000", "172600.672000", "172600.674000", "172600.677000", "172600.679000", "172600.682000", "172600.684000", "172600.687000", "172600.689000", "172600.692000", "172600.694000", "172600.697000", "172600.699000", "172600.701000", "172600.704000", "172600.707000", "172600.709000", "172600.712000", "172640.615000", "172640.618000", "172640.620000", "172640.623000", "172640.625000", "172640.628000", "172640.630000", "172640.633000", "172640.635000", "172640.638000", "172640.640000", "172640.643000", "172640.645000", "172640.648000", "172640.650000", "172640.653000", "172640.655000", "172640.658000", "172640.660000", "172640.663000", "172640.665000", "172640.668000", "172640.670000", "172640.673000", "172640.675000", "172640.678000", "172720.623000", "172720.625000", "172720.628000", "172720.630000", "172720.633000", "172720.636000", "172720.638000", "172720.641000", "172720.643000", "172720.645000", "172720.648000", "172720.650000", "172720.653000", "172720.655000", "172720.658000", "172720.660000", "172720.663000", "172720.666000", "172720.668000", "172720.671000", "172720.673000", "172720.676000", "172720.679000", "172720.681000", "172720.684000", "172720.686000", "172720.689000", "172800.607000", "172800.610000", "172800.612000", "172800.615000", "172800.617000", "172800.620000", "172800.622000", "172800.625000", "172800.628000", "172800.630000", "172800.633000", "172800.635000", "172800.638000", "172800.640000", "172800.643000", "172800.645000", "172800.647000", "172800.650000", "172800.652000", "172800.655000", "172800.657000", "172800.660000", "172800.662000", "172800.670000", "172800.673000", "172800.675000", "172800.678000", "172840.199000", "172840.202000", "172840.205000", "172840.207000", "172840.210000", "172840.212000", "172840.215000", "172840.217000", "172840.220000", "172840.222000", "172840.225000", "172840.227000", "172840.230000", "172840.232000", "172840.235000", "172840.237000", "172840.239000", "172840.242000", "172840.244000", "172840.247000", "172840.249000", "172840.252000", "172840.254000", "172840.257000", "172840.259000", "172840.262000", "172840.265000"],
      "InstanceCreationTime": ["171920.681000", "171920.684000", "171920.686000", "171920.689000", "171920.691000", "171920.694000", "171920.696000", "171920.698000", "171920.701000", "171920.713000", "171920.715000", "171920.718000", "171920.720000", "171920.723000", "171920.725000", "171920.728000", "171920.730000", "171920.733000", "171920.735000", "171920.738000", "171920.740000", "171920.743000", "171920.746000", "171920.748000", "171920.751000", "171920.753000", "171920.756000", "171920.758000", "171920.760000", "171920.763000", "171920.765000", "171920.768000", "171920.771000", "171920.774000", "171920.777000", "171940.575000", "171940.578000", "171940.581000", "171940.583000", "171940.586000", "171940.588000", "171940.591000", "171940.593000", "171940.596000", "171940.598000", "171940.601000", "171940.603000", "171940.606000", "171940.608000", "171940.611000", "171940.613000", "171940.616000", "171940.618000", "171940.621000", "171940.627000", "172000.586000", "172000.589000", "172000.591000", "172000.594000", "172000.596000", "172000.599000", "172000.601000", "172000.604000", "172000.606000", "172000.609000", "172000.611000", "172000.614000", "172000.616000", "172000.619000", "172000.621000", "172000.624000", "172000.626000", "172000.629000", "172000.631000", "172000.634000", "172000.636000", "172040.635000", "172040.637000", "172040.640000", "172040.642000", "172040.645000", "172040.647000", "172040.650000", "172040.652000", "172040.655000", "172040.657000", "172040.660000", "172040.662000", "172040.665000", "172040.667000", "172040.670000", "172040.672000", "172040.675000", "172040.677000", "172040.680000", "172040.682000", "172040.685000", "172040.687000", "172040.690000", "172040.692000", "172040.695000", "172040.697000", "172040.700000", "172040.702000", "172040.705000", "172040.707000", "172040.710000", "172040.712000", "172120.607000", "172120.610000", "172120.613000", "172120.615000", "172120.618000", "172120.620000", "172120.623000", "172120.625000", "172120.628000", "172120.630000", "172120.633000", "172120.635000", "172120.638000", "172120.640000", "172120.643000", "172120.645000", "172120.648000", "172120.650000", "172120.652000", "172120.655000", "172120.657000", "172120.660000", "172120.662000", "172120.665000", "172120.667000", "172120.670000", "172120.673000", "172200.599000", "172200.602000", "172200.604000", "172200.607000", "172200.609000", "172200.612000", "172200.614000", "172200.617000", "172200.619000", "172200.622000", "172200.624000", "172200.627000", "172200.629000", "172200.632000", "172200.634000", "172200.637000", "172200.645000", "172200.647000", "172200.650000", "172200.652000", "172200.655000", "172200.657000", "172200.660000", "172200.662000", "172200.665000", "172200.667000", "172200.670000", "172240.612000", "172240.615000", "172240.618000", "172240.620000", "172240.623000", "172240.625000", "172240.627000", "172240.630000", "172240.633000", "172240.635000", "172240.638000", "172240.640000", "172240.643000", "172240.645000", "172240.647000", "172240.650000", "172240.652000", "172240.655000", "172240.657000", "172240.660000", "172240.662000", "172240.665000", "172240.667000", "172240.670000", "172240.672000", "172240.675000", "172320.608000", "172320.611000", "172320.613000", "172320.616000", "172320.618000", "172320.621000", "172320.623000", "172320.626000", "172320.628000", "172320.631000", "172320.633000", "172320.636000", "172320.638000", "172320.641000", "172320.643000", "172320.646000", "172320.648000", "172320.651000", "172320.653000", "172320.656000", "172320.659000", "172320.662000", "172320.664000", "172320.667000", "172320.669000", "172320.672000", "172320.674000", "172400.622000", "172400.625000", "172400.627000", "172400.630000", "172400.632000", "172400.635000", "172400.637000", "172400.640000", "172400.642000", "172400.645000", "172400.647000", "172400.650000", "172400.652000", "172400.655000", "172400.657000", "172400.660000", "172400.662000", "172400.665000", "172400.667000", "172400.670000", "172400.672000", "172400.675000", "172400.677000", "172400.680000", "172400.682000", "172400.685000", "172400.687000", "172440.601000", "172440.604000", "172440.607000", "172440.609000", "172440.612000", "172440.614000", "172440.617000", "172440.619000", "172440.622000", "172440.624000", "172440.627000", "172440.629000", "172440.632000", "172440.634000", "172440.637000", "172440.639000", "172440.641000", "172440.644000", "172440.646000", "172440.649000", "172440.651000", "172440.654000", "172440.656000", "172440.659000", "172440.661000", "172440.664000", "172440.666000", "172520.604000", "172520.606000", "172520.609000", "172520.612000", "172520.614000", "172520.617000", "172520.619000", "172520.621000", "172520.624000", "172520.626000", "172520.629000", "172520.631000", "172520.634000", "172520.636000", "172520.639000", "172520.641000", "172520.644000", "172520.646000", "172520.649000", "172520.651000", "172520.654000", "172520.656000", "172520.659000", "172520.661000", "172520.664000", "172520.666000", "172520.669000", "172600.640000", "172600.643000", "172600.645000", "172600.648000", "172600.650000", "172600.653000", "172600.655000", "172600.658000", "172600.660000", "172600.669000", "172600.672000", "172600.674000", "172600.677000", "172600.679000", "172600.682000", "172600.684000", "172600.687000", "172600.689000", "172600.692000", "172600.694000", "172600.697000", "172600.699000", "172600.701000", "172600.704000", "172600.707000", "172600.709000", "172600.712000", "172640.615000", "172640.618000", "172640.620000", "172640.623000", "172640.625000", "172640.628000", "172640.630000", "172640.633000", "172640.635000", "172640.638000", "172640.640000", "172640.643000", "172640.645000", "172640.648000", "172640.650000", "172640.653000", "172640.655000", "172640.658000", "172640.660000", "172640.663000", "172640.665000", "172640.668000", "172640.670000", "172640.673000", "172640.675000", "172640.678000", "172720.623000", "172720.625000", "172720.628000", "172720.630000", "172720.633000", "172720.636000", "172720.638000", "172720.641000", "172720.643000", "172720.645000", "172720.648000", "172720.650000", "172720.653000", "172720.655000", "172720.658000", "172720.660000", "172720.663000", "172720.666000", "172720.668000", "172720.671000", "172720.673000", "172720.676000", "172720.679000", "172720.681000", "172720.684000", "172720.686000", "172720.689000", "172800.607000", "172800.610000", "172800.612000", "172800.615000", "172800.617000", "172800.620000", "172800.622000", "172800.625000", "172800.628000", "172800.630000", "172800.633000", "172800.635000", "172800.638000", "172800.640000", "172800.643000", "172800.645000", "172800.647000", "172800.650000", "172800.652000", "172800.655000", "172800.657000", "172800.660000", "172800.662000", "172800.670000", "172800.673000", "172800.675000", "172800.678000", "172840.199000", "172840.202000", "172840.205000", "172840.207000", "172840.210000", "172840.212000", "172840.215000", "172840.217000", "172840.220000", "172840.222000", "172840.225000", "172840.227000", "172840.230000", "172840.232000", "172840.235000", "172840.237000", "172840.239000", "172840.242000", "172840.244000", "172840.247000", "172840.249000", "172840.252000", "172840.254000", "172840.257000", "172840.259000", "172840.262000", "172840.265000"],
