{
  "AcquisitionMatrixPE": 104,
  "AcquisitionNumber": 1,
  "AcquisitionTime": "15:53:7.992500",
  "BandwidthPerPixelPhaseEncode": 17.17,
  "BaseResolution": 104,
  "BodyPartExamined": "BRAIN",
  "CoilCombinationMethod": "Sum of Squares",
  "ConsistencyInfo": "N4_VE11C_LATEST_20160120",
  "ConversionSoftware": "dcm2niix",
  "ConversionSoftwareVersion": "v1.0.20220505",
  "DerivedVendorReportedEchoSpacing": 0.000560011,
  "DeviceSerialNumber": "167006",
  "DwellTime": 2.1e-06,
  "EchoTime": 0.037,
  "EchoTime1": 0.037,
  "EchoTime2": 0.001,
  "EchoTrainLength": 104,
  "EffectiveEchoSpacing": 0.000560011,
  "FlipAngle": 52,
  "HeudiconvVersion": "0.5.3.post811+g6206e14",
  "ImageComments": "Unaliased MB4/PE3/LB",
  "ImageOrientationPatientDICOM": [0.999388, 0.019371, 0.0291166, -0.00994255, 0.955603, -0.294491],
  "ImageOrientationText": "Tra>Cor(-17.1)>Sag(1.9)",
  "ImageType": [
    "ORIGINAL",
    "PRIMARY",
    "P",
    "MB",
    "ND",
    "MOSAIC",
    "PHASE"
],
  "ImagingFrequency": 123.26,
  "InPlanePhaseEncodingDirectionDICOM": "COL",
  "InstitutionAddress": "Chemin Queen-Mary 4565,Montreal,District,CA,H3W 1W5",
  "InstitutionName": "IUGM",
  "InstitutionalDepartmentName": "Department",
  "MRAcquisitionType": "2D",
  "MagneticFieldStrength": 3,
  "Manufacturer": "Siemens",
  "ManufacturersModelName": "Prisma_fit",
  "MatrixCoilMode": "SENSE",
  "Modality": "MR",
  "MultibandAccelerationFactor": 4,
  "PartialFourier": 1,
  "PatientPosition": "HFS",
  "PercentPhaseFOV": 100,
  "PercentSampling": 100,
  "PhaseEncodingDirection": "j",
  "PhaseEncodingSteps": 104,
  "PhaseResolution": 1,
  "PixelBandwidth": 2290,
  "ProcedureStepDescription": "games^mario3",
  "ProtocolName": "func_task-mario3_run-01",
  "PulseSequenceDetails": "%CustomerSeq%\\cmrr_mbep2d_bold",
  "ReceiveCoilActiveElements": "HC1-7;NC1,2",
  "ReceiveCoilName": "HeadNeck_64",
  "ReconMatrixPE": 104,
  "RepetitionTime": 1.49,
  "SAR": 0.0632438,
  "ScanOptions": "FS",
  "ScanningSequence": "EP",
  "SequenceName": "epfid2d1_104",
  "SequenceVariant": "SK\\SS",
  "SeriesDescription": "func_task-mario3_run-01",
  "SeriesNumber": 11,
  "ShimSetting": [622, -7201, -8762, 694, 63, 15, -20, 5],
  "SliceThickness": 2,
  "SliceTiming": [0, 0.785, 0.0975, 0.8825, 0.195, 0.98, 0.295, 1.0775, 0.3925, 1.175, 0.49, 1.275, 0.5875, 1.3725, 0.685, 0, 0.785, 0.0975, 0.8825, 0.195, 0.98, 0.295, 1.0775, 0.3925, 1.175, 0.49, 1.275, 0.5875, 1.3725, 0.685, 0, 0.785, 0.0975, 0.8825, 0.195, 0.98, 0.295, 1.0775, 0.3925, 1.175, 0.49, 1.275, 0.5875, 1.3725, 0.685, 0, 0.785, 0.0975, 0.8825, 0.195, 0.98, 0.295, 1.0775, 0.3925, 1.175, 0.49, 1.275, 0.5875, 1.3725, 0.685],
  "SoftwareVersions": "syngo MR E11",
  "SpacingBetweenSlices": 2,
  "StationName": "MRC35049",
  "TaskName": "mario3",
  "TotalReadoutTime": 0.0576811,
  "TxRefAmp": 233.337,
  "WipMemBlock": "680c7487-3239-40a2-a4d1-e83fff9c5c2d||Sequence: R017 ve11c/master r/75a17815+; Jun 28 2022 16:32:11 by eja",
  "dcmmeta_affine": [
    [-1.9987765550613403, -0.019885102286934853, 0.06705693155527115, 107.79051208496094],
    [-0.038742098957300186, 1.9112052917480469, -0.5880419015884399, -69.23804473876953],
    [0.058233149349689484, 0.5889811515808105, 1.910421371459961, -61.62661361694336],
    [0.0, 0.0, 0.0, 1.0]
],
  "dcmmeta_reorient_transform": [
    [0.0, -1.0, 0.0, 103.0],
    [1.0, 0.0, 0.0, 0.0],
    [0.0, 0.0, 1.0, 0.0],
    [0.0, 0.0, 0.0, 1.0]
],
  "dcmmeta_shape": [104, 104, 60, 310],
  "dcmmeta_slice_dim": 2,
  "dcmmeta_version": 0.6,
  "global": {
    "const": {
      "AcquisitionMatrix": [104, 0, 0, 104],
      "AngioFlag": "N",
      "BitsAllocated": 16,
      "BitsStored": 16,
      "BodyPartExamined": "BRAIN",
      "Columns": 832,
      "EchoNumbers": 1,
      "EchoTime": 37.0,
      "EchoTrainLength": 104,
      "FlipAngle": 52.0,
      "HighBit": 15,
      "ImageOrientationPatient": [0.9993883066943, 0.01937104908695, 0.02911657431717, -0.0099425509622, 0.9556026600238, -0.2944905802157],
      "ImagePositionPatient": [-826.05885318603, -837.39696562553, 192.23072140005],
      "ImageType": [
        "ORIGINAL",
        "PRIMARY",
        "P",
        "MB",
        "ND",
        "MOSAIC"
],
      "ImagedNucleus": "1H",
      "ImagingFrequency": 123.260197,
      "InPlanePhaseEncodingDirection": "COL",
      "LargestImagePixelValue": 4095,
      "MRAcquisitionType": "2D",
      "MagneticFieldStrength": 3.0,
      "Manufacturer": "SIEMENS",
      "ManufacturerModelName": "Prisma_fit",
      "Modality": "MR",
      "NumberOfAverages": 1.0,
      "NumberOfPhaseEncodingSteps": 104,
      "PercentPhaseFieldOfView": 100.0,
      "PercentSampling": 100.0,
      "PerformedProcedureStepStartTime": "152134.922000",
      "PhotometricInterpretation": "MONOCHROME2",
      "PixelBandwidth": 2290.0,
      "PixelRepresentation": 0,
      "PixelSpacing": [2.0, 2.0],
      "ProtocolName": "func_task-mario3_run-01",
      "RepetitionTime": 1490.0,
      "RescaleIntercept": -4096.0,
      "RescaleSlope": 2.0,
      "RescaleType": "US",
      "Rows": 832,
      "SAR": 0.06324383579067,
      "SamplesPerPixel": 1,
      "ScanOptions": "FS",
      "ScanningSequence": "EP",
      "SequenceName": "epfid2d1_104",
      "SequenceVariant": [
        "SK",
        "SS"
],
      "SeriesDescription": "func_task-mario3_run-01",
      "SeriesNumber": 11,
      "SeriesTime": "155407.662000",
      "SliceLocation": -34.894917299429,
      "SliceThickness": 2.0,
      "SmallestImagePixelValue": 0,
      "SoftwareVersions": "syngo MR E11",
      "SpacingBetweenSlices": 1.9999999591609,
      "SpecificCharacterSet": "ISO_IR 100",
      "StudyID": "1",
      "StudyTime": "152134.849000",
      "TransmitCoilName": "Body",
      "VariableFlipAngleFlag": "N",
      "WindowCenterWidthExplanation": "Algo1",
      "dBdt": 0.0},
    "slices": {}
  },
  "time": {
    "samples": {
      "AcquisitionNumber": [1, 2, 3, 4, 5, 6, 7, 8, 9, 10, 11, 12, 13, 14, 15, 16, 17, 18, 19, 20, 21, 22, 23, 24, 25, 26, 27, 28, 29, 30, 31, 32, 33, 34, 35, 36, 37, 38, 39, 40, 41, 42, 43, 44, 45, 46, 47, 48, 49, 50, 51, 52, 53, 54, 55, 56, 57, 58, 59, 60, 61, 62, 63, 64, 65, 66, 67, 68, 69, 70, 71, 72, 73, 74, 75, 76, 77, 78, 79, 80, 81, 82, 83, 84, 85, 86, 87, 88, 89, 90, 91, 92, 93, 94, 95, 96, 97, 98, 99, 100, 101, 102, 103, 104, 105, 106, 107, 108, 109, 110, 111, 112, 113, 114, 115, 116, 117, 118, 119, 120, 121, 122, 123, 124, 125, 126, 127, 128, 129, 130, 131, 132, 133, 134, 135, 136, 137, 138, 139, 140, 141, 142, 143, 144, 145, 146, 147, 148, 149, 150, 151, 152, 153, 154, 155, 156, 157, 158, 159, 160, 161, 162, 163, 164, 165, 166, 167, 168, 169, 170, 171, 172, 173, 174, 175, 176, 177, 178, 179, 180, 181, 182, 183, 184, 185, 186, 187, 188, 189, 190, 191, 192, 193, 194, 195, 196, 197, 198, 199, 200, 201, 202, 203, 204, 205, 206, 207, 208, 209, 210, 211, 212, 213, 214, 215, 216, 217, 218, 219, 220, 221, 222, 223, 224, 225, 226, 227, 228, 229, 230, 231, 232, 233, 234, 235, 236, 237, 238, 239, 240, 241, 242, 243, 244, 245, 246, 247, 248, 249, 250, 251, 252, 253, 254, 255, 256, 257, 258, 259, 260, 261, 262, 263, 264, 265, 266, 267, 268, 269, 270, 271, 272, 273, 274, 275, 276, 277, 278, 279, 280, 281, 282, 283, 284, 285, 286, 287, 288, 289, 290, 291, 292, 293, 294, 295, 296, 297, 298, 299, 300, 301, 302, 303, 304, 305, 306, 307, 308, 309, 310],
      "AcquisitionTime": ["155307.992500", "155309.482500", "155310.972500", "155312.462500", "155313.952500", "155315.442500", "155316.932500", "155318.422500", "155319.912500", "155321.402500", "155322.892500", "155324.382500", "155325.872500", "155327.362500", "155328.852500", "155330.342500", "155331.832500", "155333.322500", "155334.812500", "155336.302500", "155337.792500", "155339.282500", "155340.772500", "155342.262500", "155343.752500", "155345.242500", "155346.732500", "155348.222500", "155349.712500", "155351.202500", "155352.692500", "155354.182500", "155355.672500", "155357.162500", "155358.652500", "155400.142500", "155401.632500", "155403.122500", "155404.612500", "155406.102500", "155407.592500", "155409.082500", "155410.572500", "155412.062500", "155413.552500", "155415.042500", "155416.532500", "155418.022500", "155419.512500", "155421.002500", "155422.492500", "155423.982500", "155425.472500", "155426.962500", "155428.452500", "155429.942500", "155431.432500", "155432.922500", "155434.412500", "155435.902500", "155437.392500", "155438.882500", "155440.372500", "155441.862500", "155443.352500", "155444.842500", "155446.332500", "155447.822500", "155449.312500", "155450.802500", "155452.292500", "155453.782500", "155455.272500", "155456.762500", "155458.252500", "155459.742500", "155501.232500", "155502.722500", "155504.212500", "155505.702500", "155507.192500", "155508.682500", "155510.172500", "155511.662500", "155513.152500", "155514.642500", "155516.132500", "155517.622500", "155519.112500", "155520.602500", "155522.092500", "155523.582500", "155525.072500", "155526.562500", "155528.052500", "155529.542500", "155531.032500", "155532.522500", "155534.012500", "155535.502500", "155536.992500", "155538.482500", "155539.972500", "155541.462500", "155542.952500", "155544.442500", "155545.932500", "155547.422500", "155548.912500", "155550.402500", "155551.892500", "155553.382500", "155554.872500", "155556.362500", "155557.852500", "155559.342500", "155600.832500", "155602.322500", "155603.812500", "155605.302500", "155606.792500", "155608.282500", "155609.772500", "155611.262500", "155612.752500", "155614.242500", "155615.732500", "155617.222500", "155618.712500", "155620.202500", "155621.692500", "155623.182500", "155624.672500", "155626.162500", "155627.652500", "155629.142500", "155630.632500", "155632.122500", "155633.612500", "155635.102500", "155636.592500", "155638.082500", "155639.572500", "155641.062500", "155642.552500", "155644.042500", "155645.532500", "155647.022500", "155648.512500", "155650.002500", "155651.492500", "155652.982500", "155654.472500", "155655.962500", "155657.452500", "155658.942500", "155700.432500", "155701.922500", "155703.412500", "155704.902500", "155706.392500", "155707.882500", "155709.372500", "155710.862500", "155712.352500", "155713.842500", "155715.332500", "155716.822500", "155718.312500", "155719.802500", "155721.292500", "155722.782500", "155724.272500", "155725.762500", "155727.252500", "155728.742500", "155730.232500", "155731.722500", "155733.212500", "155734.702500", "155736.192500", "155737.682500", "155739.172500", "155740.662500", "155742.152500", "155743.642500", "155745.132500", "155746.622500", "155748.112500", "155749.602500", "155751.092500", "155752.582500", "155754.072500", "155755.562500", "155757.052500", "155758.542500", "155800.032500", "155801.522500", "155803.012500", "155804.502500", "155805.992500", "155807.482500", "155808.972500", "155810.462500", "155811.952500", "155813.442500", "155814.932500", "155816.422500", "155817.912500", "155819.402500", "155820.892500", "155822.382500", "155823.872500", "155825.362500", "155826.852500", "155828.342500", "155829.832500", "155831.322500", "155832.812500", "155834.302500", "155835.792500", "155837.282500", "155838.772500", "155840.262500", "155841.752500", "155843.242500", "155844.732500", "155846.222500", "155847.712500", "155849.202500", "155850.692500", "155852.182500", "155853.672500", "155855.162500", "155856.652500", "155858.142500", "155859.632500", "155901.122500", "155902.612500", "155904.102500", "155905.592500", "155907.082500", "155908.572500", "155910.062500", "155911.552500", "155913.042500", "155914.532500", "155916.022500", "155917.512500", "155919.002500", "155920.492500", "155921.982500", "155923.472500", "155924.962500", "155926.452500", "155927.942500", "155929.432500", "155930.922500", "155932.412500", "155933.902500", "155935.392500", "155936.882500", "155938.372500", "155939.862500", "155941.352500", "155942.842500", "155944.332500", "155945.822500", "155947.312500", "155948.802500", "155950.292500", "155951.782500", "155953.272500", "155954.762500", "155956.252500", "155957.742500", "155959.232500", "160000.722500", "160002.212500", "160003.702500", "160005.192500", "160006.682500", "160008.172500", "160009.662500", "160011.152500", "160012.642500", "160014.132500", "160015.622500", "160017.112500", "160018.602500", "160020.092500", "160021.582500", "160023.072500", "160024.562500", "160026.052500", "160027.542500", "160029.032500", "160030.522500", "160032.012500", "160033.502500", "160034.992500", "160036.482500", "160037.972500", "160039.462500", "160040.952500", "160042.442500", "160043.932500", "160045.422500", "160046.912500", "160048.402500"],
      "ContentTime": ["155407.664000", "155407.667000", "155407.669000", "155407.672000", "155407.674000", "155407.677000", "155407.680000", "155407.682000", "155407.685000", "155407.687000", "155407.690000", "155427.696000", "155427.707000", "155427.710000", "155427.712000", "155427.715000", "155427.717000", "155427.720000", "155427.722000", "155427.725000", "155427.727000", "155427.730000", "155427.732000", "155427.735000", "155427.737000", "155427.740000", "155427.742000", "155427.745000", "155427.747000", "155427.749000", "155427.752000", "155447.655000", "155447.658000", "155447.661000", "155447.663000", "155447.666000", "155447.668000", "155447.671000", "155447.673000", "155447.676000", "155447.678000", "155447.681000", "155447.683000", "155447.686000", "155447.688000", "155447.690000", "155447.693000", "155447.695000", "155447.698000", "155447.700000", "155447.703000", "155447.705000", "155507.660000", "155507.663000", "155507.666000", "155507.673000", "155507.676000", "155507.678000", "155507.681000", "155507.683000", "155507.686000", "155507.688000", "155507.691000", "155507.693000", "155507.696000", "155507.698000", "155507.701000", "155507.703000", "155507.706000", "155507.708000", "155507.710000", "155507.713000", "155527.654000", "155527.657000", "155527.660000", "155527.662000", "155527.665000", "155527.667000", "155527.670000", "155527.672000", "155527.675000", "155527.677000", "155527.680000", "155527.682000", "155527.685000", "155527.687000", "155527.690000", "155527.692000", "155527.695000", "155527.697000", "155527.699000", "155527.702000", "155607.707000", "155607.710000", "155607.713000", "155607.715000", "155607.718000", "155607.720000", "155607.723000", "155607.725000", "155607.734000", "155607.737000", "155607.739000", "155607.742000", "155607.744000", "155607.747000", "155607.749000", "155607.752000", "155607.755000", "155607.757000", "155607.760000", "155607.762000", "155607.765000", "155607.767000", "155607.830000", "155607.832000", "155607.835000", "155607.837000", "155607.840000", "155607.842000", "155647.691000", "155647.693000", "155647.696000", "155647.698000", "155647.701000", "155647.703000", "155647.706000", "155647.708000", "155647.711000", "155647.713000", "155647.716000", "155647.718000", "155647.721000", "155647.723000", "155647.726000", "155647.728000", "155647.731000", "155647.734000", "155647.736000", "155647.738000", "155647.741000", "155647.743000", "155647.746000", "155647.748000", "155647.751000", "155647.754000", "155647.756000", "155727.689000", "155727.691000", "155727.694000", "155727.696000", "155727.699000", "155727.701000", "155727.704000", "155727.707000", "155727.709000", "155727.712000", "155727.714000", "155727.717000", "155727.719000", "155727.722000", "155727.724000", "155727.727000", "155727.729000", "155727.732000", "155727.734000", "155727.737000", "155727.739000", "155727.742000", "155727.744000", "155727.747000", "155727.749000", "155727.752000", "155727.754000", "155807.708000", "155807.711000", "155807.719000", "155807.722000", "155807.724000", "155807.727000", "155807.730000", "155807.732000", "155807.734000", "155807.737000", "155807.740000", "155807.742000", "155807.745000", "155807.747000", "155807.750000", "155807.752000", "155807.755000", "155807.757000", "155807.760000", "155807.762000", "155807.765000", "155807.768000", "155807.819000", "155807.822000", "155807.824000", "155807.827000", "155848.205000", "155848.208000", "155848.211000", "155848.213000", "155848.216000", "155848.218000", "155848.221000", "155848.223000", "155848.226000", "155848.228000", "155848.231000", "155848.233000", "155848.236000", "155848.238000", "155848.241000", "155848.244000", "155848.246000", "155848.249000", "155848.251000", "155848.254000", "155848.256000", "155848.259000", "155848.261000", "155848.264000", "155848.266000", "155848.269000", "155848.271000", "155927.677000", "155927.679000", "155927.682000", "155927.684000", "155927.687000", "155927.689000", "155927.692000", "155927.694000", "155927.697000", "155927.699000", "155927.702000", "155927.704000", "155927.707000", "155927.709000", "155927.712000", "155927.714000", "155927.717000", "155927.719000", "155927.722000", "155927.724000", "155927.727000", "155927.729000", "155927.732000", "155927.734000", "155927.737000", "155927.739000", "155927.742000", "160007.676000", "160007.687000", "160007.689000", "160007.692000", "160007.695000", "160007.697000", "160007.700000", "160007.702000", "160007.716000", "160007.719000", "160007.722000", "160007.724000", "160007.727000", "160007.729000", "160007.732000", "160007.734000", "160007.737000", "160007.740000", "160007.742000", "160007.745000", "160007.747000", "160007.750000", "160007.752000", "160007.755000", "160007.757000", "160007.760000", "160007.762000", "160047.699000", "160047.702000", "160047.704000", "160047.707000", "160047.709000", "160047.712000", "160047.714000", "160047.717000", "160047.719000", "160047.722000", "160047.724000", "160047.727000", "160047.729000", "160047.732000", "160047.734000", "160047.737000", "160047.739000", "160047.742000", "160047.744000", "160047.747000", "160047.757000", "160047.760000", "160047.762000", "160047.765000", "160047.767000", "160047.770000", "160047.772000", "160050.989000", "160050.992000"],
      "InstanceCreationTime": ["155407.664000", "155407.667000", "155407.669000", "155407.672000", "155407.674000", "155407.677000", "155407.680000", "155407.682000", "155407.685000", "155407.687000", "155407.690000", "155427.696000", "155427.707000", "155427.710000", "155427.712000", "155427.715000", "155427.717000", "155427.720000", "155427.722000", "155427.725000", "155427.727000", "155427.730000", "155427.732000", "155427.735000", "155427.737000", "155427.740000", "155427.742000", "155427.745000", "155427.747000", "155427.749000", "155427.752000", "155447.655000", "155447.658000", "155447.661000", "155447.663000", "155447.666000", "155447.668000", "155447.671000", "155447.673000", "155447.676000", "155447.678000", "155447.681000", "155447.683000", "155447.686000", "155447.688000", "155447.690000", "155447.693000", "155447.695000", "155447.698000", "155447.700000", "155447.703000", "155447.705000", "155507.660000", "155507.663000", "155507.666000", "155507.673000", "155507.676000", "155507.678000", "155507.681000", "155507.683000", "155507.686000", "155507.688000", "155507.691000", "155507.693000", "155507.696000", "155507.698000", "155507.701000", "155507.703000", "155507.706000", "155507.708000", "155507.710000", "155507.713000", "155527.654000", "155527.657000", "155527.660000", "155527.662000", "155527.665000", "155527.667000", "155527.670000", "155527.672000", "155527.675000", "155527.677000", "155527.680000", "155527.682000", "155527.685000", "155527.687000", "155527.690000", "155527.692000", "155527.695000", "155527.697000", "155527.699000", "155527.702000", "155607.707000", "155607.710000", "155607.713000", "155607.715000", "155607.718000", "155607.720000", "155607.723000", "155607.725000", "155607.734000", "155607.737000", "155607.739000", "155607.742000", "155607.744000", "155607.747000", "155607.749000", "155607.752000", "155607.755000", "155607.757000", "155607.760000", "155607.762000", "155607.765000", "155607.767000", "155607.830000", "155607.832000", "155607.835000", "155607.837000", "155607.840000", "155607.842000", "155647.691000", "155647.693000", "155647.696000", "155647.698000", "155647.701000", "155647.703000", "155647.706000", "155647.708000", "155647.711000", "155647.713000", "155647.716000", "155647.718000", "155647.721000", "155647.723000", "155647.726000", "155647.728000", "155647.731000", "155647.734000", "155647.736000", "155647.738000", "155647.741000", "155647.743000", "155647.746000", "155647.748000", "155647.751000", "155647.754000", "155647.756000", "155727.689000", "155727.691000", "155727.694000", "155727.696000", "155727.699000", "155727.701000", "155727.704000", "155727.707000", "155727.709000", "155727.712000", "155727.714000", "155727.717000", "155727.719000", "155727.722000", "155727.724000", "155727.727000", "155727.729000", "155727.732000", "155727.734000", "155727.737000", "155727.739000", "155727.742000", "155727.744000", "155727.747000", "155727.749000", "155727.752000", "155727.754000", "155807.708000", "155807.711000", "155807.719000", "155807.722000", "155807.724000", "155807.727000", "155807.730000", "155807.732000", "155807.734000", "155807.737000", "155807.740000", "155807.742000", "155807.745000", "155807.747000", "155807.750000", "155807.752000", "155807.755000", "155807.757000", "155807.760000", "155807.762000", "155807.765000", "155807.768000", "155807.819000", "155807.822000", "155807.824000", "155807.827000", "155848.205000", "155848.208000", "155848.211000", "155848.213000", "155848.216000", "155848.218000", "155848.221000", "155848.223000", "155848.226000", "155848.228000", "155848.231000", "155848.233000", "155848.236000", "155848.238000", "155848.241000", "155848.244000", "155848.246000", "155848.249000", "155848.251000", "155848.254000", "155848.256000", "155848.259000", "155848.261000", "155848.264000", "155848.266000", "155848.269000", "155848.271000", "155927.677000", "155927.679000", "155927.682000", "155927.684000", "155927.687000", "155927.689000", "155927.692000", "155927.694000", "155927.697000", "155927.699000", "155927.702000", "155927.704000", "155927.707000", "155927.709000", "155927.712000", "155927.714000", "155927.717000", "155927.719000", "155927.722000", "155927.724000", "155927.727000", "155927.729000", "155927.732000", "155927.734000", "155927.737000", "155927.739000", "155927.742000", "160007.676000", "160007.687000", "160007.689000", "160007.692000", "160007.695000", "160007.697000", "160007.700000", "160007.702000", "160007.716000", "160007.719000", "160007.722000", "160007.724000", "160007.727000", "160007.729000", "160007.732000", "160007.734000", "160007.737000", "160007.740000", "160007.742000", "160007.745000", "160007.747000", "160007.750000", "160007.752000", "160007.755000", "160007.757000", "160007.760000", "160007.762000", "160047.699000", "160047.702000", "160047.704000", "160047.707000", "160047.709000", "160047.712000", "160047.714000", "160047.717000", "160047.719000", "160047.722000", "160047.724000", "160047.727000", "160047.729000", "160047.732000", "160047.734000", "160047.737000", "160047.739000", "160047.742000", "160047.744000", "160047.747000", "160047.757000", "160047.760000", "160047.762000", "160047.765000", "160047.767000", "160047.770000", "160047.772000", "160050.989000", "160050.992000"],
      "InstanceNumber": [1, 2, 3, 4, 5, 6, 7, 8, 9, 10, 11, 12, 13, 14, 15, 16, 17, 18, 19, 20, 21, 22, 23, 24, 25, 26, 27, 28, 29, 30, 31, 32, 33, 34, 35, 36, 37, 38, 39, 40, 41, 42, 43, 44, 45, 46, 47, 48, 49, 50, 51, 52, 53, 54, 55, 56, 57, 58, 59, 60, 61, 62, 63, 64, 65, 66, 67, 68, 69, 70, 71, 72, 73, 74, 75, 76, 77, 78, 79, 80, 81, 82, 83, 84, 85, 86, 87, 88, 89, 90, 91, 92, 93, 94, 95, 96, 97, 98, 99, 100, 101, 102, 103, 104, 105, 106, 107, 108, 109, 110, 111, 112, 113, 114, 115, 116, 117, 118, 119, 120, 121, 122, 123, 124, 125, 126, 127, 128, 129, 130, 131, 132, 133, 134, 135, 136, 137, 138, 139, 140, 141, 142, 143, 144, 145, 146, 147, 148, 149, 150, 151, 152, 153, 154, 155, 156, 157, 158, 159, 160, 161, 162, 163, 164, 165, 166, 167, 168, 169, 170, 171, 172, 173, 174, 175, 176, 177, 178, 179, 180, 181, 182, 183, 184, 185, 186, 187, 188, 189, 190, 191, 192, 193, 194, 195, 196, 197, 198, 199, 200, 201, 202, 203, 204, 205, 206, 207, 208, 209, 210, 211, 212, 213, 214, 215, 216, 217, 218, 219, 220, 221, 222, 223, 224, 225, 226, 227, 228, 229, 230, 231, 232, 233, 234, 235, 236, 237, 238, 239, 240, 241, 242, 243, 244, 245, 246, 247, 248, 249, 250, 251, 252, 253, 254, 255, 256, 257, 258, 259, 260, 261, 262, 263, 264, 265, 266, 267, 268, 269, 270, 271, 272, 273, 274, 275, 276, 277, 278, 279, 280, 281, 282, 283, 284, 285, 286, 287, 288, 289, 290, 291, 292, 293, 294, 295, 296, 297, 298, 299, 300, 301, 302, 303, 304, 305, 306, 307, 308, 309, 310],
      "WindowCenter": [4882.0, 4884.0, 4882.0, 4884.0, 4860.0, 4884.0, 4862.0, 4884.0, 4888.0, 4886.0, 4884.0, 4882.0, 4886.0, 4882.0, 4884.0, 4886.0, 4884.0, 4884.0, 4886.0, 4884.0, 4886.0, 4886.0, 4888.0, 4886.0, 4882.0, 4886.0, 4886.0, 4882.0, 4884.0, 4884.0, 4882.0, 4884.0, 4882.0, 4884.0, 4908.0, 4882.0, 4882.0, 4882.0, 4888.0, 4884.0, 4888.0, 4884.0, 4886.0, 4882.0, 4904.0, 4884.0, 4884.0, 4884.0, 4908.0, 4882.0, 4886.0, 4886.0, 4884.0, 4886.0, 4886.0, 4886.0, 4884.0, 4908.0, 4908.0, 4886.0, 4884.0, 4910.0, 4908.0, 4884.0, 4860.0, 4886.0, 4884.0, 4886.0, 4908.0, 4906.0, 4906.0, 4886.0, 4886.0, 4886.0, 4884.0, 4910.0, 4882.0, 4884.0, 4886.0, 4882.0, 4884.0, 4906.0, 4884.0, 4906.0, 4880.0, 4906.0, 4908.0, 4908.0, 4886.0, 4884.0, 4882.0, 4880.0, 4904.0, 4908.0, 4886.0, 4886.0, 4886.0, 4906.0, 4908.0, 4884.0, 4908.0, 4910.0, 4906.0, 4908.0, 4908.0, 4882.0, 4886.0, 4882.0, 4878.0, 4884.0, 4886.0, 4908.0, 4910.0, 4908.0, 4908.0, 4884.0, 4886.0, 4882.0, 4886.0, 4886.0, 4910.0, 4882.0, 4886.0, 4910.0, 4908.0, 4906.0, 4906.0, 4882.0, 4886.0, 4906.0, 4886.0, 4884.0, 4888.0, 4886.0, 4882.0, 4910.0, 4884.0, 4906.0, 4908.0, 4884.0, 4886.0, 4882.0, 4908.0, 4886.0, 4886.0, 4886.0, 4884.0, 4886.0, 4906.0, 4884.0, 4904.0, 4908.0, 4906.0, 4908.0, 4882.0, 4886.0, 4886.0, 4908.0, 4912.0, 4886.0, 4906.0, 4906.0, 4904.0, 4906.0, 4910.0, 4910.0, 4888.0, 4884.0, 4884.0, 4884.0, 4908.0, 4906.0, 4906.0, 4908.0, 4906.0, 4908.0, 4884.0, 4884.0, 4886.0, 4908.0, 4882.0, 4908.0, 4908.0, 4910.0, 4904.0, 4910.0, 4900.0, 4904.0, 4886.0, 4884.0, 4906.0, 4882.0, 4884.0, 4886.0, 4884.0, 4908.0, 4906.0, 4908.0, 4908.0, 4884.0, 4880.0, 4882.0, 4882.0, 4886.0, 4882.0, 4908.0, 4910.0, 4910.0, 4906.0, 4908.0, 4904.0, 4908.0, 4882.0, 4884.0, 4882.0, 4904.0, 4906.0, 4906.0, 4906.0, 4910.0, 4908.0, 4906.0, 4904.0, 4906.0, 4906.0, 4904.0, 4910.0, 4904.0, 4908.0, 4910.0, 4904.0, 4906.0, 4906.0, 4906.0, 4910.0, 4904.0, 4910.0, 4910.0, 4906.0, 4908.0, 4906.0, 4910.0, 4908.0, 4908.0, 4884.0, 4884.0, 4886.0, 4884.0, 4886.0, 4884.0, 4886.0, 4910.0, 4906.0, 4882.0, 4906.0, 4908.0, 4908.0, 4906.0, 4910.0, 4884.0, 4886.0, 4908.0, 4910.0, 4906.0, 4906.0, 4908.0, 4908.0, 4910.0, 4906.0, 4906.0, 4910.0, 4906.0, 4912.0, 4908.0, 4886.0, 4908.0, 4908.0, 4908.0, 4910.0, 4910.0, 4910.0, 4910.0, 4908.0, 4910.0, 4886.0, 4886.0, 4886.0, 4910.0, 4904.0, 4886.0, 4886.0, 4908.0, 4908.0, 4908.0, 4904.0, 4906.0, 4910.0, 4886.0, 4886.0, 4880.0, 4882.0, 4906.0, 4908.0, 4908.0, 4908.0, 4904.0, 4886.0, 4886.0, 4882.0, 4908.0],
