{
  "AcquisitionMatrixPE": 104,
  "AcquisitionNumber": 1,
  "AcquisitionTime": "16:03:9.290000",
  "BandwidthPerPixelPhaseEncode": 17.17,
  "BaseResolution": 104,
  "BodyPartExamined": "BRAIN",
  "CoilCombinationMethod": "Sum of Squares",
  "ConsistencyInfo": "N4_VE11C_LATEST_20160120",
  "ConversionSoftware": "dcm2niix",
  "ConversionSoftwareVersion": "v1.0.20220505",
  "DerivedVendorReportedEchoSpacing": 0.000560011,
  "DeviceSerialNumber": "167006",
  "DwellTime": 2.1e-06,
  "EchoTime": 0.037,
  "EchoTime1": 0.037,
  "EchoTime2": 0.001,
  "EchoTrainLength": 104,
  "EffectiveEchoSpacing": 0.000560011,
  "FlipAngle": 52,
  "HeudiconvVersion": "0.5.3.post811+g6206e14",
  "ImageComments": "Unaliased MB4/PE3/LB",
  "ImageOrientationPatientDICOM": [0.999388, 0.019371, 0.0291166, -0.00994255, 0.955603, -0.294491],
  "ImageOrientationText": "Tra>Cor(-17.1)>Sag(1.9)",
  "ImageType": [
    "ORIGINAL",
    "PRIMARY",
    "P",
    "MB",
    "ND",
    "MOSAIC",
    "PHASE"
],
  "ImagingFrequency": 123.26,
  "InPlanePhaseEncodingDirectionDICOM": "COL",
  "InstitutionAddress": "Chemin Queen-Mary 4565,Montreal,District,CA,H3W 1W5",
  "InstitutionName": "IUGM",
  "InstitutionalDepartmentName": "Department",
  "MRAcquisitionType": "2D",
  "MagneticFieldStrength": 3,
  "Manufacturer": "Siemens",
  "ManufacturersModelName": "Prisma_fit",
  "MatrixCoilMode": "SENSE",
  "Modality": "MR",
  "MultibandAccelerationFactor": 4,
  "PartialFourier": 1,
  "PatientPosition": "HFS",
  "PercentPhaseFOV": 100,
  "PercentSampling": 100,
  "PhaseEncodingDirection": "j",
  "PhaseEncodingSteps": 104,
  "PhaseResolution": 1,
  "PixelBandwidth": 2290,
  "ProcedureStepDescription": "games^mario3",
  "ProtocolName": "func_task-mario3_run-02",
  "PulseSequenceDetails": "%CustomerSeq%\\cmrr_mbep2d_bold",
  "ReceiveCoilActiveElements": "HC1-7;NC1,2",
  "ReceiveCoilName": "HeadNeck_64",
  "ReconMatrixPE": 104,
  "RepetitionTime": 1.49,
  "SAR": 0.0632438,
  "ScanOptions": "FS",
  "ScanningSequence": "EP",
  "SequenceName": "epfid2d1_104",
  "SequenceVariant": "SK\\SS",
  "SeriesDescription": "func_task-mario3_run-02",
  "SeriesNumber": 14,
  "ShimSetting": [622, -7201, -8762, 694, 63, 15, -20, 5],
  "SliceThickness": 2,
  "SliceTiming": [0, 0.785, 0.1, 0.8825, 0.1975, 0.98, 0.295, 1.0775, 0.3925, 1.1775, 0.49, 1.275, 0.59, 1.3725, 0.6875, 0, 0.785, 0.1, 0.8825, 0.1975, 0.98, 0.295, 1.0775, 0.3925, 1.1775, 0.49, 1.275, 0.59, 1.3725, 0.6875, 0, 0.785, 0.1, 0.8825, 0.1975, 0.98, 0.295, 1.0775, 0.3925, 1.1775, 0.49, 1.275, 0.59, 1.3725, 0.6875, 0, 0.785, 0.1, 0.8825, 0.1975, 0.98, 0.295, 1.0775, 0.3925, 1.1775, 0.49, 1.275, 0.59, 1.3725, 0.6875],
  "SoftwareVersions": "syngo MR E11",
  "SpacingBetweenSlices": 2,
  "StationName": "MRC35049",
  "TaskName": "mario3",
  "TotalReadoutTime": 0.0576811,
  "TxRefAmp": 233.337,
  "WipMemBlock": "489a4e88-4d1b-4335-89a9-725143fc6a04||Sequence: R017 ve11c/master r/75a17815+; Jun 28 2022 16:32:11 by eja",
  "dcmmeta_affine": [
    [-1.9987765550613403, -0.019885102286934853, 0.06705693155527115, 107.79051208496094],
    [-0.038742098957300186, 1.9112052917480469, -0.5880419015884399, -69.23804473876953],
    [0.058233149349689484, 0.5889811515808105, 1.910421371459961, -61.62661361694336],
    [0.0, 0.0, 0.0, 1.0]
],
  "dcmmeta_reorient_transform": [
    [0.0, -1.0, 0.0, 103.0],
    [1.0, 0.0, 0.0, 0.0],
    [0.0, 0.0, 1.0, 0.0],
    [0.0, 0.0, 0.0, 1.0]
],
  "dcmmeta_shape": [104, 104, 60, 339],
  "dcmmeta_slice_dim": 2,
  "dcmmeta_version": 0.6,
  "global": {
    "const": {
      "AcquisitionMatrix": [104, 0, 0, 104],
      "AngioFlag": "N",
      "BitsAllocated": 16,
      "BitsStored": 16,
      "BodyPartExamined": "BRAIN",
      "Columns": 832,
      "EchoNumbers": 1,
      "EchoTime": 37.0,
      "EchoTrainLength": 104,
      "FlipAngle": 52.0,
      "HighBit": 15,
      "ImageOrientationPatient": [0.9993883066943, 0.01937104908695, 0.02911657431717, -0.0099425509622, 0.9556026600238, -0.2944905802157],
      "ImagePositionPatient": [-826.05885318603, -837.39696562553, 192.23072140005],
      "ImageType": [
        "ORIGINAL",
        "PRIMARY",
        "P",
        "MB",
        "ND",
        "MOSAIC"
],
      "ImagedNucleus": "1H",
      "ImagingFrequency": 123.260207,
      "InPlanePhaseEncodingDirection": "COL",
      "LargestImagePixelValue": 4095,
      "MRAcquisitionType": "2D",
      "MagneticFieldStrength": 3.0,
      "Manufacturer": "SIEMENS",
      "ManufacturerModelName": "Prisma_fit",
      "Modality": "MR",
      "NumberOfAverages": 1.0,
      "NumberOfPhaseEncodingSteps": 104,
      "PercentPhaseFieldOfView": 100.0,
      "PercentSampling": 100.0,
      "PerformedProcedureStepStartTime": "152134.922000",
      "PhotometricInterpretation": "MONOCHROME2",
      "PixelBandwidth": 2290.0,
      "PixelRepresentation": 0,
      "PixelSpacing": [2.0, 2.0],
      "ProtocolName": "func_task-mario3_run-02",
      "RepetitionTime": 1490.0,
      "RescaleIntercept": -4096.0,
      "RescaleSlope": 2.0,
      "RescaleType": "US",
      "Rows": 832,
      "SAR": 0.06324383579067,
      "SamplesPerPixel": 1,
      "ScanOptions": "FS",
      "ScanningSequence": "EP",
      "SequenceName": "epfid2d1_104",
      "SequenceVariant": [
        "SK",
        "SS"
],
      "SeriesDescription": "func_task-mario3_run-02",
      "SeriesNumber": 14,
      "SeriesTime": "160418.173000",
      "SliceLocation": -34.894917299429,
      "SliceThickness": 2.0,
      "SmallestImagePixelValue": 0,
      "SoftwareVersions": "syngo MR E11",
      "SpacingBetweenSlices": 1.9999999591609,
      "SpecificCharacterSet": "ISO_IR 100",
      "StudyID": "1",
      "StudyTime": "152134.849000",
      "TransmitCoilName": "Body",
      "VariableFlipAngleFlag": "N",
      "WindowCenterWidthExplanation": "Algo1",
      "dBdt": 0.0},
    "slices": {}
  },
  "time": {
    "samples": {
      "AcquisitionNumber": [1, 2, 3, 4, 5, 6, 7, 8, 9, 10, 11, 12, 13, 14, 15, 16, 17, 18, 19, 20, 21, 22, 23, 24, 25, 26, 27, 28, 29, 30, 31, 32, 33, 34, 35, 36, 37, 38, 39, 40, 41, 42, 43, 44, 45, 46, 47, 48, 49, 50, 51, 52, 53, 54, 55, 56, 57, 58, 59, 60, 61, 62, 63, 64, 65, 66, 67, 68, 69, 70, 71, 72, 73, 74, 75, 76, 77, 78, 79, 80, 81, 82, 83, 84, 85, 86, 87, 88, 89, 90, 91, 92, 93, 94, 95, 96, 97, 98, 99, 100, 101, 102, 103, 104, 105, 106, 107, 108, 109, 110, 111, 112, 113, 114, 115, 116, 117, 118, 119, 120, 121, 122, 123, 124, 125, 126, 127, 128, 129, 130, 131, 132, 133, 134, 135, 136, 137, 138, 139, 140, 141, 142, 143, 144, 145, 146, 147, 148, 149, 150, 151, 152, 153, 154, 155, 156, 157, 158, 159, 160, 161, 162, 163, 164, 165, 166, 167, 168, 169, 170, 171, 172, 173, 174, 175, 176, 177, 178, 179, 180, 181, 182, 183, 184, 185, 186, 187, 188, 189, 190, 191, 192, 193, 194, 195, 196, 197, 198, 199, 200, 201, 202, 203, 204, 205, 206, 207, 208, 209, 210, 211, 212, 213, 214, 215, 216, 217, 218, 219, 220, 221, 222, 223, 224, 225, 226, 227, 228, 229, 230, 231, 232, 233, 234, 235, 236, 237, 238, 239, 240, 241, 242, 243, 244, 245, 246, 247, 248, 249, 250, 251, 252, 253, 254, 255, 256, 257, 258, 259, 260, 261, 262, 263, 264, 265, 266, 267, 268, 269, 270, 271, 272, 273, 274, 275, 276, 277, 278, 279, 280, 281, 282, 283, 284, 285, 286, 287, 288, 289, 290, 291, 292, 293, 294, 295, 296, 297, 298, 299, 300, 301, 302, 303, 304, 305, 306, 307, 308, 309, 310, 311, 312, 313, 314, 315, 316, 317, 318, 319, 320, 321, 322, 323, 324, 325, 326, 327, 328, 329, 330, 331, 332, 333, 334, 335, 336, 337, 338, 339],
      "AcquisitionTime": ["160309.290000", "160310.780000", "160312.270000", "160313.760000", "160315.250000", "160316.740000", "160318.230000", "160319.720000", "160321.210000", "160322.700000", "160324.190000", "160325.680000", "160327.170000", "160328.660000", "160330.150000", "160331.640000", "160333.130000", "160334.620000", "160336.110000", "160337.600000", "160339.090000", "160340.580000", "160342.070000", "160343.560000", "160345.050000", "160346.540000", "160348.030000", "160349.520000", "160351.010000", "160352.500000", "160353.990000", "160355.480000", "160356.970000", "160358.460000", "160359.950000", "160401.440000", "160402.930000", "160404.420000", "160405.910000", "160407.400000", "160408.890000", "160410.380000", "160411.870000", "160413.360000", "160414.850000", "160416.340000", "160417.830000", "160419.320000", "160420.810000", "160422.300000", "160423.790000", "160425.280000", "160426.770000", "160428.260000", "160429.750000", "160431.240000", "160432.730000", "160434.220000", "160435.710000", "160437.200000", "160438.690000", "160440.180000", "160441.670000", "160443.160000", "160444.650000", "160446.140000", "160447.630000", "160449.120000", "160450.610000", "160452.100000", "160453.590000", "160455.080000", "160456.570000", "160458.060000", "160459.550000", "160501.040000", "160502.530000", "160504.020000", "160505.510000", "160507.000000", "160508.490000", "160509.980000", "160511.470000", "160512.960000", "160514.450000", "160515.940000", "160517.430000", "160518.920000", "160520.410000", "160521.900000", "160523.390000", "160524.880000", "160526.370000", "160527.860000", "160529.350000", "160530.840000", "160532.330000", "160533.820000", "160535.310000", "160536.800000", "160538.290000", "160539.780000", "160541.270000", "160542.760000", "160544.250000", "160545.740000", "160547.230000", "160548.720000", "160550.210000", "160551.700000", "160553.190000", "160554.680000", "160556.170000", "160557.660000", "160559.150000", "160600.640000", "160602.130000", "160603.620000", "160605.110000", "160606.600000", "160608.090000", "160609.580000", "160611.070000", "160612.560000", "160614.050000", "160615.540000", "160617.030000", "160618.520000", "160620.010000", "160621.500000", "160622.990000", "160624.480000", "160625.970000", "160627.460000", "160628.950000", "160630.440000", "160631.930000", "160633.420000", "160634.910000", "160636.400000", "160637.890000", "160639.380000", "160640.870000", "160642.360000", "160643.850000", "160645.340000", "160646.830000", "160648.320000", "160649.810000", "160651.300000", "160652.790000", "160654.280000", "160655.770000", "160657.260000", "160658.750000", "160700.240000", "160701.730000", "160703.220000", "160704.710000", "160706.200000", "160707.690000", "160709.180000", "160710.670000", "160712.160000", "160713.650000", "160715.140000", "160716.630000", "160718.120000", "160719.610000", "160721.100000", "160722.590000", "160724.080000", "160725.570000", "160727.060000", "160728.550000", "160730.040000", "160731.530000", "160733.020000", "160734.510000", "160736.000000", "160737.490000", "160738.980000", "160740.470000", "160741.960000", "160743.450000", "160744.940000", "160746.430000", "160747.920000", "160749.410000", "160750.900000", "160752.390000", "160753.880000", "160755.370000", "160756.860000", "160758.350000", "160759.840000", "160801.330000", "160802.820000", "160804.310000", "160805.800000", "160807.290000", "160808.780000", "160810.270000", "160811.760000", "160813.250000", "160814.740000", "160816.230000", "160817.720000", "160819.210000", "160820.700000", "160822.190000", "160823.680000", "160825.170000", "160826.660000", "160828.150000", "160829.640000", "160831.130000", "160832.620000", "160834.110000", "160835.600000", "160837.090000", "160838.580000", "160840.070000", "160841.560000", "160843.050000", "160844.540000", "160846.030000", "160847.520000", "160849.010000", "160850.500000", "160851.990000", "160853.480000", "160854.970000", "160856.460000", "160857.950000", "160859.440000", "160900.930000", "160902.420000", "160903.910000", "160905.400000", "160906.890000", "160908.380000", "160909.870000", "160911.360000", "160912.850000", "160914.340000", "160915.830000", "160917.320000", "160918.810000", "160920.300000", "160921.790000", "160923.280000", "160924.770000", "160926.260000", "160927.750000", "160929.240000", "160930.730000", "160932.220000", "160933.710000", "160935.200000", "160936.690000", "160938.180000", "160939.670000", "160941.160000", "160942.650000", "160944.140000", "160945.630000", "160947.120000", "160948.610000", "160950.100000", "160951.590000", "160953.080000", "160954.570000", "160956.060000", "160957.550000", "160959.040000", "161000.530000", "161002.020000", "161003.510000", "161005.000000", "161006.490000", "161007.980000", "161009.470000", "161010.960000", "161012.450000", "161013.940000", "161015.430000", "161016.920000", "161018.410000", "161019.900000", "161021.390000", "161022.880000", "161024.370000", "161025.860000", "161027.350000", "161028.840000", "161030.330000", "161031.820000", "161033.310000", "161034.800000", "161036.290000", "161037.780000", "161039.270000", "161040.760000", "161042.250000", "161043.740000", "161045.230000", "161046.720000", "161048.210000", "161049.700000", "161051.190000", "161052.680000", "161054.170000", "161055.660000", "161057.150000", "161058.640000", "161100.130000", "161101.620000", "161103.110000", "161104.600000", "161106.090000", "161107.580000", "161109.070000", "161110.560000", "161112.050000", "161113.540000", "161115.030000", "161116.520000", "161118.010000", "161119.500000", "161120.990000", "161122.480000", "161123.970000", "161125.460000", "161126.950000", "161128.440000", "161129.930000", "161131.420000", "161132.910000"],
      "ContentTime": ["160418.176000", "160418.178000", "160418.181000", "160418.183000", "160418.186000", "160418.188000", "160418.191000", "160418.193000", "160418.196000", "160418.198000", "160418.201000", "160418.203000", "160418.206000", "160418.208000", "160418.211000", "160418.213000", "160418.216000", "160418.218000", "160418.221000", "160438.133000", "160438.136000", "160438.138000", "160438.141000", "160438.143000", "160438.146000", "160438.148000", "160438.151000", "160438.153000", "160438.156000", "160438.158000", "160438.161000", "160438.163000", "160438.166000", "160438.168000", "160438.171000", "160438.173000", "160438.176000", "160438.178000", "160438.181000", "160438.183000", "160458.132000", "160458.135000", "160458.137000", "160458.140000", "160458.142000", "160458.145000", "160458.147000", "160458.150000", "160458.152000", "160458.155000", "160458.157000", "160458.160000", "160458.162000", "160458.165000", "160458.167000", "160458.170000", "160458.172000", "160458.175000", "160458.177000", "160458.180000", "160518.125000", "160518.128000", "160518.131000", "160518.133000", "160518.136000", "160518.138000", "160518.141000", "160518.143000", "160518.146000", "160518.148000", "160518.151000", "160518.160000", "160518.163000", "160518.165000", "160518.168000", "160518.170000", "160518.173000", "160518.175000", "160518.178000", "160518.181000", "160558.175000", "160558.177000", "160558.180000", "160558.182000", "160558.185000", "160558.187000", "160558.190000", "160558.202000", "160558.205000", "160558.207000", "160558.210000", "160558.212000", "160558.215000", "160558.217000", "160558.220000", "160558.222000", "160558.225000", "160558.227000", "160558.230000", "160558.232000", "160558.234000", "160558.237000", "160558.239000", "160558.242000", "160558.244000", "160558.247000", "160558.249000", "160558.252000", "160558.254000", "160558.257000", "160558.259000", "160558.262000", "160638.142000", "160638.145000", "160638.147000", "160638.150000", "160638.152000", "160638.155000", "160638.157000", "160638.160000", "160638.162000", "160638.165000", "160638.167000", "160638.170000", "160638.172000", "160638.175000", "160638.177000", "160638.180000", "160638.182000", "160638.185000", "160638.187000", "160638.190000", "160638.192000", "160638.195000", "160638.197000", "160638.200000", "160638.202000", "160638.205000", "160638.208000", "160718.201000", "160718.204000", "160718.206000", "160718.209000", "160718.211000", "160718.214000", "160718.216000", "160718.219000", "160718.221000", "160718.223000", "160718.226000", "160718.228000", "160718.231000", "160718.233000", "160718.236000", "160718.238000", "160718.241000", "160718.243000", "160718.246000", "160718.248000", "160718.251000", "160718.253000", "160718.256000", "160718.258000", "160718.261000", "160718.263000", "160718.266000", "160758.170000", "160758.172000", "160758.175000", "160758.177000", "160758.180000", "160758.182000", "160758.185000", "160758.187000", "160758.190000", "160758.192000", "160758.195000", "160758.197000", "160758.200000", "160758.202000", "160758.205000", "160758.207000", "160758.210000", "160758.212000", "160758.215000", "160758.217000", "160758.220000", "160758.222000", "160758.225000", "160758.227000", "160758.230000", "160758.232000", "160758.235000", "160838.194000", "160838.197000", "160838.199000", "160838.202000", "160838.204000", "160838.207000", "160838.209000", "160838.212000", "160838.214000", "160838.217000", "160838.219000", "160838.222000", "160838.224000", "160838.227000", "160838.229000", "160838.232000", "160838.234000", "160838.236000", "160838.239000", "160838.241000", "160838.244000", "160838.246000", "160838.249000", "160838.251000", "160838.254000", "160838.256000", "160918.162000", "160918.165000", "160918.167000", "160918.170000", "160918.172000", "160918.174000", "160918.177000", "160918.179000", "160918.182000", "160918.185000", "160918.187000", "160918.190000", "160918.192000", "160918.195000", "160918.198000", "160918.201000", "160918.204000", "160918.207000", "160918.209000", "160918.212000", "160918.214000", "160918.217000", "160918.230000", "160918.232000", "160918.235000", "160918.263000", "160918.266000", "160958.153000", "160958.155000", "160958.158000", "160958.160000", "160958.163000", "160958.165000", "160958.168000", "160958.171000", "160958.173000", "160958.176000", "160958.178000", "160958.180000", "160958.183000", "160958.185000", "160958.188000", "160958.190000", "160958.193000", "160958.195000", "160958.198000", "160958.200000", "160958.203000", "160958.205000", "160958.208000", "160958.210000", "160958.213000", "160958.215000", "160958.218000", "161038.156000", "161038.159000", "161038.161000", "161038.164000", "161038.166000", "161038.169000", "161038.171000", "161038.174000", "161038.176000", "161038.179000", "161038.181000", "161038.184000", "161038.186000", "161038.189000", "161038.191000", "161038.194000", "161038.196000", "161038.199000", "161038.201000", "161038.204000", "161038.206000", "161038.209000", "161038.211000", "161038.214000", "161038.216000", "161038.219000", "161038.221000", "161118.175000", "161118.178000", "161118.180000", "161118.183000", "161118.185000", "161118.188000", "161118.190000", "161118.193000", "161118.195000", "161118.198000", "161118.200000", "161118.203000", "161118.205000", "161118.208000", "161118.210000", "161118.212000", "161118.215000", "161118.218000", "161118.220000", "161118.223000", "161118.225000", "161118.228000", "161118.230000", "161118.233000", "161118.235000", "161118.238000", "161118.240000", "161137.177000", "161137.180000", "161137.182000", "161137.185000", "161137.187000", "161137.190000", "161137.192000", "161137.195000", "161137.198000", "161137.203000", "161137.206000", "161137.209000"],
      "InstanceCreationTime": ["160418.176000", "160418.178000", "160418.181000", "160418.183000", "160418.186000", "160418.188000", "160418.191000", "160418.193000", "160418.196000", "160418.198000", "160418.201000", "160418.203000", "160418.206000", "160418.208000", "160418.211000", "160418.213000", "160418.216000", "160418.218000", "160418.221000", "160438.133000", "160438.136000", "160438.138000", "160438.141000", "160438.143000", "160438.146000", "160438.148000", "160438.151000", "160438.153000", "160438.156000", "160438.158000", "160438.161000", "160438.163000", "160438.166000", "160438.168000", "160438.171000", "160438.173000", "160438.176000", "160438.178000", "160438.181000", "160438.183000", "160458.132000", "160458.135000", "160458.137000", "160458.140000", "160458.142000", "160458.145000", "160458.147000", "160458.150000", "160458.152000", "160458.155000", "160458.157000", "160458.160000", "160458.162000", "160458.165000", "160458.167000", "160458.170000", "160458.172000", "160458.175000", "160458.177000", "160458.180000", "160518.125000", "160518.128000", "160518.131000", "160518.133000", "160518.136000", "160518.138000", "160518.141000", "160518.143000", "160518.146000", "160518.148000", "160518.151000", "160518.160000", "160518.163000", "160518.165000", "160518.168000", "160518.170000", "160518.173000", "160518.175000", "160518.178000", "160518.181000", "160558.175000", "160558.177000", "160558.180000", "160558.182000", "160558.185000", "160558.187000", "160558.190000", "160558.202000", "160558.205000", "160558.207000", "160558.210000", "160558.212000", "160558.215000", "160558.217000", "160558.220000", "160558.222000", "160558.225000", "160558.227000", "160558.230000", "160558.232000", "160558.234000", "160558.237000", "160558.239000", "160558.242000", "160558.244000", "160558.247000", "160558.249000", "160558.252000", "160558.254000", "160558.257000", "160558.259000", "160558.262000", "160638.142000", "160638.145000", "160638.147000", "160638.150000", "160638.152000", "160638.155000", "160638.157000", "160638.160000", "160638.162000", "160638.165000", "160638.167000", "160638.170000", "160638.172000", "160638.175000", "160638.177000", "160638.180000", "160638.182000", "160638.185000", "160638.187000", "160638.190000", "160638.192000", "160638.195000", "160638.197000", "160638.200000", "160638.202000", "160638.205000", "160638.208000", "160718.201000", "160718.204000", "160718.206000", "160718.209000", "160718.211000", "160718.214000", "160718.216000", "160718.219000", "160718.221000", "160718.223000", "160718.226000", "160718.228000", "160718.231000", "160718.233000", "160718.236000", "160718.238000", "160718.241000", "160718.243000", "160718.246000", "160718.248000", "160718.251000", "160718.253000", "160718.256000", "160718.258000", "160718.261000", "160718.263000", "160718.266000", "160758.170000", "160758.172000", "160758.175000", "160758.177000", "160758.180000", "160758.182000", "160758.185000", "160758.187000", "160758.190000", "160758.192000", "160758.195000", "160758.197000", "160758.200000", "160758.202000", "160758.205000", "160758.207000", "160758.210000", "160758.212000", "160758.215000", "160758.217000", "160758.220000", "160758.222000", "160758.225000", "160758.227000", "160758.230000", "160758.232000", "160758.235000", "160838.194000", "160838.197000", "160838.199000", "160838.202000", "160838.204000", "160838.207000", "160838.209000", "160838.212000", "160838.214000", "160838.217000", "160838.219000", "160838.222000", "160838.224000", "160838.227000", "160838.229000", "160838.232000", "160838.234000", "160838.236000", "160838.239000", "160838.241000", "160838.244000", "160838.246000", "160838.249000", "160838.251000", "160838.254000", "160838.256000", "160918.162000", "160918.165000", "160918.167000", "160918.170000", "160918.172000", "160918.174000", "160918.177000", "160918.179000", "160918.182000", "160918.185000", "160918.187000", "160918.190000", "160918.192000", "160918.195000", "160918.198000", "160918.201000", "160918.204000", "160918.207000", "160918.209000", "160918.212000", "160918.214000", "160918.217000", "160918.230000", "160918.232000", "160918.235000", "160918.263000", "160918.266000", "160958.153000", "160958.155000", "160958.158000", "160958.160000", "160958.163000", "160958.165000", "160958.168000", "160958.171000", "160958.173000", "160958.176000", "160958.178000", "160958.180000", "160958.183000", "160958.185000", "160958.188000", "160958.190000", "160958.193000", "160958.195000", "160958.198000", "160958.200000", "160958.203000", "160958.205000", "160958.208000", "160958.210000", "160958.213000", "160958.215000", "160958.218000", "161038.156000", "161038.159000", "161038.161000", "161038.164000", "161038.166000", "161038.169000", "161038.171000", "161038.174000", "161038.176000", "161038.179000", "161038.181000", "161038.184000", "161038.186000", "161038.189000", "161038.191000", "161038.194000", "161038.196000", "161038.199000", "161038.201000", "161038.204000", "161038.206000", "161038.209000", "161038.211000", "161038.214000", "161038.216000", "161038.219000", "161038.221000", "161118.175000", "161118.178000", "161118.180000", "161118.183000", "161118.185000", "161118.188000", "161118.190000", "161118.193000", "161118.195000", "161118.198000", "161118.200000", "161118.203000", "161118.205000", "161118.208000", "161118.210000", "161118.212000", "161118.215000", "161118.218000", "161118.220000", "161118.223000", "161118.225000", "161118.228000", "161118.230000", "161118.233000", "161118.235000", "161118.238000", "161118.240000", "161137.177000", "161137.180000", "161137.182000", "161137.185000", "161137.187000", "161137.190000", "161137.192000", "161137.195000", "161137.198000", "161137.203000", "161137.206000", "161137.209000"],
      "InstanceNumber": [1, 2, 3, 4, 5, 6, 7, 8, 9, 10, 11, 12, 13, 14, 15, 16, 17, 18, 19, 20, 21, 22, 23, 24, 25, 26, 27, 28, 29, 30, 31, 32, 33, 34, 35, 36, 37, 38, 39, 40, 41, 42, 43, 44, 45, 46, 47, 48, 49, 50, 51, 52, 53, 54, 55, 56, 57, 58, 59, 60, 61, 62, 63, 64, 65, 66, 67, 68, 69, 70, 71, 72, 73, 74, 75, 76, 77, 78, 79, 80, 81, 82, 83, 84, 85, 86, 87, 88, 89, 90, 91, 92, 93, 94, 95, 96, 97, 98, 99, 100, 101, 102, 103, 104, 105, 106, 107, 108, 109, 110, 111, 112, 113, 114, 115, 116, 117, 118, 119, 120, 121, 122, 123, 124, 125, 126, 127, 128, 129, 130, 131, 132, 133, 134, 135, 136, 137, 138, 139, 140, 141, 142, 143, 144, 145, 146, 147, 148, 149, 150, 151, 152, 153, 154, 155, 156, 157, 158, 159, 160, 161, 162, 163, 164, 165, 166, 167, 168, 169, 170, 171, 172, 173, 174, 175, 176, 177, 178, 179, 180, 181, 182, 183, 184, 185, 186, 187, 188, 189, 190, 191, 192, 193, 194, 195, 196, 197, 198, 199, 200, 201, 202, 203, 204, 205, 206, 207, 208, 209, 210, 211, 212, 213, 214, 215, 216, 217, 218, 219, 220, 221, 222, 223, 224, 225, 226, 227, 228, 229, 230, 231, 232, 233, 234, 235, 236, 237, 238, 239, 240, 241, 242, 243, 244, 245, 246, 247, 248, 249, 250, 251, 252, 253, 254, 255, 256, 257, 258, 259, 260, 261, 262, 263, 264, 265, 266, 267, 268, 269, 270, 271, 272, 273, 274, 275, 276, 277, 278, 279, 280, 281, 282, 283, 284, 285, 286, 287, 288, 289, 290, 291, 292, 293, 294, 295, 296, 297, 298, 299, 300, 301, 302, 303, 304, 305, 306, 307, 308, 309, 310, 311, 312, 313, 314, 315, 316, 317, 318, 319, 320, 321, 322, 323, 324, 325, 326, 327, 328, 329, 330, 331, 332, 333, 334, 335, 336, 337, 338, 339],
      "WindowCenter": [4858.0, 4862.0, 4864.0, 4858.0, 4838.0, 4858.0, 4858.0, 4862.0, 4862.0, 4862.0, 4862.0, 4862.0, 4860.0, 4862.0, 4860.0, 4862.0, 4862.0, 4862.0, 4866.0, 4864.0, 4864.0, 4866.0, 4864.0, 4864.0, 4864.0, 4860.0, 4862.0, 4860.0, 4838.0, 4862.0, 4862.0, 4862.0, 4862.0, 4864.0, 4860.0, 4862.0, 4860.0, 4864.0, 4864.0, 4860.0, 4864.0, 4860.0, 4864.0, 4864.0, 4862.0, 4866.0, 4862.0, 4866.0, 4866.0, 4866.0, 4864.0, 4864.0, 4862.0, 4862.0, 4868.0, 4864.0, 4864.0, 4864.0, 4868.0, 4862.0, 4866.0, 4864.0, 4862.0, 4836.0, 4862.0, 4860.0, 4862.0, 4862.0, 4864.0, 4864.0, 4864.0, 4862.0, 4864.0, 4838.0, 4860.0, 4840.0, 4862.0, 4866.0, 4862.0, 4864.0, 4858.0, 4862.0, 4838.0, 4860.0, 4860.0, 4860.0, 4860.0, 4862.0, 4862.0, 4862.0, 4860.0, 4860.0, 4862.0, 4836.0, 4866.0, 4866.0, 4860.0, 4864.0, 4862.0, 4864.0, 4864.0, 4862.0, 4860.0, 4862.0, 4858.0, 4838.0, 4862.0, 4862.0, 4860.0, 4864.0, 4864.0, 4864.0, 4864.0, 4864.0, 4862.0, 4864.0, 4858.0, 4864.0, 4860.0, 4862.0, 4864.0, 4862.0, 4860.0, 4862.0, 4864.0, 4860.0, 4862.0, 4858.0, 4862.0, 4864.0, 4862.0, 4866.0, 4862.0, 4862.0, 4862.0, 4866.0, 4866.0, 4860.0, 4860.0, 4862.0, 4864.0, 4858.0, 4860.0, 4858.0, 4860.0, 4862.0, 4862.0, 4862.0, 4858.0, 4856.0, 4862.0, 4862.0, 4858.0, 4858.0, 4860.0, 4834.0, 4838.0, 4862.0, 4862.0, 4860.0, 4858.0, 4862.0, 4860.0, 4864.0, 4860.0, 4864.0, 4862.0, 4862.0, 4864.0, 4860.0, 4864.0, 4860.0, 4862.0, 4860.0, 4860.0, 4858.0, 4860.0, 4862.0, 4860.0, 4862.0, 4860.0, 4858.0, 4862.0, 4836.0, 4862.0, 4862.0, 4860.0, 4862.0, 4862.0, 4862.0, 4860.0, 4862.0, 4862.0, 4856.0, 4836.0, 4864.0, 4862.0, 4858.0, 4862.0, 4862.0, 4860.0, 4862.0, 4864.0, 4860.0, 4858.0, 4836.0, 4838.0, 4860.0, 4862.0, 4860.0, 4864.0, 4864.0, 4864.0, 4862.0, 4860.0, 4862.0, 4864.0, 4862.0, 4836.0, 4836.0, 4858.0, 4862.0, 4860.0, 4864.0, 4866.0, 4864.0, 4862.0, 4836.0, 4860.0, 4858.0, 4860.0, 4858.0, 4862.0, 4860.0, 4866.0, 4866.0, 4862.0, 4864.0, 4862.0, 4860.0, 4862.0, 4862.0, 4860.0, 4840.0, 4862.0, 4862.0, 4862.0, 4860.0, 4858.0, 4864.0, 4858.0, 4862.0, 4834.0, 4860.0, 4858.0, 4858.0, 4860.0, 4862.0, 4860.0, 4862.0, 4862.0, 4862.0, 4864.0, 4858.0, 4838.0, 4836.0, 4862.0, 4862.0, 4862.0, 4888.0, 4864.0, 4886.0, 4864.0, 4864.0, 4864.0, 4860.0, 4862.0, 4858.0, 4836.0, 4834.0, 4860.0, 4862.0, 4860.0, 4864.0, 4860.0, 4862.0, 4838.0, 4862.0, 4860.0, 4866.0, 4864.0, 4860.0, 4862.0, 4858.0, 4838.0, 4862.0, 4862.0, 4856.0, 4858.0, 4856.0, 4862.0, 4860.0, 4858.0, 4862.0, 4860.0, 4864.0, 4858.0, 4858.0, 4834.0, 4860.0, 4862.0, 4862.0, 4860.0, 4862.0, 4860.0, 4860.0, 4862.0, 4860.0, 4860.0, 4860.0, 4860.0, 4858.0, 4862.0, 4862.0, 4862.0, 4860.0, 4860.0, 4860.0, 4862.0, 4862.0, 4864.0, 4862.0, 4864.0, 4858.0, 4864.0, 4860.0, 4864.0, 4862.0, 4836.0],
