{
  "AcquisitionMatrixPE": 104,
  "AcquisitionNumber": 1,
  "AcquisitionTime": "15:53:7.992500",
  "BandwidthPerPixelPhaseEncode": 17.17,
  "BaseResolution": 104,
  "BodyPartExamined": "BRAIN",
  "CoilCombinationMethod": "Sum of Squares",
  "ConsistencyInfo": "N4_VE11C_LATEST_20160120",
  "ConversionSoftware": "dcm2niix",
  "ConversionSoftwareVersion": "v1.0.20220505",
  "DerivedVendorReportedEchoSpacing": 0.000560011,
  "DeviceSerialNumber": "167006",
  "DwellTime": 2.1e-06,
  "EchoTime": 0.037,
  "EchoTrainLength": 104,
  "EffectiveEchoSpacing": 0.000560011,
  "FlipAngle": 52,
  "HeudiconvVersion": "0.5.3.post811+g6206e14",
  "ImageComments": "Unaliased MB4/PE3/LB",
  "ImageOrientationPatientDICOM": [0.999388, 0.019371, 0.0291166, -0.00994255, 0.955603, -0.294491],
  "ImageOrientationText": "Tra>Cor(-17.1)>Sag(1.9)",
  "ImageType": [
    "ORIGINAL",
    "PRIMARY",
    "M",
    "MB",
    "ND",
    "MOSAIC"
],
  "ImagingFrequency": 123.26,
  "InPlanePhaseEncodingDirectionDICOM": "COL",
  "InstitutionAddress": "Chemin Queen-Mary 4565,Montreal,District,CA,H3W 1W5",
  "InstitutionName": "IUGM",
  "InstitutionalDepartmentName": "Department",
  "MRAcquisitionType": "2D",
  "MagneticFieldStrength": 3,
  "Manufacturer": "Siemens",
  "ManufacturersModelName": "Prisma_fit",
  "MatrixCoilMode": "SENSE",
  "Modality": "MR",
  "MultibandAccelerationFactor": 4,
  "PartialFourier": 1,
  "PatientPosition": "HFS",
  "PercentPhaseFOV": 100,
  "PercentSampling": 100,
  "PhaseEncodingDirection": "j",
  "PhaseEncodingSteps": 104,
  "PhaseResolution": 1,
  "PixelBandwidth": 2290,
  "ProcedureStepDescription": "games^mario3",
  "ProtocolName": "func_task-mario3_run-01",
  "PulseSequenceDetails": "%CustomerSeq%\\cmrr_mbep2d_bold",
  "ReceiveCoilActiveElements": "HC1-7;NC1,2",
  "ReceiveCoilName": "HeadNeck_64",
  "ReconMatrixPE": 104,
  "RepetitionTime": 1.49,
  "SAR": 0.0632438,
  "ScanOptions": "FS",
  "ScanningSequence": "EP",
  "SequenceName": "epfid2d1_104",
  "SequenceVariant": "SK\\SS",
  "SeriesDescription": "func_task-mario3_run-01",
  "SeriesNumber": 10,
  "ShimSetting": [622, -7201, -8762, 694, 63, 15, -20, 5],
  "SliceThickness": 2,
  "SliceTiming": [0, 0.785, 0.0975, 0.8825, 0.195, 0.98, 0.295, 1.0775, 0.3925, 1.175, 0.49, 1.275, 0.5875, 1.3725, 0.685, 0, 0.785, 0.0975, 0.8825, 0.195, 0.98, 0.295, 1.0775, 0.3925, 1.175, 0.49, 1.275, 0.5875, 1.3725, 0.685, 0, 0.785, 0.0975, 0.8825, 0.195, 0.98, 0.295, 1.0775, 0.3925, 1.175, 0.49, 1.275, 0.5875, 1.3725, 0.685, 0, 0.785, 0.0975, 0.8825, 0.195, 0.98, 0.295, 1.0775, 0.3925, 1.175, 0.49, 1.275, 0.5875, 1.3725, 0.685],
  "SoftwareVersions": "syngo MR E11",
  "SpacingBetweenSlices": 2,
  "StationName": "MRC35049",
  "TaskName": "mario3",
  "TotalReadoutTime": 0.0576811,
  "TxRefAmp": 233.337,
  "WipMemBlock": "680c7487-3239-40a2-a4d1-e83fff9c5c2d||Sequence: R017 ve11c/master r/75a17815+; Jun 28 2022 16:32:11 by eja",
  "dcmmeta_affine": [
    [-1.9987765550613403, -0.019885102286934853, 0.06705693155527115, 107.79051208496094],
    [-0.038742098957300186, 1.9112052917480469, -0.5880419015884399, -69.23804473876953],
    [0.058233149349689484, 0.5889811515808105, 1.910421371459961, -61.62661361694336],
    [0.0, 0.0, 0.0, 1.0]
],
  "dcmmeta_reorient_transform": [
    [0.0, -1.0, 0.0, 103.0],
    [1.0, 0.0, 0.0, 0.0],
    [0.0, 0.0, 1.0, 0.0],
    [0.0, 0.0, 0.0, 1.0]
],
  "dcmmeta_shape": [104, 104, 60, 310],
  "dcmmeta_slice_dim": 2,
  "dcmmeta_version": 0.6,
  "global": {
    "const": {
      "AcquisitionMatrix": [104, 0, 0, 104],
      "AngioFlag": "N",
      "BitsAllocated": 16,
      "BitsStored": 16,
      "BodyPartExamined": "BRAIN",
      "Columns": 832,
      "EchoNumbers": 1,
      "EchoTime": 37.0,
      "EchoTrainLength": 104,
      "FlipAngle": 52.0,
      "HighBit": 15,
      "ImageOrientationPatient": [0.9993883066943, 0.01937104908695, 0.02911657431717, -0.0099425509622, 0.9556026600238, -0.2944905802157],
      "ImagePositionPatient": [-826.05885318603, -837.39696562553, 192.23072140005],
      "ImageType": [
        "ORIGINAL",
        "PRIMARY",
        "M",
        "MB",
        "ND",
        "MOSAIC"
],
      "ImagedNucleus": "1H",
      "ImagingFrequency": 123.260197,
      "InPlanePhaseEncodingDirection": "COL",
      "MRAcquisitionType": "2D",
      "MagneticFieldStrength": 3.0,
      "Manufacturer": "SIEMENS",
      "ManufacturerModelName": "Prisma_fit",
      "Modality": "MR",
      "NumberOfAverages": 1.0,
      "NumberOfPhaseEncodingSteps": 104,
      "PercentPhaseFieldOfView": 100.0,
      "PercentSampling": 100.0,
      "PerformedProcedureStepStartTime": "152134.922000",
      "PhotometricInterpretation": "MONOCHROME2",
      "PixelBandwidth": 2290.0,
      "PixelRepresentation": 0,
      "PixelSpacing": [2.0, 2.0],
      "ProtocolName": "func_task-mario3_run-01",
      "RepetitionTime": 1490.0,
      "Rows": 832,
      "SAR": 0.06324383579067,
      "SamplesPerPixel": 1,
      "ScanOptions": "FS",
      "ScanningSequence": "EP",
      "SequenceName": "epfid2d1_104",
      "SequenceVariant": [
        "SK",
        "SS"
],
      "SeriesDescription": "func_task-mario3_run-01",
      "SeriesNumber": 10,
      "SeriesTime": "155407.570000",
      "SliceLocation": -34.894917299429,
      "SliceThickness": 2.0,
      "SmallestImagePixelValue": 0,
      "SoftwareVersions": "syngo MR E11",
      "SpacingBetweenSlices": 1.9999999591609,
      "SpecificCharacterSet": "ISO_IR 100",
      "StudyID": "1",
      "StudyTime": "152134.849000",
      "TransmitCoilName": "Body",
      "VariableFlipAngleFlag": "N",
      "WindowCenterWidthExplanation": "Algo1",
      "dBdt": 0.0},
    "slices": {}
  },
  "time": {
    "samples": {
      "AcquisitionNumber": [1, 2, 3, 4, 5, 6, 7, 8, 9, 10, 11, 12, 13, 14, 15, 16, 17, 18, 19, 20, 21, 22, 23, 24, 25, 26, 27, 28, 29, 30, 31, 32, 33, 34, 35, 36, 37, 38, 39, 40, 41, 42, 43, 44, 45, 46, 47, 48, 49, 50, 51, 52, 53, 54, 55, 56, 57, 58, 59, 60, 61, 62, 63, 64, 65, 66, 67, 68, 69, 70, 71, 72, 73, 74, 75, 76, 77, 78, 79, 80, 81, 82, 83, 84, 85, 86, 87, 88, 89, 90, 91, 92, 93, 94, 95, 96, 97, 98, 99, 100, 101, 102, 103, 104, 105, 106, 107, 108, 109, 110, 111, 112, 113, 114, 115, 116, 117, 118, 119, 120, 121, 122, 123, 124, 125, 126, 127, 128, 129, 130, 131, 132, 133, 134, 135, 136, 137, 138, 139, 140, 141, 142, 143, 144, 145, 146, 147, 148, 149, 150, 151, 152, 153, 154, 155, 156, 157, 158, 159, 160, 161, 162, 163, 164, 165, 166, 167, 168, 169, 170, 171, 172, 173, 174, 175, 176, 177, 178, 179, 180, 181, 182, 183, 184, 185, 186, 187, 188, 189, 190, 191, 192, 193, 194, 195, 196, 197, 198, 199, 200, 201, 202, 203, 204, 205, 206, 207, 208, 209, 210, 211, 212, 213, 214, 215, 216, 217, 218, 219, 220, 221, 222, 223, 224, 225, 226, 227, 228, 229, 230, 231, 232, 233, 234, 235, 236, 237, 238, 239, 240, 241, 242, 243, 244, 245, 246, 247, 248, 249, 250, 251, 252, 253, 254, 255, 256, 257, 258, 259, 260, 261, 262, 263, 264, 265, 266, 267, 268, 269, 270, 271, 272, 273, 274, 275, 276, 277, 278, 279, 280, 281, 282, 283, 284, 285, 286, 287, 288, 289, 290, 291, 292, 293, 294, 295, 296, 297, 298, 299, 300, 301, 302, 303, 304, 305, 306, 307, 308, 309, 310],
      "AcquisitionTime": ["155307.992500", "155309.482500", "155310.972500", "155312.462500", "155313.952500", "155315.442500", "155316.932500", "155318.422500", "155319.912500", "155321.402500", "155322.892500", "155324.382500", "155325.872500", "155327.362500", "155328.852500", "155330.342500", "155331.832500", "155333.322500", "155334.812500", "155336.302500", "155337.792500", "155339.282500", "155340.772500", "155342.262500", "155343.752500", "155345.242500", "155346.732500", "155348.222500", "155349.712500", "155351.202500", "155352.692500", "155354.182500", "155355.672500", "155357.162500", "155358.652500", "155400.142500", "155401.632500", "155403.122500", "155404.612500", "155406.102500", "155407.592500", "155409.082500", "155410.572500", "155412.062500", "155413.552500", "155415.042500", "155416.532500", "155418.022500", "155419.512500", "155421.002500", "155422.492500", "155423.982500", "155425.472500", "155426.962500", "155428.452500", "155429.942500", "155431.432500", "155432.922500", "155434.412500", "155435.902500", "155437.392500", "155438.882500", "155440.372500", "155441.862500", "155443.352500", "155444.842500", "155446.332500", "155447.822500", "155449.312500", "155450.802500", "155452.292500", "155453.782500", "155455.272500", "155456.762500", "155458.252500", "155459.742500", "155501.232500", "155502.722500", "155504.212500", "155505.702500", "155507.192500", "155508.682500", "155510.172500", "155511.662500", "155513.152500", "155514.642500", "155516.132500", "155517.622500", "155519.112500", "155520.602500", "155522.092500", "155523.582500", "155525.072500", "155526.562500", "155528.052500", "155529.542500", "155531.032500", "155532.522500", "155534.012500", "155535.502500", "155536.992500", "155538.482500", "155539.972500", "155541.462500", "155542.952500", "155544.442500", "155545.932500", "155547.422500", "155548.912500", "155550.402500", "155551.892500", "155553.382500", "155554.872500", "155556.362500", "155557.852500", "155559.342500", "155600.832500", "155602.322500", "155603.812500", "155605.302500", "155606.792500", "155608.282500", "155609.772500", "155611.262500", "155612.752500", "155614.242500", "155615.732500", "155617.222500", "155618.712500", "155620.202500", "155621.692500", "155623.182500", "155624.672500", "155626.162500", "155627.652500", "155629.142500", "155630.632500", "155632.122500", "155633.612500", "155635.102500", "155636.592500", "155638.082500", "155639.572500", "155641.062500", "155642.552500", "155644.042500", "155645.532500", "155647.022500", "155648.512500", "155650.002500", "155651.492500", "155652.982500", "155654.472500", "155655.962500", "155657.452500", "155658.942500", "155700.432500", "155701.922500", "155703.412500", "155704.902500", "155706.392500", "155707.882500", "155709.372500", "155710.862500", "155712.352500", "155713.842500", "155715.332500", "155716.822500", "155718.312500", "155719.802500", "155721.292500", "155722.782500", "155724.272500", "155725.762500", "155727.252500", "155728.742500", "155730.232500", "155731.722500", "155733.212500", "155734.702500", "155736.192500", "155737.682500", "155739.172500", "155740.662500", "155742.152500", "155743.642500", "155745.132500", "155746.622500", "155748.112500", "155749.602500", "155751.092500", "155752.582500", "155754.072500", "155755.562500", "155757.052500", "155758.542500", "155800.032500", "155801.522500", "155803.012500", "155804.502500", "155805.992500", "155807.482500", "155808.972500", "155810.462500", "155811.952500", "155813.442500", "155814.932500", "155816.422500", "155817.912500", "155819.402500", "155820.892500", "155822.382500", "155823.872500", "155825.362500", "155826.852500", "155828.342500", "155829.832500", "155831.322500", "155832.812500", "155834.302500", "155835.792500", "155837.282500", "155838.772500", "155840.262500", "155841.752500", "155843.242500", "155844.732500", "155846.222500", "155847.712500", "155849.202500", "155850.692500", "155852.182500", "155853.672500", "155855.162500", "155856.652500", "155858.142500", "155859.632500", "155901.122500", "155902.612500", "155904.102500", "155905.592500", "155907.082500", "155908.572500", "155910.062500", "155911.552500", "155913.042500", "155914.532500", "155916.022500", "155917.512500", "155919.002500", "155920.492500", "155921.982500", "155923.472500", "155924.962500", "155926.452500", "155927.942500", "155929.432500", "155930.922500", "155932.412500", "155933.902500", "155935.392500", "155936.882500", "155938.372500", "155939.862500", "155941.352500", "155942.842500", "155944.332500", "155945.822500", "155947.312500", "155948.802500", "155950.292500", "155951.782500", "155953.272500", "155954.762500", "155956.252500", "155957.742500", "155959.232500", "160000.722500", "160002.212500", "160003.702500", "160005.192500", "160006.682500", "160008.172500", "160009.662500", "160011.152500", "160012.642500", "160014.132500", "160015.622500", "160017.112500", "160018.602500", "160020.092500", "160021.582500", "160023.072500", "160024.562500", "160026.052500", "160027.542500", "160029.032500", "160030.522500", "160032.012500", "160033.502500", "160034.992500", "160036.482500", "160037.972500", "160039.462500", "160040.952500", "160042.442500", "160043.932500", "160045.422500", "160046.912500", "160048.402500"],
      "ContentTime": ["155407.573000", "155407.577000", "155407.580000", "155407.584000", "155407.587000", "155407.590000", "155407.594000", "155407.597000", "155407.600000", "155407.603000", "155407.607000", "155427.541000", "155427.545000", "155427.548000", "155427.551000", "155427.555000", "155427.558000", "155427.561000", "155427.565000", "155427.568000", "155427.572000", "155427.576000", "155427.580000", "155427.585000", "155427.588000", "155427.592000", "155427.596000", "155427.599000", "155427.603000", "155427.606000", "155427.610000", "155447.540000", "155447.544000", "155447.547000", "155447.550000", "155447.553000", "155447.557000", "155447.560000", "155447.563000", "155447.567000", "155447.570000", "155447.573000", "155447.577000", "155447.580000", "155447.583000", "155447.587000", "155447.590000", "155447.593000", "155447.596000", "155447.600000", "155447.603000", "155447.606000", "155507.541000", "155507.545000", "155507.548000", "155507.552000", "155507.555000", "155507.558000", "155507.562000", "155507.565000", "155507.568000", "155507.572000", "155507.575000", "155507.578000", "155507.581000", "155507.597000", "155507.601000", "155507.604000", "155507.607000", "155507.610000", "155507.614000", "155507.617000", "155527.541000", "155527.545000", "155527.548000", "155527.551000", "155527.554000", "155527.558000", "155527.561000", "155527.564000", "155527.568000", "155527.571000", "155527.574000", "155527.578000", "155527.581000", "155527.584000", "155527.588000", "155527.591000", "155527.594000", "155527.598000", "155527.601000", "155527.604000", "155607.541000", "155607.545000", "155607.549000", "155607.552000", "155607.555000", "155607.559000", "155607.562000", "155607.565000", "155607.569000", "155607.572000", "155607.575000", "155607.579000", "155607.582000", "155607.585000", "155607.588000", "155607.592000", "155607.595000", "155607.598000", "155607.602000", "155607.605000", "155607.608000", "155607.611000", "155607.615000", "155607.618000", "155607.621000", "155607.625000", "155607.628000", "155607.631000", "155647.541000", "155647.545000", "155647.548000", "155647.552000", "155647.555000", "155647.558000", "155647.562000", "155647.565000", "155647.568000", "155647.572000", "155647.575000", "155647.579000", "155647.582000", "155647.585000", "155647.588000", "155647.592000", "155647.595000", "155647.598000", "155647.602000", "155647.605000", "155647.608000", "155647.612000", "155647.615000", "155647.618000", "155647.621000", "155647.625000", "155647.628000", "155727.541000", "155727.545000", "155727.548000", "155727.551000", "155727.555000", "155727.558000", "155727.561000", "155727.564000", "155727.568000", "155727.571000", "155727.575000", "155727.578000", "155727.581000", "155727.585000", "155727.588000", "155727.591000", "155727.595000", "155727.598000", "155727.601000", "155727.605000", "155727.608000", "155727.611000", "155727.614000", "155727.618000", "155727.636000", "155727.639000", "155727.643000", "155807.541000", "155807.545000", "155807.548000", "155807.551000", "155807.568000", "155807.571000", "155807.574000", "155807.578000", "155807.581000", "155807.585000", "155807.588000", "155807.591000", "155807.595000", "155807.599000", "155807.602000", "155807.605000", "155807.609000", "155807.612000", "155807.615000", "155807.619000", "155807.622000", "155807.625000", "155807.628000", "155807.632000", "155807.636000", "155807.639000", "155847.541000", "155847.545000", "155847.548000", "155847.551000", "155847.555000", "155847.558000", "155847.562000", "155847.565000", "155847.568000", "155847.572000", "155847.575000", "155847.578000", "155847.582000", "155847.585000", "155847.588000", "155847.592000", "155847.595000", "155847.598000", "155847.602000", "155847.605000", "155847.608000", "155847.612000", "155847.615000", "155847.618000", "155847.622000", "155847.625000", "155847.628000", "155927.540000", "155927.544000", "155927.547000", "155927.551000", "155927.554000", "155927.557000", "155927.561000", "155927.564000", "155927.567000", "155927.571000", "155927.574000", "155927.577000", "155927.581000", "155927.584000", "155927.587000", "155927.591000", "155927.594000", "155927.597000", "155927.601000", "155927.604000", "155927.607000", "155927.610000", "155927.614000", "155927.617000", "155927.620000", "155927.624000", "155927.627000", "160007.541000", "160007.545000", "160007.549000", "160007.552000", "160007.555000", "160007.559000", "160007.562000", "160007.566000", "160007.569000", "160007.573000", "160007.576000", "160007.579000", "160007.583000", "160007.586000", "160007.589000", "160007.593000", "160007.596000", "160007.599000", "160007.603000", "160007.606000", "160007.610000", "160007.613000", "160007.616000", "160007.620000", "160007.623000", "160007.626000", "160007.630000", "160047.541000", "160047.545000", "160047.548000", "160047.551000", "160047.555000", "160047.558000", "160047.562000", "160047.565000", "160047.568000", "160047.572000", "160047.575000", "160047.578000", "160047.582000", "160047.585000", "160047.588000", "160047.592000", "160047.595000", "160047.598000", "160047.602000", "160047.605000", "160047.608000", "160047.611000", "160047.615000", "160047.618000", "160047.621000", "160047.625000", "160047.628000", "160050.961000", "160050.965000"],
      "InstanceCreationTime": ["155407.573000", "155407.577000", "155407.580000", "155407.584000", "155407.587000", "155407.590000", "155407.594000", "155407.597000", "155407.600000", "155407.603000", "155407.607000", "155427.541000", "155427.545000", "155427.548000", "155427.551000", "155427.555000", "155427.558000", "155427.561000", "155427.565000", "155427.568000", "155427.572000", "155427.576000", "155427.580000", "155427.585000", "155427.588000", "155427.592000", "155427.596000", "155427.599000", "155427.603000", "155427.606000", "155427.610000", "155447.540000", "155447.544000", "155447.547000", "155447.550000", "155447.553000", "155447.557000", "155447.560000", "155447.563000", "155447.567000", "155447.570000", "155447.573000", "155447.577000", "155447.580000", "155447.583000", "155447.587000", "155447.590000", "155447.593000", "155447.596000", "155447.600000", "155447.603000", "155447.606000", "155507.541000", "155507.545000", "155507.548000", "155507.552000", "155507.555000", "155507.558000", "155507.562000", "155507.565000", "155507.568000", "155507.572000", "155507.575000", "155507.578000", "155507.581000", "155507.597000", "155507.601000", "155507.604000", "155507.607000", "155507.610000", "155507.614000", "155507.617000", "155527.541000", "155527.545000", "155527.548000", "155527.551000", "155527.554000", "155527.558000", "155527.561000", "155527.564000", "155527.568000", "155527.571000", "155527.574000", "155527.578000", "155527.581000", "155527.584000", "155527.588000", "155527.591000", "155527.594000", "155527.598000", "155527.601000", "155527.604000", "155607.541000", "155607.545000", "155607.549000", "155607.552000", "155607.555000", "155607.559000", "155607.562000", "155607.565000", "155607.569000", "155607.572000", "155607.575000", "155607.579000", "155607.582000", "155607.585000", "155607.588000", "155607.592000", "155607.595000", "155607.598000", "155607.602000", "155607.605000", "155607.608000", "155607.611000", "155607.615000", "155607.618000", "155607.621000", "155607.625000", "155607.628000", "155607.631000", "155647.541000", "155647.545000", "155647.548000", "155647.552000", "155647.555000", "155647.558000", "155647.562000", "155647.565000", "155647.568000", "155647.572000", "155647.575000", "155647.579000", "155647.582000", "155647.585000", "155647.588000", "155647.592000", "155647.595000", "155647.598000", "155647.602000", "155647.605000", "155647.608000", "155647.612000", "155647.615000", "155647.618000", "155647.621000", "155647.625000", "155647.628000", "155727.541000", "155727.545000", "155727.548000", "155727.551000", "155727.555000", "155727.558000", "155727.561000", "155727.564000", "155727.568000", "155727.571000", "155727.575000", "155727.578000", "155727.581000", "155727.585000", "155727.588000", "155727.591000", "155727.595000", "155727.598000", "155727.601000", "155727.605000", "155727.608000", "155727.611000", "155727.614000", "155727.618000", "155727.636000", "155727.639000", "155727.643000", "155807.541000", "155807.545000", "155807.548000", "155807.551000", "155807.568000", "155807.571000", "155807.574000", "155807.578000", "155807.581000", "155807.585000", "155807.588000", "155807.591000", "155807.595000", "155807.599000", "155807.602000", "155807.605000", "155807.609000", "155807.612000", "155807.615000", "155807.619000", "155807.622000", "155807.625000", "155807.628000", "155807.632000", "155807.636000", "155807.639000", "155847.541000", "155847.545000", "155847.548000", "155847.551000", "155847.555000", "155847.558000", "155847.562000", "155847.565000", "155847.568000", "155847.572000", "155847.575000", "155847.578000", "155847.582000", "155847.585000", "155847.588000", "155847.592000", "155847.595000", "155847.598000", "155847.602000", "155847.605000", "155847.608000", "155847.612000", "155847.615000", "155847.618000", "155847.622000", "155847.625000", "155847.628000", "155927.540000", "155927.544000", "155927.547000", "155927.551000", "155927.554000", "155927.557000", "155927.561000", "155927.564000", "155927.567000", "155927.571000", "155927.574000", "155927.577000", "155927.581000", "155927.584000", "155927.587000", "155927.591000", "155927.594000", "155927.597000", "155927.601000", "155927.604000", "155927.607000", "155927.610000", "155927.614000", "155927.617000", "155927.620000", "155927.624000", "155927.627000", "160007.541000", "160007.545000", "160007.549000", "160007.552000", "160007.555000", "160007.559000", "160007.562000", "160007.566000", "160007.569000", "160007.573000", "160007.576000", "160007.579000", "160007.583000", "160007.586000", "160007.589000", "160007.593000", "160007.596000", "160007.599000", "160007.603000", "160007.606000", "160007.610000", "160007.613000", "160007.616000", "160007.620000", "160007.623000", "160007.626000", "160007.630000", "160047.541000", "160047.545000", "160047.548000", "160047.551000", "160047.555000", "160047.558000", "160047.562000", "160047.565000", "160047.568000", "160047.572000", "160047.575000", "160047.578000", "160047.582000", "160047.585000", "160047.588000", "160047.592000", "160047.595000", "160047.598000", "160047.602000", "160047.605000", "160047.608000", "160047.611000", "160047.615000", "160047.618000", "160047.621000", "160047.625000", "160047.628000", "160050.961000", "160050.965000"],
      "InstanceNumber": [1, 2, 3, 4, 5, 6, 7, 8, 9, 10, 11, 12, 13, 14, 15, 16, 17, 18, 19, 20, 21, 22, 23, 24, 25, 26, 27, 28, 29, 30, 31, 32, 33, 34, 35, 36, 37, 38, 39, 40, 41, 42, 43, 44, 45, 46, 47, 48, 49, 50, 51, 52, 53, 54, 55, 56, 57, 58, 59, 60, 61, 62, 63, 64, 65, 66, 67, 68, 69, 70, 71, 72, 73, 74, 75, 76, 77, 78, 79, 80, 81, 82, 83, 84, 85, 86, 87, 88, 89, 90, 91, 92, 93, 94, 95, 96, 97, 98, 99, 100, 101, 102, 103, 104, 105, 106, 107, 108, 109, 110, 111, 112, 113, 114, 115, 116, 117, 118, 119, 120, 121, 122, 123, 124, 125, 126, 127, 128, 129, 130, 131, 132, 133, 134, 135, 136, 137, 138, 139, 140, 141, 142, 143, 144, 145, 146, 147, 148, 149, 150, 151, 152, 153, 154, 155, 156, 157, 158, 159, 160, 161, 162, 163, 164, 165, 166, 167, 168, 169, 170, 171, 172, 173, 174, 175, 176, 177, 178, 179, 180, 181, 182, 183, 184, 185, 186, 187, 188, 189, 190, 191, 192, 193, 194, 195, 196, 197, 198, 199, 200, 201, 202, 203, 204, 205, 206, 207, 208, 209, 210, 211, 212, 213, 214, 215, 216, 217, 218, 219, 220, 221, 222, 223, 224, 225, 226, 227, 228, 229, 230, 231, 232, 233, 234, 235, 236, 237, 238, 239, 240, 241, 242, 243, 244, 245, 246, 247, 248, 249, 250, 251, 252, 253, 254, 255, 256, 257, 258, 259, 260, 261, 262, 263, 264, 265, 266, 267, 268, 269, 270, 271, 272, 273, 274, 275, 276, 277, 278, 279, 280, 281, 282, 283, 284, 285, 286, 287, 288, 289, 290, 291, 292, 293, 294, 295, 296, 297, 298, 299, 300, 301, 302, 303, 304, 305, 306, 307, 308, 309, 310],
      "LargestImagePixelValue": [43253, 41497, 40663, 40508, 40124, 40248, 40170, 40237, 39169, 39085, 39180, 40203, 40112, 39866, 39926, 40408, 40373, 40189, 39525, 40579, 40355, 41183, 39294, 40628, 39380, 40504, 40336, 40717, 40231, 40947, 40360, 40813, 40461, 40056, 39886, 38777, 39635, 38964, 39608, 40005, 40126, 39294, 39357, 39509, 39240, 39175, 39252, 38711, 39004, 38712, 38689, 38639, 38446, 38615, 38700, 38615, 39033, 38775, 39069, 39390, 39482, 38997, 38771, 38856, 38759, 38361, 38683, 39081, 39091, 38531, 38627, 38979, 39692, 39670, 38958, 38603, 38206, 38567, 39023, 39023, 38718, 38815, 38709, 38814, 38968, 38829, 38672, 38684, 38883, 39084, 38705, 38573, 38716, 38516, 38555, 38833, 38418, 38650, 39572, 39634, 38834, 39109, 38905, 38922, 38434, 38675, 38504, 38336, 38533, 38869, 38474, 38985, 38988, 38573, 38361, 38681, 38451, 38725, 38397, 38772, 38787, 38831, 38925, 39054, 38894, 38481, 38955, 38909, 38644, 38459, 38496, 38794, 38472, 38278, 38856, 38624, 38916, 38811, 38720, 38645, 38705, 38928, 38696, 38375, 38534, 38775, 38860, 38890, 38627, 38832, 38661, 38801, 38933, 38945, 39410, 39123, 39182, 40179, 38865, 38429, 38480, 38624, 39660, 38722, 39108, 39127, 39713, 38915, 38685, 39244, 38983, 38749, 38648, 38759, 38709, 38961, 39057, 39212, 38447, 39035, 39145, 39531, 39141, 39575, 39395, 39245, 39414, 39659, 38803, 39289, 39074, 40041, 39435, 39083, 39252, 39474, 40092, 39893, 39563, 39649, 39664, 39650, 39693, 39835, 39635, 39491, 39071, 39198, 38994, 39380, 39240, 38159, 39060, 41229, 40777, 40081, 39792, 39172, 38731, 39226, 39275, 39255, 39608, 39447, 39420, 38998, 39192, 39081, 38853, 39132, 39289, 39653, 39311, 39381, 38707, 38867, 39495, 39372, 39384, 39559, 39506, 39545, 39347, 39099, 39240, 38980, 38567, 38861, 39469, 38641, 38115, 38662, 38869, 39109, 39060, 39479, 39608, 38169, 39395, 39145, 39908, 39803, 39788, 39765, 39288, 39784, 39797, 39696, 39794, 39372, 38592, 39715, 40093, 40392, 40176, 39762, 39715, 39844, 39121, 39093, 38936, 39358, 38881, 39378, 39747, 39740, 39410, 39259, 39957, 39763, 38555, 38011, 38419, 39112, 39530, 38534, 39147, 39073, 39044, 38910, 39244, 39442, 39181, 39282, 39652, 39674, 38946, 39563, 39377, 39196],
      "WindowCenter": [10281.0, 10252.0, 10222.0, 10211.0, 10202.0, 10207.0, 10199.0, 10204.0, 10197.0, 10223.0, 10236.0, 10213.0, 10177.0, 10151.0, 10157.0, 10165.0, 10187.0, 10199.0, 10171.0, 10155.0, 10131.0, 10148.0, 10125.0, 10196.0, 10185.0, 10178.0, 10148.0, 10133.0, 10124.0, 10153.0, 10163.0, 10202.0, 10196.0, 10196.0, 10160.0, 10153.0, 10186.0, 10183.0, 10158.0, 10152.0, 10168.0, 10145.0, 10163.0, 10143.0, 10107.0, 10123.0, 10166.0, 10156.0, 10163.0, 10158.0, 10150.0, 10146.0, 10188.0, 10184.0, 10166.0, 10142.0, 10139.0, 10133.0, 10137.0, 10146.0, 10180.0, 10205.0, 10181.0, 10159.0, 10157.0, 10138.0, 10136.0, 10154.0, 10152.0, 10139.0, 10129.0, 10117.0, 10151.0, 10172.0, 10181.0, 10157.0, 10157.0, 10192.0, 10183.0, 10170.0, 10136.0, 10180.0, 10180.0, 10189.0, 10161.0, 10144.0, 10131.0, 10154.0, 10182.0, 10189.0, 10185.0, 10165.0, 10155.0, 10146.0, 10152.0, 10195.0, 10181.0, 10143.0, 10100.0, 10148.0, 10143.0, 10140.0, 10108.0, 10123.0, 10154.0, 10149.0, 10166.0, 10135.0, 10088.0, 10100.0, 10110.0, 10128.0, 10134.0, 10153.0, 10170.0, 10191.0, 10177.0, 10164.0, 10149.0, 10171.0, 10178.0, 10164.0, 10163.0, 10178.0, 10166.0, 10145.0, 10142.0, 10139.0, 10140.0, 10144.0, 10147.0, 10151.0, 10144.0, 10140.0, 10168.0, 10150.0, 10139.0, 10118.0, 10091.0, 10088.0, 10104.0, 10097.0, 10105.0, 10107.0, 10113.0, 10116.0, 10124.0, 10131.0, 10141.0, 10151.0, 10134.0, 10117.0, 10111.0, 10146.0, 10154.0, 10149.0, 10125.0, 10143.0, 10130.0, 10132.0, 10161.0, 10159.0, 10169.0, 10156.0, 10132.0, 10113.0, 10115.0, 10103.0, 10100.0, 10098.0, 10128.0, 10125.0, 10126.0, 10109.0, 10125.0, 10124.0, 10127.0, 10140.0, 10109.0, 10139.0, 10142.0, 10153.0, 10141.0, 10161.0, 10155.0, 10189.0, 10197.0, 10194.0, 10191.0, 10143.0, 10117.0, 10115.0, 10108.0, 10093.0, 10081.0, 10088.0, 10110.0, 10125.0, 10117.0, 10126.0, 10125.0, 10136.0, 10137.0, 10134.0, 10134.0, 10148.0, 10141.0, 10148.0, 10124.0, 10130.0, 10122.0, 10096.0, 10135.0, 10164.0, 10167.0, 10148.0, 10125.0, 10101.0, 10112.0, 10129.0, 10056.0, 10108.0, 10123.0, 10124.0, 10106.0, 10117.0, 10110.0, 10126.0, 10136.0, 10114.0, 10118.0, 10101.0, 10094.0, 10158.0, 10165.0, 10141.0, 10127.0, 10123.0, 10126.0, 10141.0, 10143.0, 10128.0, 10120.0, 10129.0, 10154.0, 10152.0, 10127.0, 10082.0, 10136.0, 10122.0, 10125.0, 10130.0, 10126.0, 10124.0, 10128.0, 10117.0, 10151.0, 10124.0, 10166.0, 10140.0, 10169.0, 10157.0, 10150.0, 10140.0, 10142.0, 10134.0, 10131.0, 10124.0, 10132.0, 10122.0, 10100.0, 10125.0, 10134.0, 10121.0, 10105.0, 10085.0, 10104.0, 10131.0, 10129.0, 10127.0, 10139.0, 10118.0, 10102.0, 10098.0, 10125.0, 10143.0, 10148.0, 10108.0, 10130.0, 10146.0, 10143.0, 10118.0, 10098.0, 10089.0, 10103.0, 10119.0, 10138.0, 10113.0, 10086.0, 10089.0, 10120.0, 10147.0, 10129.0, 10110.0, 10087.0, 10084.0, 10115.0, 10142.0, 10150.0, 10138.0],
