{
  "AcquisitionMatrixPE": 104,
  "AcquisitionNumber": 1,
  "AcquisitionTime": "16:36:3.470000",
  "BandwidthPerPixelPhaseEncode": 17.17,
  "BaseResolution": 104,
  "BodyPartExamined": "BRAIN",
  "CoilCombinationMethod": "Sum of Squares",
  "ConsistencyInfo": "N4_VE11C_LATEST_20160120",
  "ConversionSoftware": "dcm2niix",
  "ConversionSoftwareVersion": "v1.0.20220505",
  "DerivedVendorReportedEchoSpacing": 0.000560011,
  "DeviceSerialNumber": "167006",
  "DwellTime": 2.1e-06,
  "EchoTime": 0.037,
  "EchoTime1": 0.037,
  "EchoTime2": 0.001,
  "EchoTrainLength": 104,
  "EffectiveEchoSpacing": 0.000560011,
  "FlipAngle": 52,
  "HeudiconvVersion": "0.5.3.post811+g6206e14",
  "ImageComments": "Unaliased MB4/PE3/LB",
  "ImageOrientationPatientDICOM": [0.999388, 0.019371, 0.0291166, -0.00994255, 0.955603, -0.294491],
  "ImageOrientationText": "Tra>Cor(-17.1)>Sag(1.9)",
  "ImageType": [
    "ORIGINAL",
    "PRIMARY",
    "P",
    "MB",
    "ND",
    "MOSAIC",
    "PHASE"
],
  "ImagingFrequency": 123.26,
  "InPlanePhaseEncodingDirectionDICOM": "COL",
  "InstitutionAddress": "Chemin Queen-Mary 4565,Montreal,District,CA,H3W 1W5",
  "InstitutionName": "IUGM",
  "InstitutionalDepartmentName": "Department",
  "MRAcquisitionType": "2D",
  "MagneticFieldStrength": 3,
  "Manufacturer": "Siemens",
  "ManufacturersModelName": "Prisma_fit",
  "MatrixCoilMode": "SENSE",
  "Modality": "MR",
  "MultibandAccelerationFactor": 4,
  "PartialFourier": 1,
  "PatientPosition": "HFS",
  "PercentPhaseFOV": 100,
  "PercentSampling": 100,
  "PhaseEncodingDirection": "j",
  "PhaseEncodingSteps": 104,
  "PhaseResolution": 1,
  "PixelBandwidth": 2290,
  "ProcedureStepDescription": "games^mario3",
  "ProtocolName": "func_task-mario3_run-05",
  "PulseSequenceDetails": "%CustomerSeq%\\cmrr_mbep2d_bold",
  "ReceiveCoilActiveElements": "HC1-7;NC1,2",
  "ReceiveCoilName": "HeadNeck_64",
  "ReconMatrixPE": 104,
  "RepetitionTime": 1.49,
  "SAR": 0.0632438,
  "ScanOptions": "FS",
  "ScanningSequence": "EP",
  "SequenceName": "epfid2d1_104",
  "SequenceVariant": "SK\\SS",
  "SeriesDescription": "func_task-mario3_run-05",
  "SeriesNumber": 23,
  "ShimSetting": [622, -7201, -8762, 694, 63, 15, -20, 5],
  "SliceThickness": 2,
  "SliceTiming": [0, 0.785, 0.1, 0.8825, 0.1975, 0.98, 0.295, 1.08, 0.3925, 1.1775, 0.49, 1.275, 0.59, 1.3725, 0.6875, 0, 0.785, 0.1, 0.8825, 0.1975, 0.98, 0.295, 1.08, 0.3925, 1.1775, 0.49, 1.275, 0.59, 1.3725, 0.6875, 0, 0.785, 0.1, 0.8825, 0.1975, 0.98, 0.295, 1.08, 0.3925, 1.1775, 0.49, 1.275, 0.59, 1.3725, 0.6875, 0, 0.785, 0.1, 0.8825, 0.1975, 0.98, 0.295, 1.08, 0.3925, 1.1775, 0.49, 1.275, 0.59, 1.3725, 0.6875],
  "SoftwareVersions": "syngo MR E11",
  "SpacingBetweenSlices": 2,
  "StationName": "MRC35049",
  "TaskName": "mario3",
  "TotalReadoutTime": 0.0576811,
  "TxRefAmp": 233.337,
  "WipMemBlock": "fd520a17-1abc-4369-b6e6-2fd0a5f6cbb1||Sequence: R017 ve11c/master r/75a17815+; Jun 28 2022 16:32:11 by eja",
  "dcmmeta_affine": [
    [-1.9987765550613403, -0.019885102286934853, 0.06705693155527115, 107.79051208496094],
    [-0.038742098957300186, 1.9112052917480469, -0.5880419015884399, -69.23804473876953],
    [0.058233149349689484, 0.5889811515808105, 1.910421371459961, -61.62661361694336],
    [0.0, 0.0, 0.0, 1.0]
],
  "dcmmeta_reorient_transform": [
    [0.0, -1.0, 0.0, 103.0],
    [1.0, 0.0, 0.0, 0.0],
    [0.0, 0.0, 1.0, 0.0],
    [0.0, 0.0, 0.0, 1.0]
],
  "dcmmeta_shape": [104, 104, 60, 328],
  "dcmmeta_slice_dim": 2,
  "dcmmeta_version": 0.6,
  "global": {
    "const": {
      "AcquisitionMatrix": [104, 0, 0, 104],
      "AngioFlag": "N",
      "BitsAllocated": 16,
      "BitsStored": 16,
      "BodyPartExamined": "BRAIN",
      "Columns": 832,
      "EchoNumbers": 1,
      "EchoTime": 37.0,
      "EchoTrainLength": 104,
      "FlipAngle": 52.0,
      "HighBit": 15,
      "ImageOrientationPatient": [0.9993883066943, 0.01937104908695, 0.02911657431717, -0.0099425509622, 0.9556026600238, -0.2944905802157],
      "ImagePositionPatient": [-826.05885318603, -837.39696562553, 192.23072140005],
      "ImageType": [
        "ORIGINAL",
        "PRIMARY",
        "P",
        "MB",
        "ND",
        "MOSAIC"
],
      "ImagedNucleus": "1H",
      "ImagingFrequency": 123.260217,
      "InPlanePhaseEncodingDirection": "COL",
      "LargestImagePixelValue": 4095,
      "MRAcquisitionType": "2D",
      "MagneticFieldStrength": 3.0,
      "Manufacturer": "SIEMENS",
      "ManufacturerModelName": "Prisma_fit",
      "Modality": "MR",
      "NumberOfAverages": 1.0,
      "NumberOfPhaseEncodingSteps": 104,
      "PercentPhaseFieldOfView": 100.0,
      "PercentSampling": 100.0,
      "PerformedProcedureStepStartTime": "152134.922000",
      "PhotometricInterpretation": "MONOCHROME2",
      "PixelBandwidth": 2290.0,
      "PixelRepresentation": 0,
      "PixelSpacing": [2.0, 2.0],
      "ProtocolName": "func_task-mario3_run-05",
      "RepetitionTime": 1490.0,
      "RescaleIntercept": -4096.0,
      "RescaleSlope": 2.0,
      "RescaleType": "US",
      "Rows": 832,
      "SAR": 0.06324383579067,
      "SamplesPerPixel": 1,
      "ScanOptions": "FS",
      "ScanningSequence": "EP",
      "SequenceName": "epfid2d1_104",
      "SequenceVariant": [
        "SK",
        "SS"
],
      "SeriesDescription": "func_task-mario3_run-05",
      "SeriesNumber": 23,
      "SeriesTime": "163718.181000",
      "SliceLocation": -34.894917299429,
      "SliceThickness": 2.0,
      "SmallestImagePixelValue": 0,
      "SoftwareVersions": "syngo MR E11",
      "SpacingBetweenSlices": 1.9999999591609,
      "SpecificCharacterSet": "ISO_IR 100",
      "StudyID": "1",
      "StudyTime": "152134.849000",
      "TransmitCoilName": "Body",
      "VariableFlipAngleFlag": "N",
      "WindowCenterWidthExplanation": "Algo1",
      "dBdt": 0.0},
    "slices": {}
  },
  "time": {
    "samples": {
      "AcquisitionNumber": [1, 2, 3, 4, 5, 6, 7, 8, 9, 10, 11, 12, 13, 14, 15, 16, 17, 18, 19, 20, 21, 22, 23, 24, 25, 26, 27, 28, 29, 30, 31, 32, 33, 34, 35, 36, 37, 38, 39, 40, 41, 42, 43, 44, 45, 46, 47, 48, 49, 50, 51, 52, 53, 54, 55, 56, 57, 58, 59, 60, 61, 62, 63, 64, 65, 66, 67, 68, 69, 70, 71, 72, 73, 74, 75, 76, 77, 78, 79, 80, 81, 82, 83, 84, 85, 86, 87, 88, 89, 90, 91, 92, 93, 94, 95, 96, 97, 98, 99, 100, 101, 102, 103, 104, 105, 106, 107, 108, 109, 110, 111, 112, 113, 114, 115, 116, 117, 118, 119, 120, 121, 122, 123, 124, 125, 126, 127, 128, 129, 130, 131, 132, 133, 134, 135, 136, 137, 138, 139, 140, 141, 142, 143, 144, 145, 146, 147, 148, 149, 150, 151, 152, 153, 154, 155, 156, 157, 158, 159, 160, 161, 162, 163, 164, 165, 166, 167, 168, 169, 170, 171, 172, 173, 174, 175, 176, 177, 178, 179, 180, 181, 182, 183, 184, 185, 186, 187, 188, 189, 190, 191, 192, 193, 194, 195, 196, 197, 198, 199, 200, 201, 202, 203, 204, 205, 206, 207, 208, 209, 210, 211, 212, 213, 214, 215, 216, 217, 218, 219, 220, 221, 222, 223, 224, 225, 226, 227, 228, 229, 230, 231, 232, 233, 234, 235, 236, 237, 238, 239, 240, 241, 242, 243, 244, 245, 246, 247, 248, 249, 250, 251, 252, 253, 254, 255, 256, 257, 258, 259, 260, 261, 262, 263, 264, 265, 266, 267, 268, 269, 270, 271, 272, 273, 274, 275, 276, 277, 278, 279, 280, 281, 282, 283, 284, 285, 286, 287, 288, 289, 290, 291, 292, 293, 294, 295, 296, 297, 298, 299, 300, 301, 302, 303, 304, 305, 306, 307, 308, 309, 310, 311, 312, 313, 314, 315, 316, 317, 318, 319, 320, 321, 322, 323, 324, 325, 326, 327, 328],
      "AcquisitionTime": ["163603.470000", "163604.960000", "163606.450000", "163607.940000", "163609.430000", "163610.920000", "163612.410000", "163613.900000", "163615.390000", "163616.880000", "163618.370000", "163619.860000", "163621.350000", "163622.840000", "163624.330000", "163625.820000", "163627.310000", "163628.800000", "163630.290000", "163631.780000", "163633.270000", "163634.760000", "163636.250000", "163637.740000", "163639.230000", "163640.720000", "163642.210000", "163643.700000", "163645.190000", "163646.680000", "163648.170000", "163649.660000", "163651.150000", "163652.640000", "163654.130000", "163655.620000", "163657.110000", "163658.600000", "163700.090000", "163701.580000", "163703.070000", "163704.560000", "163706.050000", "163707.540000", "163709.030000", "163710.520000", "163712.010000", "163713.500000", "163714.990000", "163716.480000", "163717.970000", "163719.460000", "163720.950000", "163722.440000", "163723.930000", "163725.420000", "163726.910000", "163728.400000", "163729.890000", "163731.380000", "163732.870000", "163734.360000", "163735.850000", "163737.340000", "163738.830000", "163740.320000", "163741.810000", "163743.300000", "163744.790000", "163746.280000", "163747.770000", "163749.260000", "163750.750000", "163752.240000", "163753.730000", "163755.220000", "163756.710000", "163758.200000", "163759.690000", "163801.180000", "163802.670000", "163804.160000", "163805.650000", "163807.140000", "163808.630000", "163810.120000", "163811.610000", "163813.100000", "163814.590000", "163816.080000", "163817.570000", "163819.060000", "163820.550000", "163822.040000", "163823.530000", "163825.020000", "163826.510000", "163828.000000", "163829.490000", "163830.980000", "163832.470000", "163833.960000", "163835.450000", "163836.940000", "163838.430000", "163839.920000", "163841.410000", "163842.900000", "163844.390000", "163845.880000", "163847.370000", "163848.860000", "163850.350000", "163851.840000", "163853.330000", "163854.820000", "163856.310000", "163857.800000", "163859.290000", "163900.780000", "163902.270000", "163903.760000", "163905.250000", "163906.740000", "163908.230000", "163909.720000", "163911.210000", "163912.700000", "163914.190000", "163915.680000", "163917.170000", "163918.660000", "163920.150000", "163921.640000", "163923.130000", "163924.620000", "163926.110000", "163927.600000", "163929.090000", "163930.580000", "163932.070000", "163933.560000", "163935.050000", "163936.540000", "163938.030000", "163939.520000", "163941.010000", "163942.500000", "163943.990000", "163945.480000", "163946.970000", "163948.460000", "163949.950000", "163951.440000", "163952.930000", "163954.420000", "163955.910000", "163957.400000", "163958.890000", "164000.380000", "164001.870000", "164003.360000", "164004.850000", "164006.340000", "164007.830000", "164009.320000", "164010.810000", "164012.300000", "164013.790000", "164015.280000", "164016.770000", "164018.260000", "164019.750000", "164021.240000", "164022.730000", "164024.220000", "164025.710000", "164027.200000", "164028.690000", "164030.180000", "164031.670000", "164033.160000", "164034.650000", "164036.140000", "164037.630000", "164039.120000", "164040.610000", "164042.100000", "164043.590000", "164045.080000", "164046.570000", "164048.060000", "164049.550000", "164051.040000", "164052.530000", "164054.020000", "164055.510000", "164057.000000", "164058.490000", "164059.980000", "164101.470000", "164102.960000", "164104.450000", "164105.940000", "164107.430000", "164108.920000", "164110.410000", "164111.900000", "164113.390000", "164114.880000", "164116.370000", "164117.860000", "164119.350000", "164120.840000", "164122.330000", "164123.820000", "164125.310000", "164126.800000", "164128.290000", "164129.780000", "164131.270000", "164132.760000", "164134.250000", "164135.740000", "164137.230000", "164138.720000", "164140.210000", "164141.700000", "164143.190000", "164144.680000", "164146.170000", "164147.660000", "164149.150000", "164150.640000", "164152.130000", "164153.620000", "164155.110000", "164156.600000", "164158.090000", "164159.580000", "164201.070000", "164202.560000", "164204.050000", "164205.540000", "164207.030000", "164208.520000", "164210.010000", "164211.500000", "164212.990000", "164214.480000", "164215.970000", "164217.460000", "164218.950000", "164220.440000", "164221.930000", "164223.420000", "164224.910000", "164226.400000", "164227.890000", "164229.380000", "164230.870000", "164232.360000", "164233.850000", "164235.340000", "164236.830000", "164238.320000", "164239.810000", "164241.300000", "164242.790000", "164244.280000", "164245.770000", "164247.260000", "164248.750000", "164250.240000", "164251.730000", "164253.220000", "164254.710000", "164256.200000", "164257.690000", "164259.180000", "164300.670000", "164302.160000", "164303.650000", "164305.140000", "164306.630000", "164308.120000", "164309.610000", "164311.100000", "164312.590000", "164314.080000", "164315.570000", "164317.060000", "164318.550000", "164320.040000", "164321.530000", "164323.020000", "164324.510000", "164326.000000", "164327.490000", "164328.980000", "164330.470000", "164331.960000", "164333.450000", "164334.940000", "164336.430000", "164337.920000", "164339.410000", "164340.900000", "164342.390000", "164343.880000", "164345.370000", "164346.860000", "164348.350000", "164349.840000", "164351.330000", "164352.820000", "164354.310000", "164355.800000", "164357.290000", "164358.780000", "164400.270000", "164401.760000", "164403.250000", "164404.740000", "164406.230000", "164407.720000", "164409.210000", "164410.700000"],
      "ContentTime": ["163718.183000", "163718.186000", "163718.189000", "163718.191000", "163718.194000", "163718.196000", "163718.199000", "163718.201000", "163718.204000", "163718.206000", "163718.209000", "163718.211000", "163718.214000", "163718.216000", "163718.219000", "163718.221000", "163718.224000", "163718.226000", "163718.229000", "163718.231000", "163718.234000", "163718.236000", "163718.239000", "163718.241000", "163718.244000", "163738.135000", "163738.138000", "163738.140000", "163738.143000", "163738.145000", "163738.148000", "163738.150000", "163738.153000", "163738.155000", "163738.158000", "163738.160000", "163738.163000", "163738.165000", "163738.168000", "163738.171000", "163738.173000", "163738.176000", "163738.178000", "163738.181000", "163738.183000", "163758.125000", "163758.127000", "163758.130000", "163758.132000", "163758.135000", "163758.138000", "163758.140000", "163758.143000", "163758.145000", "163758.148000", "163758.150000", "163758.153000", "163758.156000", "163758.158000", "163758.161000", "163758.163000", "163758.166000", "163758.168000", "163758.171000", "163758.173000", "163818.145000", "163818.148000", "163818.151000", "163818.153000", "163818.156000", "163818.158000", "163818.161000", "163818.163000", "163818.166000", "163818.168000", "163818.171000", "163818.173000", "163818.176000", "163818.179000", "163818.181000", "163818.183000", "163818.186000", "163818.189000", "163818.191000", "163818.193000", "163858.776000", "163858.778000", "163858.781000", "163858.784000", "163858.786000", "163858.789000", "163858.791000", "163858.794000", "163858.797000", "163858.799000", "163858.802000", "163858.804000", "163858.807000", "163858.809000", "163858.812000", "163858.815000", "163858.817000", "163858.820000", "163858.822000", "163858.825000", "163858.827000", "163858.830000", "163858.832000", "163858.835000", "163858.838000", "163858.840000", "163858.843000", "163858.845000", "163858.848000", "163858.850000", "163858.853000", "163938.161000", "163938.164000", "163938.166000", "163938.169000", "163938.171000", "163938.174000", "163938.176000", "163938.179000", "163938.182000", "163938.184000", "163938.187000", "163938.189000", "163938.192000", "163938.194000", "163938.197000", "163938.199000", "163938.202000", "163938.204000", "163938.207000", "163938.209000", "163938.212000", "163938.215000", "163938.217000", "163938.219000", "163938.222000", "163938.225000", "163938.227000", "164018.163000", "164018.166000", "164018.168000", "164018.171000", "164018.173000", "164018.176000", "164018.179000", "164018.182000", "164018.184000", "164018.187000", "164018.189000", "164018.192000", "164018.194000", "164018.197000", "164018.200000", "164018.202000", "164018.205000", "164018.207000", "164018.210000", "164018.212000", "164018.215000", "164018.217000", "164018.220000", "164018.222000", "164018.225000", "164018.227000", "164018.230000", "164058.164000", "164058.167000", "164058.169000", "164058.172000", "164058.183000", "164058.185000", "164058.188000", "164058.190000", "164058.193000", "164058.195000", "164058.198000", "164058.200000", "164058.203000", "164058.205000", "164058.208000", "164058.210000", "164058.213000", "164058.215000", "164058.218000", "164058.220000", "164058.223000", "164058.226000", "164058.228000", "164058.231000", "164058.233000", "164058.236000", "164058.238000", "164138.160000", "164138.163000", "164138.166000", "164138.168000", "164138.171000", "164138.173000", "164138.176000", "164138.179000", "164138.181000", "164138.184000", "164138.186000", "164138.189000", "164138.191000", "164138.194000", "164138.196000", "164138.199000", "164138.201000", "164138.204000", "164138.207000", "164138.209000", "164138.212000", "164138.214000", "164138.217000", "164138.219000", "164138.222000", "164138.224000", "164138.227000", "164218.151000", "164218.154000", "164218.156000", "164218.159000", "164218.168000", "164218.171000", "164218.173000", "164218.176000", "164218.179000", "164218.181000", "164218.184000", "164218.186000", "164218.189000", "164218.191000", "164218.194000", "164218.196000", "164218.199000", "164218.202000", "164218.204000", "164218.207000", "164218.209000", "164218.212000", "164218.214000", "164218.217000", "164218.219000", "164218.222000", "164218.224000", "164258.160000", "164258.163000", "164258.165000", "164258.168000", "164258.171000", "164258.173000", "164258.176000", "164258.178000", "164258.181000", "164258.184000", "164258.186000", "164258.189000", "164258.192000", "164258.195000", "164258.197000", "164258.200000", "164258.202000", "164258.205000", "164258.207000", "164258.210000", "164258.213000", "164258.215000", "164258.230000", "164258.233000", "164258.235000", "164258.238000", "164338.162000", "164338.165000", "164338.167000", "164338.170000", "164338.172000", "164338.175000", "164338.178000", "164338.180000", "164338.183000", "164338.185000", "164338.188000", "164338.190000", "164338.193000", "164338.195000", "164338.198000", "164338.200000", "164338.203000", "164338.205000", "164338.208000", "164338.210000", "164338.213000", "164338.215000", "164338.218000", "164338.220000", "164338.223000", "164338.225000", "164338.228000", "164413.407000", "164413.410000", "164413.413000", "164413.415000", "164413.418000", "164413.428000", "164413.431000", "164413.434000", "164413.436000", "164413.439000", "164413.441000", "164413.444000", "164413.446000", "164413.449000", "164413.452000", "164413.454000", "164413.457000", "164413.459000", "164413.462000", "164413.465000", "164413.467000", "164413.470000", "164413.472000", "164413.475000"],
      "InstanceCreationTime": ["163718.183000", "163718.186000", "163718.189000", "163718.191000", "163718.194000", "163718.196000", "163718.199000", "163718.201000", "163718.204000", "163718.206000", "163718.209000", "163718.211000", "163718.214000", "163718.216000", "163718.219000", "163718.221000", "163718.224000", "163718.226000", "163718.229000", "163718.231000", "163718.234000", "163718.236000", "163718.239000", "163718.241000", "163718.244000", "163738.135000", "163738.138000", "163738.140000", "163738.143000", "163738.145000", "163738.148000", "163738.150000", "163738.153000", "163738.155000", "163738.158000", "163738.160000", "163738.163000", "163738.165000", "163738.168000", "163738.171000", "163738.173000", "163738.176000", "163738.178000", "163738.181000", "163738.183000", "163758.125000", "163758.127000", "163758.130000", "163758.132000", "163758.135000", "163758.138000", "163758.140000", "163758.143000", "163758.145000", "163758.148000", "163758.150000", "163758.153000", "163758.156000", "163758.158000", "163758.161000", "163758.163000", "163758.166000", "163758.168000", "163758.171000", "163758.173000", "163818.145000", "163818.148000", "163818.151000", "163818.153000", "163818.156000", "163818.158000", "163818.161000", "163818.163000", "163818.166000", "163818.168000", "163818.171000", "163818.173000", "163818.176000", "163818.179000", "163818.181000", "163818.183000", "163818.186000", "163818.189000", "163818.191000", "163818.193000", "163858.776000", "163858.778000", "163858.781000", "163858.784000", "163858.786000", "163858.789000", "163858.791000", "163858.794000", "163858.797000", "163858.799000", "163858.802000", "163858.804000", "163858.807000", "163858.809000", "163858.812000", "163858.815000", "163858.817000", "163858.820000", "163858.822000", "163858.825000", "163858.827000", "163858.830000", "163858.832000", "163858.835000", "163858.838000", "163858.840000", "163858.843000", "163858.845000", "163858.848000", "163858.850000", "163858.853000", "163938.161000", "163938.164000", "163938.166000", "163938.169000", "163938.171000", "163938.174000", "163938.176000", "163938.179000", "163938.182000", "163938.184000", "163938.187000", "163938.189000", "163938.192000", "163938.194000", "163938.197000", "163938.199000", "163938.202000", "163938.204000", "163938.207000", "163938.209000", "163938.212000", "163938.215000", "163938.217000", "163938.219000", "163938.222000", "163938.225000", "163938.227000", "164018.163000", "164018.166000", "164018.168000", "164018.171000", "164018.173000", "164018.176000", "164018.179000", "164018.182000", "164018.184000", "164018.187000", "164018.189000", "164018.192000", "164018.194000", "164018.197000", "164018.200000", "164018.202000", "164018.205000", "164018.207000", "164018.210000", "164018.212000", "164018.215000", "164018.217000", "164018.220000", "164018.222000", "164018.225000", "164018.227000", "164018.230000", "164058.164000", "164058.167000", "164058.169000", "164058.172000", "164058.183000", "164058.185000", "164058.188000", "164058.190000", "164058.193000", "164058.195000", "164058.198000", "164058.200000", "164058.203000", "164058.205000", "164058.208000", "164058.210000", "164058.213000", "164058.215000", "164058.218000", "164058.220000", "164058.223000", "164058.226000", "164058.228000", "164058.231000", "164058.233000", "164058.236000", "164058.238000", "164138.160000", "164138.163000", "164138.166000", "164138.168000", "164138.171000", "164138.173000", "164138.176000", "164138.179000", "164138.181000", "164138.184000", "164138.186000", "164138.189000", "164138.191000", "164138.194000", "164138.196000", "164138.199000", "164138.201000", "164138.204000", "164138.207000", "164138.209000", "164138.212000", "164138.214000", "164138.217000", "164138.219000", "164138.222000", "164138.224000", "164138.227000", "164218.151000", "164218.154000", "164218.156000", "164218.159000", "164218.168000", "164218.171000", "164218.173000", "164218.176000", "164218.179000", "164218.181000", "164218.184000", "164218.186000", "164218.189000", "164218.191000", "164218.194000", "164218.196000", "164218.199000", "164218.202000", "164218.204000", "164218.207000", "164218.209000", "164218.212000", "164218.214000", "164218.217000", "164218.219000", "164218.222000", "164218.224000", "164258.160000", "164258.163000", "164258.165000", "164258.168000", "164258.171000", "164258.173000", "164258.176000", "164258.178000", "164258.181000", "164258.184000", "164258.186000", "164258.189000", "164258.192000", "164258.195000", "164258.197000", "164258.200000", "164258.202000", "164258.205000", "164258.207000", "164258.210000", "164258.213000", "164258.215000", "164258.230000", "164258.233000", "164258.235000", "164258.238000", "164338.162000", "164338.165000", "164338.167000", "164338.170000", "164338.172000", "164338.175000", "164338.178000", "164338.180000", "164338.183000", "164338.185000", "164338.188000", "164338.190000", "164338.193000", "164338.195000", "164338.198000", "164338.200000", "164338.203000", "164338.205000", "164338.208000", "164338.210000", "164338.213000", "164338.215000", "164338.218000", "164338.220000", "164338.223000", "164338.225000", "164338.228000", "164413.407000", "164413.410000", "164413.413000", "164413.415000", "164413.418000", "164413.428000", "164413.431000", "164413.434000", "164413.436000", "164413.439000", "164413.441000", "164413.444000", "164413.446000", "164413.449000", "164413.452000", "164413.454000", "164413.457000", "164413.459000", "164413.462000", "164413.465000", "164413.467000", "164413.470000", "164413.472000", "164413.475000"],
      "InstanceNumber": [1, 2, 3, 4, 5, 6, 7, 8, 9, 10, 11, 12, 13, 14, 15, 16, 17, 18, 19, 20, 21, 22, 23, 24, 25, 26, 27, 28, 29, 30, 31, 32, 33, 34, 35, 36, 37, 38, 39, 40, 41, 42, 43, 44, 45, 46, 47, 48, 49, 50, 51, 52, 53, 54, 55, 56, 57, 58, 59, 60, 61, 62, 63, 64, 65, 66, 67, 68, 69, 70, 71, 72, 73, 74, 75, 76, 77, 78, 79, 80, 81, 82, 83, 84, 85, 86, 87, 88, 89, 90, 91, 92, 93, 94, 95, 96, 97, 98, 99, 100, 101, 102, 103, 104, 105, 106, 107, 108, 109, 110, 111, 112, 113, 114, 115, 116, 117, 118, 119, 120, 121, 122, 123, 124, 125, 126, 127, 128, 129, 130, 131, 132, 133, 134, 135, 136, 137, 138, 139, 140, 141, 142, 143, 144, 145, 146, 147, 148, 149, 150, 151, 152, 153, 154, 155, 156, 157, 158, 159, 160, 161, 162, 163, 164, 165, 166, 167, 168, 169, 170, 171, 172, 173, 174, 175, 176, 177, 178, 179, 180, 181, 182, 183, 184, 185, 186, 187, 188, 189, 190, 191, 192, 193, 194, 195, 196, 197, 198, 199, 200, 201, 202, 203, 204, 205, 206, 207, 208, 209, 210, 211, 212, 213, 214, 215, 216, 217, 218, 219, 220, 221, 222, 223, 224, 225, 226, 227, 228, 229, 230, 231, 232, 233, 234, 235, 236, 237, 238, 239, 240, 241, 242, 243, 244, 245, 246, 247, 248, 249, 250, 251, 252, 253, 254, 255, 256, 257, 258, 259, 260, 261, 262, 263, 264, 265, 266, 267, 268, 269, 270, 271, 272, 273, 274, 275, 276, 277, 278, 279, 280, 281, 282, 283, 284, 285, 286, 287, 288, 289, 290, 291, 292, 293, 294, 295, 296, 297, 298, 299, 300, 301, 302, 303, 304, 305, 306, 307, 308, 309, 310, 311, 312, 313, 314, 315, 316, 317, 318, 319, 320, 321, 322, 323, 324, 325, 326, 327, 328],
      "WindowCenter": [4856.0, 4856.0, 4860.0, 4862.0, 4858.0, 4860.0, 4854.0, 4860.0, 4862.0, 4884.0, 4860.0, 4860.0, 4860.0, 4864.0, 4856.0, 4864.0, 4860.0, 4886.0, 4886.0, 4862.0, 4860.0, 4860.0, 4856.0, 4860.0, 4860.0, 4860.0, 4864.0, 4886.0, 4888.0, 4862.0, 4862.0, 4860.0, 4860.0, 4858.0, 4858.0, 4862.0, 4886.0, 4864.0, 4886.0, 4886.0, 4860.0, 4864.0, 4862.0, 4860.0, 4862.0, 4886.0, 4864.0, 4886.0, 4860.0, 4860.0, 4860.0, 4862.0, 4860.0, 4884.0, 4886.0, 4862.0, 4864.0, 4886.0, 4864.0, 4860.0, 4858.0, 4858.0, 4858.0, 4864.0, 4864.0, 4862.0, 4886.0, 4888.0, 4886.0, 4888.0, 4862.0, 4862.0, 4858.0, 4860.0, 4864.0, 4864.0, 4864.0, 4886.0, 4884.0, 4888.0, 4888.0, 4862.0, 4864.0, 4864.0, 4860.0, 4860.0, 4862.0, 4866.0, 4888.0, 4890.0, 4864.0, 4860.0, 4858.0, 4864.0, 4864.0, 4860.0, 4888.0, 4884.0, 4888.0, 4888.0, 4866.0, 4864.0, 4860.0, 4860.0, 4860.0, 4864.0, 4864.0, 4864.0, 4866.0, 4886.0, 4890.0, 4862.0, 4886.0, 4864.0, 4862.0, 4888.0, 4864.0, 4888.0, 4888.0, 4862.0, 4864.0, 4864.0, 4866.0, 4862.0, 4864.0, 4860.0, 4864.0, 4886.0, 4858.0, 4864.0, 4860.0, 4884.0, 4864.0, 4886.0, 4886.0, 4864.0, 4862.0, 4862.0, 4884.0, 4864.0, 4860.0, 4860.0, 4862.0, 4858.0, 4864.0, 4886.0, 4886.0, 4886.0, 4886.0, 4886.0, 4862.0, 4864.0, 4864.0, 4864.0, 4864.0, 4862.0, 4866.0, 4862.0, 4862.0, 4860.0, 4860.0, 4864.0, 4886.0, 4882.0, 4886.0, 4888.0, 4860.0, 4864.0, 4858.0, 4858.0, 4866.0, 4888.0, 4884.0, 4884.0, 4864.0, 4858.0, 4860.0, 4862.0, 4862.0, 4864.0, 4888.0, 4888.0, 4864.0, 4864.0, 4864.0, 4886.0, 4888.0, 4886.0, 4862.0, 4864.0, 4862.0, 4864.0, 4884.0, 4886.0, 4864.0, 4862.0, 4868.0, 4884.0, 4866.0, 4860.0, 4830.0, 4856.0, 4852.0, 4860.0, 4858.0, 4860.0, 4856.0, 4888.0, 4882.0, 4886.0, 4864.0, 4860.0, 4860.0, 4864.0, 4860.0, 4866.0, 4864.0, 4888.0, 4862.0, 4886.0, 4884.0, 4862.0, 4862.0, 4860.0, 4862.0, 4858.0, 4858.0, 4858.0, 4886.0, 4886.0, 4884.0, 4886.0, 4884.0, 4862.0, 4862.0, 4864.0, 4862.0, 4862.0, 4864.0, 4862.0, 4886.0, 4886.0, 4862.0, 4886.0, 4862.0, 4862.0, 4864.0, 4864.0, 4864.0, 4862.0, 4862.0, 4886.0, 4884.0, 4884.0, 4888.0, 4866.0, 4864.0, 4884.0, 4862.0, 4884.0, 4864.0, 4888.0, 4884.0, 4862.0, 4890.0, 4886.0, 4866.0, 4864.0, 4862.0, 4862.0, 4866.0, 4858.0, 4856.0, 4862.0, 4862.0, 4856.0, 4884.0, 4884.0, 4888.0, 4884.0, 4886.0, 4886.0, 4864.0, 4862.0, 4864.0, 4864.0, 4864.0, 4864.0, 4862.0, 4886.0, 4884.0, 4884.0, 4882.0, 4888.0, 4834.0, 4864.0, 4864.0, 4860.0, 4862.0, 4888.0, 4866.0, 4864.0, 4862.0, 4860.0, 4864.0, 4884.0, 4862.0, 4864.0, 4862.0, 4886.0, 4884.0, 4884.0, 4884.0, 4862.0, 4864.0, 4864.0, 4866.0, 4884.0, 4864.0, 4864.0, 4858.0, 4862.0, 4864.0, 4888.0, 4886.0, 4884.0, 4884.0, 4862.0],
