{
  "AcquisitionMatrixPE": 104,
  "AcquisitionNumber": 1,
  "AcquisitionTime": "16:15:14.620000",
  "BandwidthPerPixelPhaseEncode": 17.17,
  "BaseResolution": 104,
  "BodyPartExamined": "BRAIN",
  "CoilCombinationMethod": "Sum of Squares",
  "ConsistencyInfo": "N4_VE11C_LATEST_20160120",
  "ConversionSoftware": "dcm2niix",
  "ConversionSoftwareVersion": "v1.0.20220505",
  "DerivedVendorReportedEchoSpacing": 0.000560011,
  "DeviceSerialNumber": "167006",
  "DwellTime": 2.1e-06,
  "EchoTime": 0.037,
  "EchoTrainLength": 104,
  "EffectiveEchoSpacing": 0.000560011,
  "FlipAngle": 52,
  "HeudiconvVersion": "0.5.3.post811+g6206e14",
  "ImageComments": "Unaliased MB4/PE3/LB",
  "ImageOrientationPatientDICOM": [0.999477, -0.0315803, 0.00701299, 0.031759, 0.916662, -0.398399],
  "ImageOrientationText": "Tra>Cor(-23.5)>Sag(-0.4)",
  "ImageType": [
    "ORIGINAL",
    "PRIMARY",
    "M",
    "MB",
    "ND",
    "MOSAIC"
],
  "ImagingFrequency": 123.259,
  "InPlanePhaseEncodingDirectionDICOM": "COL",
  "InstitutionAddress": "Chemin Queen-Mary 4565,Montreal,District,CA,H3W 1W5",
  "InstitutionName": "IUGM",
  "InstitutionalDepartmentName": "Department",
  "MRAcquisitionType": "2D",
  "MagneticFieldStrength": 3,
  "Manufacturer": "Siemens",
  "ManufacturersModelName": "Prisma_fit",
  "MatrixCoilMode": "SENSE",
  "Modality": "MR",
  "MultibandAccelerationFactor": 4,
  "PartialFourier": 1,
  "PatientPosition": "HFS",
  "PercentPhaseFOV": 100,
  "PercentSampling": 100,
  "PhaseEncodingDirection": "j",
  "PhaseEncodingSteps": 104,
  "PhaseResolution": 1,
  "PixelBandwidth": 2290,
  "ProcedureStepDescription": "games^mario3",
  "ProtocolName": "func_task-mario3_run-04",
  "PulseSequenceDetails": "%CustomerSeq%\\cmrr_mbep2d_bold",
  "ReceiveCoilActiveElements": "HC1-7;NC1,2",
  "ReceiveCoilName": "HeadNeck_64",
  "ReconMatrixPE": 104,
  "RepetitionTime": 1.49,
  "SAR": 0.0455723,
  "ScanOptions": "FS",
  "ScanningSequence": "EP",
  "SequenceName": "epfid2d1_104",
  "SequenceVariant": "SK\\SS",
  "SeriesDescription": "func_task-mario3_run-04",
  "SeriesNumber": 19,
  "ShimSetting": [629, -7256, -8845, 519, 19, -266, -114, -28],
  "SliceThickness": 2,
  "SliceTiming": [0, 0.7825, 0.0975, 0.88, 0.195, 0.98, 0.2925, 1.0775, 0.39, 1.175, 0.49, 1.2725, 0.5875, 1.37, 0.685, 0, 0.7825, 0.0975, 0.88, 0.195, 0.98, 0.2925, 1.0775, 0.39, 1.175, 0.49, 1.2725, 0.5875, 1.37, 0.685, 0, 0.7825, 0.0975, 0.88, 0.195, 0.98, 0.2925, 1.0775, 0.39, 1.175, 0.49, 1.2725, 0.5875, 1.37, 0.685, 0, 0.7825, 0.0975, 0.88, 0.195, 0.98, 0.2925, 1.0775, 0.39, 1.175, 0.49, 1.2725, 0.5875, 1.37, 0.685],
  "SoftwareVersions": "syngo MR E11",
  "SpacingBetweenSlices": 2,
  "StationName": "MRC35049",
  "TaskName": "mario3",
  "TotalReadoutTime": 0.0576811,
  "TxRefAmp": 238.791,
  "WipMemBlock": "a73f5e98-408d-463e-86d5-51167cb9df3e||Sequence: R017 ve11c/master r/75a17815+; Jun 28 2022 16:32:11 by eja",
  "dcmmeta_affine": [
    [-1.9989532232284546, 0.06351803988218307, -0.012306030839681625, 103.85795593261719],
    [0.06316052377223969, 1.8333241939544678, -0.796826958656311, -63.629852294921875],
    [0.014025970362126827, 0.7967985272407532, 1.834370493888855, -78.61614990234375],
    [0.0, 0.0, 0.0, 1.0]
],
  "dcmmeta_reorient_transform": [
    [0.0, -1.0, 0.0, 103.0],
    [1.0, 0.0, 0.0, 0.0],
    [0.0, 0.0, 1.0, 0.0],
    [0.0, 0.0, 0.0, 1.0]
],
  "dcmmeta_shape": [104, 104, 60, 306],
  "dcmmeta_slice_dim": 2,
  "dcmmeta_version": 0.6,
  "global": {
    "const": {
      "AcquisitionMatrix": [104, 0, 0, 104],
      "AngioFlag": "N",
      "BitsAllocated": 16,
      "BitsStored": 16,
      "BodyPartExamined": "BRAIN",
      "Columns": 832,
      "EchoNumbers": 1,
      "EchoTime": 37.0,
      "EchoTrainLength": 104,
      "FlipAngle": 52.0,
      "HighBit": 15,
      "ImageOrientationPatient": [0.99947661557322, -0.0315802621846, 0.00701298528779, 0.03175901951474, 0.91666208937651, -0.3983992703047],
      "ImagePositionPatient": [-861.13985999291, -769.54211006985, 288.38331284016],
      "ImageType": [
        "ORIGINAL",
        "PRIMARY",
        "M",
        "MB",
        "ND",
        "MOSAIC"
],
      "ImagedNucleus": "1H",
      "ImagingFrequency": 123.258815,
      "InPlanePhaseEncodingDirection": "COL",
      "MRAcquisitionType": "2D",
      "MagneticFieldStrength": 3.0,
      "Manufacturer": "SIEMENS",
      "ManufacturerModelName": "Prisma_fit",
      "Modality": "MR",
      "NumberOfAverages": 1.0,
      "NumberOfPhaseEncodingSteps": 104,
      "PercentPhaseFieldOfView": 100.0,
      "PercentSampling": 100.0,
      "PerformedProcedureStepStartTime": "154427.534000",
      "PhotometricInterpretation": "MONOCHROME2",
      "PixelBandwidth": 2290.0,
      "PixelRepresentation": 0,
      "PixelSpacing": [2.0, 2.0],
      "ProtocolName": "func_task-mario3_run-04",
      "RepetitionTime": 1490.0,
      "Rows": 832,
      "SAR": 0.04557231022693,
      "SamplesPerPixel": 1,
      "ScanOptions": "FS",
      "ScanningSequence": "EP",
      "SequenceName": "epfid2d1_104",
      "SequenceVariant": [
        "SK",
        "SS"
],
      "SeriesDescription": "func_task-mario3_run-04",
      "SeriesNumber": 19,
      "SeriesTime": "161628.585000",
      "SliceLocation": -47.393627237163,
      "SliceThickness": 2.0,
      "SmallestImagePixelValue": 0,
      "SoftwareVersions": "syngo MR E11",
      "SpacingBetweenSlices": 1.9999999243706,
      "SpecificCharacterSet": "ISO_IR 100",
      "StudyID": "1",
      "StudyTime": "154427.460000",
      "TransmitCoilName": "Body",
      "VariableFlipAngleFlag": "N",
      "WindowCenterWidthExplanation": "Algo1",
      "dBdt": 0.0},
    "slices": {}
  },
  "time": {
    "samples": {
      "AcquisitionNumber": [1, 2, 3, 4, 5, 6, 7, 8, 9, 10, 11, 12, 13, 14, 15, 16, 17, 18, 19, 20, 21, 22, 23, 24, 25, 26, 27, 28, 29, 30, 31, 32, 33, 34, 35, 36, 37, 38, 39, 40, 41, 42, 43, 44, 45, 46, 47, 48, 49, 50, 51, 52, 53, 54, 55, 56, 57, 58, 59, 60, 61, 62, 63, 64, 65, 66, 67, 68, 69, 70, 71, 72, 73, 74, 75, 76, 77, 78, 79, 80, 81, 82, 83, 84, 85, 86, 87, 88, 89, 90, 91, 92, 93, 94, 95, 96, 97, 98, 99, 100, 101, 102, 103, 104, 105, 106, 107, 108, 109, 110, 111, 112, 113, 114, 115, 116, 117, 118, 119, 120, 121, 122, 123, 124, 125, 126, 127, 128, 129, 130, 131, 132, 133, 134, 135, 136, 137, 138, 139, 140, 141, 142, 143, 144, 145, 146, 147, 148, 149, 150, 151, 152, 153, 154, 155, 156, 157, 158, 159, 160, 161, 162, 163, 164, 165, 166, 167, 168, 169, 170, 171, 172, 173, 174, 175, 176, 177, 178, 179, 180, 181, 182, 183, 184, 185, 186, 187, 188, 189, 190, 191, 192, 193, 194, 195, 196, 197, 198, 199, 200, 201, 202, 203, 204, 205, 206, 207, 208, 209, 210, 211, 212, 213, 214, 215, 216, 217, 218, 219, 220, 221, 222, 223, 224, 225, 226, 227, 228, 229, 230, 231, 232, 233, 234, 235, 236, 237, 238, 239, 240, 241, 242, 243, 244, 245, 246, 247, 248, 249, 250, 251, 252, 253, 254, 255, 256, 257, 258, 259, 260, 261, 262, 263, 264, 265, 266, 267, 268, 269, 270, 271, 272, 273, 274, 275, 276, 277, 278, 279, 280, 281, 282, 283, 284, 285, 286, 287, 288, 289, 290, 291, 292, 293, 294, 295, 296, 297, 298, 299, 300, 301, 302, 303, 304, 305, 306],
      "AcquisitionTime": ["161514.620000", "161516.110000", "161517.600000", "161519.090000", "161520.580000", "161522.070000", "161523.560000", "161525.050000", "161526.540000", "161528.030000", "161529.520000", "161531.010000", "161532.500000", "161533.990000", "161535.480000", "161536.970000", "161538.460000", "161539.950000", "161541.440000", "161542.930000", "161544.420000", "161545.910000", "161547.400000", "161548.890000", "161550.380000", "161551.870000", "161553.360000", "161554.850000", "161556.340000", "161557.830000", "161559.320000", "161600.810000", "161602.300000", "161603.790000", "161605.280000", "161606.770000", "161608.260000", "161609.750000", "161611.240000", "161612.730000", "161614.220000", "161615.710000", "161617.200000", "161618.690000", "161620.180000", "161621.670000", "161623.160000", "161624.650000", "161626.140000", "161627.630000", "161629.120000", "161630.610000", "161632.100000", "161633.590000", "161635.080000", "161636.570000", "161638.060000", "161639.550000", "161641.040000", "161642.530000", "161644.020000", "161645.510000", "161647.000000", "161648.490000", "161649.980000", "161651.470000", "161652.960000", "161654.450000", "161655.940000", "161657.430000", "161658.920000", "161700.410000", "161701.900000", "161703.390000", "161704.880000", "161706.370000", "161707.860000", "161709.350000", "161710.840000", "161712.330000", "161713.820000", "161715.310000", "161716.800000", "161718.290000", "161719.780000", "161721.270000", "161722.760000", "161724.250000", "161725.740000", "161727.230000", "161728.720000", "161730.210000", "161731.700000", "161733.190000", "161734.680000", "161736.170000", "161737.660000", "161739.150000", "161740.640000", "161742.130000", "161743.620000", "161745.110000", "161746.600000", "161748.090000", "161749.580000", "161751.070000", "161752.560000", "161754.050000", "161755.540000", "161757.030000", "161758.520000", "161800.010000", "161801.500000", "161802.990000", "161804.480000", "161805.970000", "161807.460000", "161808.950000", "161810.440000", "161811.930000", "161813.420000", "161814.910000", "161816.400000", "161817.890000", "161819.380000", "161820.870000", "161822.360000", "161823.850000", "161825.340000", "161826.830000", "161828.320000", "161829.810000", "161831.300000", "161832.790000", "161834.280000", "161835.770000", "161837.260000", "161838.750000", "161840.240000", "161841.730000", "161843.220000", "161844.710000", "161846.200000", "161847.690000", "161849.180000", "161850.670000", "161852.160000", "161853.650000", "161855.140000", "161856.630000", "161858.120000", "161859.610000", "161901.100000", "161902.590000", "161904.080000", "161905.570000", "161907.060000", "161908.550000", "161910.040000", "161911.530000", "161913.020000", "161914.510000", "161916.000000", "161917.490000", "161918.980000", "161920.470000", "161921.960000", "161923.450000", "161924.940000", "161926.430000", "161927.920000", "161929.410000", "161930.900000", "161932.390000", "161933.880000", "161935.370000", "161936.860000", "161938.350000", "161939.840000", "161941.330000", "161942.820000", "161944.310000", "161945.800000", "161947.290000", "161948.780000", "161950.270000", "161951.760000", "161953.250000", "161954.740000", "161956.230000", "161957.720000", "161959.210000", "162000.700000", "162002.190000", "162003.680000", "162005.170000", "162006.660000", "162008.150000", "162009.640000", "162011.130000", "162012.620000", "162014.110000", "162015.600000", "162017.090000", "162018.580000", "162020.070000", "162021.560000", "162023.050000", "162024.540000", "162026.030000", "162027.520000", "162029.010000", "162030.500000", "162031.990000", "162033.480000", "162034.970000", "162036.460000", "162037.950000", "162039.440000", "162040.930000", "162042.420000", "162043.910000", "162045.400000", "162046.890000", "162048.380000", "162049.870000", "162051.360000", "162052.850000", "162054.340000", "162055.830000", "162057.320000", "162058.810000", "162100.300000", "162101.790000", "162103.280000", "162104.770000", "162106.260000", "162107.750000", "162109.240000", "162110.730000", "162112.220000", "162113.710000", "162115.200000", "162116.690000", "162118.180000", "162119.670000", "162121.160000", "162122.650000", "162124.140000", "162125.630000", "162127.120000", "162128.610000", "162130.100000", "162131.590000", "162133.080000", "162134.570000", "162136.060000", "162137.550000", "162139.040000", "162140.530000", "162142.020000", "162143.510000", "162145.000000", "162146.490000", "162147.980000", "162149.470000", "162150.960000", "162152.450000", "162153.940000", "162155.430000", "162156.920000", "162158.410000", "162159.900000", "162201.390000", "162202.880000", "162204.370000", "162205.860000", "162207.350000", "162208.840000", "162210.330000", "162211.820000", "162213.310000", "162214.800000", "162216.290000", "162217.780000", "162219.270000", "162220.760000", "162222.250000", "162223.740000", "162225.230000", "162226.720000", "162228.210000", "162229.700000", "162231.190000", "162232.680000", "162234.170000", "162235.660000", "162237.150000", "162238.640000", "162240.130000", "162241.620000", "162243.110000", "162244.600000", "162246.090000", "162247.580000", "162249.070000"],
      "ContentTime": ["161628.589000", "161628.592000", "161628.596000", "161628.599000", "161628.602000", "161628.613000", "161628.616000", "161628.620000", "161628.623000", "161628.626000", "161628.630000", "161628.633000", "161628.636000", "161628.640000", "161628.643000", "161628.646000", "161628.650000", "161628.653000", "161628.656000", "161628.660000", "161628.663000", "161628.666000", "161628.670000", "161648.555000", "161648.559000", "161648.571000", "161648.574000", "161648.577000", "161648.581000", "161648.584000", "161648.588000", "161648.591000", "161648.594000", "161648.598000", "161648.601000", "161648.604000", "161648.608000", "161648.611000", "161648.614000", "161648.618000", "161648.635000", "161648.638000", "161648.641000", "161708.555000", "161708.559000", "161708.562000", "161708.566000", "161708.569000", "161708.572000", "161708.576000", "161708.579000", "161708.582000", "161708.586000", "161708.589000", "161708.593000", "161708.596000", "161708.599000", "161708.603000", "161708.606000", "161708.609000", "161708.613000", "161708.616000", "161708.619000", "161728.555000", "161728.559000", "161728.563000", "161728.566000", "161728.569000", "161728.573000", "161728.576000", "161728.579000", "161728.583000", "161728.586000", "161728.590000", "161728.593000", "161728.596000", "161728.600000", "161728.603000", "161728.606000", "161728.610000", "161728.613000", "161728.616000", "161728.620000", "161728.623000", "161808.554000", "161808.558000", "161808.561000", "161808.565000", "161808.568000", "161808.571000", "161808.575000", "161808.578000", "161808.581000", "161808.585000", "161808.588000", "161808.592000", "161808.595000", "161808.598000", "161808.602000", "161808.605000", "161808.608000", "161808.612000", "161808.615000", "161808.619000", "161808.622000", "161808.625000", "161808.629000", "161808.632000", "161808.636000", "161808.639000", "161808.642000", "161808.646000", "161808.649000", "161808.653000", "161808.656000", "161808.659000", "161848.555000", "161848.559000", "161848.562000", "161848.566000", "161848.569000", "161848.572000", "161848.576000", "161848.579000", "161848.583000", "161848.586000", "161848.590000", "161848.593000", "161848.596000", "161848.600000", "161848.613000", "161848.616000", "161848.619000", "161848.623000", "161848.626000", "161848.630000", "161848.633000", "161848.636000", "161848.652000", "161848.656000", "161848.659000", "161848.662000", "161848.666000", "161928.555000", "161928.559000", "161928.562000", "161928.566000", "161928.569000", "161928.573000", "161928.576000", "161928.580000", "161928.583000", "161928.587000", "161928.590000", "161928.593000", "161928.597000", "161928.601000", "161928.605000", "161928.609000", "161928.613000", "161928.616000", "161928.620000", "161928.624000", "161928.627000", "161928.631000", "161928.635000", "161928.638000", "161928.641000", "161928.645000", "162008.555000", "162008.559000", "162008.562000", "162008.566000", "162008.569000", "162008.573000", "162008.576000", "162008.579000", "162008.583000", "162008.586000", "162008.590000", "162008.593000", "162008.596000", "162008.600000", "162008.603000", "162008.606000", "162008.610000", "162008.613000", "162008.617000", "162008.620000", "162008.623000", "162008.627000", "162008.630000", "162008.634000", "162008.637000", "162008.640000", "162008.644000", "162048.555000", "162048.559000", "162048.562000", "162048.566000", "162048.569000", "162048.573000", "162048.576000", "162048.580000", "162048.583000", "162048.586000", "162048.590000", "162048.593000", "162048.596000", "162048.600000", "162048.603000", "162048.607000", "162048.610000", "162048.613000", "162048.617000", "162048.620000", "162048.623000", "162048.627000", "162048.630000", "162048.634000", "162048.637000", "162048.640000", "162048.644000", "162128.555000", "162128.559000", "162128.562000", "162128.566000", "162128.581000", "162128.585000", "162128.588000", "162128.591000", "162128.595000", "162128.598000", "162128.601000", "162128.605000", "162128.608000", "162128.612000", "162128.615000", "162128.618000", "162128.622000", "162128.625000", "162128.628000", "162128.632000", "162128.635000", "162128.638000", "162128.642000", "162128.645000", "162128.649000", "162128.652000", "162128.655000", "162208.555000", "162208.559000", "162208.562000", "162208.566000", "162208.569000", "162208.573000", "162208.576000", "162208.579000", "162208.583000", "162208.586000", "162208.590000", "162208.593000", "162208.596000", "162208.613000", "162208.617000", "162208.620000", "162208.624000", "162208.627000", "162208.631000", "162208.634000", "162208.637000", "162208.641000", "162208.644000", "162208.647000", "162208.651000", "162208.654000", "162208.658000", "162248.554000", "162248.558000", "162248.562000", "162248.565000", "162248.568000", "162248.572000", "162248.575000", "162248.579000", "162248.582000", "162248.586000", "162248.589000", "162248.592000", "162248.596000", "162248.599000", "162248.602000", "162248.606000", "162248.609000", "162248.613000", "162248.616000", "162248.619000", "162248.623000", "162248.626000", "162248.630000", "162248.633000", "162248.636000", "162248.640000", "162248.643000", "162251.308000", "162251.312000"],
      "InstanceCreationTime": ["161628.589000", "161628.592000", "161628.596000", "161628.599000", "161628.602000", "161628.613000", "161628.616000", "161628.620000", "161628.623000", "161628.626000", "161628.630000", "161628.633000", "161628.636000", "161628.640000", "161628.643000", "161628.646000", "161628.650000", "161628.653000", "161628.656000", "161628.660000", "161628.663000", "161628.666000", "161628.670000", "161648.555000", "161648.559000", "161648.571000", "161648.574000", "161648.577000", "161648.581000", "161648.584000", "161648.588000", "161648.591000", "161648.594000", "161648.598000", "161648.601000", "161648.604000", "161648.608000", "161648.611000", "161648.614000", "161648.618000", "161648.635000", "161648.638000", "161648.641000", "161708.555000", "161708.559000", "161708.562000", "161708.566000", "161708.569000", "161708.572000", "161708.576000", "161708.579000", "161708.582000", "161708.586000", "161708.589000", "161708.593000", "161708.596000", "161708.599000", "161708.603000", "161708.606000", "161708.609000", "161708.613000", "161708.616000", "161708.619000", "161728.555000", "161728.559000", "161728.563000", "161728.566000", "161728.569000", "161728.573000", "161728.576000", "161728.579000", "161728.583000", "161728.586000", "161728.590000", "161728.593000", "161728.596000", "161728.600000", "161728.603000", "161728.606000", "161728.610000", "161728.613000", "161728.616000", "161728.620000", "161728.623000", "161808.554000", "161808.558000", "161808.561000", "161808.565000", "161808.568000", "161808.571000", "161808.575000", "161808.578000", "161808.581000", "161808.585000", "161808.588000", "161808.592000", "161808.595000", "161808.598000", "161808.602000", "161808.605000", "161808.608000", "161808.612000", "161808.615000", "161808.619000", "161808.622000", "161808.625000", "161808.629000", "161808.632000", "161808.636000", "161808.639000", "161808.642000", "161808.646000", "161808.649000", "161808.653000", "161808.656000", "161808.659000", "161848.555000", "161848.559000", "161848.562000", "161848.566000", "161848.569000", "161848.572000", "161848.576000", "161848.579000", "161848.583000", "161848.586000", "161848.590000", "161848.593000", "161848.596000", "161848.600000", "161848.613000", "161848.616000", "161848.619000", "161848.623000", "161848.626000", "161848.630000", "161848.633000", "161848.636000", "161848.652000", "161848.656000", "161848.659000", "161848.662000", "161848.666000", "161928.555000", "161928.559000", "161928.562000", "161928.566000", "161928.569000", "161928.573000", "161928.576000", "161928.580000", "161928.583000", "161928.587000", "161928.590000", "161928.593000", "161928.597000", "161928.601000", "161928.605000", "161928.609000", "161928.613000", "161928.616000", "161928.620000", "161928.624000", "161928.627000", "161928.631000", "161928.635000", "161928.638000", "161928.641000", "161928.645000", "162008.555000", "162008.559000", "162008.562000", "162008.566000", "162008.569000", "162008.573000", "162008.576000", "162008.579000", "162008.583000", "162008.586000", "162008.590000", "162008.593000", "162008.596000", "162008.600000", "162008.603000", "162008.606000", "162008.610000", "162008.613000", "162008.617000", "162008.620000", "162008.623000", "162008.627000", "162008.630000", "162008.634000", "162008.637000", "162008.640000", "162008.644000", "162048.555000", "162048.559000", "162048.562000", "162048.566000", "162048.569000", "162048.573000", "162048.576000", "162048.580000", "162048.583000", "162048.586000", "162048.590000", "162048.593000", "162048.596000", "162048.600000", "162048.603000", "162048.607000", "162048.610000", "162048.613000", "162048.617000", "162048.620000", "162048.623000", "162048.627000", "162048.630000", "162048.634000", "162048.637000", "162048.640000", "162048.644000", "162128.555000", "162128.559000", "162128.562000", "162128.566000", "162128.581000", "162128.585000", "162128.588000", "162128.591000", "162128.595000", "162128.598000", "162128.601000", "162128.605000", "162128.608000", "162128.612000", "162128.615000", "162128.618000", "162128.622000", "162128.625000", "162128.628000", "162128.632000", "162128.635000", "162128.638000", "162128.642000", "162128.645000", "162128.649000", "162128.652000", "162128.655000", "162208.555000", "162208.559000", "162208.562000", "162208.566000", "162208.569000", "162208.573000", "162208.576000", "162208.579000", "162208.583000", "162208.586000", "162208.590000", "162208.593000", "162208.596000", "162208.613000", "162208.617000", "162208.620000", "162208.624000", "162208.627000", "162208.631000", "162208.634000", "162208.637000", "162208.641000", "162208.644000", "162208.647000", "162208.651000", "162208.654000", "162208.658000", "162248.554000", "162248.558000", "162248.562000", "162248.565000", "162248.568000", "162248.572000", "162248.575000", "162248.579000", "162248.582000", "162248.586000", "162248.589000", "162248.592000", "162248.596000", "162248.599000", "162248.602000", "162248.606000", "162248.609000", "162248.613000", "162248.616000", "162248.619000", "162248.623000", "162248.626000", "162248.630000", "162248.633000", "162248.636000", "162248.640000", "162248.643000", "162251.308000", "162251.312000"],
      "InstanceNumber": [1, 2, 3, 4, 5, 6, 7, 8, 9, 10, 11, 12, 13, 14, 15, 16, 17, 18, 19, 20, 21, 22, 23, 24, 25, 26, 27, 28, 29, 30, 31, 32, 33, 34, 35, 36, 37, 38, 39, 40, 41, 42, 43, 44, 45, 46, 47, 48, 49, 50, 51, 52, 53, 54, 55, 56, 57, 58, 59, 60, 61, 62, 63, 64, 65, 66, 67, 68, 69, 70, 71, 72, 73, 74, 75, 76, 77, 78, 79, 80, 81, 82, 83, 84, 85, 86, 87, 88, 89, 90, 91, 92, 93, 94, 95, 96, 97, 98, 99, 100, 101, 102, 103, 104, 105, 106, 107, 108, 109, 110, 111, 112, 113, 114, 115, 116, 117, 118, 119, 120, 121, 122, 123, 124, 125, 126, 127, 128, 129, 130, 131, 132, 133, 134, 135, 136, 137, 138, 139, 140, 141, 142, 143, 144, 145, 146, 147, 148, 149, 150, 151, 152, 153, 154, 155, 156, 157, 158, 159, 160, 161, 162, 163, 164, 165, 166, 167, 168, 169, 170, 171, 172, 173, 174, 175, 176, 177, 178, 179, 180, 181, 182, 183, 184, 185, 186, 187, 188, 189, 190, 191, 192, 193, 194, 195, 196, 197, 198, 199, 200, 201, 202, 203, 204, 205, 206, 207, 208, 209, 210, 211, 212, 213, 214, 215, 216, 217, 218, 219, 220, 221, 222, 223, 224, 225, 226, 227, 228, 229, 230, 231, 232, 233, 234, 235, 236, 237, 238, 239, 240, 241, 242, 243, 244, 245, 246, 247, 248, 249, 250, 251, 252, 253, 254, 255, 256, 257, 258, 259, 260, 261, 262, 263, 264, 265, 266, 267, 268, 269, 270, 271, 272, 273, 274, 275, 276, 277, 278, 279, 280, 281, 282, 283, 284, 285, 286, 287, 288, 289, 290, 291, 292, 293, 294, 295, 296, 297, 298, 299, 300, 301, 302, 303, 304, 305, 306],
      "LargestImagePixelValue": [37455, 37271, 35853, 35977, 35299, 34710, 34510, 34725, 34975, 34995, 35220, 34650, 35440, 34534, 35887, 36856, 36448, 35756, 35456, 35853, 34768, 34985, 34461, 35191, 35144, 35896, 35233, 37569, 37418, 37697, 38297, 38760, 37592, 38090, 37593, 37739, 37013, 37182, 36562, 37507, 37594, 37228, 37765, 36949, 37458, 37525, 37746, 37861, 38336, 37836, 38422, 37964, 37744, 38144, 37932, 38435, 37642, 38178, 38403, 37743, 37898, 37636, 37593, 37313, 36669, 36305, 35980, 38312, 38261, 38216, 37907, 37838, 37212, 36709, 36957, 37380, 37673, 38196, 38137, 38177, 38280, 38423, 37938, 38323, 37655, 37840, 37663, 38254, 38269, 38308, 38150, 37364, 37994, 38360, 38844, 38087, 37994, 38155, 38630, 38375, 37831, 38060, 37957, 37903, 38411, 38292, 37989, 38245, 37863, 37997, 37952, 38031, 37985, 37580, 38512, 38071, 37981, 38063, 37548, 37965, 37549, 37737, 37888, 38052, 38186, 37854, 37821, 38189, 37924, 38548, 38299, 38089, 37631, 37789, 37651, 37727, 37134, 37760, 37340, 37594, 37448, 37067, 37787, 37407, 37657, 37548, 37607, 37498, 37617, 37194, 36870, 38077, 37954, 38071, 37733, 36916, 36669, 37018, 36847, 37725, 37537, 37317, 38046, 37377, 37554, 37251, 36866, 37160, 35610, 36748, 36905, 37274, 36946, 36456, 37091, 37232, 36875, 36791, 36778, 36657, 36375, 36830, 36926, 37004, 37323, 36720, 36798, 35876, 37166, 37059, 36997, 37429, 37224, 36876, 36303, 36210, 36404, 35726, 35853, 36093, 36311, 36568, 36486, 36663, 36678, 36648, 36041, 36330, 35808, 36014, 35424, 36104, 35782, 36203, 36038, 36107, 36392, 36115, 37495, 36566, 36259, 36044, 35883, 36268, 35987, 36351, 36356, 36110, 35741, 36206, 35833, 36324, 35632, 36743, 36625, 35602, 35769, 36242, 36986, 37366, 36433, 36608, 37197, 36314, 36917, 36089, 36153, 35229, 34101, 34635, 34934, 34573, 34677, 36098, 35519, 36429, 36425, 36014, 35876, 34769, 34497, 34553, 35007, 35353, 34669, 34669, 34718, 35486, 35365, 35231, 35255, 35718, 35624, 35798, 35993, 35470, 35065, 36007, 35667, 36278, 35474, 36658, 35776, 36056, 36106, 35986, 36329, 36073, 34875, 35719, 36393, 35742, 36014, 35545, 36119, 36409, 36501, 35883, 35369, 35628, 35782, 35497, 37143, 35333, 35849, 35831],
      "WindowCenter": [9922.0, 9872.0, 9837.0, 9848.0, 9851.0, 9839.0, 9829.0, 9830.0, 9817.0, 9832.0, 9848.0, 9845.0, 9855.0, 9830.0, 9837.0, 9851.0, 9858.0, 9837.0, 9837.0, 9854.0, 9844.0, 9828.0, 9811.0, 9815.0, 9800.0, 9797.0, 9783.0, 9851.0, 9886.0, 9879.0, 9859.0, 9831.0, 9802.0, 9804.0, 9792.0, 9809.0, 9854.0, 9884.0, 9879.0, 9859.0, 9810.0, 9786.0, 9804.0, 9828.0, 9845.0, 9844.0, 9845.0, 9844.0, 9854.0, 9858.0, 9864.0, 9850.0, 9843.0, 9841.0, 9840.0, 9831.0, 9833.0, 9841.0, 9850.0, 9837.0, 9828.0, 9828.0, 9836.0, 9852.0, 9847.0, 9822.0, 9826.0, 9883.0, 9867.0, 9839.0, 9817.0, 9843.0, 9869.0, 9850.0, 9807.0, 9769.0, 9774.0, 9794.0, 9830.0, 9861.0, 9886.0, 9871.0, 9877.0, 9886.0, 9881.0, 9874.0, 9875.0, 9896.0, 9900.0, 9899.0, 9883.0, 9868.0, 9882.0, 9889.0, 9894.0, 9882.0, 9866.0, 9863.0, 9877.0, 9880.0, 9881.0, 9901.0, 9870.0, 9875.0, 9936.0, 9949.0, 9919.0, 9899.0, 9864.0, 9837.0, 9830.0, 9836.0, 9846.0, 9840.0, 9835.0, 9834.0, 9846.0, 9860.0, 9879.0, 9907.0, 9894.0, 9883.0, 9875.0, 9881.0, 9891.0, 9900.0, 9899.0, 9899.0, 9875.0, 9877.0, 9890.0, 9905.0, 9909.0, 9903.0, 9862.0, 9827.0, 9832.0, 9875.0, 9894.0, 9880.0, 9869.0, 9855.0, 9860.0, 9829.0, 9840.0, 9893.0, 9907.0, 9884.0, 9864.0, 9849.0, 9847.0, 9876.0, 9894.0, 9866.0, 9854.0, 9849.0, 9861.0, 9868.0, 9850.0, 9861.0, 9872.0, 9866.0, 9888.0, 9890.0, 9884.0, 9899.0, 9902.0, 9894.0, 9854.0, 9867.0, 9885.0, 9898.0, 9881.0, 9865.0, 9879.0, 9909.0, 9891.0, 9865.0, 9844.0, 9858.0, 9871.0, 9885.0, 9886.0, 9900.0, 9901.0, 9915.0, 9912.0, 9909.0, 9912.0, 9888.0, 9874.0, 9878.0, 9840.0, 9807.0, 9797.0, 9799.0, 9798.0, 9777.0, 9761.0, 9778.0, 9801.0, 9825.0, 9835.0, 9866.0, 9884.0, 9896.0, 9889.0, 9904.0, 9909.0, 9917.0, 9897.0, 9886.0, 9870.0, 9867.0, 9874.0, 9873.0, 9868.0, 9859.0, 9868.0, 9879.0, 9884.0, 9874.0, 9854.0, 9843.0, 9835.0, 9863.0, 9893.0, 9905.0, 9885.0, 9872.0, 9861.0, 9882.0, 9893.0, 9915.0, 9879.0, 9845.0, 9828.0, 9855.0, 9860.0, 9855.0, 9809.0, 9801.0, 9827.0, 9835.0, 9832.0, 9810.0, 9806.0, 9796.0, 9796.0, 9790.0, 9779.0, 9778.0, 9795.0, 9838.0, 9870.0, 9916.0, 9917.0, 9887.0, 9876.0, 9888.0, 9895.0, 9897.0, 9879.0, 9867.0, 9862.0, 9855.0, 9837.0, 9844.0, 9859.0, 9870.0, 9842.0, 9840.0, 9877.0, 9921.0, 9931.0, 9910.0, 9894.0, 9895.0, 9898.0, 9919.0, 9917.0, 9925.0, 9907.0, 9894.0, 9878.0, 9878.0, 9891.0, 9900.0, 9902.0, 9908.0, 9859.0, 9863.0, 9897.0, 9887.0, 9854.0, 9814.0, 9792.0, 9803.0, 9842.0, 9846.0, 9843.0, 9852.0, 9880.0, 9838.0, 9818.0, 9813.0],
