{
  "AcquisitionMatrixPE": 104,
  "AcquisitionNumber": 1,
  "AcquisitionTime": "15:57:33.475000",
  "BandwidthPerPixelPhaseEncode": 17.17,
  "BaseResolution": 104,
  "BodyPartExamined": "BRAIN",
  "CoilCombinationMethod": "Sum of Squares",
  "ConsistencyInfo": "N4_VE11C_LATEST_20160120",
  "ConversionSoftware": "dcm2niix",
  "ConversionSoftwareVersion": "v1.0.20220505",
  "DerivedVendorReportedEchoSpacing": 0.000560011,
  "DeviceSerialNumber": "167006",
  "DwellTime": 2.1e-06,
  "EchoTime": 0.037,
  "EchoTime1": 0.037,
  "EchoTime2": 0.001,
  "EchoTrainLength": 104,
  "EffectiveEchoSpacing": 0.000560011,
  "FlipAngle": 52,
  "HeudiconvVersion": "0.5.3.post811+g6206e14",
  "ImageComments": "Unaliased MB4/PE3/LB",
  "ImageOrientationPatientDICOM": [0.999477, -0.0315803, 0.00701299, 0.031759, 0.916662, -0.398399],
  "ImageOrientationText": "Tra>Cor(-23.5)>Sag(-0.4)",
  "ImageType": [
    "ORIGINAL",
    "PRIMARY",
    "P",
    "MB",
    "ND",
    "MOSAIC",
    "PHASE"
],
  "ImagingFrequency": 123.259,
  "InPlanePhaseEncodingDirectionDICOM": "COL",
  "InstitutionAddress": "Chemin Queen-Mary 4565,Montreal,District,CA,H3W 1W5",
  "InstitutionName": "IUGM",
  "InstitutionalDepartmentName": "Department",
  "MRAcquisitionType": "2D",
  "MagneticFieldStrength": 3,
  "Manufacturer": "Siemens",
  "ManufacturersModelName": "Prisma_fit",
  "MatrixCoilMode": "SENSE",
  "Modality": "MR",
  "MultibandAccelerationFactor": 4,
  "PartialFourier": 1,
  "PatientPosition": "HFS",
  "PercentPhaseFOV": 100,
  "PercentSampling": 100,
  "PhaseEncodingDirection": "j",
  "PhaseEncodingSteps": 104,
  "PhaseResolution": 1,
  "PixelBandwidth": 2290,
  "ProcedureStepDescription": "games^mario3",
  "ProtocolName": "func_task-mario3_run-02",
  "PulseSequenceDetails": "%CustomerSeq%\\cmrr_mbep2d_bold",
  "ReceiveCoilActiveElements": "HC1-7;NC1,2",
  "ReceiveCoilName": "HeadNeck_64",
  "ReconMatrixPE": 104,
  "RepetitionTime": 1.49,
  "SAR": 0.0455723,
  "ScanOptions": "FS",
  "ScanningSequence": "EP",
  "SequenceName": "epfid2d1_104",
  "SequenceVariant": "SK\\SS",
  "SeriesDescription": "func_task-mario3_run-02",
  "SeriesNumber": 14,
  "ShimSetting": [629, -7256, -8845, 519, 19, -266, -114, -28],
  "SliceThickness": 2,
  "SliceTiming": [0, 0.785, 0.0975, 0.8825, 0.1975, 0.98, 0.295, 1.0775, 0.3925, 1.1775, 0.49, 1.275, 0.5875, 1.3725, 0.6875, 0, 0.785, 0.0975, 0.8825, 0.1975, 0.98, 0.295, 1.0775, 0.3925, 1.1775, 0.49, 1.275, 0.5875, 1.3725, 0.6875, 0, 0.785, 0.0975, 0.8825, 0.1975, 0.98, 0.295, 1.0775, 0.3925, 1.1775, 0.49, 1.275, 0.5875, 1.3725, 0.6875, 0, 0.785, 0.0975, 0.8825, 0.1975, 0.98, 0.295, 1.0775, 0.3925, 1.1775, 0.49, 1.275, 0.5875, 1.3725, 0.6875],
  "SoftwareVersions": "syngo MR E11",
  "SpacingBetweenSlices": 2,
  "StationName": "MRC35049",
  "TaskName": "mario3",
  "TotalReadoutTime": 0.0576811,
  "TxRefAmp": 238.791,
  "WipMemBlock": "9d8fc91f-2f42-4171-9a94-500ac4eb292a||Sequence: R017 ve11c/master r/75a17815+; Jun 28 2022 16:32:11 by eja",
  "dcmmeta_affine": [
    [-1.9989532232284546, 0.06351803988218307, -0.012306030839681625, 103.85795593261719],
    [0.06316052377223969, 1.8333241939544678, -0.796826958656311, -63.629852294921875],
    [0.014025970362126827, 0.7967985272407532, 1.834370493888855, -78.61614990234375],
    [0.0, 0.0, 0.0, 1.0]
],
  "dcmmeta_reorient_transform": [
    [0.0, -1.0, 0.0, 103.0],
    [1.0, 0.0, 0.0, 0.0],
    [0.0, 0.0, 1.0, 0.0],
    [0.0, 0.0, 0.0, 1.0]
],
  "dcmmeta_shape": [104, 104, 60, 317],
  "dcmmeta_slice_dim": 2,
  "dcmmeta_version": 0.6,
  "global": {
    "const": {
      "AcquisitionMatrix": [104, 0, 0, 104],
      "AngioFlag": "N",
      "BitsAllocated": 16,
      "BitsStored": 16,
      "BodyPartExamined": "BRAIN",
      "Columns": 832,
      "EchoNumbers": 1,
      "EchoTime": 37.0,
      "EchoTrainLength": 104,
      "FlipAngle": 52.0,
      "HighBit": 15,
      "ImageOrientationPatient": [0.99947661557322, -0.0315802621846, 0.00701298528779, 0.03175901951474, 0.91666208937651, -0.3983992703047],
      "ImagePositionPatient": [-861.13985999291, -769.54211006985, 288.38331284016],
      "ImageType": [
        "ORIGINAL",
        "PRIMARY",
        "P",
        "MB",
        "ND",
        "MOSAIC"
],
      "ImagedNucleus": "1H",
      "ImagingFrequency": 123.258809,
      "InPlanePhaseEncodingDirection": "COL",
      "LargestImagePixelValue": 4095,
      "MRAcquisitionType": "2D",
      "MagneticFieldStrength": 3.0,
      "Manufacturer": "SIEMENS",
      "ManufacturerModelName": "Prisma_fit",
      "Modality": "MR",
      "NumberOfAverages": 1.0,
      "NumberOfPhaseEncodingSteps": 104,
      "PercentPhaseFieldOfView": 100.0,
      "PercentSampling": 100.0,
      "PerformedProcedureStepStartTime": "154427.534000",
      "PhotometricInterpretation": "MONOCHROME2",
      "PixelBandwidth": 2290.0,
      "PixelRepresentation": 0,
      "PixelSpacing": [2.0, 2.0],
      "ProtocolName": "func_task-mario3_run-02",
      "RepetitionTime": 1490.0,
      "RescaleIntercept": -4096.0,
      "RescaleSlope": 2.0,
      "RescaleType": "US",
      "Rows": 832,
      "SAR": 0.04557231022693,
      "SamplesPerPixel": 1,
      "ScanOptions": "FS",
      "ScanningSequence": "EP",
      "SequenceName": "epfid2d1_104",
      "SequenceVariant": [
        "SK",
        "SS"
],
      "SeriesDescription": "func_task-mario3_run-02",
      "SeriesNumber": 14,
      "SeriesTime": "155828.344000",
      "SliceLocation": -47.393627237163,
      "SliceThickness": 2.0,
      "SmallestImagePixelValue": 0,
      "SoftwareVersions": "syngo MR E11",
      "SpacingBetweenSlices": 1.9999999243706,
      "SpecificCharacterSet": "ISO_IR 100",
      "StudyID": "1",
      "StudyTime": "154427.460000",
      "TransmitCoilName": "Body",
      "VariableFlipAngleFlag": "N",
      "WindowCenterWidthExplanation": "Algo1",
      "dBdt": 0.0},
    "slices": {}
  },
  "time": {
    "samples": {
      "AcquisitionNumber": [1, 2, 3, 4, 5, 6, 7, 8, 9, 10, 11, 12, 13, 14, 15, 16, 17, 18, 19, 20, 21, 22, 23, 24, 25, 26, 27, 28, 29, 30, 31, 32, 33, 34, 35, 36, 37, 38, 39, 40, 41, 42, 43, 44, 45, 46, 47, 48, 49, 50, 51, 52, 53, 54, 55, 56, 57, 58, 59, 60, 61, 62, 63, 64, 65, 66, 67, 68, 69, 70, 71, 72, 73, 74, 75, 76, 77, 78, 79, 80, 81, 82, 83, 84, 85, 86, 87, 88, 89, 90, 91, 92, 93, 94, 95, 96, 97, 98, 99, 100, 101, 102, 103, 104, 105, 106, 107, 108, 109, 110, 111, 112, 113, 114, 115, 116, 117, 118, 119, 120, 121, 122, 123, 124, 125, 126, 127, 128, 129, 130, 131, 132, 133, 134, 135, 136, 137, 138, 139, 140, 141, 142, 143, 144, 145, 146, 147, 148, 149, 150, 151, 152, 153, 154, 155, 156, 157, 158, 159, 160, 161, 162, 163, 164, 165, 166, 167, 168, 169, 170, 171, 172, 173, 174, 175, 176, 177, 178, 179, 180, 181, 182, 183, 184, 185, 186, 187, 188, 189, 190, 191, 192, 193, 194, 195, 196, 197, 198, 199, 200, 201, 202, 203, 204, 205, 206, 207, 208, 209, 210, 211, 212, 213, 214, 215, 216, 217, 218, 219, 220, 221, 222, 223, 224, 225, 226, 227, 228, 229, 230, 231, 232, 233, 234, 235, 236, 237, 238, 239, 240, 241, 242, 243, 244, 245, 246, 247, 248, 249, 250, 251, 252, 253, 254, 255, 256, 257, 258, 259, 260, 261, 262, 263, 264, 265, 266, 267, 268, 269, 270, 271, 272, 273, 274, 275, 276, 277, 278, 279, 280, 281, 282, 283, 284, 285, 286, 287, 288, 289, 290, 291, 292, 293, 294, 295, 296, 297, 298, 299, 300, 301, 302, 303, 304, 305, 306, 307, 308, 309, 310, 311, 312, 313, 314, 315, 316, 317],
      "AcquisitionTime": ["155733.475000", "155734.965000", "155736.455000", "155737.945000", "155739.435000", "155740.925000", "155742.415000", "155743.905000", "155745.395000", "155746.885000", "155748.375000", "155749.865000", "155751.355000", "155752.845000", "155754.335000", "155755.825000", "155757.315000", "155758.805000", "155800.295000", "155801.785000", "155803.275000", "155804.765000", "155806.255000", "155807.745000", "155809.235000", "155810.725000", "155812.215000", "155813.705000", "155815.195000", "155816.685000", "155818.175000", "155819.665000", "155821.155000", "155822.645000", "155824.135000", "155825.625000", "155827.115000", "155828.605000", "155830.095000", "155831.585000", "155833.075000", "155834.565000", "155836.055000", "155837.545000", "155839.035000", "155840.525000", "155842.015000", "155843.505000", "155844.995000", "155846.485000", "155847.975000", "155849.465000", "155850.955000", "155852.445000", "155853.935000", "155855.425000", "155856.915000", "155858.405000", "155859.895000", "155901.385000", "155902.875000", "155904.365000", "155905.855000", "155907.345000", "155908.835000", "155910.325000", "155911.815000", "155913.305000", "155914.795000", "155916.285000", "155917.775000", "155919.265000", "155920.755000", "155922.245000", "155923.735000", "155925.225000", "155926.715000", "155928.205000", "155929.695000", "155931.185000", "155932.675000", "155934.165000", "155935.655000", "155937.145000", "155938.635000", "155940.125000", "155941.615000", "155943.105000", "155944.595000", "155946.085000", "155947.575000", "155949.065000", "155950.555000", "155952.045000", "155953.535000", "155955.025000", "155956.515000", "155958.005000", "155959.495000", "160000.985000", "160002.475000", "160003.965000", "160005.455000", "160006.945000", "160008.435000", "160009.925000", "160011.415000", "160012.905000", "160014.395000", "160015.885000", "160017.375000", "160018.865000", "160020.355000", "160021.845000", "160023.335000", "160024.825000", "160026.315000", "160027.805000", "160029.295000", "160030.785000", "160032.275000", "160033.765000", "160035.255000", "160036.745000", "160038.235000", "160039.725000", "160041.215000", "160042.705000", "160044.195000", "160045.685000", "160047.175000", "160048.665000", "160050.155000", "160051.645000", "160053.135000", "160054.625000", "160056.115000", "160057.605000", "160059.095000", "160100.585000", "160102.075000", "160103.565000", "160105.055000", "160106.545000", "160108.035000", "160109.525000", "160111.015000", "160112.505000", "160113.995000", "160115.485000", "160116.975000", "160118.465000", "160119.955000", "160121.445000", "160122.935000", "160124.425000", "160125.915000", "160127.405000", "160128.895000", "160130.385000", "160131.875000", "160133.365000", "160134.855000", "160136.345000", "160137.835000", "160139.325000", "160140.815000", "160142.305000", "160143.795000", "160145.285000", "160146.775000", "160148.265000", "160149.755000", "160151.245000", "160152.735000", "160154.225000", "160155.715000", "160157.205000", "160158.695000", "160200.185000", "160201.675000", "160203.165000", "160204.655000", "160206.145000", "160207.635000", "160209.125000", "160210.615000", "160212.105000", "160213.595000", "160215.085000", "160216.575000", "160218.065000", "160219.555000", "160221.045000", "160222.535000", "160224.025000", "160225.515000", "160227.005000", "160228.495000", "160229.985000", "160231.475000", "160232.965000", "160234.455000", "160235.945000", "160237.435000", "160238.925000", "160240.415000", "160241.905000", "160243.395000", "160244.885000", "160246.375000", "160247.865000", "160249.355000", "160250.845000", "160252.335000", "160253.825000", "160255.315000", "160256.805000", "160258.295000", "160259.785000", "160301.275000", "160302.765000", "160304.255000", "160305.745000", "160307.235000", "160308.725000", "160310.215000", "160311.705000", "160313.195000", "160314.685000", "160316.175000", "160317.665000", "160319.155000", "160320.645000", "160322.135000", "160323.625000", "160325.115000", "160326.605000", "160328.095000", "160329.585000", "160331.075000", "160332.565000", "160334.055000", "160335.545000", "160337.035000", "160338.525000", "160340.015000", "160341.505000", "160342.995000", "160344.485000", "160345.975000", "160347.465000", "160348.955000", "160350.445000", "160351.935000", "160353.425000", "160354.915000", "160356.405000", "160357.895000", "160359.385000", "160400.875000", "160402.365000", "160403.855000", "160405.345000", "160406.835000", "160408.325000", "160409.815000", "160411.305000", "160412.795000", "160414.285000", "160415.775000", "160417.265000", "160418.755000", "160420.245000", "160421.735000", "160423.225000", "160424.715000", "160426.205000", "160427.695000", "160429.185000", "160430.675000", "160432.165000", "160433.655000", "160435.145000", "160436.635000", "160438.125000", "160439.615000", "160441.105000", "160442.595000", "160444.085000", "160445.575000", "160447.065000", "160448.555000", "160450.045000", "160451.535000", "160453.025000", "160454.515000", "160456.005000", "160457.495000", "160458.985000", "160500.475000", "160501.965000", "160503.455000", "160504.945000", "160506.435000", "160507.925000", "160509.415000", "160510.905000", "160512.395000", "160513.885000", "160515.375000", "160516.865000", "160518.355000", "160519.845000", "160521.335000", "160522.825000", "160524.315000"],
      "ContentTime": ["155828.346000", "155828.349000", "155828.351000", "155828.361000", "155828.363000", "155848.387000", "155848.390000", "155848.392000", "155848.395000", "155848.397000", "155848.400000", "155848.402000", "155848.405000", "155848.407000", "155848.410000", "155848.412000", "155848.415000", "155848.417000", "155848.420000", "155848.422000", "155848.425000", "155848.427000", "155848.430000", "155848.432000", "155848.435000", "155908.363000", "155908.365000", "155908.368000", "155908.370000", "155908.373000", "155908.376000", "155908.378000", "155908.381000", "155908.383000", "155908.386000", "155908.388000", "155908.391000", "155908.393000", "155908.396000", "155908.398000", "155908.401000", "155908.403000", "155908.406000", "155908.419000", "155908.422000", "155928.368000", "155928.370000", "155928.373000", "155928.375000", "155928.378000", "155928.380000", "155928.383000", "155928.385000", "155928.388000", "155928.390000", "155928.393000", "155928.395000", "155928.398000", "155928.400000", "155928.403000", "155928.405000", "155928.408000", "155928.411000", "155928.413000", "155928.416000", "155948.366000", "155948.369000", "155948.371000", "155948.374000", "155948.376000", "155948.379000", "155948.381000", "155948.384000", "155948.386000", "155948.389000", "155948.391000", "155948.394000", "155948.396000", "155948.399000", "155948.401000", "155948.404000", "155948.406000", "155948.409000", "155948.412000", "155948.414000", "155948.417000", "160028.415000", "160028.418000", "160028.420000", "160028.423000", "160028.425000", "160028.428000", "160028.430000", "160028.433000", "160028.435000", "160028.438000", "160028.440000", "160028.443000", "160028.445000", "160028.448000", "160028.450000", "160028.453000", "160028.455000", "160028.458000", "160028.460000", "160028.463000", "160028.471000", "160028.474000", "160028.476000", "160028.479000", "160028.481000", "160028.484000", "160028.486000", "160028.489000", "160028.492000", "160028.494000", "160108.405000", "160108.408000", "160108.410000", "160108.413000", "160108.416000", "160108.418000", "160108.421000", "160108.423000", "160108.426000", "160108.429000", "160108.431000", "160108.434000", "160108.436000", "160108.439000", "160108.441000", "160108.444000", "160108.446000", "160108.449000", "160108.452000", "160108.454000", "160108.457000", "160108.459000", "160108.462000", "160108.464000", "160108.467000", "160108.470000", "160108.472000", "160148.396000", "160148.398000", "160148.401000", "160148.403000", "160148.406000", "160148.408000", "160148.411000", "160148.413000", "160148.416000", "160148.419000", "160148.421000", "160148.424000", "160148.427000", "160148.429000", "160148.432000", "160148.434000", "160148.437000", "160148.446000", "160148.456000", "160148.458000", "160148.461000", "160148.463000", "160148.466000", "160148.468000", "160148.471000", "160148.473000", "160148.476000", "160228.393000", "160228.396000", "160228.398000", "160228.401000", "160228.412000", "160228.415000", "160228.417000", "160228.420000", "160228.423000", "160228.425000", "160228.428000", "160228.430000", "160228.433000", "160228.435000", "160228.438000", "160228.440000", "160228.443000", "160228.445000", "160228.448000", "160228.450000", "160228.453000", "160228.455000", "160228.458000", "160228.460000", "160228.463000", "160228.465000", "160228.468000", "160308.383000", "160308.386000", "160308.388000", "160308.391000", "160308.393000", "160308.396000", "160308.399000", "160308.401000", "160308.404000", "160308.406000", "160308.409000", "160308.411000", "160308.414000", "160308.416000", "160308.419000", "160308.421000", "160308.424000", "160308.426000", "160308.429000", "160308.431000", "160308.434000", "160308.437000", "160308.439000", "160308.442000", "160308.444000", "160308.447000", "160308.449000", "160348.391000", "160348.394000", "160348.396000", "160348.407000", "160348.409000", "160348.412000", "160348.414000", "160348.417000", "160348.419000", "160348.422000", "160348.425000", "160348.427000", "160348.430000", "160348.432000", "160348.435000", "160348.437000", "160348.440000", "160348.442000", "160348.445000", "160348.447000", "160348.450000", "160348.452000", "160348.455000", "160348.458000", "160348.460000", "160348.463000", "160348.465000", "160428.393000", "160428.395000", "160428.398000", "160428.400000", "160428.403000", "160428.406000", "160428.408000", "160428.411000", "160428.413000", "160428.416000", "160428.418000", "160428.421000", "160428.423000", "160428.426000", "160428.428000", "160428.431000", "160428.433000", "160428.436000", "160428.438000", "160428.441000", "160428.445000", "160428.447000", "160428.450000", "160428.452000", "160428.455000", "160428.457000", "160428.460000", "160508.408000", "160508.410000", "160508.413000", "160508.415000", "160508.418000", "160508.421000", "160508.423000", "160508.426000", "160508.428000", "160508.431000", "160508.434000", "160508.436000", "160508.439000", "160508.441000", "160508.444000", "160508.446000", "160508.449000", "160508.451000", "160508.454000", "160508.456000", "160508.459000", "160508.462000", "160508.464000", "160508.467000", "160508.469000", "160508.472000", "160527.288000", "160527.291000", "160527.293000", "160527.296000", "160527.299000", "160527.301000", "160527.304000", "160527.310000", "160527.313000", "160527.315000", "160527.318000", "160527.320000", "160527.323000"],
      "InstanceCreationTime": ["155828.346000", "155828.349000", "155828.351000", "155828.361000", "155828.363000", "155848.387000", "155848.390000", "155848.392000", "155848.395000", "155848.397000", "155848.400000", "155848.402000", "155848.405000", "155848.407000", "155848.410000", "155848.412000", "155848.415000", "155848.417000", "155848.420000", "155848.422000", "155848.425000", "155848.427000", "155848.430000", "155848.432000", "155848.435000", "155908.363000", "155908.365000", "155908.368000", "155908.370000", "155908.373000", "155908.376000", "155908.378000", "155908.381000", "155908.383000", "155908.386000", "155908.388000", "155908.391000", "155908.393000", "155908.396000", "155908.398000", "155908.401000", "155908.403000", "155908.406000", "155908.419000", "155908.422000", "155928.368000", "155928.370000", "155928.373000", "155928.375000", "155928.378000", "155928.380000", "155928.383000", "155928.385000", "155928.388000", "155928.390000", "155928.393000", "155928.395000", "155928.398000", "155928.400000", "155928.403000", "155928.405000", "155928.408000", "155928.411000", "155928.413000", "155928.416000", "155948.366000", "155948.369000", "155948.371000", "155948.374000", "155948.376000", "155948.379000", "155948.381000", "155948.384000", "155948.386000", "155948.389000", "155948.391000", "155948.394000", "155948.396000", "155948.399000", "155948.401000", "155948.404000", "155948.406000", "155948.409000", "155948.412000", "155948.414000", "155948.417000", "160028.415000", "160028.418000", "160028.420000", "160028.423000", "160028.425000", "160028.428000", "160028.430000", "160028.433000", "160028.435000", "160028.438000", "160028.440000", "160028.443000", "160028.445000", "160028.448000", "160028.450000", "160028.453000", "160028.455000", "160028.458000", "160028.460000", "160028.463000", "160028.471000", "160028.474000", "160028.476000", "160028.479000", "160028.481000", "160028.484000", "160028.486000", "160028.489000", "160028.492000", "160028.494000", "160108.405000", "160108.408000", "160108.410000", "160108.413000", "160108.416000", "160108.418000", "160108.421000", "160108.423000", "160108.426000", "160108.429000", "160108.431000", "160108.434000", "160108.436000", "160108.439000", "160108.441000", "160108.444000", "160108.446000", "160108.449000", "160108.452000", "160108.454000", "160108.457000", "160108.459000", "160108.462000", "160108.464000", "160108.467000", "160108.470000", "160108.472000", "160148.396000", "160148.398000", "160148.401000", "160148.403000", "160148.406000", "160148.408000", "160148.411000", "160148.413000", "160148.416000", "160148.419000", "160148.421000", "160148.424000", "160148.427000", "160148.429000", "160148.432000", "160148.434000", "160148.437000", "160148.446000", "160148.456000", "160148.458000", "160148.461000", "160148.463000", "160148.466000", "160148.468000", "160148.471000", "160148.473000", "160148.476000", "160228.393000", "160228.396000", "160228.398000", "160228.401000", "160228.412000", "160228.415000", "160228.417000", "160228.420000", "160228.423000", "160228.425000", "160228.428000", "160228.430000", "160228.433000", "160228.435000", "160228.438000", "160228.440000", "160228.443000", "160228.445000", "160228.448000", "160228.450000", "160228.453000", "160228.455000", "160228.458000", "160228.460000", "160228.463000", "160228.465000", "160228.468000", "160308.383000", "160308.386000", "160308.388000", "160308.391000", "160308.393000", "160308.396000", "160308.399000", "160308.401000", "160308.404000", "160308.406000", "160308.409000", "160308.411000", "160308.414000", "160308.416000", "160308.419000", "160308.421000", "160308.424000", "160308.426000", "160308.429000", "160308.431000", "160308.434000", "160308.437000", "160308.439000", "160308.442000", "160308.444000", "160308.447000", "160308.449000", "160348.391000", "160348.394000", "160348.396000", "160348.407000", "160348.409000", "160348.412000", "160348.414000", "160348.417000", "160348.419000", "160348.422000", "160348.425000", "160348.427000", "160348.430000", "160348.432000", "160348.435000", "160348.437000", "160348.440000", "160348.442000", "160348.445000", "160348.447000", "160348.450000", "160348.452000", "160348.455000", "160348.458000", "160348.460000", "160348.463000", "160348.465000", "160428.393000", "160428.395000", "160428.398000", "160428.400000", "160428.403000", "160428.406000", "160428.408000", "160428.411000", "160428.413000", "160428.416000", "160428.418000", "160428.421000", "160428.423000", "160428.426000", "160428.428000", "160428.431000", "160428.433000", "160428.436000", "160428.438000", "160428.441000", "160428.445000", "160428.447000", "160428.450000", "160428.452000", "160428.455000", "160428.457000", "160428.460000", "160508.408000", "160508.410000", "160508.413000", "160508.415000", "160508.418000", "160508.421000", "160508.423000", "160508.426000", "160508.428000", "160508.431000", "160508.434000", "160508.436000", "160508.439000", "160508.441000", "160508.444000", "160508.446000", "160508.449000", "160508.451000", "160508.454000", "160508.456000", "160508.459000", "160508.462000", "160508.464000", "160508.467000", "160508.469000", "160508.472000", "160527.288000", "160527.291000", "160527.293000", "160527.296000", "160527.299000", "160527.301000", "160527.304000", "160527.310000", "160527.313000", "160527.315000", "160527.318000", "160527.320000", "160527.323000"],
      "InstanceNumber": [1, 2, 3, 4, 5, 6, 7, 8, 9, 10, 11, 12, 13, 14, 15, 16, 17, 18, 19, 20, 21, 22, 23, 24, 25, 26, 27, 28, 29, 30, 31, 32, 33, 34, 35, 36, 37, 38, 39, 40, 41, 42, 43, 44, 45, 46, 47, 48, 49, 50, 51, 52, 53, 54, 55, 56, 57, 58, 59, 60, 61, 62, 63, 64, 65, 66, 67, 68, 69, 70, 71, 72, 73, 74, 75, 76, 77, 78, 79, 80, 81, 82, 83, 84, 85, 86, 87, 88, 89, 90, 91, 92, 93, 94, 95, 96, 97, 98, 99, 100, 101, 102, 103, 104, 105, 106, 107, 108, 109, 110, 111, 112, 113, 114, 115, 116, 117, 118, 119, 120, 121, 122, 123, 124, 125, 126, 127, 128, 129, 130, 131, 132, 133, 134, 135, 136, 137, 138, 139, 140, 141, 142, 143, 144, 145, 146, 147, 148, 149, 150, 151, 152, 153, 154, 155, 156, 157, 158, 159, 160, 161, 162, 163, 164, 165, 166, 167, 168, 169, 170, 171, 172, 173, 174, 175, 176, 177, 178, 179, 180, 181, 182, 183, 184, 185, 186, 187, 188, 189, 190, 191, 192, 193, 194, 195, 196, 197, 198, 199, 200, 201, 202, 203, 204, 205, 206, 207, 208, 209, 210, 211, 212, 213, 214, 215, 216, 217, 218, 219, 220, 221, 222, 223, 224, 225, 226, 227, 228, 229, 230, 231, 232, 233, 234, 235, 236, 237, 238, 239, 240, 241, 242, 243, 244, 245, 246, 247, 248, 249, 250, 251, 252, 253, 254, 255, 256, 257, 258, 259, 260, 261, 262, 263, 264, 265, 266, 267, 268, 269, 270, 271, 272, 273, 274, 275, 276, 277, 278, 279, 280, 281, 282, 283, 284, 285, 286, 287, 288, 289, 290, 291, 292, 293, 294, 295, 296, 297, 298, 299, 300, 301, 302, 303, 304, 305, 306, 307, 308, 309, 310, 311, 312, 313, 314, 315, 316, 317],
      "WindowCenter": [4852.0, 4876.0, 4878.0, 4820.0, 4794.0, 4818.0, 4826.0, 4824.0, 4848.0, 4826.0, 4850.0, 4850.0, 4850.0, 4824.0, 4824.0, 4820.0, 4822.0, 4820.0, 4822.0, 4824.0, 4824.0, 4824.0, 4826.0, 4850.0, 4822.0, 4850.0, 4824.0, 4826.0, 4824.0, 4852.0, 4902.0, 4848.0, 4822.0, 4816.0, 4820.0, 4818.0, 4824.0, 4824.0, 4846.0, 4824.0, 4852.0, 4824.0, 4826.0, 4876.0, 4852.0, 4818.0, 4820.0, 4818.0, 4820.0, 4826.0, 4850.0, 4854.0, 4854.0, 4850.0, 4878.0, 4850.0, 4826.0, 4822.0, 4824.0, 4826.0, 4798.0, 4852.0, 4826.0, 4852.0, 4826.0, 4848.0, 4870.0, 4882.0, 4824.0, 4816.0, 4820.0, 4816.0, 4820.0, 4848.0, 4852.0, 4852.0, 4858.0, 4848.0, 4826.0, 4822.0, 4822.0, 4820.0, 4820.0, 4846.0, 4820.0, 4848.0, 4852.0, 4852.0, 4850.0, 4850.0, 4824.0, 4848.0, 4818.0, 4852.0, 4846.0, 4820.0, 4826.0, 4816.0, 4822.0, 4846.0, 4850.0, 4848.0, 4848.0, 4822.0, 4852.0, 4826.0, 4820.0, 4820.0, 4846.0, 4824.0, 4824.0, 4824.0, 4876.0, 4854.0, 4826.0, 4848.0, 4824.0, 4826.0, 4848.0, 4850.0, 4820.0, 4822.0, 4824.0, 4846.0, 4820.0, 4846.0, 4826.0, 4880.0, 4850.0, 4826.0, 4852.0, 4868.0, 4872.0, 4820.0, 4818.0, 4792.0, 4796.0, 4822.0, 4850.0, 4878.0, 4878.0, 4880.0, 4850.0, 4826.0, 4854.0, 4820.0, 4818.0, 4818.0, 4796.0, 4824.0, 4852.0, 4850.0, 4852.0, 4848.0, 4826.0, 4822.0, 4820.0, 4820.0, 4824.0, 4824.0, 4852.0, 4820.0, 4824.0, 4820.0, 4846.0, 4824.0, 4824.0, 4824.0, 4822.0, 4852.0, 4854.0, 4820.0, 4822.0, 4820.0, 4818.0, 4822.0, 4822.0, 4852.0, 4880.0, 4824.0, 4822.0, 4798.0, 4818.0, 4820.0, 4820.0, 4828.0, 4854.0, 4846.0, 4848.0, 4824.0, 4820.0, 4852.0, 4880.0, 4822.0, 4796.0, 4794.0, 4820.0, 4818.0, 4822.0, 4878.0, 4854.0, 4850.0, 4852.0, 4822.0, 4824.0, 4820.0, 4820.0, 4818.0, 4824.0, 4822.0, 4826.0, 4826.0, 4856.0, 4824.0, 4848.0, 4822.0, 4818.0, 4820.0, 4816.0, 4826.0, 4822.0, 4822.0, 4824.0, 4820.0, 4852.0, 4822.0, 4826.0, 4826.0, 4820.0, 4820.0, 4818.0, 4820.0, 4870.0, 4872.0, 4822.0, 4818.0, 4818.0, 4820.0, 4824.0, 4822.0, 4850.0, 4848.0, 4852.0, 4848.0, 4824.0, 4854.0, 4822.0, 4824.0, 4818.0, 4820.0, 4824.0, 4846.0, 4854.0, 4826.0, 4848.0, 4848.0, 4852.0, 4824.0, 4848.0, 4822.0, 4820.0, 4820.0, 4880.0, 4856.0, 4818.0, 4822.0, 4816.0, 4818.0, 4852.0, 4850.0, 4852.0, 4876.0, 4840.0, 4866.0, 4820.0, 4818.0, 4792.0, 4792.0, 4796.0, 4820.0, 4852.0, 4874.0, 4874.0, 4854.0, 4826.0, 4824.0, 4794.0, 4820.0, 4822.0, 4820.0, 4822.0, 4820.0, 4852.0, 4874.0, 4856.0, 4824.0, 4818.0, 4822.0, 4792.0, 4850.0, 4850.0, 4822.0, 4826.0, 4846.0, 4850.0, 4850.0, 4848.0, 4822.0, 4822.0, 4820.0, 4870.0, 4838.0, 4878.0, 4820.0, 4818.0, 4792.0, 4796.0],
