{
  "AcquisitionMatrixPE": 104,
  "AcquisitionNumber": 1,
  "AcquisitionTime": "18:05:5.467500",
  "BandwidthPerPixelPhaseEncode": 17.17,
  "BaseResolution": 104,
  "BodyPartExamined": "BRAIN",
  "CoilCombinationMethod": "Sum of Squares",
  "ConsistencyInfo": "N4_VE11C_LATEST_20160120",
  "ConversionSoftware": "dcm2niix",
  "ConversionSoftwareVersion": "v1.0.20220505",
  "DerivedVendorReportedEchoSpacing": 0.000560011,
  "DeviceSerialNumber": "167006",
  "DwellTime": 2.1e-06,
  "EchoTime": 0.037,
  "EchoTrainLength": 104,
  "EffectiveEchoSpacing": 0.000560011,
  "FlipAngle": 52,
  "HeudiconvVersion": "0.5.3.post811+g6206e14",
  "ImageComments": "Unaliased MB4/PE3/LB",
  "ImageOrientationPatientDICOM": [0.999809, 0.0182117, 0.0070902, -0.0160554, 0.972267, -0.233323],
  "ImageOrientationText": "Tra>Cor(-13.5)>Sag(0.6)",
  "ImageType": [
    "ORIGINAL",
    "PRIMARY",
    "M",
    "MB",
    "ND",
    "MOSAIC"
],
  "ImagingFrequency": 123.26,
  "InPlanePhaseEncodingDirectionDICOM": "COL",
  "InstitutionAddress": "Chemin Queen-Mary 4565,Montreal,District,CA,H3W 1W5",
  "InstitutionName": "IUGM",
  "InstitutionalDepartmentName": "Department",
  "MRAcquisitionType": "2D",
  "MagneticFieldStrength": 3,
  "Manufacturer": "Siemens",
  "ManufacturersModelName": "Prisma_fit",
  "MatrixCoilMode": "SENSE",
  "Modality": "MR",
  "MultibandAccelerationFactor": 4,
  "PartialFourier": 1,
  "PatientPosition": "HFS",
  "PercentPhaseFOV": 100,
  "PercentSampling": 100,
  "PhaseEncodingDirection": "j",
  "PhaseEncodingSteps": 104,
  "PhaseResolution": 1,
  "PixelBandwidth": 2290,
  "ProcedureStepDescription": "games^mario3",
  "ProtocolName": "func_task-mario3_run-02",
  "PulseSequenceDetails": "%CustomerSeq%\\cmrr_mbep2d_bold",
  "ReceiveCoilActiveElements": "HC1-7;NC1,2",
  "ReceiveCoilName": "HeadNeck_64",
  "ReconMatrixPE": 104,
  "RepetitionTime": 1.49,
  "SAR": 0.057658,
  "ScanOptions": "FS",
  "ScanningSequence": "EP",
  "SequenceName": "epfid2d1_104",
  "SequenceVariant": "SK\\SS",
  "SeriesDescription": "func_task-mario3_run-02",
  "SeriesNumber": 13,
  "ShimSetting": [614, -7243, -8765, 678, 62, -34, 89, -7],
  "SliceThickness": 2,
  "SliceTiming": [0, 0.785, 0.1, 0.8825, 0.1975, 0.98, 0.295, 1.08, 0.3925, 1.1775, 0.49, 1.275, 0.59, 1.3725, 0.6875, 0, 0.785, 0.1, 0.8825, 0.1975, 0.98, 0.295, 1.08, 0.3925, 1.1775, 0.49, 1.275, 0.59, 1.3725, 0.6875, 0, 0.785, 0.1, 0.8825, 0.1975, 0.98, 0.295, 1.08, 0.3925, 1.1775, 0.49, 1.275, 0.59, 1.3725, 0.6875, 0, 0.785, 0.1, 0.8825, 0.1975, 0.98, 0.295, 1.08, 0.3925, 1.1775, 0.49, 1.275, 0.59, 1.3725, 0.6875],
  "SoftwareVersions": "syngo MR E11",
  "SpacingBetweenSlices": 2,
  "StationName": "MRC35049",
  "TaskName": "mario3",
  "TotalReadoutTime": 0.0576811,
  "TxRefAmp": 239.583,
  "WipMemBlock": "45fef8bd-2e57-401b-bac4-d74662ace3ee||Sequence: R017 ve11c/master r/75a17815+; Jun 28 2022 16:32:11 by eja",
  "dcmmeta_affine": [
    [-1.9996180534362793, -0.03211071714758873, 0.022285541519522667, 110.02725982666016],
    [-0.03642333671450615, 1.9445334672927856, -0.46632909774780273, -73.75045013427734],
    [0.014180409722030163, 0.46664589643478394, 1.9447468519210815, -49.40635299682617],
    [0.0, 0.0, 0.0, 1.0]
],
  "dcmmeta_reorient_transform": [
    [0.0, -1.0, 0.0, 103.0],
    [1.0, 0.0, 0.0, 0.0],
    [0.0, 0.0, 1.0, 0.0],
    [0.0, 0.0, 0.0, 1.0]
],
  "dcmmeta_shape": [104, 104, 60, 306],
  "dcmmeta_slice_dim": 2,
  "dcmmeta_version": 0.6,
  "global": {
    "const": {
      "AcquisitionMatrix": [104, 0, 0, 104],
      "AngioFlag": "N",
      "BitsAllocated": 16,
      "BitsStored": 16,
      "BodyPartExamined": "BRAIN",
      "Columns": 832,
      "EchoNumbers": 1,
      "EchoTime": 37.0,
      "EchoTrainLength": 104,
      "FlipAngle": 52.0,
      "HighBit": 15,
      "ImageOrientationPatient": [0.9998090138162, 0.0182116689378, 0.00709020496008, -0.0160553589917, 0.97226674801592, -0.2333229439001],
      "ImagePositionPatient": [-822.89251614052, -847.60478965537, 163.35560553391],
      "ImageType": [
        "ORIGINAL",
        "PRIMARY",
        "M",
        "MB",
        "ND",
        "MOSAIC"
],
      "ImagedNucleus": "1H",
      "ImagingFrequency": 123.260246,
      "InPlanePhaseEncodingDirection": "COL",
      "MRAcquisitionType": "2D",
      "MagneticFieldStrength": 3.0,
      "Manufacturer": "SIEMENS",
      "ManufacturerModelName": "Prisma_fit",
      "Modality": "MR",
      "NumberOfAverages": 1.0,
      "NumberOfPhaseEncodingSteps": 104,
      "PercentPhaseFieldOfView": 100.0,
      "PercentSampling": 100.0,
      "PerformedProcedureStepStartTime": "175141.053000",
      "PhotometricInterpretation": "MONOCHROME2",
      "PixelBandwidth": 2290.0,
      "PixelRepresentation": 0,
      "PixelSpacing": [2.0, 2.0],
      "ProtocolName": "func_task-mario3_run-02",
      "RepetitionTime": 1490.0,
      "Rows": 832,
      "SAR": 0.05765803448797,
      "SamplesPerPixel": 1,
      "ScanOptions": "FS",
      "ScanningSequence": "EP",
      "SequenceName": "epfid2d1_104",
      "SequenceVariant": [
        "SK",
        "SS"
],
      "SeriesDescription": "func_task-mario3_run-02",
      "SeriesNumber": 13,
      "SeriesTime": "180609.682000",
      "SliceLocation": -29.619429598428,
      "SliceThickness": 2.0,
      "SmallestImagePixelValue": 0,
      "SoftwareVersions": "syngo MR E11",
      "SpacingBetweenSlices": 1.9999999831585,
      "SpecificCharacterSet": "ISO_IR 100",
      "StudyID": "1",
      "StudyTime": "175140.983000",
      "TransmitCoilName": "Body",
      "VariableFlipAngleFlag": "N",
      "WindowCenterWidthExplanation": "Algo1",
      "dBdt": 0.0},
    "slices": {}
  },
  "time": {
    "samples": {
      "AcquisitionNumber": [1, 2, 3, 4, 5, 6, 7, 8, 9, 10, 11, 12, 13, 14, 15, 16, 17, 18, 19, 20, 21, 22, 23, 24, 25, 26, 27, 28, 29, 30, 31, 32, 33, 34, 35, 36, 37, 38, 39, 40, 41, 42, 43, 44, 45, 46, 47, 48, 49, 50, 51, 52, 53, 54, 55, 56, 57, 58, 59, 60, 61, 62, 63, 64, 65, 66, 67, 68, 69, 70, 71, 72, 73, 74, 75, 76, 77, 78, 79, 80, 81, 82, 83, 84, 85, 86, 87, 88, 89, 90, 91, 92, 93, 94, 95, 96, 97, 98, 99, 100, 101, 102, 103, 104, 105, 106, 107, 108, 109, 110, 111, 112, 113, 114, 115, 116, 117, 118, 119, 120, 121, 122, 123, 124, 125, 126, 127, 128, 129, 130, 131, 132, 133, 134, 135, 136, 137, 138, 139, 140, 141, 142, 143, 144, 145, 146, 147, 148, 149, 150, 151, 152, 153, 154, 155, 156, 157, 158, 159, 160, 161, 162, 163, 164, 165, 166, 167, 168, 169, 170, 171, 172, 173, 174, 175, 176, 177, 178, 179, 180, 181, 182, 183, 184, 185, 186, 187, 188, 189, 190, 191, 192, 193, 194, 195, 196, 197, 198, 199, 200, 201, 202, 203, 204, 205, 206, 207, 208, 209, 210, 211, 212, 213, 214, 215, 216, 217, 218, 219, 220, 221, 222, 223, 224, 225, 226, 227, 228, 229, 230, 231, 232, 233, 234, 235, 236, 237, 238, 239, 240, 241, 242, 243, 244, 245, 246, 247, 248, 249, 250, 251, 252, 253, 254, 255, 256, 257, 258, 259, 260, 261, 262, 263, 264, 265, 266, 267, 268, 269, 270, 271, 272, 273, 274, 275, 276, 277, 278, 279, 280, 281, 282, 283, 284, 285, 286, 287, 288, 289, 290, 291, 292, 293, 294, 295, 296, 297, 298, 299, 300, 301, 302, 303, 304, 305, 306],
      "AcquisitionTime": ["180505.467500", "180506.957500", "180508.447500", "180509.937500", "180511.427500", "180512.917500", "180514.407500", "180515.897500", "180517.387500", "180518.877500", "180520.367500", "180521.857500", "180523.347500", "180524.837500", "180526.327500", "180527.817500", "180529.307500", "180530.797500", "180532.287500", "180533.777500", "180535.267500", "180536.757500", "180538.247500", "180539.737500", "180541.227500", "180542.717500", "180544.207500", "180545.697500", "180547.187500", "180548.677500", "180550.167500", "180551.657500", "180553.147500", "180554.637500", "180556.127500", "180557.617500", "180559.107500", "180600.597500", "180602.087500", "180603.577500", "180605.067500", "180606.557500", "180608.047500", "180609.537500", "180611.027500", "180612.517500", "180614.007500", "180615.497500", "180616.987500", "180618.477500", "180619.967500", "180621.457500", "180622.947500", "180624.437500", "180625.927500", "180627.417500", "180628.907500", "180630.397500", "180631.887500", "180633.377500", "180634.867500", "180636.357500", "180637.847500", "180639.337500", "180640.827500", "180642.317500", "180643.807500", "180645.297500", "180646.787500", "180648.277500", "180649.767500", "180651.257500", "180652.747500", "180654.237500", "180655.727500", "180657.217500", "180658.707500", "180700.197500", "180701.687500", "180703.177500", "180704.667500", "180706.157500", "180707.647500", "180709.137500", "180710.627500", "180712.117500", "180713.607500", "180715.097500", "180716.587500", "180718.077500", "180719.567500", "180721.057500", "180722.547500", "180724.037500", "180725.527500", "180727.017500", "180728.507500", "180729.997500", "180731.487500", "180732.977500", "180734.467500", "180735.957500", "180737.447500", "180738.937500", "180740.427500", "180741.917500", "180743.407500", "180744.897500", "180746.387500", "180747.877500", "180749.367500", "180750.857500", "180752.347500", "180753.837500", "180755.327500", "180756.817500", "180758.307500", "180759.797500", "180801.287500", "180802.777500", "180804.267500", "180805.757500", "180807.247500", "180808.737500", "180810.227500", "180811.717500", "180813.207500", "180814.697500", "180816.187500", "180817.677500", "180819.167500", "180820.657500", "180822.147500", "180823.637500", "180825.127500", "180826.617500", "180828.107500", "180829.597500", "180831.087500", "180832.577500", "180834.067500", "180835.557500", "180837.047500", "180838.537500", "180840.027500", "180841.517500", "180843.007500", "180844.497500", "180845.987500", "180847.477500", "180848.967500", "180850.457500", "180851.947500", "180853.437500", "180854.927500", "180856.417500", "180857.907500", "180859.397500", "180900.887500", "180902.377500", "180903.867500", "180905.357500", "180906.847500", "180908.337500", "180909.827500", "180911.317500", "180912.807500", "180914.297500", "180915.787500", "180917.277500", "180918.767500", "180920.257500", "180921.747500", "180923.237500", "180924.727500", "180926.217500", "180927.707500", "180929.197500", "180930.687500", "180932.177500", "180933.667500", "180935.157500", "180936.647500", "180938.137500", "180939.627500", "180941.117500", "180942.607500", "180944.097500", "180945.587500", "180947.077500", "180948.567500", "180950.057500", "180951.547500", "180953.037500", "180954.527500", "180956.017500", "180957.507500", "180958.997500", "181000.487500", "181001.977500", "181003.467500", "181004.957500", "181006.447500", "181007.937500", "181009.427500", "181010.917500", "181012.407500", "181013.897500", "181015.387500", "181016.877500", "181018.367500", "181019.857500", "181021.347500", "181022.837500", "181024.327500", "181025.817500", "181027.307500", "181028.797500", "181030.287500", "181031.777500", "181033.267500", "181034.757500", "181036.247500", "181037.737500", "181039.227500", "181040.717500", "181042.207500", "181043.697500", "181045.187500", "181046.677500", "181048.167500", "181049.657500", "181051.147500", "181052.637500", "181054.127500", "181055.617500", "181057.107500", "181058.597500", "181100.087500", "181101.577500", "181103.067500", "181104.557500", "181106.047500", "181107.537500", "181109.027500", "181110.517500", "181112.007500", "181113.497500", "181114.987500", "181116.477500", "181117.967500", "181119.457500", "181120.947500", "181122.437500", "181123.927500", "181125.417500", "181126.907500", "181128.397500", "181129.887500", "181131.377500", "181132.867500", "181134.357500", "181135.847500", "181137.337500", "181138.827500", "181140.317500", "181141.807500", "181143.297500", "181144.787500", "181146.277500", "181147.767500", "181149.257500", "181150.747500", "181152.237500", "181153.727500", "181155.217500", "181156.707500", "181158.197500", "181159.687500", "181201.177500", "181202.667500", "181204.157500", "181205.647500", "181207.137500", "181208.627500", "181210.117500", "181211.607500", "181213.097500", "181214.587500", "181216.077500", "181217.567500", "181219.057500", "181220.547500", "181222.037500", "181223.527500", "181225.017500", "181226.507500", "181227.997500", "181229.487500", "181230.977500", "181232.467500", "181233.957500", "181235.447500", "181236.937500", "181238.427500", "181239.917500"],
      "ContentTime": ["180609.685000", "180609.688000", "180609.692000", "180609.695000", "180609.698000", "180609.702000", "180609.705000", "180609.708000", "180609.712000", "180609.715000", "180609.718000", "180609.722000", "180609.725000", "180609.728000", "180629.654000", "180629.658000", "180629.661000", "180629.665000", "180629.676000", "180629.679000", "180629.683000", "180629.686000", "180629.689000", "180629.693000", "180629.696000", "180629.699000", "180629.703000", "180629.711000", "180629.714000", "180629.718000", "180629.721000", "180629.724000", "180629.728000", "180629.731000", "180629.734000", "180649.654000", "180649.658000", "180649.661000", "180649.665000", "180649.668000", "180649.671000", "180649.675000", "180649.678000", "180649.681000", "180649.684000", "180649.688000", "180649.691000", "180649.695000", "180649.698000", "180649.701000", "180649.709000", "180649.712000", "180649.715000", "180649.718000", "180649.722000", "180709.654000", "180709.658000", "180709.661000", "180709.665000", "180709.675000", "180709.678000", "180709.681000", "180709.685000", "180709.688000", "180709.691000", "180709.695000", "180709.698000", "180709.701000", "180709.705000", "180709.708000", "180709.711000", "180709.714000", "180709.718000", "180709.721000", "180709.724000", "180729.654000", "180729.658000", "180729.661000", "180729.665000", "180729.668000", "180729.671000", "180729.675000", "180729.678000", "180729.681000", "180729.685000", "180729.688000", "180729.691000", "180729.695000", "180729.698000", "180729.701000", "180729.705000", "180729.708000", "180729.711000", "180729.715000", "180729.718000", "180809.654000", "180809.659000", "180809.662000", "180809.666000", "180809.669000", "180809.672000", "180809.676000", "180809.679000", "180809.683000", "180809.686000", "180809.689000", "180809.693000", "180809.696000", "180809.699000", "180809.703000", "180809.706000", "180809.732000", "180809.736000", "180809.739000", "180809.742000", "180809.745000", "180809.749000", "180809.752000", "180809.755000", "180809.759000", "180809.762000", "180809.765000", "180849.654000", "180849.658000", "180849.661000", "180849.665000", "180849.668000", "180849.671000", "180849.675000", "180849.678000", "180849.681000", "180849.685000", "180849.688000", "180849.692000", "180849.695000", "180849.698000", "180849.702000", "180849.705000", "180849.709000", "180849.712000", "180849.715000", "180849.718000", "180849.722000", "180849.725000", "180849.729000", "180849.732000", "180849.735000", "180849.738000", "180849.742000", "180929.654000", "180929.658000", "180929.661000", "180929.665000", "180929.668000", "180929.672000", "180929.675000", "180929.678000", "180929.682000", "180929.685000", "180929.689000", "180929.692000", "180929.696000", "180929.699000", "180929.702000", "180929.706000", "180929.709000", "180929.712000", "180929.715000", "180929.719000", "180929.722000", "180929.726000", "180929.729000", "180929.732000", "180929.736000", "180929.739000", "180929.742000", "181009.654000", "181009.658000", "181009.661000", "181009.665000", "181009.668000", "181009.671000", "181009.675000", "181009.678000", "181009.681000", "181009.685000", "181009.688000", "181009.691000", "181009.695000", "181009.698000", "181009.701000", "181009.705000", "181009.708000", "181009.711000", "181009.715000", "181009.718000", "181009.721000", "181009.725000", "181009.728000", "181009.732000", "181009.735000", "181009.738000", "181009.742000", "181049.654000", "181049.658000", "181049.661000", "181049.665000", "181049.668000", "181049.671000", "181049.675000", "181049.678000", "181049.682000", "181049.685000", "181049.688000", "181049.692000", "181049.711000", "181049.714000", "181049.718000", "181049.721000", "181049.724000", "181049.728000", "181049.731000", "181049.734000", "181049.738000", "181049.741000", "181049.744000", "181049.748000", "181049.751000", "181049.754000", "181049.758000", "181129.654000", "181129.658000", "181129.661000", "181129.665000", "181129.668000", "181129.672000", "181129.675000", "181129.678000", "181129.682000", "181129.685000", "181129.688000", "181129.692000", "181129.695000", "181129.698000", "181129.702000", "181129.705000", "181129.709000", "181129.712000", "181129.715000", "181129.719000", "181129.722000", "181129.725000", "181129.729000", "181129.732000", "181129.735000", "181129.739000", "181129.742000", "181209.654000", "181209.658000", "181209.674000", "181209.678000", "181209.681000", "181209.685000", "181209.688000", "181209.692000", "181209.695000", "181209.698000", "181209.702000", "181209.705000", "181209.709000", "181209.712000", "181209.715000", "181209.719000", "181209.722000", "181209.725000", "181209.729000", "181209.732000", "181209.735000", "181209.739000", "181209.742000", "181209.745000", "181209.749000", "181209.752000", "181243.071000", "181243.075000", "181243.078000", "181243.082000", "181243.085000", "181243.088000", "181243.092000", "181243.095000", "181243.098000", "181243.102000", "181243.105000", "181243.108000", "181243.112000", "181243.115000", "181243.118000", "181243.122000", "181243.125000", "181243.129000", "181243.132000", "181243.135000", "181243.139000", "181243.142000", "181243.145000"],
      "InstanceCreationTime": ["180609.685000", "180609.688000", "180609.692000", "180609.695000", "180609.698000", "180609.702000", "180609.705000", "180609.708000", "180609.712000", "180609.715000", "180609.718000", "180609.722000", "180609.725000", "180609.728000", "180629.654000", "180629.658000", "180629.661000", "180629.665000", "180629.676000", "180629.679000", "180629.683000", "180629.686000", "180629.689000", "180629.693000", "180629.696000", "180629.699000", "180629.703000", "180629.711000", "180629.714000", "180629.718000", "180629.721000", "180629.724000", "180629.728000", "180629.731000", "180629.734000", "180649.654000", "180649.658000", "180649.661000", "180649.665000", "180649.668000", "180649.671000", "180649.675000", "180649.678000", "180649.681000", "180649.684000", "180649.688000", "180649.691000", "180649.695000", "180649.698000", "180649.701000", "180649.709000", "180649.712000", "180649.715000", "180649.718000", "180649.722000", "180709.654000", "180709.658000", "180709.661000", "180709.665000", "180709.675000", "180709.678000", "180709.681000", "180709.685000", "180709.688000", "180709.691000", "180709.695000", "180709.698000", "180709.701000", "180709.705000", "180709.708000", "180709.711000", "180709.714000", "180709.718000", "180709.721000", "180709.724000", "180729.654000", "180729.658000", "180729.661000", "180729.665000", "180729.668000", "180729.671000", "180729.675000", "180729.678000", "180729.681000", "180729.685000", "180729.688000", "180729.691000", "180729.695000", "180729.698000", "180729.701000", "180729.705000", "180729.708000", "180729.711000", "180729.715000", "180729.718000", "180809.654000", "180809.659000", "180809.662000", "180809.666000", "180809.669000", "180809.672000", "180809.676000", "180809.679000", "180809.683000", "180809.686000", "180809.689000", "180809.693000", "180809.696000", "180809.699000", "180809.703000", "180809.706000", "180809.732000", "180809.736000", "180809.739000", "180809.742000", "180809.745000", "180809.749000", "180809.752000", "180809.755000", "180809.759000", "180809.762000", "180809.765000", "180849.654000", "180849.658000", "180849.661000", "180849.665000", "180849.668000", "180849.671000", "180849.675000", "180849.678000", "180849.681000", "180849.685000", "180849.688000", "180849.692000", "180849.695000", "180849.698000", "180849.702000", "180849.705000", "180849.709000", "180849.712000", "180849.715000", "180849.718000", "180849.722000", "180849.725000", "180849.729000", "180849.732000", "180849.735000", "180849.738000", "180849.742000", "180929.654000", "180929.658000", "180929.661000", "180929.665000", "180929.668000", "180929.672000", "180929.675000", "180929.678000", "180929.682000", "180929.685000", "180929.689000", "180929.692000", "180929.696000", "180929.699000", "180929.702000", "180929.706000", "180929.709000", "180929.712000", "180929.715000", "180929.719000", "180929.722000", "180929.726000", "180929.729000", "180929.732000", "180929.736000", "180929.739000", "180929.742000", "181009.654000", "181009.658000", "181009.661000", "181009.665000", "181009.668000", "181009.671000", "181009.675000", "181009.678000", "181009.681000", "181009.685000", "181009.688000", "181009.691000", "181009.695000", "181009.698000", "181009.701000", "181009.705000", "181009.708000", "181009.711000", "181009.715000", "181009.718000", "181009.721000", "181009.725000", "181009.728000", "181009.732000", "181009.735000", "181009.738000", "181009.742000", "181049.654000", "181049.658000", "181049.661000", "181049.665000", "181049.668000", "181049.671000", "181049.675000", "181049.678000", "181049.682000", "181049.685000", "181049.688000", "181049.692000", "181049.711000", "181049.714000", "181049.718000", "181049.721000", "181049.724000", "181049.728000", "181049.731000", "181049.734000", "181049.738000", "181049.741000", "181049.744000", "181049.748000", "181049.751000", "181049.754000", "181049.758000", "181129.654000", "181129.658000", "181129.661000", "181129.665000", "181129.668000", "181129.672000", "181129.675000", "181129.678000", "181129.682000", "181129.685000", "181129.688000", "181129.692000", "181129.695000", "181129.698000", "181129.702000", "181129.705000", "181129.709000", "181129.712000", "181129.715000", "181129.719000", "181129.722000", "181129.725000", "181129.729000", "181129.732000", "181129.735000", "181129.739000", "181129.742000", "181209.654000", "181209.658000", "181209.674000", "181209.678000", "181209.681000", "181209.685000", "181209.688000", "181209.692000", "181209.695000", "181209.698000", "181209.702000", "181209.705000", "181209.709000", "181209.712000", "181209.715000", "181209.719000", "181209.722000", "181209.725000", "181209.729000", "181209.732000", "181209.735000", "181209.739000", "181209.742000", "181209.745000", "181209.749000", "181209.752000", "181243.071000", "181243.075000", "181243.078000", "181243.082000", "181243.085000", "181243.088000", "181243.092000", "181243.095000", "181243.098000", "181243.102000", "181243.105000", "181243.108000", "181243.112000", "181243.115000", "181243.118000", "181243.122000", "181243.125000", "181243.129000", "181243.132000", "181243.135000", "181243.139000", "181243.142000", "181243.145000"],
      "InstanceNumber": [1, 2, 3, 4, 5, 6, 7, 8, 9, 10, 11, 12, 13, 14, 15, 16, 17, 18, 19, 20, 21, 22, 23, 24, 25, 26, 27, 28, 29, 30, 31, 32, 33, 34, 35, 36, 37, 38, 39, 40, 41, 42, 43, 44, 45, 46, 47, 48, 49, 50, 51, 52, 53, 54, 55, 56, 57, 58, 59, 60, 61, 62, 63, 64, 65, 66, 67, 68, 69, 70, 71, 72, 73, 74, 75, 76, 77, 78, 79, 80, 81, 82, 83, 84, 85, 86, 87, 88, 89, 90, 91, 92, 93, 94, 95, 96, 97, 98, 99, 100, 101, 102, 103, 104, 105, 106, 107, 108, 109, 110, 111, 112, 113, 114, 115, 116, 117, 118, 119, 120, 121, 122, 123, 124, 125, 126, 127, 128, 129, 130, 131, 132, 133, 134, 135, 136, 137, 138, 139, 140, 141, 142, 143, 144, 145, 146, 147, 148, 149, 150, 151, 152, 153, 154, 155, 156, 157, 158, 159, 160, 161, 162, 163, 164, 165, 166, 167, 168, 169, 170, 171, 172, 173, 174, 175, 176, 177, 178, 179, 180, 181, 182, 183, 184, 185, 186, 187, 188, 189, 190, 191, 192, 193, 194, 195, 196, 197, 198, 199, 200, 201, 202, 203, 204, 205, 206, 207, 208, 209, 210, 211, 212, 213, 214, 215, 216, 217, 218, 219, 220, 221, 222, 223, 224, 225, 226, 227, 228, 229, 230, 231, 232, 233, 234, 235, 236, 237, 238, 239, 240, 241, 242, 243, 244, 245, 246, 247, 248, 249, 250, 251, 252, 253, 254, 255, 256, 257, 258, 259, 260, 261, 262, 263, 264, 265, 266, 267, 268, 269, 270, 271, 272, 273, 274, 275, 276, 277, 278, 279, 280, 281, 282, 283, 284, 285, 286, 287, 288, 289, 290, 291, 292, 293, 294, 295, 296, 297, 298, 299, 300, 301, 302, 303, 304, 305, 306],
      "LargestImagePixelValue": [40887, 39458, 39044, 38377, 38161, 38481, 38319, 38586, 38134, 37805, 37671, 37827, 38073, 38050, 37902, 38916, 39611, 38097, 37847, 37865, 37617, 38315, 38488, 39520, 39110, 39108, 39358, 38355, 37935, 39074, 38270, 38678, 38855, 37421, 38526, 38674, 38166, 38832, 38587, 39159, 39098, 38479, 38371, 37974, 37751, 38340, 38643, 38450, 38607, 38732, 38499, 38489, 38557, 38942, 39008, 39024, 38947, 38919, 38489, 38654, 39132, 39221, 38583, 37952, 38821, 38313, 37921, 38015, 37630, 37899, 38874, 38443, 37973, 37754, 37815, 39441, 39604, 39356, 39056, 39653, 39615, 39183, 40640, 41492, 39863, 40212, 39634, 39117, 39085, 38466, 38752, 39120, 38483, 38873, 38797, 38971, 39127, 38634, 38581, 38687, 38568, 38507, 38189, 38512, 39152, 39136, 39325, 38833, 38968, 38582, 38640, 38653, 38941, 38831, 38467, 38405, 38593, 38808, 38678, 38357, 38078, 37968, 37448, 38481, 38005, 37582, 39412, 38867, 39157, 38936, 38434, 38920, 38998, 39056, 39140, 38359, 37925, 38476, 38894, 38320, 39031, 38900, 38654, 38471, 38875, 38663, 38582, 38279, 39437, 39337, 39105, 39075, 38603, 38624, 37176, 39965, 39474, 38943, 38779, 38755, 38710, 38679, 40446, 38165, 38244, 38387, 38129, 37733, 39678, 38929, 38903, 38133, 38344, 38460, 38169, 39104, 39173, 39204, 38532, 39280, 38743, 39131, 38107, 37966, 40741, 39390, 39335, 40264, 39208, 39080, 39309, 38767, 39002, 38678, 39231, 39198, 39765, 38385, 38055, 38765, 38891, 38480, 38968, 39165, 38965, 39189, 38929, 38751, 38150, 38438, 39465, 38433, 38938, 38674, 39045, 38812, 38909, 39039, 38970, 38885, 39158, 39457, 39183, 39400, 38497, 38770, 39048, 38724, 38892, 38785, 38364, 38814, 38629, 39101, 38951, 38702, 39340, 38592, 38673, 38290, 38532, 38227, 38153, 38459, 38473, 38684, 38696, 38035, 38282, 38352, 38014, 38220, 38126, 38278, 39635, 38171, 38497, 38565, 38155, 38627, 38489, 38720, 39058, 38858, 38753, 38504, 38407, 38226, 38172, 37974, 38351, 38398, 39124, 38667, 38746, 38232, 38596, 38589, 39088, 38962, 38890, 38834, 38348, 38000, 38278, 39065, 38366, 38248, 38474, 38146, 38356, 39388, 38340, 38785, 38608, 38203, 38334, 38111, 38587, 38594, 38235, 38059, 38409, 37604, 37638, 37048],
      "WindowCenter": [10098.0, 10061.0, 10059.0, 10036.0, 10026.0, 10024.0, 10002.0, 10011.0, 10024.0, 10057.0, 10068.0, 10061.0, 10050.0, 10007.0, 9980.0, 9967.0, 9970.0, 9996.0, 10022.0, 10016.0, 10021.0, 10003.0, 9972.0, 9972.0, 9947.0, 9962.0, 9976.0, 9974.0, 9988.0, 10063.0, 10045.0, 10016.0, 9974.0, 9873.0, 9962.0, 9955.0, 9986.0, 10010.0, 10032.0, 10040.0, 10047.0, 10049.0, 10011.0, 10012.0, 10001.0, 10010.0, 10002.0, 9991.0, 9990.0, 9998.0, 9991.0, 9985.0, 9973.0, 9978.0, 10002.0, 10005.0, 10006.0, 10005.0, 10001.0, 10007.0, 10016.0, 10012.0, 10002.0, 10003.0, 10013.0, 10011.0, 10037.0, 10022.0, 9989.0, 9968.0, 10004.0, 10014.0, 10027.0, 10007.0, 9983.0, 9978.0, 9978.0, 9978.0, 9984.0, 10012.0, 10024.0, 10031.0, 10025.0, 9984.0, 10016.0, 10022.0, 10026.0, 10038.0, 10031.0, 9990.0, 9968.0, 9965.0, 9945.0, 9964.0, 9988.0, 9997.0, 9986.0, 10006.0, 10021.0, 10024.0, 10017.0, 9986.0, 9942.0, 9955.0, 9952.0, 9961.0, 9976.0, 9987.0, 9988.0, 9988.0, 9994.0, 9995.0, 10011.0, 10029.0, 10033.0, 10026.0, 10026.0, 10042.0, 10050.0, 10026.0, 10046.0, 10047.0, 10016.0, 10033.0, 10014.0, 9978.0, 9986.0, 9970.0, 9967.0, 9959.0, 9952.0, 9953.0, 9962.0, 9992.0, 10010.0, 10004.0, 10009.0, 10011.0, 10007.0, 9985.0, 10026.0, 10030.0, 10008.0, 10009.0, 10014.0, 10016.0, 10009.0, 9985.0, 9982.0, 9993.0, 9994.0, 10015.0, 10020.0, 10013.0, 9922.0, 10039.0, 10026.0, 10020.0, 10017.0, 10017.0, 10006.0, 9954.0, 10018.0, 10013.0, 10026.0, 10014.0, 9985.0, 9923.0, 9921.0, 9967.0, 10005.0, 10014.0, 10001.0, 9996.0, 9975.0, 10000.0, 9993.0, 9985.0, 9944.0, 9984.0, 9915.0, 10072.0, 10036.0, 10013.0, 10008.0, 9972.0, 9999.0, 9996.0, 10027.0, 10051.0, 10040.0, 10001.0, 9967.0, 9943.0, 9990.0, 9974.0, 9974.0, 10026.0, 10028.0, 10001.0, 9979.0, 9949.0, 9942.0, 9951.0, 9960.0, 9985.0, 9995.0, 10012.0, 10024.0, 10033.0, 10046.0, 10036.0, 10033.0, 10025.0, 10045.0, 10047.0, 10053.0, 10034.0, 10017.0, 10009.0, 10003.0, 10017.0, 10036.0, 10045.0, 10045.0, 10034.0, 10052.0, 10046.0, 10045.0, 10027.0, 10030.0, 10025.0, 10011.0, 10015.0, 10016.0, 10018.0, 10022.0, 10008.0, 10023.0, 10042.0, 10046.0, 10036.0, 10023.0, 10008.0, 10007.0, 10016.0, 10016.0, 10003.0, 9999.0, 10016.0, 10009.0, 10020.0, 10013.0, 10012.0, 10037.0, 10030.0, 10030.0, 10017.0, 10004.0, 10006.0, 10001.0, 10007.0, 10013.0, 10013.0, 10024.0, 10033.0, 10043.0, 10037.0, 10010.0, 10008.0, 10006.0, 10009.0, 10033.0, 10046.0, 10065.0, 10058.0, 10035.0, 10010.0, 9987.0, 9979.0, 9993.0, 10011.0, 10023.0, 10019.0, 10024.0, 10020.0, 10008.0, 10007.0, 10023.0, 10035.0, 10046.0, 10056.0, 10025.0, 10022.0, 10029.0, 10031.0, 10018.0, 10006.0, 10009.0, 10004.0, 10009.0, 10003.0, 10008.0, 10019.0, 10014.0, 9936.0],
