{
  "AcquisitionMatrixPE": 104,
  "AcquisitionNumber": 1,
  "AcquisitionTime": "18:25:9.270000",
  "BandwidthPerPixelPhaseEncode": 17.17,
  "BaseResolution": 104,
  "BodyPartExamined": "BRAIN",
  "CoilCombinationMethod": "Sum of Squares",
  "ConsistencyInfo": "N4_VE11C_LATEST_20160120",
  "ConversionSoftware": "dcm2niix",
  "ConversionSoftwareVersion": "v1.0.20220505",
  "DerivedVendorReportedEchoSpacing": 0.000560011,
  "DeviceSerialNumber": "167006",
  "DwellTime": 2.1e-06,
  "EchoTime": 0.037,
  "EchoTime1": 0.037,
  "EchoTime2": 0.001,
  "EchoTrainLength": 104,
  "EffectiveEchoSpacing": 0.000560011,
  "FlipAngle": 52,
  "HeudiconvVersion": "0.5.3.post811+g6206e14",
  "ImageComments": "Unaliased MB4/PE3/LB",
  "ImageOrientationPatientDICOM": [0.999809, 0.0182117, 0.0070902, -0.0160554, 0.972267, -0.233323],
  "ImageOrientationText": "Tra>Cor(-13.5)>Sag(0.6)",
  "ImageType": [
    "ORIGINAL",
    "PRIMARY",
    "P",
    "MB",
    "ND",
    "MOSAIC",
    "PHASE"
],
  "ImagingFrequency": 123.26,
  "InPlanePhaseEncodingDirectionDICOM": "COL",
  "InstitutionAddress": "Chemin Queen-Mary 4565,Montreal,District,CA,H3W 1W5",
  "InstitutionName": "IUGM",
  "InstitutionalDepartmentName": "Department",
  "MRAcquisitionType": "2D",
  "MagneticFieldStrength": 3,
  "Manufacturer": "Siemens",
  "ManufacturersModelName": "Prisma_fit",
  "MatrixCoilMode": "SENSE",
  "Modality": "MR",
  "MultibandAccelerationFactor": 4,
  "PartialFourier": 1,
  "PatientPosition": "HFS",
  "PercentPhaseFOV": 100,
  "PercentSampling": 100,
  "PhaseEncodingDirection": "j",
  "PhaseEncodingSteps": 104,
  "PhaseResolution": 1,
  "PixelBandwidth": 2290,
  "ProcedureStepDescription": "games^mario3",
  "ProtocolName": "func_task-mario3_run-04",
  "PulseSequenceDetails": "%CustomerSeq%\\cmrr_mbep2d_bold",
  "ReceiveCoilActiveElements": "HC1-7;NC1,2",
  "ReceiveCoilName": "HeadNeck_64",
  "ReconMatrixPE": 104,
  "RepetitionTime": 1.49,
  "SAR": 0.057658,
  "ScanOptions": "FS",
  "ScanningSequence": "EP",
  "SequenceName": "epfid2d1_104",
  "SequenceVariant": "SK\\SS",
  "SeriesDescription": "func_task-mario3_run-04",
  "SeriesNumber": 20,
  "ShimSetting": [614, -7243, -8765, 678, 62, -34, 89, -7],
  "SliceThickness": 2,
  "SliceTiming": [0, 0.785, 0.1, 0.8825, 0.1975, 0.98, 0.295, 1.0775, 0.3925, 1.1775, 0.49, 1.275, 0.5875, 1.3725, 0.6875, 0, 0.785, 0.1, 0.8825, 0.1975, 0.98, 0.295, 1.0775, 0.3925, 1.1775, 0.49, 1.275, 0.5875, 1.3725, 0.6875, 0, 0.785, 0.1, 0.8825, 0.1975, 0.98, 0.295, 1.0775, 0.3925, 1.1775, 0.49, 1.275, 0.5875, 1.3725, 0.6875, 0, 0.785, 0.1, 0.8825, 0.1975, 0.98, 0.295, 1.0775, 0.3925, 1.1775, 0.49, 1.275, 0.5875, 1.3725, 0.6875],
  "SoftwareVersions": "syngo MR E11",
  "SpacingBetweenSlices": 2,
  "StationName": "MRC35049",
  "TaskName": "mario3",
  "TotalReadoutTime": 0.0576811,
  "TxRefAmp": 239.583,
  "WipMemBlock": "486de44d-8a11-4f9e-a61d-909897eac2ea||Sequence: R017 ve11c/master r/75a17815+; Jun 28 2022 16:32:11 by eja",
  "dcmmeta_affine": [
    [-1.9996180534362793, -0.03211071714758873, 0.022285541519522667, 110.02725982666016],
    [-0.03642333671450615, 1.9445334672927856, -0.46632909774780273, -73.75045013427734],
    [0.014180409722030163, 0.46664589643478394, 1.9447468519210815, -49.40635299682617],
    [0.0, 0.0, 0.0, 1.0]
],
  "dcmmeta_reorient_transform": [
    [0.0, -1.0, 0.0, 103.0],
    [1.0, 0.0, 0.0, 0.0],
    [0.0, 0.0, 1.0, 0.0],
    [0.0, 0.0, 0.0, 1.0]
],
  "dcmmeta_shape": [104, 104, 60, 349],
  "dcmmeta_slice_dim": 2,
  "dcmmeta_version": 0.6,
  "global": {
    "const": {
      "AcquisitionMatrix": [104, 0, 0, 104],
      "AngioFlag": "N",
      "BitsAllocated": 16,
      "BitsStored": 16,
      "BodyPartExamined": "BRAIN",
      "Columns": 832,
      "EchoNumbers": 1,
      "EchoTime": 37.0,
      "EchoTrainLength": 104,
      "FlipAngle": 52.0,
      "HighBit": 15,
      "ImageOrientationPatient": [0.9998090138162, 0.0182116689378, 0.00709020496008, -0.0160553589917, 0.97226674801592, -0.2333229439001],
      "ImagePositionPatient": [-822.89251614052, -847.60478965537, 163.35560553391],
      "ImageType": [
        "ORIGINAL",
        "PRIMARY",
        "P",
        "MB",
        "ND",
        "MOSAIC"
],
      "ImagedNucleus": "1H",
      "ImagingFrequency": 123.260247,
      "InPlanePhaseEncodingDirection": "COL",
      "LargestImagePixelValue": 4095,
      "MRAcquisitionType": "2D",
      "MagneticFieldStrength": 3.0,
      "Manufacturer": "SIEMENS",
      "ManufacturerModelName": "Prisma_fit",
      "Modality": "MR",
      "NumberOfAverages": 1.0,
      "NumberOfPhaseEncodingSteps": 104,
      "PercentPhaseFieldOfView": 100.0,
      "PercentSampling": 100.0,
      "PerformedProcedureStepStartTime": "175141.053000",
      "PhotometricInterpretation": "MONOCHROME2",
      "PixelBandwidth": 2290.0,
      "PixelRepresentation": 0,
      "PixelSpacing": [2.0, 2.0],
      "ProtocolName": "func_task-mario3_run-04",
      "RepetitionTime": 1490.0,
      "RescaleIntercept": -4096.0,
      "RescaleSlope": 2.0,
      "RescaleType": "US",
      "Rows": 832,
      "SAR": 0.05765803448797,
      "SamplesPerPixel": 1,
      "ScanOptions": "FS",
      "ScanningSequence": "EP",
      "SequenceName": "epfid2d1_104",
      "SequenceVariant": [
        "SK",
        "SS"
],
      "SeriesDescription": "func_task-mario3_run-04",
      "SeriesNumber": 20,
      "SeriesTime": "182605.558000",
      "SliceLocation": -29.619429598428,
      "SliceThickness": 2.0,
      "SmallestImagePixelValue": 0,
      "SoftwareVersions": "syngo MR E11",
      "SpacingBetweenSlices": 1.9999999831585,
      "SpecificCharacterSet": "ISO_IR 100",
      "StudyID": "1",
      "StudyTime": "175140.983000",
      "TransmitCoilName": "Body",
      "VariableFlipAngleFlag": "N",
      "WindowCenterWidthExplanation": "Algo1",
      "dBdt": 0.0},
    "slices": {}
  },
  "time": {
    "samples": {
      "AcquisitionNumber": [1, 2, 3, 4, 5, 6, 7, 8, 9, 10, 11, 12, 13, 14, 15, 16, 17, 18, 19, 20, 21, 22, 23, 24, 25, 26, 27, 28, 29, 30, 31, 32, 33, 34, 35, 36, 37, 38, 39, 40, 41, 42, 43, 44, 45, 46, 47, 48, 49, 50, 51, 52, 53, 54, 55, 56, 57, 58, 59, 60, 61, 62, 63, 64, 65, 66, 67, 68, 69, 70, 71, 72, 73, 74, 75, 76, 77, 78, 79, 80, 81, 82, 83, 84, 85, 86, 87, 88, 89, 90, 91, 92, 93, 94, 95, 96, 97, 98, 99, 100, 101, 102, 103, 104, 105, 106, 107, 108, 109, 110, 111, 112, 113, 114, 115, 116, 117, 118, 119, 120, 121, 122, 123, 124, 125, 126, 127, 128, 129, 130, 131, 132, 133, 134, 135, 136, 137, 138, 139, 140, 141, 142, 143, 144, 145, 146, 147, 148, 149, 150, 151, 152, 153, 154, 155, 156, 157, 158, 159, 160, 161, 162, 163, 164, 165, 166, 167, 168, 169, 170, 171, 172, 173, 174, 175, 176, 177, 178, 179, 180, 181, 182, 183, 184, 185, 186, 187, 188, 189, 190, 191, 192, 193, 194, 195, 196, 197, 198, 199, 200, 201, 202, 203, 204, 205, 206, 207, 208, 209, 210, 211, 212, 213, 214, 215, 216, 217, 218, 219, 220, 221, 222, 223, 224, 225, 226, 227, 228, 229, 230, 231, 232, 233, 234, 235, 236, 237, 238, 239, 240, 241, 242, 243, 244, 245, 246, 247, 248, 249, 250, 251, 252, 253, 254, 255, 256, 257, 258, 259, 260, 261, 262, 263, 264, 265, 266, 267, 268, 269, 270, 271, 272, 273, 274, 275, 276, 277, 278, 279, 280, 281, 282, 283, 284, 285, 286, 287, 288, 289, 290, 291, 292, 293, 294, 295, 296, 297, 298, 299, 300, 301, 302, 303, 304, 305, 306, 307, 308, 309, 310, 311, 312, 313, 314, 315, 316, 317, 318, 319, 320, 321, 322, 323, 324, 325, 326, 327, 328, 329, 330, 331, 332, 333, 334, 335, 336, 337, 338, 339, 340, 341, 342, 343, 344, 345, 346, 347, 348, 349],
      "AcquisitionTime": ["182509.270000", "182510.760000", "182512.250000", "182513.740000", "182515.230000", "182516.720000", "182518.210000", "182519.700000", "182521.190000", "182522.680000", "182524.170000", "182525.660000", "182527.150000", "182528.640000", "182530.130000", "182531.620000", "182533.110000", "182534.600000", "182536.090000", "182537.580000", "182539.070000", "182540.560000", "182542.050000", "182543.540000", "182545.030000", "182546.520000", "182548.010000", "182549.500000", "182550.990000", "182552.480000", "182553.970000", "182555.460000", "182556.950000", "182558.440000", "182559.930000", "182601.420000", "182602.910000", "182604.400000", "182605.890000", "182607.380000", "182608.870000", "182610.360000", "182611.850000", "182613.340000", "182614.830000", "182616.320000", "182617.810000", "182619.300000", "182620.790000", "182622.280000", "182623.770000", "182625.260000", "182626.750000", "182628.240000", "182629.730000", "182631.220000", "182632.710000", "182634.200000", "182635.690000", "182637.180000", "182638.670000", "182640.160000", "182641.650000", "182643.140000", "182644.630000", "182646.120000", "182647.610000", "182649.100000", "182650.590000", "182652.080000", "182653.570000", "182655.060000", "182656.550000", "182658.040000", "182659.530000", "182701.020000", "182702.510000", "182704.000000", "182705.490000", "182706.980000", "182708.470000", "182709.960000", "182711.450000", "182712.940000", "182714.430000", "182715.920000", "182717.410000", "182718.900000", "182720.390000", "182721.880000", "182723.370000", "182724.860000", "182726.350000", "182727.840000", "182729.330000", "182730.820000", "182732.310000", "182733.800000", "182735.290000", "182736.780000", "182738.270000", "182739.760000", "182741.250000", "182742.740000", "182744.230000", "182745.720000", "182747.210000", "182748.700000", "182750.190000", "182751.680000", "182753.170000", "182754.660000", "182756.150000", "182757.640000", "182759.130000", "182800.620000", "182802.110000", "182803.600000", "182805.090000", "182806.580000", "182808.070000", "182809.560000", "182811.050000", "182812.540000", "182814.030000", "182815.520000", "182817.010000", "182818.500000", "182819.990000", "182821.480000", "182822.970000", "182824.460000", "182825.950000", "182827.440000", "182828.930000", "182830.420000", "182831.910000", "182833.400000", "182834.890000", "182836.380000", "182837.870000", "182839.360000", "182840.850000", "182842.340000", "182843.830000", "182845.320000", "182846.810000", "182848.300000", "182849.790000", "182851.280000", "182852.770000", "182854.260000", "182855.750000", "182857.240000", "182858.730000", "182900.220000", "182901.710000", "182903.200000", "182904.690000", "182906.180000", "182907.670000", "182909.160000", "182910.650000", "182912.140000", "182913.630000", "182915.120000", "182916.610000", "182918.100000", "182919.590000", "182921.080000", "182922.570000", "182924.060000", "182925.550000", "182927.040000", "182928.530000", "182930.020000", "182931.510000", "182933.000000", "182934.490000", "182935.980000", "182937.470000", "182938.960000", "182940.450000", "182941.940000", "182943.430000", "182944.920000", "182946.410000", "182947.900000", "182949.390000", "182950.880000", "182952.370000", "182953.860000", "182955.350000", "182956.840000", "182958.330000", "182959.820000", "183001.310000", "183002.800000", "183004.290000", "183005.780000", "183007.270000", "183008.760000", "183010.250000", "183011.740000", "183013.230000", "183014.720000", "183016.210000", "183017.700000", "183019.190000", "183020.680000", "183022.170000", "183023.660000", "183025.150000", "183026.640000", "183028.130000", "183029.620000", "183031.110000", "183032.600000", "183034.090000", "183035.580000", "183037.070000", "183038.560000", "183040.050000", "183041.540000", "183043.030000", "183044.520000", "183046.010000", "183047.500000", "183048.990000", "183050.480000", "183051.970000", "183053.460000", "183054.950000", "183056.440000", "183057.930000", "183059.420000", "183100.910000", "183102.400000", "183103.890000", "183105.380000", "183106.870000", "183108.360000", "183109.850000", "183111.340000", "183112.830000", "183114.320000", "183115.810000", "183117.300000", "183118.790000", "183120.280000", "183121.770000", "183123.260000", "183124.750000", "183126.240000", "183127.730000", "183129.220000", "183130.710000", "183132.200000", "183133.690000", "183135.180000", "183136.670000", "183138.160000", "183139.650000", "183141.140000", "183142.630000", "183144.120000", "183145.610000", "183147.100000", "183148.590000", "183150.080000", "183151.570000", "183153.060000", "183154.550000", "183156.040000", "183157.530000", "183159.020000", "183200.510000", "183202.000000", "183203.490000", "183204.980000", "183206.470000", "183207.960000", "183209.450000", "183210.940000", "183212.430000", "183213.920000", "183215.410000", "183216.900000", "183218.390000", "183219.880000", "183221.370000", "183222.860000", "183224.350000", "183225.840000", "183227.330000", "183228.820000", "183230.310000", "183231.800000", "183233.290000", "183234.780000", "183236.270000", "183237.760000", "183239.250000", "183240.740000", "183242.230000", "183243.720000", "183245.210000", "183246.700000", "183248.190000", "183249.680000", "183251.170000", "183252.660000", "183254.150000", "183255.640000", "183257.130000", "183258.620000", "183300.110000", "183301.600000", "183303.090000", "183304.580000", "183306.070000", "183307.560000", "183309.050000", "183310.540000", "183312.030000", "183313.520000", "183315.010000", "183316.500000", "183317.990000", "183319.480000", "183320.970000", "183322.460000", "183323.950000", "183325.440000", "183326.930000", "183328.420000", "183329.910000", "183331.400000", "183332.890000", "183334.380000", "183335.870000", "183337.360000", "183338.850000", "183340.340000", "183341.830000", "183343.320000", "183344.810000", "183346.300000", "183347.790000"],
      "ContentTime": ["182605.560000", "182605.563000", "182605.566000", "182625.605000", "182625.608000", "182625.610000", "182625.613000", "182625.616000", "182625.618000", "182625.621000", "182625.623000", "182625.626000", "182625.628000", "182625.630000", "182625.633000", "182625.635000", "182625.638000", "182625.640000", "182625.643000", "182625.646000", "182625.648000", "182625.651000", "182625.653000", "182645.594000", "182645.598000", "182645.600000", "182645.603000", "182645.606000", "182645.608000", "182645.611000", "182645.613000", "182645.616000", "182645.618000", "182645.631000", "182645.633000", "182645.636000", "182645.638000", "182645.641000", "182645.643000", "182645.646000", "182645.648000", "182645.651000", "182645.653000", "182705.609000", "182705.611000", "182705.614000", "182705.617000", "182705.619000", "182705.622000", "182705.624000", "182705.627000", "182705.629000", "182705.632000", "182705.634000", "182705.637000", "182705.639000", "182705.642000", "182705.644000", "182705.647000", "182705.649000", "182705.652000", "182705.654000", "182705.657000", "182726.036000", "182726.038000", "182726.041000", "182726.043000", "182726.046000", "182726.048000", "182726.051000", "182726.053000", "182726.056000", "182726.059000", "182726.061000", "182726.064000", "182726.066000", "182726.069000", "182726.071000", "182726.074000", "182726.076000", "182726.079000", "182726.081000", "182726.084000", "182726.086000", "182745.590000", "182745.592000", "182745.595000", "182745.598000", "182745.600000", "182745.603000", "182745.605000", "182745.608000", "182745.610000", "182745.613000", "182745.615000", "182745.618000", "182745.620000", "182745.623000", "182745.625000", "182745.628000", "182745.631000", "182745.633000", "182745.636000", "182745.638000", "182825.620000", "182825.623000", "182825.625000", "182825.628000", "182825.630000", "182825.633000", "182825.635000", "182825.638000", "182825.641000", "182825.643000", "182825.646000", "182825.648000", "182825.651000", "182825.653000", "182825.656000", "182825.658000", "182825.661000", "182825.663000", "182825.666000", "182825.669000", "182825.671000", "182825.674000", "182825.676000", "182825.679000", "182825.681000", "182825.684000", "182825.686000", "182905.657000", "182905.660000", "182905.662000", "182905.665000", "182905.667000", "182905.670000", "182905.672000", "182905.675000", "182905.678000", "182905.680000", "182905.683000", "182905.685000", "182905.688000", "182905.690000", "182905.693000", "182905.695000", "182905.698000", "182905.700000", "182905.703000", "182905.705000", "182905.708000", "182905.710000", "182905.713000", "182905.715000", "182905.718000", "182905.720000", "182945.613000", "182945.616000", "182945.619000", "182945.621000", "182945.624000", "182945.626000", "182945.629000", "182945.632000", "182945.634000", "182945.637000", "182945.639000", "182945.642000", "182945.644000", "182945.647000", "182945.649000", "182945.652000", "182945.655000", "182945.657000", "182945.660000", "182945.662000", "182945.665000", "182945.667000", "182945.670000", "182945.672000", "182945.675000", "182945.678000", "182945.680000", "183025.627000", "183025.629000", "183025.632000", "183025.634000", "183025.637000", "183025.639000", "183025.642000", "183025.644000", "183025.647000", "183025.650000", "183025.652000", "183025.655000", "183025.657000", "183025.660000", "183025.662000", "183025.665000", "183025.667000", "183025.670000", "183025.672000", "183025.675000", "183025.678000", "183025.680000", "183025.683000", "183025.685000", "183025.688000", "183025.690000", "183025.693000", "183105.624000", "183105.627000", "183105.630000", "183105.632000", "183105.635000", "183105.637000", "183105.640000", "183105.642000", "183105.645000", "183105.648000", "183105.650000", "183105.653000", "183105.655000", "183105.658000", "183105.660000", "183105.663000", "183105.665000", "183105.668000", "183105.670000", "183105.673000", "183105.675000", "183105.678000", "183105.681000", "183105.683000", "183105.686000", "183105.688000", "183105.691000", "183145.643000", "183145.646000", "183145.648000", "183145.651000", "183145.653000", "183145.656000", "183145.658000", "183145.661000", "183145.663000", "183145.666000", "183145.668000", "183145.671000", "183145.674000", "183145.676000", "183145.679000", "183145.681000", "183145.684000", "183145.686000", "183145.689000", "183145.691000", "183145.694000", "183145.696000", "183145.699000", "183145.701000", "183145.704000", "183145.707000", "183145.709000", "183225.628000", "183225.631000", "183225.633000", "183225.636000", "183225.638000", "183225.641000", "183225.643000", "183225.646000", "183225.649000", "183225.651000", "183225.654000", "183225.656000", "183225.659000", "183225.661000", "183225.664000", "183225.666000", "183225.669000", "183225.672000", "183225.674000", "183225.677000", "183225.679000", "183225.682000", "183225.684000", "183225.687000", "183225.689000", "183225.692000", "183225.694000", "183305.630000", "183305.633000", "183305.636000", "183305.638000", "183305.641000", "183305.643000", "183305.646000", "183305.648000", "183305.651000", "183305.653000", "183305.656000", "183305.658000", "183305.661000", "183305.663000", "183305.666000", "183305.668000", "183305.671000", "183305.674000", "183305.676000", "183305.679000", "183305.681000", "183305.684000", "183305.686000", "183305.689000", "183305.691000", "183305.694000", "183305.696000", "183345.635000", "183345.639000", "183345.641000", "183345.644000", "183345.646000", "183345.649000", "183345.651000", "183345.654000", "183345.656000", "183345.659000", "183345.662000", "183345.664000", "183345.667000", "183345.669000", "183345.672000", "183345.674000", "183345.677000", "183345.679000", "183345.682000", "183345.684000", "183345.687000", "183345.689000", "183345.692000", "183345.695000", "183345.697000", "183345.700000", "183350.202000", "183350.205000", "183350.208000", "183350.210000"],
      "InstanceCreationTime": ["182605.560000", "182605.563000", "182605.566000", "182625.605000", "182625.608000", "182625.610000", "182625.613000", "182625.616000", "182625.618000", "182625.621000", "182625.623000", "182625.626000", "182625.628000", "182625.630000", "182625.633000", "182625.635000", "182625.638000", "182625.640000", "182625.643000", "182625.646000", "182625.648000", "182625.651000", "182625.653000", "182645.594000", "182645.598000", "182645.600000", "182645.603000", "182645.606000", "182645.608000", "182645.611000", "182645.613000", "182645.616000", "182645.618000", "182645.631000", "182645.633000", "182645.636000", "182645.638000", "182645.641000", "182645.643000", "182645.646000", "182645.648000", "182645.651000", "182645.653000", "182705.609000", "182705.611000", "182705.614000", "182705.617000", "182705.619000", "182705.622000", "182705.624000", "182705.627000", "182705.629000", "182705.632000", "182705.634000", "182705.637000", "182705.639000", "182705.642000", "182705.644000", "182705.647000", "182705.649000", "182705.652000", "182705.654000", "182705.657000", "182726.036000", "182726.038000", "182726.041000", "182726.043000", "182726.046000", "182726.048000", "182726.051000", "182726.053000", "182726.056000", "182726.059000", "182726.061000", "182726.064000", "182726.066000", "182726.069000", "182726.071000", "182726.074000", "182726.076000", "182726.079000", "182726.081000", "182726.084000", "182726.086000", "182745.590000", "182745.592000", "182745.595000", "182745.598000", "182745.600000", "182745.603000", "182745.605000", "182745.608000", "182745.610000", "182745.613000", "182745.615000", "182745.618000", "182745.620000", "182745.623000", "182745.625000", "182745.628000", "182745.631000", "182745.633000", "182745.636000", "182745.638000", "182825.620000", "182825.623000", "182825.625000", "182825.628000", "182825.630000", "182825.633000", "182825.635000", "182825.638000", "182825.641000", "182825.643000", "182825.646000", "182825.648000", "182825.651000", "182825.653000", "182825.656000", "182825.658000", "182825.661000", "182825.663000", "182825.666000", "182825.669000", "182825.671000", "182825.674000", "182825.676000", "182825.679000", "182825.681000", "182825.684000", "182825.686000", "182905.657000", "182905.660000", "182905.662000", "182905.665000", "182905.667000", "182905.670000", "182905.672000", "182905.675000", "182905.678000", "182905.680000", "182905.683000", "182905.685000", "182905.688000", "182905.690000", "182905.693000", "182905.695000", "182905.698000", "182905.700000", "182905.703000", "182905.705000", "182905.708000", "182905.710000", "182905.713000", "182905.715000", "182905.718000", "182905.720000", "182945.613000", "182945.616000", "182945.619000", "182945.621000", "182945.624000", "182945.626000", "182945.629000", "182945.632000", "182945.634000", "182945.637000", "182945.639000", "182945.642000", "182945.644000", "182945.647000", "182945.649000", "182945.652000", "182945.655000", "182945.657000", "182945.660000", "182945.662000", "182945.665000", "182945.667000", "182945.670000", "182945.672000", "182945.675000", "182945.678000", "182945.680000", "183025.627000", "183025.629000", "183025.632000", "183025.634000", "183025.637000", "183025.639000", "183025.642000", "183025.644000", "183025.647000", "183025.650000", "183025.652000", "183025.655000", "183025.657000", "183025.660000", "183025.662000", "183025.665000", "183025.667000", "183025.670000", "183025.672000", "183025.675000", "183025.678000", "183025.680000", "183025.683000", "183025.685000", "183025.688000", "183025.690000", "183025.693000", "183105.624000", "183105.627000", "183105.630000", "183105.632000", "183105.635000", "183105.637000", "183105.640000", "183105.642000", "183105.645000", "183105.648000", "183105.650000", "183105.653000", "183105.655000", "183105.658000", "183105.660000", "183105.663000", "183105.665000", "183105.668000", "183105.670000", "183105.673000", "183105.675000", "183105.678000", "183105.681000", "183105.683000", "183105.686000", "183105.688000", "183105.691000", "183145.643000", "183145.646000", "183145.648000", "183145.651000", "183145.653000", "183145.656000", "183145.658000", "183145.661000", "183145.663000", "183145.666000", "183145.668000", "183145.671000", "183145.674000", "183145.676000", "183145.679000", "183145.681000", "183145.684000", "183145.686000", "183145.689000", "183145.691000", "183145.694000", "183145.696000", "183145.699000", "183145.701000", "183145.704000", "183145.707000", "183145.709000", "183225.628000", "183225.631000", "183225.633000", "183225.636000", "183225.638000", "183225.641000", "183225.643000", "183225.646000", "183225.649000", "183225.651000", "183225.654000", "183225.656000", "183225.659000", "183225.661000", "183225.664000", "183225.666000", "183225.669000", "183225.672000", "183225.674000", "183225.677000", "183225.679000", "183225.682000", "183225.684000", "183225.687000", "183225.689000", "183225.692000", "183225.694000", "183305.630000", "183305.633000", "183305.636000", "183305.638000", "183305.641000", "183305.643000", "183305.646000", "183305.648000", "183305.651000", "183305.653000", "183305.656000", "183305.658000", "183305.661000", "183305.663000", "183305.666000", "183305.668000", "183305.671000", "183305.674000", "183305.676000", "183305.679000", "183305.681000", "183305.684000", "183305.686000", "183305.689000", "183305.691000", "183305.694000", "183305.696000", "183345.635000", "183345.639000", "183345.641000", "183345.644000", "183345.646000", "183345.649000", "183345.651000", "183345.654000", "183345.656000", "183345.659000", "183345.662000", "183345.664000", "183345.667000", "183345.669000", "183345.672000", "183345.674000", "183345.677000", "183345.679000", "183345.682000", "183345.684000", "183345.687000", "183345.689000", "183345.692000", "183345.695000", "183345.697000", "183345.700000", "183350.202000", "183350.205000", "183350.208000", "183350.210000"],
      "InstanceNumber": [1, 2, 3, 4, 5, 6, 7, 8, 9, 10, 11, 12, 13, 14, 15, 16, 17, 18, 19, 20, 21, 22, 23, 24, 25, 26, 27, 28, 29, 30, 31, 32, 33, 34, 35, 36, 37, 38, 39, 40, 41, 42, 43, 44, 45, 46, 47, 48, 49, 50, 51, 52, 53, 54, 55, 56, 57, 58, 59, 60, 61, 62, 63, 64, 65, 66, 67, 68, 69, 70, 71, 72, 73, 74, 75, 76, 77, 78, 79, 80, 81, 82, 83, 84, 85, 86, 87, 88, 89, 90, 91, 92, 93, 94, 95, 96, 97, 98, 99, 100, 101, 102, 103, 104, 105, 106, 107, 108, 109, 110, 111, 112, 113, 114, 115, 116, 117, 118, 119, 120, 121, 122, 123, 124, 125, 126, 127, 128, 129, 130, 131, 132, 133, 134, 135, 136, 137, 138, 139, 140, 141, 142, 143, 144, 145, 146, 147, 148, 149, 150, 151, 152, 153, 154, 155, 156, 157, 158, 159, 160, 161, 162, 163, 164, 165, 166, 167, 168, 169, 170, 171, 172, 173, 174, 175, 176, 177, 178, 179, 180, 181, 182, 183, 184, 185, 186, 187, 188, 189, 190, 191, 192, 193, 194, 195, 196, 197, 198, 199, 200, 201, 202, 203, 204, 205, 206, 207, 208, 209, 210, 211, 212, 213, 214, 215, 216, 217, 218, 219, 220, 221, 222, 223, 224, 225, 226, 227, 228, 229, 230, 231, 232, 233, 234, 235, 236, 237, 238, 239, 240, 241, 242, 243, 244, 245, 246, 247, 248, 249, 250, 251, 252, 253, 254, 255, 256, 257, 258, 259, 260, 261, 262, 263, 264, 265, 266, 267, 268, 269, 270, 271, 272, 273, 274, 275, 276, 277, 278, 279, 280, 281, 282, 283, 284, 285, 286, 287, 288, 289, 290, 291, 292, 293, 294, 295, 296, 297, 298, 299, 300, 301, 302, 303, 304, 305, 306, 307, 308, 309, 310, 311, 312, 313, 314, 315, 316, 317, 318, 319, 320, 321, 322, 323, 324, 325, 326, 327, 328, 329, 330, 331, 332, 333, 334, 335, 336, 337, 338, 339, 340, 341, 342, 343, 344, 345, 346, 347, 348, 349],
      "WindowCenter": [4870.0, 4870.0, 4868.0, 4866.0, 4864.0, 4864.0, 4864.0, 4862.0, 4864.0, 4866.0, 4874.0, 4872.0, 4872.0, 4872.0, 4868.0, 4866.0, 4836.0, 4836.0, 4860.0, 4860.0, 4860.0, 4860.0, 4832.0, 4834.0, 4836.0, 4836.0, 4860.0, 4866.0, 4864.0, 4864.0, 4862.0, 4860.0, 4860.0, 4834.0, 4862.0, 4866.0, 4838.0, 4862.0, 4860.0, 4860.0, 4832.0, 4836.0, 4836.0, 4836.0, 4862.0, 4862.0, 4862.0, 4862.0, 4860.0, 4858.0, 4834.0, 4828.0, 4834.0, 4830.0, 4830.0, 4830.0, 4840.0, 4834.0, 4836.0, 4860.0, 4836.0, 4836.0, 4860.0, 4834.0, 4826.0, 4836.0, 4830.0, 4860.0, 4838.0, 4838.0, 4838.0, 4836.0, 4836.0, 4832.0, 4834.0, 4832.0, 4836.0, 4862.0, 4836.0, 4832.0, 4826.0, 4826.0, 4798.0, 4806.0, 4830.0, 4828.0, 4834.0, 4832.0, 4858.0, 4834.0, 4862.0, 4834.0, 4832.0, 4828.0, 4800.0, 4826.0, 4826.0, 4830.0, 4832.0, 4836.0, 4836.0, 4834.0, 4858.0, 4836.0, 4824.0, 4798.0, 4824.0, 4824.0, 4832.0, 4838.0, 4860.0, 4860.0, 4836.0, 4828.0, 4802.0, 4826.0, 4826.0, 4830.0, 4832.0, 4832.0, 4838.0, 4858.0, 4828.0, 4804.0, 4798.0, 4792.0, 4798.0, 4858.0, 4860.0, 4858.0, 4862.0, 4834.0, 4832.0, 4832.0, 4830.0, 4828.0, 4828.0, 4824.0, 4826.0, 4826.0, 4832.0, 4828.0, 4830.0, 4860.0, 4858.0, 4836.0, 4836.0, 4824.0, 4824.0, 4796.0, 4802.0, 4822.0, 4824.0, 4828.0, 4836.0, 4864.0, 4856.0, 4832.0, 4820.0, 4824.0, 4828.0, 4796.0, 4832.0, 4834.0, 4834.0, 4832.0, 4826.0, 4828.0, 4800.0, 4830.0, 4804.0, 4832.0, 4862.0, 4824.0, 4798.0, 4764.0, 4796.0, 4800.0, 4830.0, 4830.0, 4830.0, 4832.0, 4836.0, 4832.0, 4828.0, 4802.0, 4824.0, 4798.0, 4802.0, 4800.0, 4830.0, 4826.0, 4834.0, 4830.0, 4832.0, 4824.0, 4826.0, 4826.0, 4828.0, 4798.0, 4796.0, 4826.0, 4826.0, 4828.0, 4832.0, 4830.0, 4824.0, 4802.0, 4800.0, 4824.0, 4822.0, 4826.0, 4826.0, 4828.0, 4832.0, 4826.0, 4828.0, 4828.0, 4828.0, 4828.0, 4824.0, 4832.0, 4824.0, 4830.0, 4830.0, 4838.0, 4832.0, 4836.0, 4862.0, 4836.0, 4828.0, 4826.0, 4826.0, 4832.0, 4830.0, 4834.0, 4836.0, 4832.0, 4832.0, 4830.0, 4830.0, 4838.0, 4832.0, 4858.0, 4836.0, 4828.0, 4828.0, 4830.0, 4832.0, 4830.0, 4834.0, 4832.0, 4830.0, 4856.0, 4860.0, 4834.0, 4832.0, 4826.0, 4828.0, 4830.0, 4832.0, 4856.0, 4826.0, 4856.0, 4832.0, 4830.0, 4830.0, 4828.0, 4800.0, 4798.0, 4800.0, 4834.0, 4838.0, 4862.0, 4832.0, 4832.0, 4830.0, 4828.0, 4826.0, 4828.0, 4832.0, 4834.0, 4836.0, 4834.0, 4832.0, 4828.0, 4800.0, 4804.0, 4796.0, 4798.0, 4802.0, 4824.0, 4794.0, 4800.0, 4830.0, 4834.0, 4862.0, 4834.0, 4832.0, 4828.0, 4826.0, 4826.0, 4830.0, 4830.0, 4832.0, 4838.0, 4860.0, 4834.0, 4836.0, 4832.0, 4824.0, 4794.0, 4800.0, 4800.0, 4826.0, 4830.0, 4834.0, 4836.0, 4834.0, 4826.0, 4830.0, 4828.0, 4828.0, 4828.0, 4826.0, 4828.0, 4832.0, 4830.0, 4796.0, 4804.0, 4830.0, 4830.0, 4828.0, 4826.0, 4802.0, 4826.0, 4830.0, 4826.0, 4830.0, 4832.0, 4830.0, 4828.0, 4832.0, 4838.0, 4836.0, 4858.0, 4832.0, 4798.0, 4828.0],
