{
  "AcquisitionMatrixPE": 104,
  "AcquisitionNumber": 1,
  "AcquisitionTime": "18:25:9.270000",
  "BandwidthPerPixelPhaseEncode": 17.17,
  "BaseResolution": 104,
  "BodyPartExamined": "BRAIN",
  "CoilCombinationMethod": "Sum of Squares",
  "ConsistencyInfo": "N4_VE11C_LATEST_20160120",
  "ConversionSoftware": "dcm2niix",
  "ConversionSoftwareVersion": "v1.0.20220505",
  "DerivedVendorReportedEchoSpacing": 0.000560011,
  "DeviceSerialNumber": "167006",
  "DwellTime": 2.1e-06,
  "EchoTime": 0.037,
  "EchoTrainLength": 104,
  "EffectiveEchoSpacing": 0.000560011,
  "FlipAngle": 52,
  "HeudiconvVersion": "0.5.3.post811+g6206e14",
  "ImageComments": "Unaliased MB4/PE3/LB",
  "ImageOrientationPatientDICOM": [0.999809, 0.0182117, 0.0070902, -0.0160554, 0.972267, -0.233323],
  "ImageOrientationText": "Tra>Cor(-13.5)>Sag(0.6)",
  "ImageType": [
    "ORIGINAL",
    "PRIMARY",
    "M",
    "MB",
    "ND",
    "MOSAIC"
],
  "ImagingFrequency": 123.26,
  "InPlanePhaseEncodingDirectionDICOM": "COL",
  "InstitutionAddress": "Chemin Queen-Mary 4565,Montreal,District,CA,H3W 1W5",
  "InstitutionName": "IUGM",
  "InstitutionalDepartmentName": "Department",
  "MRAcquisitionType": "2D",
  "MagneticFieldStrength": 3,
  "Manufacturer": "Siemens",
  "ManufacturersModelName": "Prisma_fit",
  "MatrixCoilMode": "SENSE",
  "Modality": "MR",
  "MultibandAccelerationFactor": 4,
  "PartialFourier": 1,
  "PatientPosition": "HFS",
  "PercentPhaseFOV": 100,
  "PercentSampling": 100,
  "PhaseEncodingDirection": "j",
  "PhaseEncodingSteps": 104,
  "PhaseResolution": 1,
  "PixelBandwidth": 2290,
  "ProcedureStepDescription": "games^mario3",
  "ProtocolName": "func_task-mario3_run-04",
  "PulseSequenceDetails": "%CustomerSeq%\\cmrr_mbep2d_bold",
  "ReceiveCoilActiveElements": "HC1-7;NC1,2",
  "ReceiveCoilName": "HeadNeck_64",
  "ReconMatrixPE": 104,
  "RepetitionTime": 1.49,
  "SAR": 0.057658,
  "ScanOptions": "FS",
  "ScanningSequence": "EP",
  "SequenceName": "epfid2d1_104",
  "SequenceVariant": "SK\\SS",
  "SeriesDescription": "func_task-mario3_run-04",
  "SeriesNumber": 19,
  "ShimSetting": [614, -7243, -8765, 678, 62, -34, 89, -7],
  "SliceThickness": 2,
  "SliceTiming": [0, 0.785, 0.1, 0.8825, 0.1975, 0.98, 0.295, 1.0775, 0.3925, 1.1775, 0.49, 1.275, 0.5875, 1.3725, 0.6875, 0, 0.785, 0.1, 0.8825, 0.1975, 0.98, 0.295, 1.0775, 0.3925, 1.1775, 0.49, 1.275, 0.5875, 1.3725, 0.6875, 0, 0.785, 0.1, 0.8825, 0.1975, 0.98, 0.295, 1.0775, 0.3925, 1.1775, 0.49, 1.275, 0.5875, 1.3725, 0.6875, 0, 0.785, 0.1, 0.8825, 0.1975, 0.98, 0.295, 1.0775, 0.3925, 1.1775, 0.49, 1.275, 0.5875, 1.3725, 0.6875],
  "SoftwareVersions": "syngo MR E11",
  "SpacingBetweenSlices": 2,
  "StationName": "MRC35049",
  "TaskName": "mario3",
  "TotalReadoutTime": 0.0576811,
  "TxRefAmp": 239.583,
  "WipMemBlock": "486de44d-8a11-4f9e-a61d-909897eac2ea||Sequence: R017 ve11c/master r/75a17815+; Jun 28 2022 16:32:11 by eja",
  "dcmmeta_affine": [
    [-1.9996180534362793, -0.03211071714758873, 0.022285541519522667, 110.02725982666016],
    [-0.03642333671450615, 1.9445334672927856, -0.46632909774780273, -73.75045013427734],
    [0.014180409722030163, 0.46664589643478394, 1.9447468519210815, -49.40635299682617],
    [0.0, 0.0, 0.0, 1.0]
],
  "dcmmeta_reorient_transform": [
    [0.0, -1.0, 0.0, 103.0],
    [1.0, 0.0, 0.0, 0.0],
    [0.0, 0.0, 1.0, 0.0],
    [0.0, 0.0, 0.0, 1.0]
],
  "dcmmeta_shape": [104, 104, 60, 349],
  "dcmmeta_slice_dim": 2,
  "dcmmeta_version": 0.6,
  "global": {
    "const": {
      "AcquisitionMatrix": [104, 0, 0, 104],
      "AngioFlag": "N",
      "BitsAllocated": 16,
      "BitsStored": 16,
      "BodyPartExamined": "BRAIN",
      "Columns": 832,
      "EchoNumbers": 1,
      "EchoTime": 37.0,
      "EchoTrainLength": 104,
      "FlipAngle": 52.0,
      "HighBit": 15,
      "ImageOrientationPatient": [0.9998090138162, 0.0182116689378, 0.00709020496008, -0.0160553589917, 0.97226674801592, -0.2333229439001],
      "ImagePositionPatient": [-822.89251614052, -847.60478965537, 163.35560553391],
      "ImageType": [
        "ORIGINAL",
        "PRIMARY",
        "M",
        "MB",
        "ND",
        "MOSAIC"
],
      "ImagedNucleus": "1H",
      "ImagingFrequency": 123.260247,
      "InPlanePhaseEncodingDirection": "COL",
      "MRAcquisitionType": "2D",
      "MagneticFieldStrength": 3.0,
      "Manufacturer": "SIEMENS",
      "ManufacturerModelName": "Prisma_fit",
      "Modality": "MR",
      "NumberOfAverages": 1.0,
      "NumberOfPhaseEncodingSteps": 104,
      "PercentPhaseFieldOfView": 100.0,
      "PercentSampling": 100.0,
      "PerformedProcedureStepStartTime": "175141.053000",
      "PhotometricInterpretation": "MONOCHROME2",
      "PixelBandwidth": 2290.0,
      "PixelRepresentation": 0,
      "PixelSpacing": [2.0, 2.0],
      "ProtocolName": "func_task-mario3_run-04",
      "RepetitionTime": 1490.0,
      "Rows": 832,
      "SAR": 0.05765803448797,
      "SamplesPerPixel": 1,
      "ScanOptions": "FS",
      "ScanningSequence": "EP",
      "SequenceName": "epfid2d1_104",
      "SequenceVariant": [
        "SK",
        "SS"
],
      "SeriesDescription": "func_task-mario3_run-04",
      "SeriesNumber": 19,
      "SeriesTime": "182605.525000",
      "SliceLocation": -29.619429598428,
      "SliceThickness": 2.0,
      "SmallestImagePixelValue": 0,
      "SoftwareVersions": "syngo MR E11",
      "SpacingBetweenSlices": 1.9999999831585,
      "SpecificCharacterSet": "ISO_IR 100",
      "StudyID": "1",
      "StudyTime": "175140.983000",
      "TransmitCoilName": "Body",
      "VariableFlipAngleFlag": "N",
      "WindowCenterWidthExplanation": "Algo1",
      "dBdt": 0.0},
    "slices": {}
  },
  "time": {
    "samples": {
      "AcquisitionNumber": [1, 2, 3, 4, 5, 6, 7, 8, 9, 10, 11, 12, 13, 14, 15, 16, 17, 18, 19, 20, 21, 22, 23, 24, 25, 26, 27, 28, 29, 30, 31, 32, 33, 34, 35, 36, 37, 38, 39, 40, 41, 42, 43, 44, 45, 46, 47, 48, 49, 50, 51, 52, 53, 54, 55, 56, 57, 58, 59, 60, 61, 62, 63, 64, 65, 66, 67, 68, 69, 70, 71, 72, 73, 74, 75, 76, 77, 78, 79, 80, 81, 82, 83, 84, 85, 86, 87, 88, 89, 90, 91, 92, 93, 94, 95, 96, 97, 98, 99, 100, 101, 102, 103, 104, 105, 106, 107, 108, 109, 110, 111, 112, 113, 114, 115, 116, 117, 118, 119, 120, 121, 122, 123, 124, 125, 126, 127, 128, 129, 130, 131, 132, 133, 134, 135, 136, 137, 138, 139, 140, 141, 142, 143, 144, 145, 146, 147, 148, 149, 150, 151, 152, 153, 154, 155, 156, 157, 158, 159, 160, 161, 162, 163, 164, 165, 166, 167, 168, 169, 170, 171, 172, 173, 174, 175, 176, 177, 178, 179, 180, 181, 182, 183, 184, 185, 186, 187, 188, 189, 190, 191, 192, 193, 194, 195, 196, 197, 198, 199, 200, 201, 202, 203, 204, 205, 206, 207, 208, 209, 210, 211, 212, 213, 214, 215, 216, 217, 218, 219, 220, 221, 222, 223, 224, 225, 226, 227, 228, 229, 230, 231, 232, 233, 234, 235, 236, 237, 238, 239, 240, 241, 242, 243, 244, 245, 246, 247, 248, 249, 250, 251, 252, 253, 254, 255, 256, 257, 258, 259, 260, 261, 262, 263, 264, 265, 266, 267, 268, 269, 270, 271, 272, 273, 274, 275, 276, 277, 278, 279, 280, 281, 282, 283, 284, 285, 286, 287, 288, 289, 290, 291, 292, 293, 294, 295, 296, 297, 298, 299, 300, 301, 302, 303, 304, 305, 306, 307, 308, 309, 310, 311, 312, 313, 314, 315, 316, 317, 318, 319, 320, 321, 322, 323, 324, 325, 326, 327, 328, 329, 330, 331, 332, 333, 334, 335, 336, 337, 338, 339, 340, 341, 342, 343, 344, 345, 346, 347, 348, 349],
      "AcquisitionTime": ["182509.270000", "182510.760000", "182512.250000", "182513.740000", "182515.230000", "182516.720000", "182518.210000", "182519.700000", "182521.190000", "182522.680000", "182524.170000", "182525.660000", "182527.150000", "182528.640000", "182530.130000", "182531.620000", "182533.110000", "182534.600000", "182536.090000", "182537.580000", "182539.070000", "182540.560000", "182542.050000", "182543.540000", "182545.030000", "182546.520000", "182548.010000", "182549.500000", "182550.990000", "182552.480000", "182553.970000", "182555.460000", "182556.950000", "182558.440000", "182559.930000", "182601.420000", "182602.910000", "182604.400000", "182605.890000", "182607.380000", "182608.870000", "182610.360000", "182611.850000", "182613.340000", "182614.830000", "182616.320000", "182617.810000", "182619.300000", "182620.790000", "182622.280000", "182623.770000", "182625.260000", "182626.750000", "182628.240000", "182629.730000", "182631.220000", "182632.710000", "182634.200000", "182635.690000", "182637.180000", "182638.670000", "182640.160000", "182641.650000", "182643.140000", "182644.630000", "182646.120000", "182647.610000", "182649.100000", "182650.590000", "182652.080000", "182653.570000", "182655.060000", "182656.550000", "182658.040000", "182659.530000", "182701.020000", "182702.510000", "182704.000000", "182705.490000", "182706.980000", "182708.470000", "182709.960000", "182711.450000", "182712.940000", "182714.430000", "182715.920000", "182717.410000", "182718.900000", "182720.390000", "182721.880000", "182723.370000", "182724.860000", "182726.350000", "182727.840000", "182729.330000", "182730.820000", "182732.310000", "182733.800000", "182735.290000", "182736.780000", "182738.270000", "182739.760000", "182741.250000", "182742.740000", "182744.230000", "182745.720000", "182747.210000", "182748.700000", "182750.190000", "182751.680000", "182753.170000", "182754.660000", "182756.150000", "182757.640000", "182759.130000", "182800.620000", "182802.110000", "182803.600000", "182805.090000", "182806.580000", "182808.070000", "182809.560000", "182811.050000", "182812.540000", "182814.030000", "182815.520000", "182817.010000", "182818.500000", "182819.990000", "182821.480000", "182822.970000", "182824.460000", "182825.950000", "182827.440000", "182828.930000", "182830.420000", "182831.910000", "182833.400000", "182834.890000", "182836.380000", "182837.870000", "182839.360000", "182840.850000", "182842.340000", "182843.830000", "182845.320000", "182846.810000", "182848.300000", "182849.790000", "182851.280000", "182852.770000", "182854.260000", "182855.750000", "182857.240000", "182858.730000", "182900.220000", "182901.710000", "182903.200000", "182904.690000", "182906.180000", "182907.670000", "182909.160000", "182910.650000", "182912.140000", "182913.630000", "182915.120000", "182916.610000", "182918.100000", "182919.590000", "182921.080000", "182922.570000", "182924.060000", "182925.550000", "182927.040000", "182928.530000", "182930.020000", "182931.510000", "182933.000000", "182934.490000", "182935.980000", "182937.470000", "182938.960000", "182940.450000", "182941.940000", "182943.430000", "182944.920000", "182946.410000", "182947.900000", "182949.390000", "182950.880000", "182952.370000", "182953.860000", "182955.350000", "182956.840000", "182958.330000", "182959.820000", "183001.310000", "183002.800000", "183004.290000", "183005.780000", "183007.270000", "183008.760000", "183010.250000", "183011.740000", "183013.230000", "183014.720000", "183016.210000", "183017.700000", "183019.190000", "183020.680000", "183022.170000", "183023.660000", "183025.150000", "183026.640000", "183028.130000", "183029.620000", "183031.110000", "183032.600000", "183034.090000", "183035.580000", "183037.070000", "183038.560000", "183040.050000", "183041.540000", "183043.030000", "183044.520000", "183046.010000", "183047.500000", "183048.990000", "183050.480000", "183051.970000", "183053.460000", "183054.950000", "183056.440000", "183057.930000", "183059.420000", "183100.910000", "183102.400000", "183103.890000", "183105.380000", "183106.870000", "183108.360000", "183109.850000", "183111.340000", "183112.830000", "183114.320000", "183115.810000", "183117.300000", "183118.790000", "183120.280000", "183121.770000", "183123.260000", "183124.750000", "183126.240000", "183127.730000", "183129.220000", "183130.710000", "183132.200000", "183133.690000", "183135.180000", "183136.670000", "183138.160000", "183139.650000", "183141.140000", "183142.630000", "183144.120000", "183145.610000", "183147.100000", "183148.590000", "183150.080000", "183151.570000", "183153.060000", "183154.550000", "183156.040000", "183157.530000", "183159.020000", "183200.510000", "183202.000000", "183203.490000", "183204.980000", "183206.470000", "183207.960000", "183209.450000", "183210.940000", "183212.430000", "183213.920000", "183215.410000", "183216.900000", "183218.390000", "183219.880000", "183221.370000", "183222.860000", "183224.350000", "183225.840000", "183227.330000", "183228.820000", "183230.310000", "183231.800000", "183233.290000", "183234.780000", "183236.270000", "183237.760000", "183239.250000", "183240.740000", "183242.230000", "183243.720000", "183245.210000", "183246.700000", "183248.190000", "183249.680000", "183251.170000", "183252.660000", "183254.150000", "183255.640000", "183257.130000", "183258.620000", "183300.110000", "183301.600000", "183303.090000", "183304.580000", "183306.070000", "183307.560000", "183309.050000", "183310.540000", "183312.030000", "183313.520000", "183315.010000", "183316.500000", "183317.990000", "183319.480000", "183320.970000", "183322.460000", "183323.950000", "183325.440000", "183326.930000", "183328.420000", "183329.910000", "183331.400000", "183332.890000", "183334.380000", "183335.870000", "183337.360000", "183338.850000", "183340.340000", "183341.830000", "183343.320000", "183344.810000", "183346.300000", "183347.790000"],
      "ContentTime": ["182605.528000", "182605.532000", "182605.535000", "182625.485000", "182625.489000", "182625.492000", "182625.495000", "182625.499000", "182625.502000", "182625.506000", "182625.509000", "182625.513000", "182625.516000", "182625.519000", "182625.527000", "182625.530000", "182625.533000", "182625.536000", "182625.540000", "182625.543000", "182625.546000", "182625.550000", "182625.553000", "182645.485000", "182645.489000", "182645.492000", "182645.495000", "182645.499000", "182645.502000", "182645.505000", "182645.509000", "182645.512000", "182645.516000", "182645.519000", "182645.522000", "182645.526000", "182645.529000", "182645.532000", "182645.535000", "182645.539000", "182645.542000", "182645.545000", "182645.549000", "182705.485000", "182705.489000", "182705.492000", "182705.496000", "182705.499000", "182705.503000", "182705.506000", "182705.510000", "182705.513000", "182705.518000", "182705.521000", "182705.524000", "182705.528000", "182705.531000", "182705.535000", "182705.538000", "182705.557000", "182705.560000", "182705.564000", "182705.567000", "182725.485000", "182725.489000", "182725.492000", "182725.496000", "182725.499000", "182725.502000", "182725.506000", "182725.509000", "182725.513000", "182725.516000", "182725.519000", "182725.523000", "182725.526000", "182725.529000", "182725.533000", "182725.536000", "182725.539000", "182725.544000", "182725.547000", "182725.551000", "182725.554000", "182745.484000", "182745.488000", "182745.491000", "182745.495000", "182745.498000", "182745.501000", "182745.505000", "182745.508000", "182745.511000", "182745.515000", "182745.518000", "182745.521000", "182745.525000", "182745.528000", "182745.531000", "182745.535000", "182745.538000", "182745.541000", "182745.545000", "182745.548000", "182825.484000", "182825.488000", "182825.491000", "182825.495000", "182825.498000", "182825.501000", "182825.505000", "182825.508000", "182825.512000", "182825.515000", "182825.518000", "182825.522000", "182825.525000", "182825.528000", "182825.532000", "182825.535000", "182825.539000", "182825.542000", "182825.545000", "182825.548000", "182825.552000", "182825.555000", "182825.558000", "182825.562000", "182825.565000", "182825.569000", "182825.572000", "182905.485000", "182905.490000", "182905.493000", "182905.496000", "182905.500000", "182905.503000", "182905.508000", "182905.513000", "182905.516000", "182905.530000", "182905.534000", "182905.537000", "182905.540000", "182905.544000", "182905.547000", "182905.550000", "182905.554000", "182905.557000", "182905.560000", "182905.564000", "182905.577000", "182905.580000", "182905.584000", "182905.587000", "182905.590000", "182905.594000", "182945.485000", "182945.489000", "182945.492000", "182945.496000", "182945.499000", "182945.503000", "182945.506000", "182945.509000", "182945.513000", "182945.516000", "182945.519000", "182945.523000", "182945.526000", "182945.530000", "182945.533000", "182945.536000", "182945.539000", "182945.543000", "182945.546000", "182945.550000", "182945.553000", "182945.556000", "182945.560000", "182945.563000", "182945.567000", "182945.570000", "182945.573000", "183025.484000", "183025.488000", "183025.491000", "183025.495000", "183025.498000", "183025.502000", "183025.505000", "183025.508000", "183025.512000", "183025.515000", "183025.518000", "183025.522000", "183025.525000", "183025.528000", "183025.532000", "183025.535000", "183025.539000", "183025.542000", "183025.553000", "183025.556000", "183025.559000", "183025.563000", "183025.566000", "183025.570000", "183025.573000", "183025.576000", "183025.580000", "183105.485000", "183105.489000", "183105.492000", "183105.496000", "183105.499000", "183105.503000", "183105.506000", "183105.509000", "183105.513000", "183105.516000", "183105.519000", "183105.523000", "183105.526000", "183105.530000", "183105.533000", "183105.536000", "183105.540000", "183105.543000", "183105.547000", "183105.550000", "183105.553000", "183105.557000", "183105.560000", "183105.564000", "183105.567000", "183105.570000", "183105.574000", "183145.485000", "183145.489000", "183145.492000", "183145.496000", "183145.499000", "183145.503000", "183145.506000", "183145.509000", "183145.513000", "183145.527000", "183145.531000", "183145.534000", "183145.537000", "183145.541000", "183145.544000", "183145.547000", "183145.551000", "183145.554000", "183145.558000", "183145.561000", "183145.564000", "183145.568000", "183145.571000", "183145.574000", "183145.578000", "183145.590000", "183145.593000", "183225.484000", "183225.488000", "183225.491000", "183225.495000", "183225.498000", "183225.501000", "183225.505000", "183225.508000", "183225.512000", "183225.515000", "183225.518000", "183225.522000", "183225.525000", "183225.529000", "183225.532000", "183225.535000", "183225.539000", "183225.542000", "183225.546000", "183225.549000", "183225.552000", "183225.556000", "183225.559000", "183225.562000", "183225.566000", "183225.569000", "183225.573000", "183305.484000", "183305.488000", "183305.491000", "183305.495000", "183305.498000", "183305.502000", "183305.505000", "183305.508000", "183305.512000", "183305.515000", "183305.519000", "183305.522000", "183305.525000", "183305.529000", "183305.532000", "183305.536000", "183305.539000", "183305.542000", "183305.546000", "183305.549000", "183305.552000", "183305.556000", "183305.559000", "183305.563000", "183305.566000", "183305.569000", "183305.573000", "183345.486000", "183345.490000", "183345.494000", "183345.497000", "183345.500000", "183345.504000", "183345.507000", "183345.511000", "183345.514000", "183345.517000", "183345.521000", "183345.524000", "183345.527000", "183345.531000", "183345.534000", "183345.538000", "183345.541000", "183345.545000", "183345.548000", "183345.551000", "183345.555000", "183345.576000", "183345.579000", "183345.583000", "183345.586000", "183345.589000", "183350.156000", "183350.160000", "183350.163000", "183350.167000"],
      "InstanceCreationTime": ["182605.528000", "182605.532000", "182605.535000", "182625.485000", "182625.489000", "182625.492000", "182625.495000", "182625.499000", "182625.502000", "182625.506000", "182625.509000", "182625.513000", "182625.516000", "182625.519000", "182625.527000", "182625.530000", "182625.533000", "182625.536000", "182625.540000", "182625.543000", "182625.546000", "182625.550000", "182625.553000", "182645.485000", "182645.489000", "182645.492000", "182645.495000", "182645.499000", "182645.502000", "182645.505000", "182645.509000", "182645.512000", "182645.516000", "182645.519000", "182645.522000", "182645.526000", "182645.529000", "182645.532000", "182645.535000", "182645.539000", "182645.542000", "182645.545000", "182645.549000", "182705.485000", "182705.489000", "182705.492000", "182705.496000", "182705.499000", "182705.503000", "182705.506000", "182705.510000", "182705.513000", "182705.518000", "182705.521000", "182705.524000", "182705.528000", "182705.531000", "182705.535000", "182705.538000", "182705.557000", "182705.560000", "182705.564000", "182705.567000", "182725.485000", "182725.489000", "182725.492000", "182725.496000", "182725.499000", "182725.502000", "182725.506000", "182725.509000", "182725.513000", "182725.516000", "182725.519000", "182725.523000", "182725.526000", "182725.529000", "182725.533000", "182725.536000", "182725.539000", "182725.544000", "182725.547000", "182725.551000", "182725.554000", "182745.484000", "182745.488000", "182745.491000", "182745.495000", "182745.498000", "182745.501000", "182745.505000", "182745.508000", "182745.511000", "182745.515000", "182745.518000", "182745.521000", "182745.525000", "182745.528000", "182745.531000", "182745.535000", "182745.538000", "182745.541000", "182745.545000", "182745.548000", "182825.484000", "182825.488000", "182825.491000", "182825.495000", "182825.498000", "182825.501000", "182825.505000", "182825.508000", "182825.512000", "182825.515000", "182825.518000", "182825.522000", "182825.525000", "182825.528000", "182825.532000", "182825.535000", "182825.539000", "182825.542000", "182825.545000", "182825.548000", "182825.552000", "182825.555000", "182825.558000", "182825.562000", "182825.565000", "182825.569000", "182825.572000", "182905.485000", "182905.490000", "182905.493000", "182905.496000", "182905.500000", "182905.503000", "182905.508000", "182905.513000", "182905.516000", "182905.530000", "182905.534000", "182905.537000", "182905.540000", "182905.544000", "182905.547000", "182905.550000", "182905.554000", "182905.557000", "182905.560000", "182905.564000", "182905.577000", "182905.580000", "182905.584000", "182905.587000", "182905.590000", "182905.594000", "182945.485000", "182945.489000", "182945.492000", "182945.496000", "182945.499000", "182945.503000", "182945.506000", "182945.509000", "182945.513000", "182945.516000", "182945.519000", "182945.523000", "182945.526000", "182945.530000", "182945.533000", "182945.536000", "182945.539000", "182945.543000", "182945.546000", "182945.550000", "182945.553000", "182945.556000", "182945.560000", "182945.563000", "182945.567000", "182945.570000", "182945.573000", "183025.484000", "183025.488000", "183025.491000", "183025.495000", "183025.498000", "183025.502000", "183025.505000", "183025.508000", "183025.512000", "183025.515000", "183025.518000", "183025.522000", "183025.525000", "183025.528000", "183025.532000", "183025.535000", "183025.539000", "183025.542000", "183025.553000", "183025.556000", "183025.559000", "183025.563000", "183025.566000", "183025.570000", "183025.573000", "183025.576000", "183025.580000", "183105.485000", "183105.489000", "183105.492000", "183105.496000", "183105.499000", "183105.503000", "183105.506000", "183105.509000", "183105.513000", "183105.516000", "183105.519000", "183105.523000", "183105.526000", "183105.530000", "183105.533000", "183105.536000", "183105.540000", "183105.543000", "183105.547000", "183105.550000", "183105.553000", "183105.557000", "183105.560000", "183105.564000", "183105.567000", "183105.570000", "183105.574000", "183145.485000", "183145.489000", "183145.492000", "183145.496000", "183145.499000", "183145.503000", "183145.506000", "183145.509000", "183145.513000", "183145.527000", "183145.531000", "183145.534000", "183145.537000", "183145.541000", "183145.544000", "183145.547000", "183145.551000", "183145.554000", "183145.558000", "183145.561000", "183145.564000", "183145.568000", "183145.571000", "183145.574000", "183145.578000", "183145.590000", "183145.593000", "183225.484000", "183225.488000", "183225.491000", "183225.495000", "183225.498000", "183225.501000", "183225.505000", "183225.508000", "183225.512000", "183225.515000", "183225.518000", "183225.522000", "183225.525000", "183225.529000", "183225.532000", "183225.535000", "183225.539000", "183225.542000", "183225.546000", "183225.549000", "183225.552000", "183225.556000", "183225.559000", "183225.562000", "183225.566000", "183225.569000", "183225.573000", "183305.484000", "183305.488000", "183305.491000", "183305.495000", "183305.498000", "183305.502000", "183305.505000", "183305.508000", "183305.512000", "183305.515000", "183305.519000", "183305.522000", "183305.525000", "183305.529000", "183305.532000", "183305.536000", "183305.539000", "183305.542000", "183305.546000", "183305.549000", "183305.552000", "183305.556000", "183305.559000", "183305.563000", "183305.566000", "183305.569000", "183305.573000", "183345.486000", "183345.490000", "183345.494000", "183345.497000", "183345.500000", "183345.504000", "183345.507000", "183345.511000", "183345.514000", "183345.517000", "183345.521000", "183345.524000", "183345.527000", "183345.531000", "183345.534000", "183345.538000", "183345.541000", "183345.545000", "183345.548000", "183345.551000", "183345.555000", "183345.576000", "183345.579000", "183345.583000", "183345.586000", "183345.589000", "183350.156000", "183350.160000", "183350.163000", "183350.167000"],
      "InstanceNumber": [1, 2, 3, 4, 5, 6, 7, 8, 9, 10, 11, 12, 13, 14, 15, 16, 17, 18, 19, 20, 21, 22, 23, 24, 25, 26, 27, 28, 29, 30, 31, 32, 33, 34, 35, 36, 37, 38, 39, 40, 41, 42, 43, 44, 45, 46, 47, 48, 49, 50, 51, 52, 53, 54, 55, 56, 57, 58, 59, 60, 61, 62, 63, 64, 65, 66, 67, 68, 69, 70, 71, 72, 73, 74, 75, 76, 77, 78, 79, 80, 81, 82, 83, 84, 85, 86, 87, 88, 89, 90, 91, 92, 93, 94, 95, 96, 97, 98, 99, 100, 101, 102, 103, 104, 105, 106, 107, 108, 109, 110, 111, 112, 113, 114, 115, 116, 117, 118, 119, 120, 121, 122, 123, 124, 125, 126, 127, 128, 129, 130, 131, 132, 133, 134, 135, 136, 137, 138, 139, 140, 141, 142, 143, 144, 145, 146, 147, 148, 149, 150, 151, 152, 153, 154, 155, 156, 157, 158, 159, 160, 161, 162, 163, 164, 165, 166, 167, 168, 169, 170, 171, 172, 173, 174, 175, 176, 177, 178, 179, 180, 181, 182, 183, 184, 185, 186, 187, 188, 189, 190, 191, 192, 193, 194, 195, 196, 197, 198, 199, 200, 201, 202, 203, 204, 205, 206, 207, 208, 209, 210, 211, 212, 213, 214, 215, 216, 217, 218, 219, 220, 221, 222, 223, 224, 225, 226, 227, 228, 229, 230, 231, 232, 233, 234, 235, 236, 237, 238, 239, 240, 241, 242, 243, 244, 245, 246, 247, 248, 249, 250, 251, 252, 253, 254, 255, 256, 257, 258, 259, 260, 261, 262, 263, 264, 265, 266, 267, 268, 269, 270, 271, 272, 273, 274, 275, 276, 277, 278, 279, 280, 281, 282, 283, 284, 285, 286, 287, 288, 289, 290, 291, 292, 293, 294, 295, 296, 297, 298, 299, 300, 301, 302, 303, 304, 305, 306, 307, 308, 309, 310, 311, 312, 313, 314, 315, 316, 317, 318, 319, 320, 321, 322, 323, 324, 325, 326, 327, 328, 329, 330, 331, 332, 333, 334, 335, 336, 337, 338, 339, 340, 341, 342, 343, 344, 345, 346, 347, 348, 349],
      "LargestImagePixelValue": [41608, 40577, 39796, 39529, 39283, 38791, 38723, 39223, 38977, 39061, 38773, 38261, 38839, 38996, 39011, 39001, 39227, 39037, 38389, 38528, 38647, 39042, 39096, 38594, 39470, 38696, 39267, 39224, 39014, 39355, 38963, 39149, 39204, 39102, 38117, 38450, 38446, 39005, 38687, 39208, 38519, 38549, 39153, 38838, 39079, 39143, 39012, 39074, 38823, 39247, 38689, 38344, 39207, 38237, 37650, 37511, 38550, 37661, 37693, 37976, 37888, 38548, 38560, 38167, 38380, 38632, 37891, 38121, 37645, 37745, 38313, 38291, 38058, 38163, 38046, 37931, 37707, 38080, 38376, 37866, 39160, 38538, 38149, 38904, 38507, 37818, 38704, 38870, 38059, 38150, 37892, 37276, 37584, 37815, 37695, 38079, 37844, 38328, 38374, 37896, 37699, 37430, 37155, 37129, 38090, 37923, 38642, 37801, 37724, 38109, 38278, 38263, 38184, 38137, 38760, 38350, 38518, 38098, 37712, 38315, 38627, 38150, 38528, 38119, 38308, 39103, 38194, 37883, 38355, 38121, 37747, 38715, 39828, 38384, 38164, 38533, 37850, 38110, 38659, 38455, 39220, 38842, 39035, 38935, 37792, 37866, 38620, 37340, 38395, 38128, 38460, 38704, 38872, 38434, 38336, 38607, 38508, 38380, 38433, 38677, 37951, 37852, 38056, 38119, 37923, 37214, 37922, 38401, 38185, 38189, 39027, 39663, 37765, 38268, 37429, 38140, 38429, 38803, 38256, 38427, 38580, 38675, 38449, 38818, 38718, 38569, 38684, 38516, 38420, 38165, 38535, 38556, 38304, 38635, 38136, 38030, 37947, 38539, 38443, 38341, 38205, 37956, 38013, 37752, 38232, 38575, 38577, 38293, 38737, 38700, 38482, 38533, 38514, 38444, 38744, 38320, 38419, 38463, 38068, 38601, 38589, 38792, 38509, 37827, 37986, 37987, 38625, 38428, 38261, 38340, 38140, 37899, 38324, 38159, 38599, 38306, 38514, 39335, 38649, 38997, 38950, 38662, 38076, 38108, 38290, 38336, 37951, 37608, 38281, 38079, 38273, 38600, 38042, 38129, 38368, 38026, 38934, 37928, 38110, 38344, 37901, 37766, 38274, 38218, 38639, 38881, 38224, 39414, 38250, 39137, 38231, 38108, 37677, 37456, 37819, 37768, 37439, 37888, 38013, 37778, 37746, 37948, 37951, 37834, 37930, 37374, 38625, 38127, 37905, 37334, 37721, 37915, 37161, 38089, 38450, 37625, 37620, 37536, 37327, 37301, 37864, 37743, 38604, 37827, 38432, 38001, 37576, 37758, 37402, 37131, 37411, 37386, 38072, 38422, 38154, 38194, 38233, 38057, 37608, 37555, 38072, 38301, 38082, 37481, 37717, 37834, 38023, 37684, 38747, 38113, 38411, 37999, 37289, 37390, 37885, 38056, 37757, 37742, 38182, 38040, 37897, 37813, 37756, 37840, 37468, 37763, 37406, 37326, 38262],
