{
  "AcquisitionMatrixPE": 104,
  "AcquisitionNumber": 1,
  "AcquisitionTime": "17:55:6.755000",
  "BandwidthPerPixelPhaseEncode": 17.17,
  "BaseResolution": 104,
  "BodyPartExamined": "BRAIN",
  "CoilCombinationMethod": "Sum of Squares",
  "ConsistencyInfo": "N4_VE11C_LATEST_20160120",
  "ConversionSoftware": "dcm2niix",
  "ConversionSoftwareVersion": "v1.0.20220505",
  "DerivedVendorReportedEchoSpacing": 0.000560011,
  "DeviceSerialNumber": "167006",
  "DwellTime": 2.1e-06,
  "EchoTime": 0.037,
  "EchoTrainLength": 104,
  "EffectiveEchoSpacing": 0.000560011,
  "FlipAngle": 52,
  "HeudiconvVersion": "0.5.3.post811+g6206e14",
  "ImageComments": "Unaliased MB4/PE3/LB",
  "ImageOrientationPatientDICOM": [0.999809, 0.0182117, 0.0070902, -0.0160554, 0.972267, -0.233323],
  "ImageOrientationText": "Tra>Cor(-13.5)>Sag(0.6)",
  "ImageType": [
    "ORIGINAL",
    "PRIMARY",
    "M",
    "MB",
    "ND",
    "MOSAIC"
],
  "ImagingFrequency": 123.26,
  "InPlanePhaseEncodingDirectionDICOM": "COL",
  "InstitutionAddress": "Chemin Queen-Mary 4565,Montreal,District,CA,H3W 1W5",
  "InstitutionName": "IUGM",
  "InstitutionalDepartmentName": "Department",
  "MRAcquisitionType": "2D",
  "MagneticFieldStrength": 3,
  "Manufacturer": "Siemens",
  "ManufacturersModelName": "Prisma_fit",
  "MatrixCoilMode": "SENSE",
  "Modality": "MR",
  "MultibandAccelerationFactor": 4,
  "PartialFourier": 1,
  "PatientPosition": "HFS",
  "PercentPhaseFOV": 100,
  "PercentSampling": 100,
  "PhaseEncodingDirection": "j",
  "PhaseEncodingSteps": 104,
  "PhaseResolution": 1,
  "PixelBandwidth": 2290,
  "ProcedureStepDescription": "games^mario3",
  "ProtocolName": "func_task-mario3_run-01",
  "PulseSequenceDetails": "%CustomerSeq%\\cmrr_mbep2d_bold",
  "ReceiveCoilActiveElements": "HC1-7;NC1,2",
  "ReceiveCoilName": "HeadNeck_64",
  "ReconMatrixPE": 104,
  "RepetitionTime": 1.49,
  "SAR": 0.057658,
  "ScanOptions": "FS",
  "ScanningSequence": "EP",
  "SequenceName": "epfid2d1_104",
  "SequenceVariant": "SK\\SS",
  "SeriesDescription": "func_task-mario3_run-01",
  "SeriesNumber": 10,
  "ShimSetting": [614, -7243, -8765, 678, 62, -34, 89, -7],
  "SliceThickness": 2,
  "SliceTiming": [0, 0.785, 0.1, 0.8825, 0.1975, 0.98, 0.295, 1.08, 0.3925, 1.1775, 0.49, 1.275, 0.59, 1.3725, 0.6875, 0, 0.785, 0.1, 0.8825, 0.1975, 0.98, 0.295, 1.08, 0.3925, 1.1775, 0.49, 1.275, 0.59, 1.3725, 0.6875, 0, 0.785, 0.1, 0.8825, 0.1975, 0.98, 0.295, 1.08, 0.3925, 1.1775, 0.49, 1.275, 0.59, 1.3725, 0.6875, 0, 0.785, 0.1, 0.8825, 0.1975, 0.98, 0.295, 1.08, 0.3925, 1.1775, 0.49, 1.275, 0.59, 1.3725, 0.6875],
  "SoftwareVersions": "syngo MR E11",
  "SpacingBetweenSlices": 2,
  "StationName": "MRC35049",
  "TaskName": "mario3",
  "TotalReadoutTime": 0.0576811,
  "TxRefAmp": 239.583,
  "WipMemBlock": "d336c7d0-1206-470e-aa1c-7849c49f900e||Sequence: R017 ve11c/master r/75a17815+; Jun 28 2022 16:32:11 by eja",
  "dcmmeta_affine": [
    [-1.9996180534362793, -0.03211071714758873, 0.022285541519522667, 110.02725982666016],
    [-0.03642333671450615, 1.9445334672927856, -0.46632909774780273, -73.75045013427734],
    [0.014180409722030163, 0.46664589643478394, 1.9447468519210815, -49.40635299682617],
    [0.0, 0.0, 0.0, 1.0]
],
  "dcmmeta_reorient_transform": [
    [0.0, -1.0, 0.0, 103.0],
    [1.0, 0.0, 0.0, 0.0],
    [0.0, 0.0, 1.0, 0.0],
    [0.0, 0.0, 0.0, 1.0]
],
  "dcmmeta_shape": [104, 104, 60, 317],
  "dcmmeta_slice_dim": 2,
  "dcmmeta_version": 0.6,
  "global": {
    "const": {
      "AcquisitionMatrix": [104, 0, 0, 104],
      "AngioFlag": "N",
      "BitsAllocated": 16,
      "BitsStored": 16,
      "BodyPartExamined": "BRAIN",
      "Columns": 832,
      "EchoNumbers": 1,
      "EchoTime": 37.0,
      "EchoTrainLength": 104,
      "FlipAngle": 52.0,
      "HighBit": 15,
      "ImageOrientationPatient": [0.9998090138162, 0.0182116689378, 0.00709020496008, -0.0160553589917, 0.97226674801592, -0.2333229439001],
      "ImagePositionPatient": [-822.89251614052, -847.60478965537, 163.35560553391],
      "ImageType": [
        "ORIGINAL",
        "PRIMARY",
        "M",
        "MB",
        "ND",
        "MOSAIC"
],
      "ImagedNucleus": "1H",
      "ImagingFrequency": 123.260239,
      "InPlanePhaseEncodingDirection": "COL",
      "MRAcquisitionType": "2D",
      "MagneticFieldStrength": 3.0,
      "Manufacturer": "SIEMENS",
      "ManufacturerModelName": "Prisma_fit",
      "Modality": "MR",
      "NumberOfAverages": 1.0,
      "NumberOfPhaseEncodingSteps": 104,
      "PercentPhaseFieldOfView": 100.0,
      "PercentSampling": 100.0,
      "PerformedProcedureStepStartTime": "175141.053000",
      "PhotometricInterpretation": "MONOCHROME2",
      "PixelBandwidth": 2290.0,
      "PixelRepresentation": 0,
      "PixelSpacing": [2.0, 2.0],
      "ProtocolName": "func_task-mario3_run-01",
      "RepetitionTime": 1490.0,
      "Rows": 832,
      "SAR": 0.05765803448797,
      "SamplesPerPixel": 1,
      "ScanOptions": "FS",
      "ScanningSequence": "EP",
      "SequenceName": "epfid2d1_104",
      "SequenceVariant": [
        "SK",
        "SS"
],
      "SeriesDescription": "func_task-mario3_run-01",
      "SeriesNumber": 10,
      "SeriesTime": "175605.515000",
      "SliceLocation": -29.619429598428,
      "SliceThickness": 2.0,
      "SmallestImagePixelValue": 0,
      "SoftwareVersions": "syngo MR E11",
      "SpacingBetweenSlices": 1.9999999831585,
      "SpecificCharacterSet": "ISO_IR 100",
      "StudyID": "1",
      "StudyTime": "175140.983000",
      "TransmitCoilName": "Body",
      "VariableFlipAngleFlag": "N",
      "WindowCenterWidthExplanation": "Algo1",
      "dBdt": 0.0},
    "slices": {}
  },
  "time": {
    "samples": {
      "AcquisitionNumber": [1, 2, 3, 4, 5, 6, 7, 8, 9, 10, 11, 12, 13, 14, 15, 16, 17, 18, 19, 20, 21, 22, 23, 24, 25, 26, 27, 28, 29, 30, 31, 32, 33, 34, 35, 36, 37, 38, 39, 40, 41, 42, 43, 44, 45, 46, 47, 48, 49, 50, 51, 52, 53, 54, 55, 56, 57, 58, 59, 60, 61, 62, 63, 64, 65, 66, 67, 68, 69, 70, 71, 72, 73, 74, 75, 76, 77, 78, 79, 80, 81, 82, 83, 84, 85, 86, 87, 88, 89, 90, 91, 92, 93, 94, 95, 96, 97, 98, 99, 100, 101, 102, 103, 104, 105, 106, 107, 108, 109, 110, 111, 112, 113, 114, 115, 116, 117, 118, 119, 120, 121, 122, 123, 124, 125, 126, 127, 128, 129, 130, 131, 132, 133, 134, 135, 136, 137, 138, 139, 140, 141, 142, 143, 144, 145, 146, 147, 148, 149, 150, 151, 152, 153, 154, 155, 156, 157, 158, 159, 160, 161, 162, 163, 164, 165, 166, 167, 168, 169, 170, 171, 172, 173, 174, 175, 176, 177, 178, 179, 180, 181, 182, 183, 184, 185, 186, 187, 188, 189, 190, 191, 192, 193, 194, 195, 196, 197, 198, 199, 200, 201, 202, 203, 204, 205, 206, 207, 208, 209, 210, 211, 212, 213, 214, 215, 216, 217, 218, 219, 220, 221, 222, 223, 224, 225, 226, 227, 228, 229, 230, 231, 232, 233, 234, 235, 236, 237, 238, 239, 240, 241, 242, 243, 244, 245, 246, 247, 248, 249, 250, 251, 252, 253, 254, 255, 256, 257, 258, 259, 260, 261, 262, 263, 264, 265, 266, 267, 268, 269, 270, 271, 272, 273, 274, 275, 276, 277, 278, 279, 280, 281, 282, 283, 284, 285, 286, 287, 288, 289, 290, 291, 292, 293, 294, 295, 296, 297, 298, 299, 300, 301, 302, 303, 304, 305, 306, 307, 308, 309, 310, 311, 312, 313, 314, 315, 316, 317],
      "AcquisitionTime": ["175506.755000", "175508.245000", "175509.735000", "175511.225000", "175512.715000", "175514.205000", "175515.695000", "175517.185000", "175518.675000", "175520.165000", "175521.655000", "175523.145000", "175524.635000", "175526.125000", "175527.615000", "175529.105000", "175530.595000", "175532.085000", "175533.575000", "175535.065000", "175536.555000", "175538.045000", "175539.535000", "175541.025000", "175542.515000", "175544.005000", "175545.495000", "175546.985000", "175548.475000", "175549.965000", "175551.455000", "175552.945000", "175554.435000", "175555.925000", "175557.415000", "175558.905000", "175600.395000", "175601.885000", "175603.375000", "175604.865000", "175606.355000", "175607.845000", "175609.335000", "175610.825000", "175612.315000", "175613.805000", "175615.295000", "175616.785000", "175618.275000", "175619.765000", "175621.255000", "175622.745000", "175624.235000", "175625.725000", "175627.215000", "175628.705000", "175630.195000", "175631.685000", "175633.175000", "175634.665000", "175636.155000", "175637.645000", "175639.135000", "175640.625000", "175642.115000", "175643.605000", "175645.095000", "175646.585000", "175648.075000", "175649.565000", "175651.055000", "175652.545000", "175654.035000", "175655.525000", "175657.015000", "175658.505000", "175659.995000", "175701.485000", "175702.975000", "175704.465000", "175705.955000", "175707.445000", "175708.935000", "175710.425000", "175711.915000", "175713.405000", "175714.895000", "175716.385000", "175717.875000", "175719.365000", "175720.855000", "175722.345000", "175723.835000", "175725.325000", "175726.815000", "175728.305000", "175729.795000", "175731.285000", "175732.775000", "175734.265000", "175735.755000", "175737.245000", "175738.735000", "175740.225000", "175741.715000", "175743.205000", "175744.695000", "175746.185000", "175747.675000", "175749.165000", "175750.655000", "175752.145000", "175753.635000", "175755.125000", "175756.615000", "175758.105000", "175759.595000", "175801.085000", "175802.575000", "175804.065000", "175805.555000", "175807.045000", "175808.535000", "175810.025000", "175811.515000", "175813.005000", "175814.495000", "175815.985000", "175817.475000", "175818.965000", "175820.455000", "175821.945000", "175823.435000", "175824.925000", "175826.415000", "175827.905000", "175829.395000", "175830.885000", "175832.375000", "175833.865000", "175835.355000", "175836.845000", "175838.335000", "175839.825000", "175841.315000", "175842.805000", "175844.295000", "175845.785000", "175847.275000", "175848.765000", "175850.255000", "175851.745000", "175853.235000", "175854.725000", "175856.215000", "175857.705000", "175859.195000", "175900.685000", "175902.175000", "175903.665000", "175905.155000", "175906.645000", "175908.135000", "175909.625000", "175911.115000", "175912.605000", "175914.095000", "175915.585000", "175917.075000", "175918.565000", "175920.055000", "175921.545000", "175923.035000", "175924.525000", "175926.015000", "175927.505000", "175928.995000", "175930.485000", "175931.975000", "175933.465000", "175934.955000", "175936.445000", "175937.935000", "175939.425000", "175940.915000", "175942.405000", "175943.895000", "175945.385000", "175946.875000", "175948.365000", "175949.855000", "175951.345000", "175952.835000", "175954.325000", "175955.815000", "175957.305000", "175958.795000", "180000.285000", "180001.775000", "180003.265000", "180004.755000", "180006.245000", "180007.735000", "180009.225000", "180010.715000", "180012.205000", "180013.695000", "180015.185000", "180016.675000", "180018.165000", "180019.655000", "180021.145000", "180022.635000", "180024.125000", "180025.615000", "180027.105000", "180028.595000", "180030.085000", "180031.575000", "180033.065000", "180034.555000", "180036.045000", "180037.535000", "180039.025000", "180040.515000", "180042.005000", "180043.495000", "180044.985000", "180046.475000", "180047.965000", "180049.455000", "180050.945000", "180052.435000", "180053.925000", "180055.415000", "180056.905000", "180058.395000", "180059.885000", "180101.375000", "180102.865000", "180104.355000", "180105.845000", "180107.335000", "180108.825000", "180110.315000", "180111.805000", "180113.295000", "180114.785000", "180116.275000", "180117.765000", "180119.255000", "180120.745000", "180122.235000", "180123.725000", "180125.215000", "180126.705000", "180128.195000", "180129.685000", "180131.175000", "180132.665000", "180134.155000", "180135.645000", "180137.135000", "180138.625000", "180140.115000", "180141.605000", "180143.095000", "180144.585000", "180146.075000", "180147.565000", "180149.055000", "180150.545000", "180152.035000", "180153.525000", "180155.015000", "180156.505000", "180157.995000", "180159.485000", "180200.975000", "180202.465000", "180203.955000", "180205.445000", "180206.935000", "180208.425000", "180209.915000", "180211.405000", "180212.895000", "180214.385000", "180215.875000", "180217.365000", "180218.855000", "180220.345000", "180221.835000", "180223.325000", "180224.815000", "180226.305000", "180227.795000", "180229.285000", "180230.775000", "180232.265000", "180233.755000", "180235.245000", "180236.735000", "180238.225000", "180239.715000", "180241.205000", "180242.695000", "180244.185000", "180245.675000", "180247.165000", "180248.655000", "180250.145000", "180251.635000", "180253.125000", "180254.615000", "180256.105000", "180257.595000"],
      "ContentTime": ["175605.519000", "175605.522000", "175605.526000", "175605.529000", "175605.532000", "175605.535000", "175605.539000", "175605.542000", "175605.546000", "175625.485000", "175625.489000", "175625.492000", "175625.495000", "175625.499000", "175625.502000", "175625.505000", "175625.509000", "175625.512000", "175625.515000", "175625.519000", "175625.522000", "175625.525000", "175625.528000", "175625.532000", "175625.535000", "175625.538000", "175625.542000", "175625.545000", "175625.548000", "175645.485000", "175645.489000", "175645.492000", "175645.495000", "175645.499000", "175645.502000", "175645.505000", "175645.509000", "175645.512000", "175645.515000", "175645.518000", "175645.522000", "175645.525000", "175645.528000", "175645.532000", "175645.535000", "175645.538000", "175645.542000", "175645.545000", "175645.548000", "175705.485000", "175705.489000", "175705.503000", "175705.507000", "175705.510000", "175705.513000", "175705.517000", "175705.520000", "175705.523000", "175705.527000", "175705.530000", "175705.533000", "175705.537000", "175705.540000", "175705.543000", "175705.547000", "175705.550000", "175705.553000", "175705.557000", "175705.560000", "175725.484000", "175725.492000", "175725.495000", "175725.499000", "175725.502000", "175725.505000", "175725.508000", "175725.512000", "175725.515000", "175725.518000", "175725.522000", "175725.525000", "175725.528000", "175725.532000", "175725.535000", "175725.538000", "175725.542000", "175725.545000", "175725.548000", "175725.552000", "175805.484000", "175805.488000", "175805.491000", "175805.495000", "175805.498000", "175805.501000", "175805.504000", "175805.508000", "175805.511000", "175805.523000", "175805.526000", "175805.530000", "175805.533000", "175805.536000", "175805.540000", "175805.543000", "175805.546000", "175805.550000", "175805.553000", "175805.556000", "175805.560000", "175805.569000", "175805.572000", "175805.576000", "175805.579000", "175805.582000", "175805.586000", "175805.589000", "175805.592000", "175805.596000", "175845.485000", "175845.489000", "175845.492000", "175845.496000", "175845.499000", "175845.503000", "175845.506000", "175845.509000", "175845.513000", "175845.516000", "175845.519000", "175845.523000", "175845.526000", "175845.529000", "175845.533000", "175845.536000", "175845.539000", "175845.543000", "175845.546000", "175845.549000", "175845.553000", "175845.556000", "175845.559000", "175845.563000", "175845.566000", "175845.570000", "175845.580000", "175925.485000", "175925.489000", "175925.492000", "175925.496000", "175925.499000", "175925.502000", "175925.506000", "175925.509000", "175925.512000", "175925.515000", "175925.519000", "175925.522000", "175925.525000", "175925.529000", "175925.532000", "175925.535000", "175925.539000", "175925.542000", "175925.545000", "175925.549000", "175925.552000", "175925.555000", "175925.559000", "175925.562000", "175925.565000", "175925.569000", "175925.572000", "180005.484000", "180005.488000", "180005.491000", "180005.494000", "180005.498000", "180005.501000", "180005.504000", "180005.508000", "180005.511000", "180005.514000", "180005.518000", "180005.521000", "180005.525000", "180005.528000", "180005.531000", "180005.535000", "180005.538000", "180005.541000", "180005.545000", "180005.548000", "180005.551000", "180005.555000", "180005.558000", "180005.561000", "180005.565000", "180005.568000", "180005.572000", "180045.484000", "180045.488000", "180045.491000", "180045.495000", "180045.498000", "180045.501000", "180045.505000", "180045.508000", "180045.511000", "180045.515000", "180045.518000", "180045.521000", "180045.525000", "180045.528000", "180045.531000", "180045.535000", "180045.538000", "180045.541000", "180045.545000", "180045.548000", "180045.552000", "180045.555000", "180045.558000", "180045.561000", "180045.565000", "180045.568000", "180045.572000", "180125.485000", "180125.489000", "180125.492000", "180125.495000", "180125.499000", "180125.502000", "180125.505000", "180125.509000", "180125.512000", "180125.515000", "180125.519000", "180125.522000", "180125.525000", "180125.529000", "180125.543000", "180125.547000", "180125.550000", "180125.553000", "180125.557000", "180125.560000", "180125.563000", "180125.567000", "180125.570000", "180125.574000", "180125.577000", "180125.580000", "180125.584000", "180205.484000", "180205.488000", "180205.491000", "180205.495000", "180205.498000", "180205.501000", "180205.506000", "180205.509000", "180205.512000", "180205.516000", "180205.519000", "180205.522000", "180205.526000", "180205.529000", "180205.532000", "180205.536000", "180205.539000", "180205.542000", "180205.546000", "180205.549000", "180205.552000", "180205.556000", "180205.559000", "180205.563000", "180205.566000", "180205.569000", "180245.484000", "180245.488000", "180245.491000", "180245.495000", "180245.498000", "180245.501000", "180245.505000", "180245.508000", "180245.511000", "180245.515000", "180245.518000", "180245.521000", "180245.525000", "180245.528000", "180245.531000", "180245.535000", "180245.538000", "180245.541000", "180245.545000", "180245.548000", "180245.551000", "180245.555000", "180245.558000", "180245.561000", "180245.565000", "180245.568000", "180245.571000", "180259.597000", "180259.600000", "180259.604000", "180259.607000", "180259.610000", "180259.614000", "180259.617000", "180259.620000", "180259.624000", "180259.627000"],
      "InstanceCreationTime": ["175605.519000", "175605.522000", "175605.526000", "175605.529000", "175605.532000", "175605.535000", "175605.539000", "175605.542000", "175605.546000", "175625.485000", "175625.489000", "175625.492000", "175625.495000", "175625.499000", "175625.502000", "175625.505000", "175625.509000", "175625.512000", "175625.515000", "175625.519000", "175625.522000", "175625.525000", "175625.528000", "175625.532000", "175625.535000", "175625.538000", "175625.542000", "175625.545000", "175625.548000", "175645.485000", "175645.489000", "175645.492000", "175645.495000", "175645.499000", "175645.502000", "175645.505000", "175645.509000", "175645.512000", "175645.515000", "175645.518000", "175645.522000", "175645.525000", "175645.528000", "175645.532000", "175645.535000", "175645.538000", "175645.542000", "175645.545000", "175645.548000", "175705.485000", "175705.489000", "175705.503000", "175705.507000", "175705.510000", "175705.513000", "175705.517000", "175705.520000", "175705.523000", "175705.527000", "175705.530000", "175705.533000", "175705.537000", "175705.540000", "175705.543000", "175705.547000", "175705.550000", "175705.553000", "175705.557000", "175705.560000", "175725.484000", "175725.492000", "175725.495000", "175725.499000", "175725.502000", "175725.505000", "175725.508000", "175725.512000", "175725.515000", "175725.518000", "175725.522000", "175725.525000", "175725.528000", "175725.532000", "175725.535000", "175725.538000", "175725.542000", "175725.545000", "175725.548000", "175725.552000", "175805.484000", "175805.488000", "175805.491000", "175805.495000", "175805.498000", "175805.501000", "175805.504000", "175805.508000", "175805.511000", "175805.523000", "175805.526000", "175805.530000", "175805.533000", "175805.536000", "175805.540000", "175805.543000", "175805.546000", "175805.550000", "175805.553000", "175805.556000", "175805.560000", "175805.569000", "175805.572000", "175805.576000", "175805.579000", "175805.582000", "175805.586000", "175805.589000", "175805.592000", "175805.596000", "175845.485000", "175845.489000", "175845.492000", "175845.496000", "175845.499000", "175845.503000", "175845.506000", "175845.509000", "175845.513000", "175845.516000", "175845.519000", "175845.523000", "175845.526000", "175845.529000", "175845.533000", "175845.536000", "175845.539000", "175845.543000", "175845.546000", "175845.549000", "175845.553000", "175845.556000", "175845.559000", "175845.563000", "175845.566000", "175845.570000", "175845.580000", "175925.485000", "175925.489000", "175925.492000", "175925.496000", "175925.499000", "175925.502000", "175925.506000", "175925.509000", "175925.512000", "175925.515000", "175925.519000", "175925.522000", "175925.525000", "175925.529000", "175925.532000", "175925.535000", "175925.539000", "175925.542000", "175925.545000", "175925.549000", "175925.552000", "175925.555000", "175925.559000", "175925.562000", "175925.565000", "175925.569000", "175925.572000", "180005.484000", "180005.488000", "180005.491000", "180005.494000", "180005.498000", "180005.501000", "180005.504000", "180005.508000", "180005.511000", "180005.514000", "180005.518000", "180005.521000", "180005.525000", "180005.528000", "180005.531000", "180005.535000", "180005.538000", "180005.541000", "180005.545000", "180005.548000", "180005.551000", "180005.555000", "180005.558000", "180005.561000", "180005.565000", "180005.568000", "180005.572000", "180045.484000", "180045.488000", "180045.491000", "180045.495000", "180045.498000", "180045.501000", "180045.505000", "180045.508000", "180045.511000", "180045.515000", "180045.518000", "180045.521000", "180045.525000", "180045.528000", "180045.531000", "180045.535000", "180045.538000", "180045.541000", "180045.545000", "180045.548000", "180045.552000", "180045.555000", "180045.558000", "180045.561000", "180045.565000", "180045.568000", "180045.572000", "180125.485000", "180125.489000", "180125.492000", "180125.495000", "180125.499000", "180125.502000", "180125.505000", "180125.509000", "180125.512000", "180125.515000", "180125.519000", "180125.522000", "180125.525000", "180125.529000", "180125.543000", "180125.547000", "180125.550000", "180125.553000", "180125.557000", "180125.560000", "180125.563000", "180125.567000", "180125.570000", "180125.574000", "180125.577000", "180125.580000", "180125.584000", "180205.484000", "180205.488000", "180205.491000", "180205.495000", "180205.498000", "180205.501000", "180205.506000", "180205.509000", "180205.512000", "180205.516000", "180205.519000", "180205.522000", "180205.526000", "180205.529000", "180205.532000", "180205.536000", "180205.539000", "180205.542000", "180205.546000", "180205.549000", "180205.552000", "180205.556000", "180205.559000", "180205.563000", "180205.566000", "180205.569000", "180245.484000", "180245.488000", "180245.491000", "180245.495000", "180245.498000", "180245.501000", "180245.505000", "180245.508000", "180245.511000", "180245.515000", "180245.518000", "180245.521000", "180245.525000", "180245.528000", "180245.531000", "180245.535000", "180245.538000", "180245.541000", "180245.545000", "180245.548000", "180245.551000", "180245.555000", "180245.558000", "180245.561000", "180245.565000", "180245.568000", "180245.571000", "180259.597000", "180259.600000", "180259.604000", "180259.607000", "180259.610000", "180259.614000", "180259.617000", "180259.620000", "180259.624000", "180259.627000"],
      "InstanceNumber": [1, 2, 3, 4, 5, 6, 7, 8, 9, 10, 11, 12, 13, 14, 15, 16, 17, 18, 19, 20, 21, 22, 23, 24, 25, 26, 27, 28, 29, 30, 31, 32, 33, 34, 35, 36, 37, 38, 39, 40, 41, 42, 43, 44, 45, 46, 47, 48, 49, 50, 51, 52, 53, 54, 55, 56, 57, 58, 59, 60, 61, 62, 63, 64, 65, 66, 67, 68, 69, 70, 71, 72, 73, 74, 75, 76, 77, 78, 79, 80, 81, 82, 83, 84, 85, 86, 87, 88, 89, 90, 91, 92, 93, 94, 95, 96, 97, 98, 99, 100, 101, 102, 103, 104, 105, 106, 107, 108, 109, 110, 111, 112, 113, 114, 115, 116, 117, 118, 119, 120, 121, 122, 123, 124, 125, 126, 127, 128, 129, 130, 131, 132, 133, 134, 135, 136, 137, 138, 139, 140, 141, 142, 143, 144, 145, 146, 147, 148, 149, 150, 151, 152, 153, 154, 155, 156, 157, 158, 159, 160, 161, 162, 163, 164, 165, 166, 167, 168, 169, 170, 171, 172, 173, 174, 175, 176, 177, 178, 179, 180, 181, 182, 183, 184, 185, 186, 187, 188, 189, 190, 191, 192, 193, 194, 195, 196, 197, 198, 199, 200, 201, 202, 203, 204, 205, 206, 207, 208, 209, 210, 211, 212, 213, 214, 215, 216, 217, 218, 219, 220, 221, 222, 223, 224, 225, 226, 227, 228, 229, 230, 231, 232, 233, 234, 235, 236, 237, 238, 239, 240, 241, 242, 243, 244, 245, 246, 247, 248, 249, 250, 251, 252, 253, 254, 255, 256, 257, 258, 259, 260, 261, 262, 263, 264, 265, 266, 267, 268, 269, 270, 271, 272, 273, 274, 275, 276, 277, 278, 279, 280, 281, 282, 283, 284, 285, 286, 287, 288, 289, 290, 291, 292, 293, 294, 295, 296, 297, 298, 299, 300, 301, 302, 303, 304, 305, 306, 307, 308, 309, 310, 311, 312, 313, 314, 315, 316, 317],
      "LargestImagePixelValue": [41084, 40075, 39910, 39816, 38822, 38577, 39151, 38521, 39106, 38548, 39265, 38363, 38728, 38510, 38408, 38190, 38618, 38159, 38619, 38662, 38271, 38695, 38510, 38571, 39324, 39015, 38622, 38142, 38579, 39230, 38635, 38472, 38188, 38450, 38692, 37902, 38534, 38313, 38140, 38346, 37803, 37646, 37640, 37515, 38212, 38114, 38106, 37763, 38037, 38660, 38272, 38952, 38568, 38802, 38524, 38129, 37999, 37893, 38094, 37976, 37308, 37756, 38214, 37643, 38587, 39094, 38504, 38224, 38305, 37636, 38599, 38179, 37852, 37655, 37802, 37631, 37803, 37485, 38089, 37467, 37912, 37801, 37425, 37554, 37360, 37541, 38163, 37723, 38079, 39348, 38364, 38634, 38683, 37773, 37645, 37646, 37871, 38086, 37397, 37866, 37759, 37975, 37353, 37351, 37493, 37656, 37936, 37520, 37289, 37606, 37732, 37547, 37701, 37290, 37597, 37809, 38097, 37535, 37689, 37408, 37466, 37363, 37362, 37741, 37997, 37755, 38018, 37521, 37639, 37675, 37916, 37441, 38547, 38176, 38020, 37948, 38458, 38338, 38342, 38632, 38202, 37922, 37496, 37413, 37961, 37728, 38184, 38313, 38127, 38020, 38457, 38551, 38064, 37770, 37989, 38190, 38067, 39446, 38789, 38782, 38267, 37772, 38071, 38079, 37951, 37978, 38528, 38188, 39023, 38200, 37751, 39145, 38281, 38909, 38598, 38827, 38886, 39012, 38605, 38171, 38349, 38845, 38151, 38020, 38787, 38575, 38503, 38460, 38724, 38805, 38251, 38137, 38824, 38356, 38994, 38814, 38089, 38930, 38365, 38676, 38825, 38947, 38784, 38786, 38408, 38473, 38589, 39648, 38974, 38522, 38587, 39263, 38882, 39679, 38903, 38266, 38463, 38529, 38208, 38099, 38074, 39558, 39722, 38871, 38323, 37834, 38714, 38749, 38779, 38972, 38768, 38713, 38508, 38938, 39537, 38827, 39051, 39100, 39073, 38976, 38722, 38118, 38647, 38831, 39292, 39005, 38811, 39065, 39405, 38748, 38833, 38822, 38920, 38564, 39107, 38479, 38868, 38800, 38140, 38735, 39266, 38590, 38561, 37602, 38380, 38497, 37976, 38084, 38168, 38705, 38204, 38374, 38658, 38513, 38732, 38623, 38429, 38364, 38187, 38502, 38557, 38297, 38179, 38575, 39787, 39331, 38583, 38641, 39022, 38567, 38934, 38821, 38793, 38554, 38662, 38578, 38858, 38310, 38743, 38560, 39653, 38805, 38498, 38417, 38405, 38470, 38765, 38624, 39073, 38804, 38571, 38585, 38435, 38932, 38751, 38641, 38559],
