{
  "AcquisitionMatrixPE": 104,
  "AcquisitionNumber": 1,
  "AcquisitionTime": "18:13:37.477500",
  "BandwidthPerPixelPhaseEncode": 17.17,
  "BaseResolution": 104,
  "BodyPartExamined": "BRAIN",
  "CoilCombinationMethod": "Sum of Squares",
  "ConsistencyInfo": "N4_VE11C_LATEST_20160120",
  "ConversionSoftware": "dcm2niix",
  "ConversionSoftwareVersion": "v1.0.20220505",
  "DerivedVendorReportedEchoSpacing": 0.000560011,
  "DeviceSerialNumber": "167006",
  "DwellTime": 2.1e-06,
  "EchoTime": 0.037,
  "EchoTime1": 0.037,
  "EchoTime2": 0.001,
  "EchoTrainLength": 104,
  "EffectiveEchoSpacing": 0.000560011,
  "FlipAngle": 52,
  "HeudiconvVersion": "0.5.3.post811+g6206e14",
  "ImageComments": "Unaliased MB4/PE3/LB",
  "ImageOrientationPatientDICOM": [0.999809, 0.0182117, 0.0070902, -0.0160554, 0.972267, -0.233323],
  "ImageOrientationText": "Tra>Cor(-13.5)>Sag(0.6)",
  "ImageType": [
    "ORIGINAL",
    "PRIMARY",
    "P",
    "MB",
    "ND",
    "MOSAIC",
    "PHASE"
],
  "ImagingFrequency": 123.26,
  "InPlanePhaseEncodingDirectionDICOM": "COL",
  "InstitutionAddress": "Chemin Queen-Mary 4565,Montreal,District,CA,H3W 1W5",
  "InstitutionName": "IUGM",
  "InstitutionalDepartmentName": "Department",
  "MRAcquisitionType": "2D",
  "MagneticFieldStrength": 3,
  "Manufacturer": "Siemens",
  "ManufacturersModelName": "Prisma_fit",
  "MatrixCoilMode": "SENSE",
  "Modality": "MR",
  "MultibandAccelerationFactor": 4,
  "PartialFourier": 1,
  "PatientPosition": "HFS",
  "PercentPhaseFOV": 100,
  "PercentSampling": 100,
  "PhaseEncodingDirection": "j",
  "PhaseEncodingSteps": 104,
  "PhaseResolution": 1,
  "PixelBandwidth": 2290,
  "ProcedureStepDescription": "games^mario3",
  "ProtocolName": "func_task-mario3_run-03",
  "PulseSequenceDetails": "%CustomerSeq%\\cmrr_mbep2d_bold",
  "ReceiveCoilActiveElements": "HC1-7;NC1,2",
  "ReceiveCoilName": "HeadNeck_64",
  "ReconMatrixPE": 104,
  "RepetitionTime": 1.49,
  "SAR": 0.057658,
  "ScanOptions": "FS",
  "ScanningSequence": "EP",
  "SequenceName": "epfid2d1_104",
  "SequenceVariant": "SK\\SS",
  "SeriesDescription": "func_task-mario3_run-03",
  "SeriesNumber": 17,
  "ShimSetting": [614, -7243, -8765, 678, 62, -34, 89, -7],
  "SliceThickness": 2,
  "SliceTiming": [0, 0.7825, 0.0975, 0.8825, 0.195, 0.98, 0.2925, 1.0775, 0.3925, 1.175, 0.49, 1.2725, 0.5875, 1.3725, 0.685, 0, 0.7825, 0.0975, 0.8825, 0.195, 0.98, 0.2925, 1.0775, 0.3925, 1.175, 0.49, 1.2725, 0.5875, 1.3725, 0.685, 0, 0.7825, 0.0975, 0.8825, 0.195, 0.98, 0.2925, 1.0775, 0.3925, 1.175, 0.49, 1.2725, 0.5875, 1.3725, 0.685, 0, 0.7825, 0.0975, 0.8825, 0.195, 0.98, 0.2925, 1.0775, 0.3925, 1.175, 0.49, 1.2725, 0.5875, 1.3725, 0.685],
  "SoftwareVersions": "syngo MR E11",
  "SpacingBetweenSlices": 2,
  "StationName": "MRC35049",
  "TaskName": "mario3",
  "TotalReadoutTime": 0.0576811,
  "TxRefAmp": 239.583,
  "WipMemBlock": "70270098-88e3-4977-81c0-91404ff13f43||Sequence: R017 ve11c/master r/75a17815+; Jun 28 2022 16:32:11 by eja",
  "dcmmeta_affine": [
    [-1.9996180534362793, -0.03211071714758873, 0.022285541519522667, 110.02725982666016],
    [-0.03642333671450615, 1.9445334672927856, -0.46632909774780273, -73.75045013427734],
    [0.014180409722030163, 0.46664589643478394, 1.9447468519210815, -49.40635299682617],
    [0.0, 0.0, 0.0, 1.0]
],
  "dcmmeta_reorient_transform": [
    [0.0, -1.0, 0.0, 103.0],
    [1.0, 0.0, 0.0, 0.0],
    [0.0, 0.0, 1.0, 0.0],
    [0.0, 0.0, 0.0, 1.0]
],
  "dcmmeta_shape": [104, 104, 60, 393],
  "dcmmeta_slice_dim": 2,
  "dcmmeta_version": 0.6,
  "global": {
    "const": {
      "AcquisitionMatrix": [104, 0, 0, 104],
      "AngioFlag": "N",
      "BitsAllocated": 16,
      "BitsStored": 16,
      "BodyPartExamined": "BRAIN",
      "Columns": 832,
      "EchoNumbers": 1,
      "EchoTime": 37.0,
      "EchoTrainLength": 104,
      "FlipAngle": 52.0,
      "HighBit": 15,
      "ImageOrientationPatient": [0.9998090138162, 0.0182116689378, 0.00709020496008, -0.0160553589917, 0.97226674801592, -0.2333229439001],
      "ImagePositionPatient": [-822.89251614052, -847.60478965537, 163.35560553391],
      "ImageType": [
        "ORIGINAL",
        "PRIMARY",
        "P",
        "MB",
        "ND",
        "MOSAIC"
],
      "ImagedNucleus": "1H",
      "ImagingFrequency": 123.260245,
      "InPlanePhaseEncodingDirection": "COL",
      "LargestImagePixelValue": 4095,
      "MRAcquisitionType": "2D",
      "MagneticFieldStrength": 3.0,
      "Manufacturer": "SIEMENS",
      "ManufacturerModelName": "Prisma_fit",
      "Modality": "MR",
      "NumberOfAverages": 1.0,
      "NumberOfPhaseEncodingSteps": 104,
      "PercentPhaseFieldOfView": 100.0,
      "PercentSampling": 100.0,
      "PerformedProcedureStepStartTime": "175141.053000",
      "PhotometricInterpretation": "MONOCHROME2",
      "PixelBandwidth": 2290.0,
      "PixelRepresentation": 0,
      "PixelSpacing": [2.0, 2.0],
      "ProtocolName": "func_task-mario3_run-03",
      "RepetitionTime": 1490.0,
      "RescaleIntercept": -4096.0,
      "RescaleSlope": 2.0,
      "RescaleType": "US",
      "Rows": 832,
      "SAR": 0.05765803448797,
      "SamplesPerPixel": 1,
      "ScanOptions": "FS",
      "ScanningSequence": "EP",
      "SequenceName": "epfid2d1_104",
      "SequenceVariant": [
        "SK",
        "SS"
],
      "SeriesDescription": "func_task-mario3_run-03",
      "SeriesNumber": 17,
      "SeriesTime": "181436.764000",
      "SliceLocation": -29.619429598428,
      "SliceThickness": 2.0,
      "SmallestImagePixelValue": 0,
      "SoftwareVersions": "syngo MR E11",
      "SpacingBetweenSlices": 1.9999999831585,
      "SpecificCharacterSet": "ISO_IR 100",
      "StudyID": "1",
      "StudyTime": "175140.983000",
      "TransmitCoilName": "Body",
      "VariableFlipAngleFlag": "N",
      "WindowCenterWidthExplanation": "Algo1",
      "dBdt": 0.0},
    "slices": {}
  },
  "time": {
    "samples": {
      "AcquisitionNumber": [1, 2, 3, 4, 5, 6, 7, 8, 9, 10, 11, 12, 13, 14, 15, 16, 17, 18, 19, 20, 21, 22, 23, 24, 25, 26, 27, 28, 29, 30, 31, 32, 33, 34, 35, 36, 37, 38, 39, 40, 41, 42, 43, 44, 45, 46, 47, 48, 49, 50, 51, 52, 53, 54, 55, 56, 57, 58, 59, 60, 61, 62, 63, 64, 65, 66, 67, 68, 69, 70, 71, 72, 73, 74, 75, 76, 77, 78, 79, 80, 81, 82, 83, 84, 85, 86, 87, 88, 89, 90, 91, 92, 93, 94, 95, 96, 97, 98, 99, 100, 101, 102, 103, 104, 105, 106, 107, 108, 109, 110, 111, 112, 113, 114, 115, 116, 117, 118, 119, 120, 121, 122, 123, 124, 125, 126, 127, 128, 129, 130, 131, 132, 133, 134, 135, 136, 137, 138, 139, 140, 141, 142, 143, 144, 145, 146, 147, 148, 149, 150, 151, 152, 153, 154, 155, 156, 157, 158, 159, 160, 161, 162, 163, 164, 165, 166, 167, 168, 169, 170, 171, 172, 173, 174, 175, 176, 177, 178, 179, 180, 181, 182, 183, 184, 185, 186, 187, 188, 189, 190, 191, 192, 193, 194, 195, 196, 197, 198, 199, 200, 201, 202, 203, 204, 205, 206, 207, 208, 209, 210, 211, 212, 213, 214, 215, 216, 217, 218, 219, 220, 221, 222, 223, 224, 225, 226, 227, 228, 229, 230, 231, 232, 233, 234, 235, 236, 237, 238, 239, 240, 241, 242, 243, 244, 245, 246, 247, 248, 249, 250, 251, 252, 253, 254, 255, 256, 257, 258, 259, 260, 261, 262, 263, 264, 265, 266, 267, 268, 269, 270, 271, 272, 273, 274, 275, 276, 277, 278, 279, 280, 281, 282, 283, 284, 285, 286, 287, 288, 289, 290, 291, 292, 293, 294, 295, 296, 297, 298, 299, 300, 301, 302, 303, 304, 305, 306, 307, 308, 309, 310, 311, 312, 313, 314, 315, 316, 317, 318, 319, 320, 321, 322, 323, 324, 325, 326, 327, 328, 329, 330, 331, 332, 333, 334, 335, 336, 337, 338, 339, 340, 341, 342, 343, 344, 345, 346, 347, 348, 349, 350, 351, 352, 353, 354, 355, 356, 357, 358, 359, 360, 361, 362, 363, 364, 365, 366, 367, 368, 369, 370, 371, 372, 373, 374, 375, 376, 377, 378, 379, 380, 381, 382, 383, 384, 385, 386, 387, 388, 389, 390, 391, 392, 393],
      "AcquisitionTime": ["181337.477500", "181338.967500", "181340.457500", "181341.947500", "181343.437500", "181344.927500", "181346.417500", "181347.907500", "181349.397500", "181350.887500", "181352.377500", "181353.867500", "181355.357500", "181356.847500", "181358.337500", "181359.827500", "181401.317500", "181402.807500", "181404.297500", "181405.787500", "181407.277500", "181408.767500", "181410.257500", "181411.747500", "181413.237500", "181414.727500", "181416.217500", "181417.707500", "181419.197500", "181420.687500", "181422.177500", "181423.667500", "181425.157500", "181426.647500", "181428.137500", "181429.627500", "181431.117500", "181432.607500", "181434.097500", "181435.587500", "181437.077500", "181438.567500", "181440.057500", "181441.547500", "181443.037500", "181444.527500", "181446.017500", "181447.507500", "181448.997500", "181450.487500", "181451.977500", "181453.467500", "181454.957500", "181456.447500", "181457.937500", "181459.427500", "181500.917500", "181502.407500", "181503.897500", "181505.387500", "181506.877500", "181508.367500", "181509.857500", "181511.347500", "181512.837500", "181514.327500", "181515.817500", "181517.307500", "181518.797500", "181520.287500", "181521.777500", "181523.267500", "181524.757500", "181526.247500", "181527.737500", "181529.227500", "181530.717500", "181532.207500", "181533.697500", "181535.187500", "181536.677500", "181538.167500", "181539.657500", "181541.147500", "181542.637500", "181544.127500", "181545.617500", "181547.107500", "181548.597500", "181550.087500", "181551.577500", "181553.067500", "181554.557500", "181556.047500", "181557.537500", "181559.027500", "181600.517500", "181602.007500", "181603.497500", "181604.987500", "181606.477500", "181607.967500", "181609.457500", "181610.947500", "181612.437500", "181613.927500", "181615.417500", "181616.907500", "181618.397500", "181619.887500", "181621.377500", "181622.867500", "181624.357500", "181625.847500", "181627.337500", "181628.827500", "181630.317500", "181631.807500", "181633.297500", "181634.787500", "181636.277500", "181637.767500", "181639.257500", "181640.747500", "181642.237500", "181643.727500", "181645.217500", "181646.707500", "181648.197500", "181649.687500", "181651.177500", "181652.667500", "181654.157500", "181655.647500", "181657.137500", "181658.627500", "181700.117500", "181701.607500", "181703.097500", "181704.587500", "181706.077500", "181707.567500", "181709.057500", "181710.547500", "181712.037500", "181713.527500", "181715.017500", "181716.507500", "181717.997500", "181719.487500", "181720.977500", "181722.467500", "181723.957500", "181725.447500", "181726.937500", "181728.427500", "181729.917500", "181731.407500", "181732.897500", "181734.387500", "181735.877500", "181737.367500", "181738.857500", "181740.347500", "181741.837500", "181743.327500", "181744.817500", "181746.307500", "181747.797500", "181749.287500", "181750.777500", "181752.267500", "181753.757500", "181755.247500", "181756.737500", "181758.227500", "181759.717500", "181801.207500", "181802.697500", "181804.187500", "181805.677500", "181807.167500", "181808.657500", "181810.147500", "181811.637500", "181813.127500", "181814.617500", "181816.107500", "181817.597500", "181819.087500", "181820.577500", "181822.067500", "181823.557500", "181825.047500", "181826.537500", "181828.027500", "181829.517500", "181831.007500", "181832.497500", "181833.987500", "181835.477500", "181836.967500", "181838.457500", "181839.947500", "181841.437500", "181842.927500", "181844.417500", "181845.907500", "181847.397500", "181848.887500", "181850.377500", "181851.867500", "181853.357500", "181854.847500", "181856.337500", "181857.827500", "181859.317500", "181900.807500", "181902.297500", "181903.787500", "181905.277500", "181906.767500", "181908.257500", "181909.747500", "181911.237500", "181912.727500", "181914.217500", "181915.707500", "181917.197500", "181918.687500", "181920.177500", "181921.667500", "181923.157500", "181924.647500", "181926.137500", "181927.627500", "181929.117500", "181930.607500", "181932.097500", "181933.587500", "181935.077500", "181936.567500", "181938.057500", "181939.547500", "181941.037500", "181942.527500", "181944.017500", "181945.507500", "181946.997500", "181948.487500", "181949.977500", "181951.467500", "181952.957500", "181954.447500", "181955.937500", "181957.427500", "181958.917500", "182000.407500", "182001.897500", "182003.387500", "182004.877500", "182006.367500", "182007.857500", "182009.347500", "182010.837500", "182012.327500", "182013.817500", "182015.307500", "182016.797500", "182018.287500", "182019.777500", "182021.267500", "182022.757500", "182024.247500", "182025.737500", "182027.227500", "182028.717500", "182030.207500", "182031.697500", "182033.187500", "182034.677500", "182036.167500", "182037.657500", "182039.147500", "182040.637500", "182042.127500", "182043.617500", "182045.107500", "182046.597500", "182048.087500", "182049.577500", "182051.067500", "182052.557500", "182054.047500", "182055.537500", "182057.027500", "182058.517500", "182100.007500", "182101.497500", "182102.987500", "182104.477500", "182105.967500", "182107.457500", "182108.947500", "182110.437500", "182111.927500", "182113.417500", "182114.907500", "182116.397500", "182117.887500", "182119.377500", "182120.867500", "182122.357500", "182123.847500", "182125.337500", "182126.827500", "182128.317500", "182129.807500", "182131.297500", "182132.787500", "182134.277500", "182135.767500", "182137.257500", "182138.747500", "182140.237500", "182141.727500", "182143.217500", "182144.707500", "182146.197500", "182147.687500", "182149.177500", "182150.667500", "182152.157500", "182153.647500", "182155.137500", "182156.627500", "182158.117500", "182159.607500", "182201.097500", "182202.587500", "182204.077500", "182205.567500", "182207.057500", "182208.547500", "182210.037500", "182211.527500", "182213.017500", "182214.507500", "182215.997500", "182217.487500", "182218.977500", "182220.467500", "182221.957500", "182223.447500", "182224.937500", "182226.427500", "182227.917500", "182229.407500", "182230.897500", "182232.387500", "182233.877500", "182235.367500", "182236.857500", "182238.347500", "182239.837500", "182241.327500", "182242.817500", "182244.307500", "182245.797500", "182247.287500", "182248.777500", "182250.267500", "182251.757500", "182253.247500", "182254.737500", "182256.227500", "182257.717500", "182259.207500", "182300.697500", "182302.187500", "182303.677500", "182305.167500", "182306.657500", "182308.147500", "182309.637500", "182311.127500", "182312.617500", "182314.107500", "182315.597500", "182317.087500", "182318.577500", "182320.067500", "182321.557500"],
      "ContentTime": ["181436.766000", "181436.777000", "181436.780000", "181436.782000", "181436.785000", "181436.787000", "181436.790000", "181436.792000", "181436.795000", "181436.797000", "181456.766000", "181456.769000", "181456.772000", "181456.774000", "181456.777000", "181456.779000", "181456.782000", "181456.784000", "181456.787000", "181456.789000", "181456.792000", "181456.794000", "181456.797000", "181456.800000", "181456.802000", "181456.805000", "181456.807000", "181456.810000", "181456.812000", "181456.815000", "181456.817000", "181517.142000", "181517.145000", "181517.147000", "181517.150000", "181517.153000", "181517.155000", "181517.158000", "181517.160000", "181517.163000", "181517.165000", "181517.168000", "181517.170000", "181517.173000", "181517.175000", "181517.178000", "181517.180000", "181517.183000", "181517.185000", "181517.188000", "181517.190000", "181536.753000", "181536.756000", "181536.758000", "181536.761000", "181536.763000", "181536.766000", "181536.768000", "181536.771000", "181536.774000", "181536.777000", "181536.779000", "181536.782000", "181536.784000", "181536.787000", "181536.789000", "181536.792000", "181536.794000", "181536.797000", "181536.799000", "181536.802000", "181556.759000", "181556.762000", "181556.764000", "181556.767000", "181556.769000", "181556.772000", "181556.774000", "181556.777000", "181556.779000", "181556.782000", "181556.784000", "181556.787000", "181556.789000", "181556.792000", "181556.796000", "181556.798000", "181556.801000", "181556.804000", "181556.807000", "181556.810000", "181636.795000", "181636.798000", "181636.800000", "181636.803000", "181636.806000", "181636.809000", "181636.812000", "181636.814000", "181636.817000", "181636.820000", "181636.822000", "181636.825000", "181636.827000", "181636.830000", "181636.832000", "181636.835000", "181636.837000", "181636.840000", "181636.842000", "181636.845000", "181636.847000", "181636.850000", "181636.852000", "181636.855000", "181636.857000", "181636.860000", "181636.863000", "181636.865000", "181716.797000", "181716.800000", "181716.802000", "181716.805000", "181716.807000", "181716.810000", "181716.812000", "181716.815000", "181716.817000", "181716.820000", "181716.822000", "181716.825000", "181716.827000", "181716.830000", "181716.832000", "181716.835000", "181716.837000", "181716.840000", "181716.842000", "181716.845000", "181716.848000", "181716.850000", "181716.853000", "181716.855000", "181716.858000", "181716.860000", "181716.863000", "181756.787000", "181756.790000", "181756.793000", "181756.795000", "181756.798000", "181756.800000", "181756.803000", "181756.805000", "181756.808000", "181756.810000", "181756.813000", "181756.815000", "181756.818000", "181756.820000", "181756.823000", "181756.825000", "181756.828000", "181756.831000", "181756.834000", "181756.836000", "181756.839000", "181756.841000", "181756.844000", "181756.846000", "181756.849000", "181756.851000", "181756.854000", "181836.802000", "181836.804000", "181836.807000", "181836.809000", "181836.812000", "181836.814000", "181836.817000", "181836.820000", "181836.822000", "181836.825000", "181836.827000", "181836.830000", "181836.832000", "181836.835000", "181836.837000", "181836.840000", "181836.842000", "181836.845000", "181836.847000", "181836.850000", "181836.853000", "181836.855000", "181836.858000", "181836.860000", "181836.863000", "181836.865000", "181836.868000", "181916.786000", "181916.789000", "181916.792000", "181916.794000", "181916.797000", "181916.799000", "181916.802000", "181916.805000", "181916.807000", "181916.810000", "181916.812000", "181916.815000", "181916.817000", "181916.820000", "181916.822000", "181916.825000", "181916.827000", "181916.830000", "181916.832000", "181916.835000", "181916.837000", "181916.840000", "181916.842000", "181916.845000", "181916.847000", "181916.850000", "181916.853000", "181956.800000", "181956.803000", "181956.805000", "181956.808000", "181956.810000", "181956.813000", "181956.815000", "181956.818000", "181956.820000", "181956.823000", "181956.825000", "181956.828000", "181956.831000", "181956.833000", "181956.836000", "181956.838000", "181956.841000", "181956.843000", "181956.846000", "181956.848000", "181956.851000", "181956.853000", "181956.856000", "181956.858000", "181956.861000", "181956.863000", "181956.866000", "182036.780000", "182036.783000", "182036.785000", "182036.788000", "182036.790000", "182036.793000", "182036.796000", "182036.798000", "182036.801000", "182036.803000", "182036.806000", "182036.808000", "182036.811000", "182036.813000", "182036.816000", "182036.820000", "182036.834000", "182036.836000", "182036.839000", "182036.842000", "182036.844000", "182036.847000", "182036.849000", "182036.852000", "182036.854000", "182036.857000", "182116.788000", "182116.791000", "182116.793000", "182116.796000", "182116.798000", "182116.801000", "182116.803000", "182116.806000", "182116.808000", "182116.811000", "182116.814000", "182116.816000", "182116.819000", "182116.821000", "182116.824000", "182116.826000", "182116.829000", "182116.831000", "182116.834000", "182116.836000", "182116.839000", "182116.841000", "182116.844000", "182116.847000", "182116.849000", "182116.852000", "182116.854000", "182156.796000", "182156.799000", "182156.801000", "182156.804000", "182156.807000", "182156.809000", "182156.812000", "182156.814000", "182156.817000", "182156.819000", "182156.822000", "182156.824000", "182156.827000", "182156.829000", "182156.832000", "182156.834000", "182156.837000", "182156.839000", "182156.842000", "182156.844000", "182156.847000", "182156.850000", "182156.852000", "182156.855000", "182156.857000", "182156.860000", "182156.862000", "182236.786000", "182236.788000", "182236.791000", "182236.793000", "182236.796000", "182236.799000", "182236.801000", "182236.804000", "182236.806000", "182236.809000", "182236.811000", "182236.814000", "182236.816000", "182236.819000", "182236.821000", "182236.824000", "182236.826000", "182236.829000", "182236.831000", "182236.834000", "182236.836000", "182236.839000", "182236.842000", "182236.844000", "182236.847000", "182236.849000", "182236.852000", "182316.795000", "182316.798000", "182316.800000", "182316.803000", "182316.805000", "182316.808000", "182316.810000", "182316.813000", "182316.815000", "182316.818000", "182316.820000", "182316.823000", "182316.825000", "182316.828000", "182316.830000", "182316.833000", "182316.835000", "182316.838000", "182316.841000", "182316.843000", "182316.846000", "182316.848000", "182316.851000", "182316.853000", "182316.856000", "182316.858000", "182316.861000", "182324.959000", "182324.962000", "182324.964000", "182324.967000", "182324.970000"],
      "InstanceCreationTime": ["181436.766000", "181436.777000", "181436.780000", "181436.782000", "181436.785000", "181436.787000", "181436.790000", "181436.792000", "181436.795000", "181436.797000", "181456.766000", "181456.769000", "181456.772000", "181456.774000", "181456.777000", "181456.779000", "181456.782000", "181456.784000", "181456.787000", "181456.789000", "181456.792000", "181456.794000", "181456.797000", "181456.800000", "181456.802000", "181456.805000", "181456.807000", "181456.810000", "181456.812000", "181456.815000", "181456.817000", "181517.142000", "181517.145000", "181517.147000", "181517.150000", "181517.153000", "181517.155000", "181517.158000", "181517.160000", "181517.163000", "181517.165000", "181517.168000", "181517.170000", "181517.173000", "181517.175000", "181517.178000", "181517.180000", "181517.183000", "181517.185000", "181517.188000", "181517.190000", "181536.753000", "181536.756000", "181536.758000", "181536.761000", "181536.763000", "181536.766000", "181536.768000", "181536.771000", "181536.774000", "181536.777000", "181536.779000", "181536.782000", "181536.784000", "181536.787000", "181536.789000", "181536.792000", "181536.794000", "181536.797000", "181536.799000", "181536.802000", "181556.759000", "181556.762000", "181556.764000", "181556.767000", "181556.769000", "181556.772000", "181556.774000", "181556.777000", "181556.779000", "181556.782000", "181556.784000", "181556.787000", "181556.789000", "181556.792000", "181556.796000", "181556.798000", "181556.801000", "181556.804000", "181556.807000", "181556.810000", "181636.795000", "181636.798000", "181636.800000", "181636.803000", "181636.806000", "181636.809000", "181636.812000", "181636.814000", "181636.817000", "181636.820000", "181636.822000", "181636.825000", "181636.827000", "181636.830000", "181636.832000", "181636.835000", "181636.837000", "181636.840000", "181636.842000", "181636.845000", "181636.847000", "181636.850000", "181636.852000", "181636.855000", "181636.857000", "181636.860000", "181636.863000", "181636.865000", "181716.797000", "181716.800000", "181716.802000", "181716.805000", "181716.807000", "181716.810000", "181716.812000", "181716.815000", "181716.817000", "181716.820000", "181716.822000", "181716.825000", "181716.827000", "181716.830000", "181716.832000", "181716.835000", "181716.837000", "181716.840000", "181716.842000", "181716.845000", "181716.848000", "181716.850000", "181716.853000", "181716.855000", "181716.858000", "181716.860000", "181716.863000", "181756.787000", "181756.790000", "181756.793000", "181756.795000", "181756.798000", "181756.800000", "181756.803000", "181756.805000", "181756.808000", "181756.810000", "181756.813000", "181756.815000", "181756.818000", "181756.820000", "181756.823000", "181756.825000", "181756.828000", "181756.831000", "181756.834000", "181756.836000", "181756.839000", "181756.841000", "181756.844000", "181756.846000", "181756.849000", "181756.851000", "181756.854000", "181836.802000", "181836.804000", "181836.807000", "181836.809000", "181836.812000", "181836.814000", "181836.817000", "181836.820000", "181836.822000", "181836.825000", "181836.827000", "181836.830000", "181836.832000", "181836.835000", "181836.837000", "181836.840000", "181836.842000", "181836.845000", "181836.847000", "181836.850000", "181836.853000", "181836.855000", "181836.858000", "181836.860000", "181836.863000", "181836.865000", "181836.868000", "181916.786000", "181916.789000", "181916.792000", "181916.794000", "181916.797000", "181916.799000", "181916.802000", "181916.805000", "181916.807000", "181916.810000", "181916.812000", "181916.815000", "181916.817000", "181916.820000", "181916.822000", "181916.825000", "181916.827000", "181916.830000", "181916.832000", "181916.835000", "181916.837000", "181916.840000", "181916.842000", "181916.845000", "181916.847000", "181916.850000", "181916.853000", "181956.800000", "181956.803000", "181956.805000", "181956.808000", "181956.810000", "181956.813000", "181956.815000", "181956.818000", "181956.820000", "181956.823000", "181956.825000", "181956.828000", "181956.831000", "181956.833000", "181956.836000", "181956.838000", "181956.841000", "181956.843000", "181956.846000", "181956.848000", "181956.851000", "181956.853000", "181956.856000", "181956.858000", "181956.861000", "181956.863000", "181956.866000", "182036.780000", "182036.783000", "182036.785000", "182036.788000", "182036.790000", "182036.793000", "182036.796000", "182036.798000", "182036.801000", "182036.803000", "182036.806000", "182036.808000", "182036.811000", "182036.813000", "182036.816000", "182036.820000", "182036.834000", "182036.836000", "182036.839000", "182036.842000", "182036.844000", "182036.847000", "182036.849000", "182036.852000", "182036.854000", "182036.857000", "182116.788000", "182116.791000", "182116.793000", "182116.796000", "182116.798000", "182116.801000", "182116.803000", "182116.806000", "182116.808000", "182116.811000", "182116.814000", "182116.816000", "182116.819000", "182116.821000", "182116.824000", "182116.826000", "182116.829000", "182116.831000", "182116.834000", "182116.836000", "182116.839000", "182116.841000", "182116.844000", "182116.847000", "182116.849000", "182116.852000", "182116.854000", "182156.796000", "182156.799000", "182156.801000", "182156.804000", "182156.807000", "182156.809000", "182156.812000", "182156.814000", "182156.817000", "182156.819000", "182156.822000", "182156.824000", "182156.827000", "182156.829000", "182156.832000", "182156.834000", "182156.837000", "182156.839000", "182156.842000", "182156.844000", "182156.847000", "182156.850000", "182156.852000", "182156.855000", "182156.857000", "182156.860000", "182156.862000", "182236.786000", "182236.788000", "182236.791000", "182236.793000", "182236.796000", "182236.799000", "182236.801000", "182236.804000", "182236.806000", "182236.809000", "182236.811000", "182236.814000", "182236.816000", "182236.819000", "182236.821000", "182236.824000", "182236.826000", "182236.829000", "182236.831000", "182236.834000", "182236.836000", "182236.839000", "182236.842000", "182236.844000", "182236.847000", "182236.849000", "182236.852000", "182316.795000", "182316.798000", "182316.800000", "182316.803000", "182316.805000", "182316.808000", "182316.810000", "182316.813000", "182316.815000", "182316.818000", "182316.820000", "182316.823000", "182316.825000", "182316.828000", "182316.830000", "182316.833000", "182316.835000", "182316.838000", "182316.841000", "182316.843000", "182316.846000", "182316.848000", "182316.851000", "182316.853000", "182316.856000", "182316.858000", "182316.861000", "182324.959000", "182324.962000", "182324.964000", "182324.967000", "182324.970000"],
      "InstanceNumber": [1, 2, 3, 4, 5, 6, 7, 8, 9, 10, 11, 12, 13, 14, 15, 16, 17, 18, 19, 20, 21, 22, 23, 24, 25, 26, 27, 28, 29, 30, 31, 32, 33, 34, 35, 36, 37, 38, 39, 40, 41, 42, 43, 44, 45, 46, 47, 48, 49, 50, 51, 52, 53, 54, 55, 56, 57, 58, 59, 60, 61, 62, 63, 64, 65, 66, 67, 68, 69, 70, 71, 72, 73, 74, 75, 76, 77, 78, 79, 80, 81, 82, 83, 84, 85, 86, 87, 88, 89, 90, 91, 92, 93, 94, 95, 96, 97, 98, 99, 100, 101, 102, 103, 104, 105, 106, 107, 108, 109, 110, 111, 112, 113, 114, 115, 116, 117, 118, 119, 120, 121, 122, 123, 124, 125, 126, 127, 128, 129, 130, 131, 132, 133, 134, 135, 136, 137, 138, 139, 140, 141, 142, 143, 144, 145, 146, 147, 148, 149, 150, 151, 152, 153, 154, 155, 156, 157, 158, 159, 160, 161, 162, 163, 164, 165, 166, 167, 168, 169, 170, 171, 172, 173, 174, 175, 176, 177, 178, 179, 180, 181, 182, 183, 184, 185, 186, 187, 188, 189, 190, 191, 192, 193, 194, 195, 196, 197, 198, 199, 200, 201, 202, 203, 204, 205, 206, 207, 208, 209, 210, 211, 212, 213, 214, 215, 216, 217, 218, 219, 220, 221, 222, 223, 224, 225, 226, 227, 228, 229, 230, 231, 232, 233, 234, 235, 236, 237, 238, 239, 240, 241, 242, 243, 244, 245, 246, 247, 248, 249, 250, 251, 252, 253, 254, 255, 256, 257, 258, 259, 260, 261, 262, 263, 264, 265, 266, 267, 268, 269, 270, 271, 272, 273, 274, 275, 276, 277, 278, 279, 280, 281, 282, 283, 284, 285, 286, 287, 288, 289, 290, 291, 292, 293, 294, 295, 296, 297, 298, 299, 300, 301, 302, 303, 304, 305, 306, 307, 308, 309, 310, 311, 312, 313, 314, 315, 316, 317, 318, 319, 320, 321, 322, 323, 324, 325, 326, 327, 328, 329, 330, 331, 332, 333, 334, 335, 336, 337, 338, 339, 340, 341, 342, 343, 344, 345, 346, 347, 348, 349, 350, 351, 352, 353, 354, 355, 356, 357, 358, 359, 360, 361, 362, 363, 364, 365, 366, 367, 368, 369, 370, 371, 372, 373, 374, 375, 376, 377, 378, 379, 380, 381, 382, 383, 384, 385, 386, 387, 388, 389, 390, 391, 392, 393],
