{
  "AcquisitionMatrixPE": 104,
  "AcquisitionNumber": 1,
  "AcquisitionTime": "16:00:25.830000",
  "BandwidthPerPixelPhaseEncode": 17.17,
  "BaseResolution": 104,
  "BodyPartExamined": "BRAIN",
  "CoilCombinationMethod": "Sum of Squares",
  "ConsistencyInfo": "N4_VE11C_LATEST_20160120",
  "ConversionSoftware": "dcm2niix",
  "ConversionSoftwareVersion": "v1.0.20220505",
  "DerivedVendorReportedEchoSpacing": 0.000560011,
  "DeviceSerialNumber": "167006",
  "DwellTime": 2.1e-06,
  "EchoTime": 0.037,
  "EchoTrainLength": 104,
  "EffectiveEchoSpacing": 0.000560011,
  "FlipAngle": 52,
  "HeudiconvVersion": "0.5.3.post811+g6206e14",
  "ImageComments": "Unaliased MB4/PE3/LB",
  "ImageOrientationPatientDICOM": [0.999471, -0.0323902, -0.00290718, 0.0287907, 0.922868, -0.384038],
  "ImageOrientationText": "Tra>Cor(-22.6)>Sag(-0.9)",
  "ImageType": [
    "ORIGINAL",
    "PRIMARY",
    "M",
    "MB",
    "ND",
    "MOSAIC"
],
  "ImagingFrequency": 123.259,
  "InPlanePhaseEncodingDirectionDICOM": "COL",
  "InstitutionAddress": "Chemin Queen-Mary 4565,Montreal,District,CA,H3W 1W5",
  "InstitutionName": "IUGM",
  "InstitutionalDepartmentName": "Department",
  "MRAcquisitionType": "2D",
  "MagneticFieldStrength": 3,
  "Manufacturer": "Siemens",
  "ManufacturersModelName": "Prisma_fit",
  "MatrixCoilMode": "SENSE",
  "Modality": "MR",
  "MultibandAccelerationFactor": 4,
  "PartialFourier": 1,
  "PatientPosition": "HFS",
  "PercentPhaseFOV": 100,
  "PercentSampling": 100,
  "PhaseEncodingDirection": "j",
  "PhaseEncodingSteps": 104,
  "PhaseResolution": 1,
  "PixelBandwidth": 2290,
  "ProcedureStepDescription": "games^mario3",
  "ProtocolName": "func_task-mario3_run-02",
  "PulseSequenceDetails": "%CustomerSeq%\\cmrr_mbep2d_bold",
  "ReceiveCoilActiveElements": "HC1-7;NC1,2",
  "ReceiveCoilName": "HeadNeck_64",
  "ReconMatrixPE": 104,
  "RepetitionTime": 1.49,
  "SAR": 0.0557735,
  "ScanOptions": "FS",
  "ScanningSequence": "EP",
  "SequenceName": "epfid2d1_104",
  "SequenceVariant": "SK\\SS",
  "SeriesDescription": "func_task-mario3_run-02",
  "SeriesNumber": 13,
  "ShimSetting": [623, -7255, -8819, 518, 2, -203, -114, -3],
  "SliceThickness": 2,
  "SliceTiming": [0, 0.7825, 0.0975, 0.8825, 0.195, 0.98, 0.2925, 1.0775, 0.3925, 1.175, 0.49, 1.2725, 0.5875, 1.3725, 0.685, 0, 0.7825, 0.0975, 0.8825, 0.195, 0.98, 0.2925, 1.0775, 0.3925, 1.175, 0.49, 1.2725, 0.5875, 1.3725, 0.685, 0, 0.7825, 0.0975, 0.8825, 0.195, 0.98, 0.2925, 1.0775, 0.3925, 1.175, 0.49, 1.2725, 0.5875, 1.3725, 0.685, 0, 0.7825, 0.0975, 0.8825, 0.195, 0.98, 0.2925, 1.0775, 0.3925, 1.175, 0.49, 1.2725, 0.5875, 1.3725, 0.685],
  "SoftwareVersions": "syngo MR E11",
  "SpacingBetweenSlices": 2,
  "StationName": "MRC35049",
  "TaskName": "mario3",
  "TotalReadoutTime": 0.0576811,
  "TxRefAmp": 251.2,
  "WipMemBlock": "c3d73607-bc70-4b24-9ec2-898b3548cc43||Sequence: R017 ve11c/master r/75a17815+; Jun 28 2022 16:32:11 by eja",
  "dcmmeta_affine": [
    [-1.9989421367645264, 0.057581305503845215, -0.030244046822190285, 104.54354858398438],
    [0.06478041410446167, 1.8457362651824951, -0.7675030827522278, -65.29047393798828],
    [-0.005814352072775364, 0.7680767178535461, 1.8466250896453857, -61.71562957763672],
    [0.0, 0.0, 0.0, 1.0]
],
  "dcmmeta_reorient_transform": [
    [0.0, -1.0, 0.0, 103.0],
    [1.0, 0.0, 0.0, 0.0],
    [0.0, 0.0, 1.0, 0.0],
    [0.0, 0.0, 0.0, 1.0]
],
  "dcmmeta_shape": [104, 104, 60, 345],
  "dcmmeta_slice_dim": 2,
  "dcmmeta_version": 0.6,
  "global": {
    "const": {
      "AcquisitionMatrix": [104, 0, 0, 104],
      "AngioFlag": "N",
      "BitsAllocated": 16,
      "BitsStored": 16,
      "BodyPartExamined": "BRAIN",
      "Columns": 832,
      "EchoNumbers": 1,
      "EchoTime": 37.0,
      "EchoTrainLength": 104,
      "FlipAngle": 52.0,
      "HighBit": 15,
      "ImageOrientationPatient": [0.99947107146709, -0.0323902088335, -0.0029071759742, 0.02879065331771, 0.92286815411183, -0.3840383684058],
      "ImagePositionPatient": [-859.0489606236, -773.08830949866, 299.09262931024],
      "ImageType": [
        "ORIGINAL",
        "PRIMARY",
        "M",
        "MB",
        "ND",
        "MOSAIC"
],
      "ImagedNucleus": "1H",
      "ImagingFrequency": 123.258762,
      "InPlanePhaseEncodingDirection": "COL",
      "MRAcquisitionType": "2D",
      "MagneticFieldStrength": 3.0,
      "Manufacturer": "SIEMENS",
      "ManufacturerModelName": "Prisma_fit",
      "Modality": "MR",
      "NumberOfAverages": 1.0,
      "NumberOfPhaseEncodingSteps": 104,
      "PercentPhaseFieldOfView": 100.0,
      "PercentSampling": 100.0,
      "PerformedProcedureStepStartTime": "154450.897000",
      "PhotometricInterpretation": "MONOCHROME2",
      "PixelBandwidth": 2290.0,
      "PixelRepresentation": 0,
      "PixelSpacing": [2.0, 2.0],
      "ProtocolName": "func_task-mario3_run-02",
      "RepetitionTime": 1490.0,
      "Rows": 832,
      "SAR": 0.05577352085657,
      "SamplesPerPixel": 1,
      "ScanOptions": "FS",
      "ScanningSequence": "EP",
      "SequenceName": "epfid2d1_104",
      "SequenceVariant": [
        "SK",
        "SS"
],
      "SeriesDescription": "func_task-mario3_run-02",
      "SeriesNumber": 13,
      "SeriesTime": "160132.543000",
      "SliceLocation": -33.508406906232,
      "SliceThickness": 2.0,
      "SmallestImagePixelValue": 0,
      "SoftwareVersions": "syngo MR E11",
      "SpacingBetweenSlices": 2.0000000237687,
      "SpecificCharacterSet": "ISO_IR 100",
      "StudyID": "1",
      "StudyTime": "154450.805000",
      "TransmitCoilName": "Body",
      "VariableFlipAngleFlag": "N",
      "WindowCenterWidthExplanation": "Algo1",
      "dBdt": 0.0},
    "slices": {}
  },
  "time": {
    "samples": {
      "AcquisitionNumber": [1, 2, 3, 4, 5, 6, 7, 8, 9, 10, 11, 12, 13, 14, 15, 16, 17, 18, 19, 20, 21, 22, 23, 24, 25, 26, 27, 28, 29, 30, 31, 32, 33, 34, 35, 36, 37, 38, 39, 40, 41, 42, 43, 44, 45, 46, 47, 48, 49, 50, 51, 52, 53, 54, 55, 56, 57, 58, 59, 60, 61, 62, 63, 64, 65, 66, 67, 68, 69, 70, 71, 72, 73, 74, 75, 76, 77, 78, 79, 80, 81, 82, 83, 84, 85, 86, 87, 88, 89, 90, 91, 92, 93, 94, 95, 96, 97, 98, 99, 100, 101, 102, 103, 104, 105, 106, 107, 108, 109, 110, 111, 112, 113, 114, 115, 116, 117, 118, 119, 120, 121, 122, 123, 124, 125, 126, 127, 128, 129, 130, 131, 132, 133, 134, 135, 136, 137, 138, 139, 140, 141, 142, 143, 144, 145, 146, 147, 148, 149, 150, 151, 152, 153, 154, 155, 156, 157, 158, 159, 160, 161, 162, 163, 164, 165, 166, 167, 168, 169, 170, 171, 172, 173, 174, 175, 176, 177, 178, 179, 180, 181, 182, 183, 184, 185, 186, 187, 188, 189, 190, 191, 192, 193, 194, 195, 196, 197, 198, 199, 200, 201, 202, 203, 204, 205, 206, 207, 208, 209, 210, 211, 212, 213, 214, 215, 216, 217, 218, 219, 220, 221, 222, 223, 224, 225, 226, 227, 228, 229, 230, 231, 232, 233, 234, 235, 236, 237, 238, 239, 240, 241, 242, 243, 244, 245, 246, 247, 248, 249, 250, 251, 252, 253, 254, 255, 256, 257, 258, 259, 260, 261, 262, 263, 264, 265, 266, 267, 268, 269, 270, 271, 272, 273, 274, 275, 276, 277, 278, 279, 280, 281, 282, 283, 284, 285, 286, 287, 288, 289, 290, 291, 292, 293, 294, 295, 296, 297, 298, 299, 300, 301, 302, 303, 304, 305, 306, 307, 308, 309, 310, 311, 312, 313, 314, 315, 316, 317, 318, 319, 320, 321, 322, 323, 324, 325, 326, 327, 328, 329, 330, 331, 332, 333, 334, 335, 336, 337, 338, 339, 340, 341, 342, 343, 344, 345],
      "AcquisitionTime": ["160025.830000", "160027.320000", "160028.810000", "160030.300000", "160031.790000", "160033.280000", "160034.770000", "160036.260000", "160037.750000", "160039.240000", "160040.730000", "160042.220000", "160043.710000", "160045.200000", "160046.690000", "160048.180000", "160049.670000", "160051.160000", "160052.650000", "160054.140000", "160055.630000", "160057.120000", "160058.610000", "160100.100000", "160101.590000", "160103.080000", "160104.570000", "160106.060000", "160107.550000", "160109.040000", "160110.530000", "160112.020000", "160113.510000", "160115.000000", "160116.490000", "160117.980000", "160119.470000", "160120.960000", "160122.450000", "160123.940000", "160125.430000", "160126.920000", "160128.410000", "160129.900000", "160131.390000", "160132.880000", "160134.370000", "160135.860000", "160137.350000", "160138.840000", "160140.330000", "160141.820000", "160143.310000", "160144.800000", "160146.290000", "160147.780000", "160149.270000", "160150.760000", "160152.250000", "160153.740000", "160155.230000", "160156.720000", "160158.210000", "160159.700000", "160201.190000", "160202.680000", "160204.170000", "160205.660000", "160207.150000", "160208.640000", "160210.130000", "160211.620000", "160213.110000", "160214.600000", "160216.090000", "160217.580000", "160219.070000", "160220.560000", "160222.050000", "160223.540000", "160225.030000", "160226.520000", "160228.010000", "160229.500000", "160230.990000", "160232.480000", "160233.970000", "160235.460000", "160236.950000", "160238.440000", "160239.930000", "160241.420000", "160242.910000", "160244.400000", "160245.890000", "160247.380000", "160248.870000", "160250.360000", "160251.850000", "160253.340000", "160254.830000", "160256.320000", "160257.810000", "160259.300000", "160300.790000", "160302.280000", "160303.770000", "160305.260000", "160306.750000", "160308.240000", "160309.730000", "160311.220000", "160312.710000", "160314.200000", "160315.690000", "160317.180000", "160318.670000", "160320.160000", "160321.650000", "160323.140000", "160324.630000", "160326.120000", "160327.610000", "160329.100000", "160330.590000", "160332.080000", "160333.570000", "160335.060000", "160336.550000", "160338.040000", "160339.530000", "160341.020000", "160342.510000", "160344.000000", "160345.490000", "160346.980000", "160348.470000", "160349.960000", "160351.450000", "160352.940000", "160354.430000", "160355.920000", "160357.410000", "160358.900000", "160400.390000", "160401.880000", "160403.370000", "160404.860000", "160406.350000", "160407.840000", "160409.330000", "160410.820000", "160412.310000", "160413.800000", "160415.290000", "160416.780000", "160418.270000", "160419.760000", "160421.250000", "160422.740000", "160424.230000", "160425.720000", "160427.210000", "160428.700000", "160430.190000", "160431.680000", "160433.170000", "160434.660000", "160436.150000", "160437.640000", "160439.130000", "160440.620000", "160442.110000", "160443.600000", "160445.090000", "160446.580000", "160448.070000", "160449.560000", "160451.050000", "160452.540000", "160454.030000", "160455.520000", "160457.010000", "160458.500000", "160459.990000", "160501.480000", "160502.970000", "160504.460000", "160505.950000", "160507.440000", "160508.930000", "160510.420000", "160511.910000", "160513.400000", "160514.890000", "160516.380000", "160517.870000", "160519.360000", "160520.850000", "160522.340000", "160523.830000", "160525.320000", "160526.810000", "160528.300000", "160529.790000", "160531.280000", "160532.770000", "160534.260000", "160535.750000", "160537.240000", "160538.730000", "160540.220000", "160541.710000", "160543.200000", "160544.690000", "160546.180000", "160547.670000", "160549.160000", "160550.650000", "160552.140000", "160553.630000", "160555.120000", "160556.610000", "160558.100000", "160559.590000", "160601.080000", "160602.570000", "160604.060000", "160605.550000", "160607.040000", "160608.530000", "160610.020000", "160611.510000", "160613.000000", "160614.490000", "160615.980000", "160617.470000", "160618.960000", "160620.450000", "160621.940000", "160623.430000", "160624.920000", "160626.410000", "160627.900000", "160629.390000", "160630.880000", "160632.370000", "160633.860000", "160635.350000", "160636.840000", "160638.330000", "160639.820000", "160641.310000", "160642.800000", "160644.290000", "160645.780000", "160647.270000", "160648.760000", "160650.250000", "160651.740000", "160653.230000", "160654.720000", "160656.210000", "160657.700000", "160659.190000", "160700.680000", "160702.170000", "160703.660000", "160705.150000", "160706.640000", "160708.130000", "160709.620000", "160711.110000", "160712.600000", "160714.090000", "160715.580000", "160717.070000", "160718.560000", "160720.050000", "160721.540000", "160723.030000", "160724.520000", "160726.010000", "160727.500000", "160728.990000", "160730.480000", "160731.970000", "160733.460000", "160734.950000", "160736.440000", "160737.930000", "160739.420000", "160740.910000", "160742.400000", "160743.890000", "160745.380000", "160746.870000", "160748.360000", "160749.850000", "160751.340000", "160752.830000", "160754.320000", "160755.810000", "160757.300000", "160758.790000", "160800.280000", "160801.770000", "160803.260000", "160804.750000", "160806.240000", "160807.730000", "160809.220000", "160810.710000", "160812.200000", "160813.690000", "160815.180000", "160816.670000", "160818.160000", "160819.650000", "160821.140000", "160822.630000", "160824.120000", "160825.610000", "160827.100000", "160828.590000", "160830.080000", "160831.570000", "160833.060000", "160834.550000", "160836.040000", "160837.530000", "160839.020000", "160840.510000", "160842.000000", "160843.490000", "160844.980000", "160846.470000", "160847.960000", "160849.450000", "160850.940000", "160852.430000", "160853.920000", "160855.410000", "160856.900000", "160858.390000"],
      "ContentTime": ["160132.546000", "160132.549000", "160132.553000", "160132.556000", "160132.559000", "160132.574000", "160132.578000", "160132.581000", "160132.584000", "160132.587000", "160132.591000", "160132.594000", "160132.597000", "160132.600000", "160132.604000", "160132.607000", "160132.610000", "160132.613000", "160152.505000", "160152.509000", "160152.512000", "160152.515000", "160152.518000", "160152.521000", "160152.525000", "160152.529000", "160152.533000", "160152.536000", "160152.539000", "160152.543000", "160152.547000", "160152.551000", "160152.554000", "160152.558000", "160152.561000", "160152.565000", "160152.568000", "160152.571000", "160212.505000", "160212.509000", "160212.512000", "160212.515000", "160212.518000", "160212.522000", "160212.525000", "160212.538000", "160212.541000", "160212.544000", "160212.547000", "160212.551000", "160212.554000", "160212.557000", "160212.560000", "160212.564000", "160212.567000", "160212.570000", "160212.573000", "160212.577000", "160212.580000", "160232.505000", "160232.509000", "160232.516000", "160232.519000", "160232.522000", "160232.525000", "160232.529000", "160232.532000", "160232.535000", "160232.538000", "160232.542000", "160232.545000", "160232.548000", "160232.552000", "160232.555000", "160232.558000", "160232.562000", "160232.565000", "160232.568000", "160232.572000", "160312.505000", "160312.509000", "160312.512000", "160312.515000", "160312.518000", "160312.522000", "160312.525000", "160312.528000", "160312.531000", "160312.535000", "160312.538000", "160312.541000", "160312.544000", "160312.548000", "160312.551000", "160312.554000", "160312.557000", "160312.561000", "160312.564000", "160312.567000", "160312.571000", "160312.574000", "160312.577000", "160312.580000", "160312.584000", "160312.587000", "160312.590000", "160312.593000", "160312.597000", "160312.600000", "160312.603000", "160312.606000", "160352.505000", "160352.509000", "160352.512000", "160352.515000", "160352.518000", "160352.522000", "160352.525000", "160352.528000", "160352.532000", "160352.535000", "160352.538000", "160352.541000", "160352.545000", "160352.548000", "160352.551000", "160352.555000", "160352.558000", "160352.562000", "160352.565000", "160352.568000", "160352.571000", "160352.575000", "160352.578000", "160352.581000", "160352.585000", "160352.588000", "160352.591000", "160432.505000", "160432.509000", "160432.512000", "160432.515000", "160432.535000", "160432.539000", "160432.542000", "160432.545000", "160432.548000", "160432.552000", "160432.555000", "160432.558000", "160432.562000", "160432.565000", "160432.568000", "160432.571000", "160432.574000", "160432.578000", "160432.587000", "160432.590000", "160432.594000", "160432.597000", "160432.600000", "160432.603000", "160432.607000", "160432.610000", "160432.613000", "160512.505000", "160512.509000", "160512.512000", "160512.515000", "160512.519000", "160512.522000", "160512.525000", "160512.528000", "160512.532000", "160512.535000", "160512.538000", "160512.542000", "160512.545000", "160512.548000", "160512.551000", "160512.555000", "160512.558000", "160512.562000", "160512.565000", "160512.570000", "160512.573000", "160512.577000", "160512.582000", "160512.585000", "160512.588000", "160512.592000", "160552.505000", "160552.509000", "160552.512000", "160552.516000", "160552.519000", "160552.522000", "160552.525000", "160552.529000", "160552.532000", "160552.535000", "160552.539000", "160552.542000", "160552.545000", "160552.549000", "160552.552000", "160552.555000", "160552.558000", "160552.562000", "160552.565000", "160552.569000", "160552.572000", "160552.575000", "160552.578000", "160552.582000", "160552.585000", "160552.588000", "160552.592000", "160632.505000", "160632.509000", "160632.512000", "160632.515000", "160632.519000", "160632.522000", "160632.525000", "160632.528000", "160632.532000", "160632.535000", "160632.538000", "160632.541000", "160632.545000", "160632.548000", "160632.551000", "160632.555000", "160632.558000", "160632.561000", "160632.565000", "160632.568000", "160632.571000", "160632.574000", "160632.578000", "160632.581000", "160632.593000", "160632.596000", "160632.600000", "160712.505000", "160712.509000", "160712.512000", "160712.515000", "160712.519000", "160712.522000", "160712.525000", "160712.528000", "160712.532000", "160712.535000", "160712.538000", "160712.542000", "160712.545000", "160712.548000", "160712.551000", "160712.555000", "160712.558000", "160712.561000", "160712.565000", "160712.568000", "160712.571000", "160712.575000", "160712.578000", "160712.581000", "160712.585000", "160712.588000", "160712.591000", "160752.505000", "160752.509000", "160752.512000", "160752.515000", "160752.519000", "160752.522000", "160752.525000", "160752.528000", "160752.532000", "160752.535000", "160752.538000", "160752.542000", "160752.545000", "160752.548000", "160752.551000", "160752.555000", "160752.558000", "160752.562000", "160752.565000", "160752.568000", "160752.571000", "160752.575000", "160752.578000", "160752.581000", "160752.585000", "160752.588000", "160752.591000", "160832.505000", "160832.509000", "160832.512000", "160832.516000", "160832.519000", "160832.522000", "160832.525000", "160832.529000", "160832.532000", "160832.535000", "160832.538000", "160832.542000", "160832.545000", "160832.548000", "160832.551000", "160832.555000", "160832.558000", "160832.561000", "160832.565000", "160832.568000", "160832.571000", "160832.574000", "160832.578000", "160832.581000", "160832.584000", "160832.587000", "160832.591000", "160901.068000", "160901.072000", "160901.076000", "160901.079000", "160901.083000", "160901.099000", "160901.103000", "160901.106000", "160901.110000", "160901.113000", "160901.117000", "160901.120000", "160901.123000", "160901.127000", "160901.130000", "160901.133000", "160901.137000", "160901.140000", "160901.143000"],
      "InstanceCreationTime": ["160132.546000", "160132.549000", "160132.553000", "160132.556000", "160132.559000", "160132.574000", "160132.578000", "160132.581000", "160132.584000", "160132.587000", "160132.591000", "160132.594000", "160132.597000", "160132.600000", "160132.604000", "160132.607000", "160132.610000", "160132.613000", "160152.505000", "160152.509000", "160152.512000", "160152.515000", "160152.518000", "160152.521000", "160152.525000", "160152.529000", "160152.533000", "160152.536000", "160152.539000", "160152.543000", "160152.547000", "160152.551000", "160152.554000", "160152.558000", "160152.561000", "160152.565000", "160152.568000", "160152.571000", "160212.505000", "160212.509000", "160212.512000", "160212.515000", "160212.518000", "160212.522000", "160212.525000", "160212.538000", "160212.541000", "160212.544000", "160212.547000", "160212.551000", "160212.554000", "160212.557000", "160212.560000", "160212.564000", "160212.567000", "160212.570000", "160212.573000", "160212.577000", "160212.580000", "160232.505000", "160232.509000", "160232.516000", "160232.519000", "160232.522000", "160232.525000", "160232.529000", "160232.532000", "160232.535000", "160232.538000", "160232.542000", "160232.545000", "160232.548000", "160232.552000", "160232.555000", "160232.558000", "160232.562000", "160232.565000", "160232.568000", "160232.572000", "160312.505000", "160312.509000", "160312.512000", "160312.515000", "160312.518000", "160312.522000", "160312.525000", "160312.528000", "160312.531000", "160312.535000", "160312.538000", "160312.541000", "160312.544000", "160312.548000", "160312.551000", "160312.554000", "160312.557000", "160312.561000", "160312.564000", "160312.567000", "160312.571000", "160312.574000", "160312.577000", "160312.580000", "160312.584000", "160312.587000", "160312.590000", "160312.593000", "160312.597000", "160312.600000", "160312.603000", "160312.606000", "160352.505000", "160352.509000", "160352.512000", "160352.515000", "160352.518000", "160352.522000", "160352.525000", "160352.528000", "160352.532000", "160352.535000", "160352.538000", "160352.541000", "160352.545000", "160352.548000", "160352.551000", "160352.555000", "160352.558000", "160352.562000", "160352.565000", "160352.568000", "160352.571000", "160352.575000", "160352.578000", "160352.581000", "160352.585000", "160352.588000", "160352.591000", "160432.505000", "160432.509000", "160432.512000", "160432.515000", "160432.535000", "160432.539000", "160432.542000", "160432.545000", "160432.548000", "160432.552000", "160432.555000", "160432.558000", "160432.562000", "160432.565000", "160432.568000", "160432.571000", "160432.574000", "160432.578000", "160432.587000", "160432.590000", "160432.594000", "160432.597000", "160432.600000", "160432.603000", "160432.607000", "160432.610000", "160432.613000", "160512.505000", "160512.509000", "160512.512000", "160512.515000", "160512.519000", "160512.522000", "160512.525000", "160512.528000", "160512.532000", "160512.535000", "160512.538000", "160512.542000", "160512.545000", "160512.548000", "160512.551000", "160512.555000", "160512.558000", "160512.562000", "160512.565000", "160512.570000", "160512.573000", "160512.577000", "160512.582000", "160512.585000", "160512.588000", "160512.592000", "160552.505000", "160552.509000", "160552.512000", "160552.516000", "160552.519000", "160552.522000", "160552.525000", "160552.529000", "160552.532000", "160552.535000", "160552.539000", "160552.542000", "160552.545000", "160552.549000", "160552.552000", "160552.555000", "160552.558000", "160552.562000", "160552.565000", "160552.569000", "160552.572000", "160552.575000", "160552.578000", "160552.582000", "160552.585000", "160552.588000", "160552.592000", "160632.505000", "160632.509000", "160632.512000", "160632.515000", "160632.519000", "160632.522000", "160632.525000", "160632.528000", "160632.532000", "160632.535000", "160632.538000", "160632.541000", "160632.545000", "160632.548000", "160632.551000", "160632.555000", "160632.558000", "160632.561000", "160632.565000", "160632.568000", "160632.571000", "160632.574000", "160632.578000", "160632.581000", "160632.593000", "160632.596000", "160632.600000", "160712.505000", "160712.509000", "160712.512000", "160712.515000", "160712.519000", "160712.522000", "160712.525000", "160712.528000", "160712.532000", "160712.535000", "160712.538000", "160712.542000", "160712.545000", "160712.548000", "160712.551000", "160712.555000", "160712.558000", "160712.561000", "160712.565000", "160712.568000", "160712.571000", "160712.575000", "160712.578000", "160712.581000", "160712.585000", "160712.588000", "160712.591000", "160752.505000", "160752.509000", "160752.512000", "160752.515000", "160752.519000", "160752.522000", "160752.525000", "160752.528000", "160752.532000", "160752.535000", "160752.538000", "160752.542000", "160752.545000", "160752.548000", "160752.551000", "160752.555000", "160752.558000", "160752.562000", "160752.565000", "160752.568000", "160752.571000", "160752.575000", "160752.578000", "160752.581000", "160752.585000", "160752.588000", "160752.591000", "160832.505000", "160832.509000", "160832.512000", "160832.516000", "160832.519000", "160832.522000", "160832.525000", "160832.529000", "160832.532000", "160832.535000", "160832.538000", "160832.542000", "160832.545000", "160832.548000", "160832.551000", "160832.555000", "160832.558000", "160832.561000", "160832.565000", "160832.568000", "160832.571000", "160832.574000", "160832.578000", "160832.581000", "160832.584000", "160832.587000", "160832.591000", "160901.068000", "160901.072000", "160901.076000", "160901.079000", "160901.083000", "160901.099000", "160901.103000", "160901.106000", "160901.110000", "160901.113000", "160901.117000", "160901.120000", "160901.123000", "160901.127000", "160901.130000", "160901.133000", "160901.137000", "160901.140000", "160901.143000"],
      "InstanceNumber": [1, 2, 3, 4, 5, 6, 7, 8, 9, 10, 11, 12, 13, 14, 15, 16, 17, 18, 19, 20, 21, 22, 23, 24, 25, 26, 27, 28, 29, 30, 31, 32, 33, 34, 35, 36, 37, 38, 39, 40, 41, 42, 43, 44, 45, 46, 47, 48, 49, 50, 51, 52, 53, 54, 55, 56, 57, 58, 59, 60, 61, 62, 63, 64, 65, 66, 67, 68, 69, 70, 71, 72, 73, 74, 75, 76, 77, 78, 79, 80, 81, 82, 83, 84, 85, 86, 87, 88, 89, 90, 91, 92, 93, 94, 95, 96, 97, 98, 99, 100, 101, 102, 103, 104, 105, 106, 107, 108, 109, 110, 111, 112, 113, 114, 115, 116, 117, 118, 119, 120, 121, 122, 123, 124, 125, 126, 127, 128, 129, 130, 131, 132, 133, 134, 135, 136, 137, 138, 139, 140, 141, 142, 143, 144, 145, 146, 147, 148, 149, 150, 151, 152, 153, 154, 155, 156, 157, 158, 159, 160, 161, 162, 163, 164, 165, 166, 167, 168, 169, 170, 171, 172, 173, 174, 175, 176, 177, 178, 179, 180, 181, 182, 183, 184, 185, 186, 187, 188, 189, 190, 191, 192, 193, 194, 195, 196, 197, 198, 199, 200, 201, 202, 203, 204, 205, 206, 207, 208, 209, 210, 211, 212, 213, 214, 215, 216, 217, 218, 219, 220, 221, 222, 223, 224, 225, 226, 227, 228, 229, 230, 231, 232, 233, 234, 235, 236, 237, 238, 239, 240, 241, 242, 243, 244, 245, 246, 247, 248, 249, 250, 251, 252, 253, 254, 255, 256, 257, 258, 259, 260, 261, 262, 263, 264, 265, 266, 267, 268, 269, 270, 271, 272, 273, 274, 275, 276, 277, 278, 279, 280, 281, 282, 283, 284, 285, 286, 287, 288, 289, 290, 291, 292, 293, 294, 295, 296, 297, 298, 299, 300, 301, 302, 303, 304, 305, 306, 307, 308, 309, 310, 311, 312, 313, 314, 315, 316, 317, 318, 319, 320, 321, 322, 323, 324, 325, 326, 327, 328, 329, 330, 331, 332, 333, 334, 335, 336, 337, 338, 339, 340, 341, 342, 343, 344, 345],
      "LargestImagePixelValue": [41249, 39299, 38522, 38167, 37884, 37672, 37982, 37643, 38093, 38283, 37954, 37925, 37778, 37666, 38397, 38122, 38464, 38688, 38465, 38211, 39056, 38807, 38423, 39337, 39240, 39078, 39084, 39243, 39413, 39120, 39316, 39489, 39065, 39132, 39498, 38506, 39780, 39553, 38065, 38683, 40019, 38892, 39164, 38999, 39898, 39586, 37695, 39919, 40948, 38924, 39117, 39334, 39649, 39352, 39202, 39336, 38812, 38397, 39242, 39399, 38931, 39068, 39662, 39468, 40218, 39215, 39331, 39946, 39696, 40170, 39091, 38796, 39232, 39805, 39782, 39865, 39892, 39644, 39244, 39547, 40005, 39746, 39947, 39118, 40148, 39102, 38883, 40096, 39776, 39596, 40073, 39848, 38903, 37937, 38983, 39320, 39572, 39512, 40328, 40157, 40419, 39611, 40334, 40406, 39925, 40218, 39407, 39523, 39738, 39920, 39785, 39735, 39789, 39961, 40253, 39934, 39966, 40107, 39719, 40571, 39608, 39847, 40447, 40310, 40097, 39865, 38807, 39973, 39083, 39472, 39005, 39681, 39717, 40323, 39326, 39779, 39248, 39642, 40083, 39390, 39494, 39584, 39349, 39131, 39461, 39617, 38271, 39045, 39664, 39993, 39895, 38084, 38753, 40068, 39849, 38258, 37779, 38135, 39584, 39451, 38454, 38299, 38060, 38465, 38047, 39318, 38774, 38379, 37905, 37711, 38134, 38253, 38857, 38880, 38960, 38273, 38613, 37907, 38244, 38048, 37985, 38731, 39443, 38174, 39227, 39122, 39712, 39149, 39376, 39243, 38674, 38309, 38687, 38298, 38927, 38890, 38191, 38850, 39489, 37773, 38555, 38695, 37895, 37593, 38065, 37845, 38044, 38134, 38241, 38409, 38342, 38082, 37632, 37934, 37533, 37628, 37440, 38037, 38098, 37996, 38641, 38580, 38592, 38154, 39010, 38567, 37782, 37592, 37780, 37299, 37730, 37930, 37919, 41366, 38428, 38412, 38205, 37785, 37660, 37892, 38262, 38249, 37803, 38580, 37792, 38109, 38124, 38547, 37966, 37576, 37678, 37768, 37773, 38227, 38493, 37686, 37989, 37883, 37909, 39412, 38780, 38652, 38745, 37708, 38606, 38360, 38822, 38885, 38415, 38811, 38134, 38709, 39418, 38950, 38305, 37874, 38661, 39388, 39414, 40844, 40828, 40194, 40529, 39504, 38934, 39768, 40721, 40907, 40583, 39641, 39658, 40527, 40108, 39912, 41150, 40401, 39594, 38999, 39429, 38619, 38466, 39764, 39371, 39791, 40015, 40279, 40185, 39026, 39668, 38571, 38965, 38706, 38883, 39005, 39154, 39645, 38866, 38394, 38575, 38050, 38416, 38749, 38295, 38378, 38691, 38695, 39754, 39032, 38488, 38108, 38606, 38434, 38529, 38725, 38183, 38277, 37775, 37878, 38179, 39554, 39299, 39526, 39433, 39488, 38683],
