{
  "AcquisitionMatrixPE": 104,
  "AcquisitionNumber": 1,
  "AcquisitionTime": "16:09:47.437500",
  "BandwidthPerPixelPhaseEncode": 17.17,
  "BaseResolution": 104,
  "BodyPartExamined": "BRAIN",
  "CoilCombinationMethod": "Sum of Squares",
  "ConsistencyInfo": "N4_VE11C_LATEST_20160120",
  "ConversionSoftware": "dcm2niix",
  "ConversionSoftwareVersion": "v1.0.20220505",
  "DerivedVendorReportedEchoSpacing": 0.000560011,
  "DeviceSerialNumber": "167006",
  "DwellTime": 2.1e-06,
  "EchoTime": 0.037,
  "EchoTrainLength": 104,
  "EffectiveEchoSpacing": 0.000560011,
  "FlipAngle": 52,
  "HeudiconvVersion": "0.5.3.post811+g6206e14",
  "ImageComments": "Unaliased MB4/PE3/LB",
  "ImageOrientationPatientDICOM": [0.999471, -0.0323902, -0.00290718, 0.0287907, 0.922868, -0.384038],
  "ImageOrientationText": "Tra>Cor(-22.6)>Sag(-0.9)",
  "ImageType": [
    "ORIGINAL",
    "PRIMARY",
    "M",
    "MB",
    "ND",
    "MOSAIC"
],
  "ImagingFrequency": 123.259,
  "InPlanePhaseEncodingDirectionDICOM": "COL",
  "InstitutionAddress": "Chemin Queen-Mary 4565,Montreal,District,CA,H3W 1W5",
  "InstitutionName": "IUGM",
  "InstitutionalDepartmentName": "Department",
  "MRAcquisitionType": "2D",
  "MagneticFieldStrength": 3,
  "Manufacturer": "Siemens",
  "ManufacturersModelName": "Prisma_fit",
  "MatrixCoilMode": "SENSE",
  "Modality": "MR",
  "MultibandAccelerationFactor": 4,
  "PartialFourier": 1,
  "PatientPosition": "HFS",
  "PercentPhaseFOV": 100,
  "PercentSampling": 100,
  "PhaseEncodingDirection": "j",
  "PhaseEncodingSteps": 104,
  "PhaseResolution": 1,
  "PixelBandwidth": 2290,
  "ProcedureStepDescription": "games^mario3",
  "ProtocolName": "func_task-mario3_run-03",
  "PulseSequenceDetails": "%CustomerSeq%\\cmrr_mbep2d_bold",
  "ReceiveCoilActiveElements": "HC1-7;NC1,2",
  "ReceiveCoilName": "HeadNeck_64",
  "ReconMatrixPE": 104,
  "RepetitionTime": 1.49,
  "SAR": 0.0557735,
  "ScanOptions": "FS",
  "ScanningSequence": "EP",
  "SequenceName": "epfid2d1_104",
  "SequenceVariant": "SK\\SS",
  "SeriesDescription": "func_task-mario3_run-03",
  "SeriesNumber": 16,
  "ShimSetting": [623, -7255, -8819, 518, 2, -203, -114, -3],
  "SliceThickness": 2,
  "SliceTiming": [0, 0.785, 0.1, 0.8825, 0.1975, 0.98, 0.295, 1.0775, 0.3925, 1.1775, 0.49, 1.275, 0.59, 1.3725, 0.6875, 0, 0.785, 0.1, 0.8825, 0.1975, 0.98, 0.295, 1.0775, 0.3925, 1.1775, 0.49, 1.275, 0.59, 1.3725, 0.6875, 0, 0.785, 0.1, 0.8825, 0.1975, 0.98, 0.295, 1.0775, 0.3925, 1.1775, 0.49, 1.275, 0.59, 1.3725, 0.6875, 0, 0.785, 0.1, 0.8825, 0.1975, 0.98, 0.295, 1.0775, 0.3925, 1.1775, 0.49, 1.275, 0.59, 1.3725, 0.6875],
  "SoftwareVersions": "syngo MR E11",
  "SpacingBetweenSlices": 2,
  "StationName": "MRC35049",
  "TaskName": "mario3",
  "TotalReadoutTime": 0.0576811,
  "TxRefAmp": 251.2,
  "WipMemBlock": "95f0451a-49cb-4ae5-89c3-4d164077f8e9||Sequence: R017 ve11c/master r/75a17815+; Jun 28 2022 16:32:11 by eja",
  "dcmmeta_affine": [
    [-1.9989421367645264, 0.057581305503845215, -0.030244046822190285, 104.54354858398438],
    [0.06478041410446167, 1.8457362651824951, -0.7675030827522278, -65.29047393798828],
    [-0.005814352072775364, 0.7680767178535461, 1.8466250896453857, -61.71562957763672],
    [0.0, 0.0, 0.0, 1.0]
],
  "dcmmeta_reorient_transform": [
    [0.0, -1.0, 0.0, 103.0],
    [1.0, 0.0, 0.0, 0.0],
    [0.0, 0.0, 1.0, 0.0],
    [0.0, 0.0, 0.0, 1.0]
],
  "dcmmeta_shape": [104, 104, 60, 311],
  "dcmmeta_slice_dim": 2,
  "dcmmeta_version": 0.6,
  "global": {
    "const": {
      "AcquisitionMatrix": [104, 0, 0, 104],
      "AngioFlag": "N",
      "BitsAllocated": 16,
      "BitsStored": 16,
      "BodyPartExamined": "BRAIN",
      "Columns": 832,
      "EchoNumbers": 1,
      "EchoTime": 37.0,
      "EchoTrainLength": 104,
      "FlipAngle": 52.0,
      "HighBit": 15,
      "ImageOrientationPatient": [0.99947107146709, -0.0323902088335, -0.0029071759742, 0.02879065331771, 0.92286815411183, -0.3840383684058],
      "ImagePositionPatient": [-859.0489606236, -773.08830949866, 299.09262931024],
      "ImageType": [
        "ORIGINAL",
        "PRIMARY",
        "M",
        "MB",
        "ND",
        "MOSAIC"
],
      "ImagedNucleus": "1H",
      "ImagingFrequency": 123.258764,
      "InPlanePhaseEncodingDirection": "COL",
      "MRAcquisitionType": "2D",
      "MagneticFieldStrength": 3.0,
      "Manufacturer": "SIEMENS",
      "ManufacturerModelName": "Prisma_fit",
      "Modality": "MR",
      "NumberOfAverages": 1.0,
      "NumberOfPhaseEncodingSteps": 104,
      "PercentPhaseFieldOfView": 100.0,
      "PercentSampling": 100.0,
      "PerformedProcedureStepStartTime": "154450.897000",
      "PhotometricInterpretation": "MONOCHROME2",
      "PixelBandwidth": 2290.0,
      "PixelRepresentation": 0,
      "PixelSpacing": [2.0, 2.0],
      "ProtocolName": "func_task-mario3_run-03",
      "RepetitionTime": 1490.0,
      "Rows": 832,
      "SAR": 0.05577352085657,
      "SamplesPerPixel": 1,
      "ScanOptions": "FS",
      "ScanningSequence": "EP",
      "SequenceName": "epfid2d1_104",
      "SequenceVariant": [
        "SK",
        "SS"
],
      "SeriesDescription": "func_task-mario3_run-03",
      "SeriesNumber": 16,
      "SeriesTime": "161046.818000",
      "SliceLocation": -33.508406906232,
      "SliceThickness": 2.0,
      "SmallestImagePixelValue": 0,
      "SoftwareVersions": "syngo MR E11",
      "SpacingBetweenSlices": 2.0000000237687,
      "SpecificCharacterSet": "ISO_IR 100",
      "StudyID": "1",
      "StudyTime": "154450.805000",
      "TransmitCoilName": "Body",
      "VariableFlipAngleFlag": "N",
      "WindowCenterWidthExplanation": "Algo1",
      "dBdt": 0.0},
    "slices": {}
  },
  "time": {
    "samples": {
      "AcquisitionNumber": [1, 2, 3, 4, 5, 6, 7, 8, 9, 10, 11, 12, 13, 14, 15, 16, 17, 18, 19, 20, 21, 22, 23, 24, 25, 26, 27, 28, 29, 30, 31, 32, 33, 34, 35, 36, 37, 38, 39, 40, 41, 42, 43, 44, 45, 46, 47, 48, 49, 50, 51, 52, 53, 54, 55, 56, 57, 58, 59, 60, 61, 62, 63, 64, 65, 66, 67, 68, 69, 70, 71, 72, 73, 74, 75, 76, 77, 78, 79, 80, 81, 82, 83, 84, 85, 86, 87, 88, 89, 90, 91, 92, 93, 94, 95, 96, 97, 98, 99, 100, 101, 102, 103, 104, 105, 106, 107, 108, 109, 110, 111, 112, 113, 114, 115, 116, 117, 118, 119, 120, 121, 122, 123, 124, 125, 126, 127, 128, 129, 130, 131, 132, 133, 134, 135, 136, 137, 138, 139, 140, 141, 142, 143, 144, 145, 146, 147, 148, 149, 150, 151, 152, 153, 154, 155, 156, 157, 158, 159, 160, 161, 162, 163, 164, 165, 166, 167, 168, 169, 170, 171, 172, 173, 174, 175, 176, 177, 178, 179, 180, 181, 182, 183, 184, 185, 186, 187, 188, 189, 190, 191, 192, 193, 194, 195, 196, 197, 198, 199, 200, 201, 202, 203, 204, 205, 206, 207, 208, 209, 210, 211, 212, 213, 214, 215, 216, 217, 218, 219, 220, 221, 222, 223, 224, 225, 226, 227, 228, 229, 230, 231, 232, 233, 234, 235, 236, 237, 238, 239, 240, 241, 242, 243, 244, 245, 246, 247, 248, 249, 250, 251, 252, 253, 254, 255, 256, 257, 258, 259, 260, 261, 262, 263, 264, 265, 266, 267, 268, 269, 270, 271, 272, 273, 274, 275, 276, 277, 278, 279, 280, 281, 282, 283, 284, 285, 286, 287, 288, 289, 290, 291, 292, 293, 294, 295, 296, 297, 298, 299, 300, 301, 302, 303, 304, 305, 306, 307, 308, 309, 310, 311],
      "AcquisitionTime": ["160947.437500", "160948.927500", "160950.417500", "160951.907500", "160953.397500", "160954.887500", "160956.377500", "160957.867500", "160959.357500", "161000.847500", "161002.337500", "161003.827500", "161005.317500", "161006.807500", "161008.297500", "161009.787500", "161011.277500", "161012.767500", "161014.257500", "161015.747500", "161017.237500", "161018.727500", "161020.217500", "161021.707500", "161023.197500", "161024.687500", "161026.177500", "161027.667500", "161029.157500", "161030.647500", "161032.137500", "161033.627500", "161035.117500", "161036.607500", "161038.097500", "161039.587500", "161041.077500", "161042.567500", "161044.057500", "161045.547500", "161047.037500", "161048.527500", "161050.017500", "161051.507500", "161052.997500", "161054.487500", "161055.977500", "161057.467500", "161058.957500", "161100.447500", "161101.937500", "161103.427500", "161104.917500", "161106.407500", "161107.897500", "161109.387500", "161110.877500", "161112.367500", "161113.857500", "161115.347500", "161116.837500", "161118.327500", "161119.817500", "161121.307500", "161122.797500", "161124.287500", "161125.777500", "161127.267500", "161128.757500", "161130.247500", "161131.737500", "161133.227500", "161134.717500", "161136.207500", "161137.697500", "161139.187500", "161140.677500", "161142.167500", "161143.657500", "161145.147500", "161146.637500", "161148.127500", "161149.617500", "161151.107500", "161152.597500", "161154.087500", "161155.577500", "161157.067500", "161158.557500", "161200.047500", "161201.537500", "161203.027500", "161204.517500", "161206.007500", "161207.497500", "161208.987500", "161210.477500", "161211.967500", "161213.457500", "161214.947500", "161216.437500", "161217.927500", "161219.417500", "161220.907500", "161222.397500", "161223.887500", "161225.377500", "161226.867500", "161228.357500", "161229.847500", "161231.337500", "161232.827500", "161234.317500", "161235.807500", "161237.297500", "161238.787500", "161240.277500", "161241.767500", "161243.257500", "161244.747500", "161246.237500", "161247.727500", "161249.217500", "161250.707500", "161252.197500", "161253.687500", "161255.177500", "161256.667500", "161258.157500", "161259.647500", "161301.137500", "161302.627500", "161304.117500", "161305.607500", "161307.097500", "161308.587500", "161310.077500", "161311.567500", "161313.057500", "161314.547500", "161316.037500", "161317.527500", "161319.017500", "161320.507500", "161321.997500", "161323.487500", "161324.977500", "161326.467500", "161327.957500", "161329.447500", "161330.937500", "161332.427500", "161333.917500", "161335.407500", "161336.897500", "161338.387500", "161339.877500", "161341.367500", "161342.857500", "161344.347500", "161345.837500", "161347.327500", "161348.817500", "161350.307500", "161351.797500", "161353.287500", "161354.777500", "161356.267500", "161357.757500", "161359.247500", "161400.737500", "161402.227500", "161403.717500", "161405.207500", "161406.697500", "161408.187500", "161409.677500", "161411.167500", "161412.657500", "161414.147500", "161415.637500", "161417.127500", "161418.617500", "161420.107500", "161421.597500", "161423.087500", "161424.577500", "161426.067500", "161427.557500", "161429.047500", "161430.537500", "161432.027500", "161433.517500", "161435.007500", "161436.497500", "161437.987500", "161439.477500", "161440.967500", "161442.457500", "161443.947500", "161445.437500", "161446.927500", "161448.417500", "161449.907500", "161451.397500", "161452.887500", "161454.377500", "161455.867500", "161457.357500", "161458.847500", "161500.337500", "161501.827500", "161503.317500", "161504.807500", "161506.297500", "161507.787500", "161509.277500", "161510.767500", "161512.257500", "161513.747500", "161515.237500", "161516.727500", "161518.217500", "161519.707500", "161521.197500", "161522.687500", "161524.177500", "161525.667500", "161527.157500", "161528.647500", "161530.137500", "161531.627500", "161533.117500", "161534.607500", "161536.097500", "161537.587500", "161539.077500", "161540.567500", "161542.057500", "161543.547500", "161545.037500", "161546.527500", "161548.017500", "161549.507500", "161550.997500", "161552.487500", "161553.977500", "161555.467500", "161556.957500", "161558.447500", "161559.937500", "161601.427500", "161602.917500", "161604.407500", "161605.897500", "161607.387500", "161608.877500", "161610.367500", "161611.857500", "161613.347500", "161614.837500", "161616.327500", "161617.817500", "161619.307500", "161620.797500", "161622.287500", "161623.777500", "161625.267500", "161626.757500", "161628.247500", "161629.737500", "161631.227500", "161632.717500", "161634.207500", "161635.697500", "161637.187500", "161638.677500", "161640.167500", "161641.657500", "161643.147500", "161644.637500", "161646.127500", "161647.617500", "161649.107500", "161650.597500", "161652.087500", "161653.577500", "161655.067500", "161656.557500", "161658.047500", "161659.537500", "161701.027500", "161702.517500", "161704.007500", "161705.497500", "161706.987500", "161708.477500", "161709.967500", "161711.457500", "161712.947500", "161714.437500", "161715.927500", "161717.417500", "161718.907500", "161720.397500", "161721.887500", "161723.377500", "161724.867500", "161726.357500", "161727.847500", "161729.337500"],
      "ContentTime": ["161046.823000", "161046.827000", "161046.838000", "161046.857000", "161046.861000", "161046.864000", "161046.867000", "161106.786000", "161106.790000", "161106.793000", "161106.796000", "161106.799000", "161106.803000", "161106.806000", "161106.809000", "161106.812000", "161106.816000", "161106.826000", "161106.829000", "161106.833000", "161106.836000", "161106.839000", "161106.842000", "161106.845000", "161106.849000", "161106.852000", "161106.855000", "161106.859000", "161126.787000", "161126.791000", "161126.794000", "161126.797000", "161126.811000", "161126.814000", "161126.817000", "161126.820000", "161126.824000", "161126.827000", "161126.830000", "161126.833000", "161126.837000", "161126.840000", "161126.843000", "161126.846000", "161126.850000", "161126.853000", "161126.856000", "161126.859000", "161146.787000", "161146.791000", "161146.794000", "161146.797000", "161146.800000", "161146.804000", "161146.807000", "161146.810000", "161146.813000", "161146.816000", "161146.820000", "161146.823000", "161146.826000", "161146.829000", "161146.833000", "161146.836000", "161146.839000", "161146.842000", "161146.846000", "161146.849000", "161206.787000", "161206.791000", "161206.804000", "161206.808000", "161206.811000", "161206.814000", "161206.817000", "161206.821000", "161206.824000", "161206.827000", "161206.830000", "161206.834000", "161206.837000", "161206.841000", "161206.846000", "161206.851000", "161206.854000", "161206.859000", "161206.862000", "161206.866000", "161246.786000", "161246.790000", "161246.793000", "161246.796000", "161246.800000", "161246.803000", "161246.806000", "161246.809000", "161246.813000", "161246.816000", "161246.819000", "161246.823000", "161246.826000", "161246.829000", "161246.832000", "161246.836000", "161246.839000", "161246.842000", "161246.845000", "161246.849000", "161246.852000", "161246.855000", "161246.858000", "161246.862000", "161246.865000", "161246.868000", "161246.872000", "161246.875000", "161246.878000", "161246.882000", "161246.885000", "161326.786000", "161326.790000", "161326.793000", "161326.796000", "161326.800000", "161326.803000", "161326.806000", "161326.809000", "161326.813000", "161326.816000", "161326.819000", "161326.822000", "161326.826000", "161326.829000", "161326.832000", "161326.835000", "161326.839000", "161326.842000", "161326.845000", "161326.848000", "161326.862000", "161326.865000", "161326.868000", "161326.872000", "161326.875000", "161326.878000", "161326.881000", "161406.787000", "161406.791000", "161406.794000", "161406.797000", "161406.801000", "161406.804000", "161406.807000", "161406.810000", "161406.814000", "161406.817000", "161406.820000", "161406.824000", "161406.827000", "161406.830000", "161406.833000", "161406.837000", "161406.840000", "161406.843000", "161406.847000", "161406.850000", "161406.853000", "161406.856000", "161406.860000", "161406.863000", "161406.866000", "161406.885000", "161406.888000", "161446.786000", "161446.790000", "161446.793000", "161446.796000", "161446.800000", "161446.803000", "161446.806000", "161446.809000", "161446.813000", "161446.816000", "161446.819000", "161446.822000", "161446.826000", "161446.829000", "161446.832000", "161446.836000", "161446.839000", "161446.842000", "161446.845000", "161446.849000", "161446.852000", "161446.855000", "161446.858000", "161446.862000", "161446.865000", "161446.868000", "161446.872000", "161526.787000", "161526.790000", "161526.793000", "161526.796000", "161526.800000", "161526.803000", "161526.806000", "161526.810000", "161526.813000", "161526.816000", "161526.819000", "161526.823000", "161526.826000", "161526.829000", "161526.832000", "161526.836000", "161526.839000", "161526.842000", "161526.846000", "161526.849000", "161526.852000", "161526.856000", "161526.859000", "161526.862000", "161526.865000", "161526.869000", "161526.872000", "161606.787000", "161606.791000", "161606.794000", "161606.797000", "161606.801000", "161606.804000", "161606.807000", "161606.811000", "161606.814000", "161606.817000", "161606.820000", "161606.833000", "161606.837000", "161606.840000", "161606.843000", "161606.847000", "161606.850000", "161606.853000", "161606.856000", "161606.860000", "161606.863000", "161606.866000", "161606.870000", "161606.873000", "161606.876000", "161606.879000", "161646.787000", "161646.791000", "161646.794000", "161646.797000", "161646.800000", "161646.804000", "161646.807000", "161646.824000", "161646.827000", "161646.830000", "161646.834000", "161646.837000", "161646.840000", "161646.843000", "161646.847000", "161646.850000", "161646.853000", "161646.856000", "161646.860000", "161646.863000", "161646.866000", "161646.869000", "161646.873000", "161646.876000", "161646.879000", "161646.882000", "161646.886000", "161726.786000", "161726.790000", "161726.793000", "161726.796000", "161726.800000", "161726.803000", "161726.807000", "161726.810000", "161726.813000", "161726.817000", "161726.820000", "161726.823000", "161726.826000", "161726.830000", "161726.833000", "161726.836000", "161726.839000", "161726.843000", "161726.846000", "161726.849000", "161726.852000", "161726.856000", "161726.859000", "161726.862000", "161726.866000", "161726.869000", "161726.872000", "161732.559000", "161732.563000", "161732.567000", "161732.570000"],
      "InstanceCreationTime": ["161046.823000", "161046.827000", "161046.838000", "161046.857000", "161046.861000", "161046.864000", "161046.867000", "161106.786000", "161106.790000", "161106.793000", "161106.796000", "161106.799000", "161106.803000", "161106.806000", "161106.809000", "161106.812000", "161106.816000", "161106.826000", "161106.829000", "161106.833000", "161106.836000", "161106.839000", "161106.842000", "161106.845000", "161106.849000", "161106.852000", "161106.855000", "161106.859000", "161126.787000", "161126.791000", "161126.794000", "161126.797000", "161126.811000", "161126.814000", "161126.817000", "161126.820000", "161126.824000", "161126.827000", "161126.830000", "161126.833000", "161126.837000", "161126.840000", "161126.843000", "161126.846000", "161126.850000", "161126.853000", "161126.856000", "161126.859000", "161146.787000", "161146.791000", "161146.794000", "161146.797000", "161146.800000", "161146.804000", "161146.807000", "161146.810000", "161146.813000", "161146.816000", "161146.820000", "161146.823000", "161146.826000", "161146.829000", "161146.833000", "161146.836000", "161146.839000", "161146.842000", "161146.846000", "161146.849000", "161206.787000", "161206.791000", "161206.804000", "161206.808000", "161206.811000", "161206.814000", "161206.817000", "161206.821000", "161206.824000", "161206.827000", "161206.830000", "161206.834000", "161206.837000", "161206.841000", "161206.846000", "161206.851000", "161206.854000", "161206.859000", "161206.862000", "161206.866000", "161246.786000", "161246.790000", "161246.793000", "161246.796000", "161246.800000", "161246.803000", "161246.806000", "161246.809000", "161246.813000", "161246.816000", "161246.819000", "161246.823000", "161246.826000", "161246.829000", "161246.832000", "161246.836000", "161246.839000", "161246.842000", "161246.845000", "161246.849000", "161246.852000", "161246.855000", "161246.858000", "161246.862000", "161246.865000", "161246.868000", "161246.872000", "161246.875000", "161246.878000", "161246.882000", "161246.885000", "161326.786000", "161326.790000", "161326.793000", "161326.796000", "161326.800000", "161326.803000", "161326.806000", "161326.809000", "161326.813000", "161326.816000", "161326.819000", "161326.822000", "161326.826000", "161326.829000", "161326.832000", "161326.835000", "161326.839000", "161326.842000", "161326.845000", "161326.848000", "161326.862000", "161326.865000", "161326.868000", "161326.872000", "161326.875000", "161326.878000", "161326.881000", "161406.787000", "161406.791000", "161406.794000", "161406.797000", "161406.801000", "161406.804000", "161406.807000", "161406.810000", "161406.814000", "161406.817000", "161406.820000", "161406.824000", "161406.827000", "161406.830000", "161406.833000", "161406.837000", "161406.840000", "161406.843000", "161406.847000", "161406.850000", "161406.853000", "161406.856000", "161406.860000", "161406.863000", "161406.866000", "161406.885000", "161406.888000", "161446.786000", "161446.790000", "161446.793000", "161446.796000", "161446.800000", "161446.803000", "161446.806000", "161446.809000", "161446.813000", "161446.816000", "161446.819000", "161446.822000", "161446.826000", "161446.829000", "161446.832000", "161446.836000", "161446.839000", "161446.842000", "161446.845000", "161446.849000", "161446.852000", "161446.855000", "161446.858000", "161446.862000", "161446.865000", "161446.868000", "161446.872000", "161526.787000", "161526.790000", "161526.793000", "161526.796000", "161526.800000", "161526.803000", "161526.806000", "161526.810000", "161526.813000", "161526.816000", "161526.819000", "161526.823000", "161526.826000", "161526.829000", "161526.832000", "161526.836000", "161526.839000", "161526.842000", "161526.846000", "161526.849000", "161526.852000", "161526.856000", "161526.859000", "161526.862000", "161526.865000", "161526.869000", "161526.872000", "161606.787000", "161606.791000", "161606.794000", "161606.797000", "161606.801000", "161606.804000", "161606.807000", "161606.811000", "161606.814000", "161606.817000", "161606.820000", "161606.833000", "161606.837000", "161606.840000", "161606.843000", "161606.847000", "161606.850000", "161606.853000", "161606.856000", "161606.860000", "161606.863000", "161606.866000", "161606.870000", "161606.873000", "161606.876000", "161606.879000", "161646.787000", "161646.791000", "161646.794000", "161646.797000", "161646.800000", "161646.804000", "161646.807000", "161646.824000", "161646.827000", "161646.830000", "161646.834000", "161646.837000", "161646.840000", "161646.843000", "161646.847000", "161646.850000", "161646.853000", "161646.856000", "161646.860000", "161646.863000", "161646.866000", "161646.869000", "161646.873000", "161646.876000", "161646.879000", "161646.882000", "161646.886000", "161726.786000", "161726.790000", "161726.793000", "161726.796000", "161726.800000", "161726.803000", "161726.807000", "161726.810000", "161726.813000", "161726.817000", "161726.820000", "161726.823000", "161726.826000", "161726.830000", "161726.833000", "161726.836000", "161726.839000", "161726.843000", "161726.846000", "161726.849000", "161726.852000", "161726.856000", "161726.859000", "161726.862000", "161726.866000", "161726.869000", "161726.872000", "161732.559000", "161732.563000", "161732.567000", "161732.570000"],
      "InstanceNumber": [1, 2, 3, 4, 5, 6, 7, 8, 9, 10, 11, 12, 13, 14, 15, 16, 17, 18, 19, 20, 21, 22, 23, 24, 25, 26, 27, 28, 29, 30, 31, 32, 33, 34, 35, 36, 37, 38, 39, 40, 41, 42, 43, 44, 45, 46, 47, 48, 49, 50, 51, 52, 53, 54, 55, 56, 57, 58, 59, 60, 61, 62, 63, 64, 65, 66, 67, 68, 69, 70, 71, 72, 73, 74, 75, 76, 77, 78, 79, 80, 81, 82, 83, 84, 85, 86, 87, 88, 89, 90, 91, 92, 93, 94, 95, 96, 97, 98, 99, 100, 101, 102, 103, 104, 105, 106, 107, 108, 109, 110, 111, 112, 113, 114, 115, 116, 117, 118, 119, 120, 121, 122, 123, 124, 125, 126, 127, 128, 129, 130, 131, 132, 133, 134, 135, 136, 137, 138, 139, 140, 141, 142, 143, 144, 145, 146, 147, 148, 149, 150, 151, 152, 153, 154, 155, 156, 157, 158, 159, 160, 161, 162, 163, 164, 165, 166, 167, 168, 169, 170, 171, 172, 173, 174, 175, 176, 177, 178, 179, 180, 181, 182, 183, 184, 185, 186, 187, 188, 189, 190, 191, 192, 193, 194, 195, 196, 197, 198, 199, 200, 201, 202, 203, 204, 205, 206, 207, 208, 209, 210, 211, 212, 213, 214, 215, 216, 217, 218, 219, 220, 221, 222, 223, 224, 225, 226, 227, 228, 229, 230, 231, 232, 233, 234, 235, 236, 237, 238, 239, 240, 241, 242, 243, 244, 245, 246, 247, 248, 249, 250, 251, 252, 253, 254, 255, 256, 257, 258, 259, 260, 261, 262, 263, 264, 265, 266, 267, 268, 269, 270, 271, 272, 273, 274, 275, 276, 277, 278, 279, 280, 281, 282, 283, 284, 285, 286, 287, 288, 289, 290, 291, 292, 293, 294, 295, 296, 297, 298, 299, 300, 301, 302, 303, 304, 305, 306, 307, 308, 309, 310, 311],
      "LargestImagePixelValue": [41906, 40434, 39939, 40081, 38705, 38577, 38787, 39087, 39242, 39316, 39181, 38723, 38881, 39368, 39222, 38686, 37859, 38342, 38893, 38728, 38803, 38567, 38813, 39041, 38231, 38237, 38521, 38693, 38050, 38366, 38348, 38329, 39181, 37609, 39230, 38652, 38556, 38589, 38621, 38868, 39081, 39355, 39775, 39692, 39070, 38356, 38527, 38378, 37879, 38079, 39189, 38087, 39182, 38675, 38152, 38483, 39457, 38762, 38611, 38746, 39346, 39609, 39376, 40077, 39153, 39027, 39125, 39267, 38951, 38936, 38843, 38855, 39164, 38587, 38512, 38657, 38478, 39020, 39029, 39898, 39101, 39560, 39102, 39211, 39557, 38282, 38830, 39134, 40751, 39391, 38340, 39435, 38563, 38976, 37903, 39756, 42196, 38255, 40638, 38742, 38151, 37352, 37672, 37038, 37145, 38647, 37956, 38415, 38196, 37867, 38610, 37957, 38584, 38739, 38914, 37997, 38775, 39090, 39163, 38463, 38583, 38931, 38920, 38738, 38728, 38394, 37708, 38029, 38232, 38823, 38735, 37309, 37900, 38419, 38231, 38069, 38279, 38599, 38139, 38581, 37967, 38159, 37800, 38277, 38021, 38375, 38131, 38248, 38505, 37988, 38358, 38082, 37957, 38751, 38353, 38348, 37798, 37901, 39025, 38511, 38341, 38792, 38325, 37236, 37759, 37468, 37857, 38060, 36763, 37365, 37909, 38414, 37781, 37520, 37102, 37056, 38424, 38203, 38061, 38022, 39211, 39221, 39268, 38567, 37576, 38648, 38686, 38745, 39042, 38902, 38622, 38694, 37944, 38767, 38808, 38842, 38356, 37947, 38542, 39434, 38997, 38765, 38927, 39393, 39963, 39910, 39660, 39733, 39460, 39443, 39882, 40221, 39805, 39589, 39705, 39686, 39839, 38951, 39866, 39516, 39332, 39187, 39961, 39292, 39603, 39733, 39832, 38756, 39105, 39310, 38890, 39565, 39654, 38229, 39431, 38217, 38779, 37781, 37873, 38461, 38405, 38059, 38283, 37331, 37984, 38156, 38620, 38663, 39390, 38558, 39426, 39476, 39426, 40051, 38871, 39062, 38663, 39917, 38883, 37559, 38726, 38875, 38334, 37827, 37749, 39042, 38618, 39046, 39224, 38654, 38557, 38524, 38438, 38605, 39309, 38781, 38676, 39266, 39247, 38859, 38875, 39042, 38035, 38884, 39533, 38547, 38757, 39361, 39002, 39547, 39072, 38548, 39719, 39652, 38119, 37771, 37531, 38310, 37252, 37917, 37958, 38137, 37751, 37626, 37715, 37790, 38092, 38099, 38036, 38194, 38066],
      "WindowCenter": [10214.0, 10164.0, 10142.0, 10134.0, 10131.0, 10149.0, 10147.0, 10146.0, 10169.0, 10181.0, 10174.0, 10154.0, 10172.0, 10181.0, 10180.0, 10161.0, 10131.0, 10120.0, 10128.0, 10142.0, 10186.0, 10149.0, 10142.0, 10146.0, 10126.0, 10111.0, 10137.0, 10144.0, 10126.0, 10159.0, 10160.0, 10142.0, 10183.0, 10063.0, 10173.0, 10165.0, 10169.0, 10169.0, 10136.0, 10134.0, 10125.0, 10097.0, 10106.0, 10126.0, 10160.0, 10081.0, 10139.0, 10132.0, 10153.0, 10172.0, 10156.0, 10118.0, 10114.0, 10074.0, 10039.0, 10028.0, 10054.0, 10092.0, 10112.0, 10086.0, 10072.0, 10073.0, 10083.0, 10124.0, 10139.0, 10145.0, 10125.0, 10105.0, 10096.0, 10111.0, 10139.0, 10162.0, 10188.0, 10148.0, 10149.0, 10155.0, 10176.0, 10168.0, 10154.0, 10092.0, 10147.0, 10162.0, 10161.0, 10143.0, 10125.0, 10146.0, 10145.0, 10154.0, 10161.0, 10151.0, 10145.0, 10156.0, 10131.0, 10132.0, 10109.0, 10156.0, 10159.0, 9994.0, 10043.0, 10013.0, 10092.0, 10129.0, 10116.0, 10079.0, 10054.0, 10059.0, 10028.0, 10026.0, 10050.0, 10061.0, 10110.0, 10086.0, 10059.0, 10060.0, 10070.0, 10108.0, 10115.0, 10098.0, 10091.0, 10091.0, 10080.0, 10062.0, 10034.0, 10025.0, 10047.0, 10062.0, 10109.0, 10123.0, 10100.0, 10095.0, 10100.0, 10104.0, 10121.0, 10160.0, 10160.0, 10140.0, 10137.0, 10170.0, 10179.0, 10180.0, 10147.0, 10130.0, 10115.0, 10120.0, 10114.0, 10117.0, 10127.0, 10142.0, 10155.0, 10146.0, 10130.0, 10129.0, 10151.0, 10170.0, 10173.0, 10145.0, 10131.0, 10130.0, 10139.0, 10142.0, 10133.0, 10130.0, 10112.0, 10103.0, 10107.0, 10108.0, 10097.0, 10110.0, 10100.0, 10103.0, 10058.0, 10031.0, 9997.0, 10078.0, 10152.0, 10160.0, 10184.0, 10155.0, 10111.0, 10008.0, 10036.0, 10049.0, 10077.0, 10094.0, 10062.0, 10033.0, 10023.0, 10035.0, 10051.0, 10061.0, 10065.0, 10053.0, 10042.0, 10058.0, 10060.0, 10068.0, 10084.0, 10088.0, 10100.0, 10130.0, 10135.0, 10119.0, 10093.0, 10089.0, 10102.0, 10117.0, 10122.0, 10092.0, 10076.0, 10060.0, 10069.0, 10087.0, 10111.0, 10134.0, 10165.0, 10136.0, 10128.0, 10132.0, 10154.0, 10183.0, 10166.0, 10120.0, 10106.0, 10091.0, 10113.0, 10108.0, 10099.0, 10115.0, 10149.0, 10146.0, 10096.0, 10078.0, 10062.0, 10036.0, 10124.0, 10091.0, 10061.0, 10037.0, 10021.0, 10014.0, 10015.0, 10016.0, 10039.0, 10037.0, 10055.0, 10034.0, 10082.0, 10125.0, 10141.0, 10120.0, 10148.0, 10134.0, 10149.0, 10102.0, 10168.0, 10178.0, 10203.0, 10081.0, 10162.0, 10134.0, 10167.0, 10135.0, 10137.0, 10121.0, 10099.0, 10075.0, 10072.0, 10068.0, 10067.0, 10055.0, 10067.0, 10065.0, 10050.0, 10095.0, 10112.0, 10086.0, 10113.0, 10102.0, 10092.0, 10058.0, 10110.0, 10113.0, 10081.0, 10061.0, 10091.0, 10065.0, 10099.0, 10090.0, 10048.0, 10089.0, 10042.0, 10069.0, 10111.0, 10070.0, 10072.0, 10069.0, 10084.0, 10099.0, 10067.0, 10057.0, 10038.0, 10042.0, 10062.0, 10058.0, 10040.0, 10024.0, 10031.0, 10047.0, 10065.0, 10083.0, 10097.0],
