{
  "AcquisitionMatrixPE": 104,
  "AcquisitionNumber": 1,
  "AcquisitionTime": "15:48:7.017500",
  "BandwidthPerPixelPhaseEncode": 17.17,
  "BaseResolution": 104,
  "BodyPartExamined": "BRAIN",
  "CoilCombinationMethod": "Sum of Squares",
  "ConsistencyInfo": "N4_VE11C_LATEST_20160120",
  "ConversionSoftware": "dcm2niix",
  "ConversionSoftwareVersion": "v1.0.20220505",
  "DerivedVendorReportedEchoSpacing": 0.000560011,
  "DeviceSerialNumber": "167006",
  "DwellTime": 2.1e-06,
  "EchoTime": 0.037,
  "EchoTime1": 0.037,
  "EchoTime2": 0.001,
  "EchoTrainLength": 104,
  "EffectiveEchoSpacing": 0.000560011,
  "FlipAngle": 52,
  "HeudiconvVersion": "0.5.3.post811+g6206e14",
  "ImageComments": "Unaliased MB4/PE3/LB",
  "ImageOrientationPatientDICOM": [0.999471, -0.0323902, -0.00290718, 0.0287907, 0.922868, -0.384038],
  "ImageOrientationText": "Tra>Cor(-22.6)>Sag(-0.9)",
  "ImageType": [
    "ORIGINAL",
    "PRIMARY",
    "P",
    "MB",
    "ND",
    "MOSAIC",
    "PHASE"
],
  "ImagingFrequency": 123.259,
  "InPlanePhaseEncodingDirectionDICOM": "COL",
  "InstitutionAddress": "Chemin Queen-Mary 4565,Montreal,District,CA,H3W 1W5",
  "InstitutionName": "IUGM",
  "InstitutionalDepartmentName": "Department",
  "MRAcquisitionType": "2D",
  "MagneticFieldStrength": 3,
  "Manufacturer": "Siemens",
  "ManufacturersModelName": "Prisma_fit",
  "MatrixCoilMode": "SENSE",
  "Modality": "MR",
  "MultibandAccelerationFactor": 4,
  "PartialFourier": 1,
  "PatientPosition": "HFS",
  "PercentPhaseFOV": 100,
  "PercentSampling": 100,
  "PhaseEncodingDirection": "j",
  "PhaseEncodingSteps": 104,
  "PhaseResolution": 1,
  "PixelBandwidth": 2290,
  "ProcedureStepDescription": "games^mario3",
  "ProtocolName": "func_task-mario3_run-01",
  "PulseSequenceDetails": "%CustomerSeq%\\cmrr_mbep2d_bold",
  "ReceiveCoilActiveElements": "HC1-7;NC1,2",
  "ReceiveCoilName": "HeadNeck_64",
  "ReconMatrixPE": 104,
  "RepetitionTime": 1.49,
  "SAR": 0.0557735,
  "ScanOptions": "FS",
  "ScanningSequence": "EP",
  "SequenceName": "epfid2d1_104",
  "SequenceVariant": "SK\\SS",
  "SeriesDescription": "func_task-mario3_run-01",
  "SeriesNumber": 11,
  "ShimSetting": [623, -7255, -8819, 518, 2, -203, -114, -3],
  "SliceThickness": 2,
  "SliceTiming": [0, 0.785, 0.1, 0.8825, 0.1975, 0.98, 0.295, 1.08, 0.3925, 1.1775, 0.49, 1.275, 0.59, 1.3725, 0.6875, 0, 0.785, 0.1, 0.8825, 0.1975, 0.98, 0.295, 1.08, 0.3925, 1.1775, 0.49, 1.275, 0.59, 1.3725, 0.6875, 0, 0.785, 0.1, 0.8825, 0.1975, 0.98, 0.295, 1.08, 0.3925, 1.1775, 0.49, 1.275, 0.59, 1.3725, 0.6875, 0, 0.785, 0.1, 0.8825, 0.1975, 0.98, 0.295, 1.08, 0.3925, 1.1775, 0.49, 1.275, 0.59, 1.3725, 0.6875],
  "SoftwareVersions": "syngo MR E11",
  "SpacingBetweenSlices": 2,
  "StationName": "MRC35049",
  "TaskName": "mario3",
  "TotalReadoutTime": 0.0576811,
  "TxRefAmp": 251.2,
  "WipMemBlock": "1fc51bd6-250b-4322-a178-eb244b6ecda0||Sequence: R017 ve11c/master r/75a17815+; Jun 28 2022 16:32:11 by eja",
  "dcmmeta_affine": [
    [-1.9989421367645264, 0.057581305503845215, -0.030244046822190285, 104.54354858398438],
    [0.06478041410446167, 1.8457362651824951, -0.7675030827522278, -65.29047393798828],
    [-0.005814352072775364, 0.7680767178535461, 1.8466250896453857, -61.71562957763672],
    [0.0, 0.0, 0.0, 1.0]
],
  "dcmmeta_reorient_transform": [
    [0.0, -1.0, 0.0, 103.0],
    [1.0, 0.0, 0.0, 0.0],
    [0.0, 0.0, 1.0, 0.0],
    [0.0, 0.0, 0.0, 1.0]
],
  "dcmmeta_shape": [104, 104, 60, 367],
  "dcmmeta_slice_dim": 2,
  "dcmmeta_version": 0.6,
  "global": {
    "const": {
      "AcquisitionMatrix": [104, 0, 0, 104],
      "AngioFlag": "N",
      "BitsAllocated": 16,
      "BitsStored": 16,
      "BodyPartExamined": "BRAIN",
      "Columns": 832,
      "EchoNumbers": 1,
      "EchoTime": 37.0,
      "EchoTrainLength": 104,
      "FlipAngle": 52.0,
      "HighBit": 15,
      "ImageOrientationPatient": [0.99947107146709, -0.0323902088335, -0.0029071759742, 0.02879065331771, 0.92286815411183, -0.3840383684058],
      "ImagePositionPatient": [-859.0489606236, -773.08830949866, 299.09262931024],
      "ImageType": [
        "ORIGINAL",
        "PRIMARY",
        "P",
        "MB",
        "ND",
        "MOSAIC"
],
      "ImagedNucleus": "1H",
      "ImagingFrequency": 123.258756,
      "InPlanePhaseEncodingDirection": "COL",
      "LargestImagePixelValue": 4095,
      "MRAcquisitionType": "2D",
      "MagneticFieldStrength": 3.0,
      "Manufacturer": "SIEMENS",
      "ManufacturerModelName": "Prisma_fit",
      "Modality": "MR",
      "NumberOfAverages": 1.0,
      "NumberOfPhaseEncodingSteps": 104,
      "PercentPhaseFieldOfView": 100.0,
      "PercentSampling": 100.0,
      "PerformedProcedureStepStartTime": "154450.897000",
      "PhotometricInterpretation": "MONOCHROME2",
      "PixelBandwidth": 2290.0,
      "PixelRepresentation": 0,
      "PixelSpacing": [2.0, 2.0],
      "ProtocolName": "func_task-mario3_run-01",
      "RepetitionTime": 1490.0,
      "RescaleIntercept": -4096.0,
      "RescaleSlope": 2.0,
      "RescaleType": "US",
      "Rows": 832,
      "SAR": 0.05577352085657,
      "SamplesPerPixel": 1,
      "ScanOptions": "FS",
      "ScanningSequence": "EP",
      "SequenceName": "epfid2d1_104",
      "SequenceVariant": [
        "SK",
        "SS"
],
      "SeriesDescription": "func_task-mario3_run-01",
      "SeriesNumber": 11,
      "SeriesTime": "154932.987000",
      "SliceLocation": -33.508406906232,
      "SliceThickness": 2.0,
      "SmallestImagePixelValue": 0,
      "SoftwareVersions": "syngo MR E11",
      "SpacingBetweenSlices": 2.0000000237687,
      "SpecificCharacterSet": "ISO_IR 100",
      "StudyID": "1",
      "StudyTime": "154450.805000",
      "TransmitCoilName": "Body",
      "VariableFlipAngleFlag": "N",
      "WindowCenterWidthExplanation": "Algo1",
      "dBdt": 0.0},
    "slices": {}
  },
  "time": {
    "samples": {
      "AcquisitionNumber": [1, 2, 3, 4, 5, 6, 7, 8, 9, 10, 11, 12, 13, 14, 15, 16, 17, 18, 19, 20, 21, 22, 23, 24, 25, 26, 27, 28, 29, 30, 31, 32, 33, 34, 35, 36, 37, 38, 39, 40, 41, 42, 43, 44, 45, 46, 47, 48, 49, 50, 51, 52, 53, 54, 55, 56, 57, 58, 59, 60, 61, 62, 63, 64, 65, 66, 67, 68, 69, 70, 71, 72, 73, 74, 75, 76, 77, 78, 79, 80, 81, 82, 83, 84, 85, 86, 87, 88, 89, 90, 91, 92, 93, 94, 95, 96, 97, 98, 99, 100, 101, 102, 103, 104, 105, 106, 107, 108, 109, 110, 111, 112, 113, 114, 115, 116, 117, 118, 119, 120, 121, 122, 123, 124, 125, 126, 127, 128, 129, 130, 131, 132, 133, 134, 135, 136, 137, 138, 139, 140, 141, 142, 143, 144, 145, 146, 147, 148, 149, 150, 151, 152, 153, 154, 155, 156, 157, 158, 159, 160, 161, 162, 163, 164, 165, 166, 167, 168, 169, 170, 171, 172, 173, 174, 175, 176, 177, 178, 179, 180, 181, 182, 183, 184, 185, 186, 187, 188, 189, 190, 191, 192, 193, 194, 195, 196, 197, 198, 199, 200, 201, 202, 203, 204, 205, 206, 207, 208, 209, 210, 211, 212, 213, 214, 215, 216, 217, 218, 219, 220, 221, 222, 223, 224, 225, 226, 227, 228, 229, 230, 231, 232, 233, 234, 235, 236, 237, 238, 239, 240, 241, 242, 243, 244, 245, 246, 247, 248, 249, 250, 251, 252, 253, 254, 255, 256, 257, 258, 259, 260, 261, 262, 263, 264, 265, 266, 267, 268, 269, 270, 271, 272, 273, 274, 275, 276, 277, 278, 279, 280, 281, 282, 283, 284, 285, 286, 287, 288, 289, 290, 291, 292, 293, 294, 295, 296, 297, 298, 299, 300, 301, 302, 303, 304, 305, 306, 307, 308, 309, 310, 311, 312, 313, 314, 315, 316, 317, 318, 319, 320, 321, 322, 323, 324, 325, 326, 327, 328, 329, 330, 331, 332, 333, 334, 335, 336, 337, 338, 339, 340, 341, 342, 343, 344, 345, 346, 347, 348, 349, 350, 351, 352, 353, 354, 355, 356, 357, 358, 359, 360, 361, 362, 363, 364, 365, 366, 367],
      "AcquisitionTime": ["154807.017500", "154808.507500", "154809.997500", "154811.487500", "154812.977500", "154814.467500", "154815.957500", "154817.447500", "154818.937500", "154820.427500", "154821.917500", "154823.407500", "154824.897500", "154826.387500", "154827.877500", "154829.367500", "154830.857500", "154832.347500", "154833.837500", "154835.327500", "154836.817500", "154838.307500", "154839.797500", "154841.287500", "154842.777500", "154844.267500", "154845.757500", "154847.247500", "154848.737500", "154850.227500", "154851.717500", "154853.207500", "154854.697500", "154856.187500", "154857.677500", "154859.167500", "154900.657500", "154902.147500", "154903.637500", "154905.127500", "154906.617500", "154908.107500", "154909.597500", "154911.087500", "154912.577500", "154914.067500", "154915.557500", "154917.047500", "154918.537500", "154920.027500", "154921.517500", "154923.007500", "154924.497500", "154925.987500", "154927.477500", "154928.967500", "154930.457500", "154931.947500", "154933.437500", "154934.927500", "154936.417500", "154937.907500", "154939.397500", "154940.887500", "154942.377500", "154943.867500", "154945.357500", "154946.847500", "154948.337500", "154949.827500", "154951.317500", "154952.807500", "154954.297500", "154955.787500", "154957.277500", "154958.767500", "155000.257500", "155001.747500", "155003.237500", "155004.727500", "155006.217500", "155007.707500", "155009.197500", "155010.687500", "155012.177500", "155013.667500", "155015.157500", "155016.647500", "155018.137500", "155019.627500", "155021.117500", "155022.607500", "155024.097500", "155025.587500", "155027.077500", "155028.567500", "155030.057500", "155031.547500", "155033.037500", "155034.527500", "155036.017500", "155037.507500", "155038.997500", "155040.487500", "155041.977500", "155043.467500", "155044.957500", "155046.447500", "155047.937500", "155049.427500", "155050.917500", "155052.407500", "155053.897500", "155055.387500", "155056.877500", "155058.367500", "155059.857500", "155101.347500", "155102.837500", "155104.327500", "155105.817500", "155107.307500", "155108.797500", "155110.287500", "155111.777500", "155113.267500", "155114.757500", "155116.247500", "155117.737500", "155119.227500", "155120.717500", "155122.207500", "155123.697500", "155125.187500", "155126.677500", "155128.167500", "155129.657500", "155131.147500", "155132.637500", "155134.127500", "155135.617500", "155137.107500", "155138.597500", "155140.087500", "155141.577500", "155143.067500", "155144.557500", "155146.047500", "155147.537500", "155149.027500", "155150.517500", "155152.007500", "155153.497500", "155154.987500", "155156.477500", "155157.967500", "155159.457500", "155200.947500", "155202.437500", "155203.927500", "155205.417500", "155206.907500", "155208.397500", "155209.887500", "155211.377500", "155212.867500", "155214.357500", "155215.847500", "155217.337500", "155218.827500", "155220.317500", "155221.807500", "155223.297500", "155224.787500", "155226.277500", "155227.767500", "155229.257500", "155230.747500", "155232.237500", "155233.727500", "155235.217500", "155236.707500", "155238.197500", "155239.687500", "155241.177500", "155242.667500", "155244.157500", "155245.647500", "155247.137500", "155248.627500", "155250.117500", "155251.607500", "155253.097500", "155254.587500", "155256.077500", "155257.567500", "155259.057500", "155300.547500", "155302.037500", "155303.527500", "155305.017500", "155306.507500", "155307.997500", "155309.487500", "155310.977500", "155312.467500", "155313.957500", "155315.447500", "155316.937500", "155318.427500", "155319.917500", "155321.407500", "155322.897500", "155324.387500", "155325.877500", "155327.367500", "155328.857500", "155330.347500", "155331.837500", "155333.327500", "155334.817500", "155336.307500", "155337.797500", "155339.287500", "155340.777500", "155342.267500", "155343.757500", "155345.247500", "155346.737500", "155348.227500", "155349.717500", "155351.207500", "155352.697500", "155354.187500", "155355.677500", "155357.167500", "155358.657500", "155400.147500", "155401.637500", "155403.127500", "155404.617500", "155406.107500", "155407.597500", "155409.087500", "155410.577500", "155412.067500", "155413.557500", "155415.047500", "155416.537500", "155418.027500", "155419.517500", "155421.007500", "155422.497500", "155423.987500", "155425.477500", "155426.967500", "155428.457500", "155429.947500", "155431.437500", "155432.927500", "155434.417500", "155435.907500", "155437.397500", "155438.887500", "155440.377500", "155441.867500", "155443.357500", "155444.847500", "155446.337500", "155447.827500", "155449.317500", "155450.807500", "155452.297500", "155453.787500", "155455.277500", "155456.767500", "155458.257500", "155459.747500", "155501.237500", "155502.727500", "155504.217500", "155505.707500", "155507.197500", "155508.687500", "155510.177500", "155511.667500", "155513.157500", "155514.647500", "155516.137500", "155517.627500", "155519.117500", "155520.607500", "155522.097500", "155523.587500", "155525.077500", "155526.567500", "155528.057500", "155529.547500", "155531.037500", "155532.527500", "155534.017500", "155535.507500", "155536.997500", "155538.487500", "155539.977500", "155541.467500", "155542.957500", "155544.447500", "155545.937500", "155547.427500", "155548.917500", "155550.407500", "155551.897500", "155553.387500", "155554.877500", "155556.367500", "155557.857500", "155559.347500", "155600.837500", "155602.327500", "155603.817500", "155605.307500", "155606.797500", "155608.287500", "155609.777500", "155611.267500", "155612.757500", "155614.247500", "155615.737500", "155617.227500", "155618.717500", "155620.207500", "155621.697500", "155623.187500", "155624.677500", "155626.167500", "155627.657500", "155629.147500", "155630.637500", "155632.127500", "155633.617500", "155635.107500", "155636.597500", "155638.087500", "155639.577500", "155641.067500", "155642.557500", "155644.047500", "155645.537500", "155647.027500", "155648.517500", "155650.007500", "155651.497500", "155652.987500", "155654.477500", "155655.967500", "155657.457500", "155658.947500", "155700.437500", "155701.927500", "155703.417500", "155704.907500", "155706.397500", "155707.887500", "155709.377500", "155710.867500", "155712.357500"],
      "ContentTime": ["154932.989000", "154932.992000", "154932.994000", "154932.997000", "154933.000000", "154933.003000", "154933.005000", "154933.008000", "154933.010000", "154933.013000", "154933.016000", "154933.019000", "154933.022000", "154933.024000", "154933.027000", "154933.030000", "154933.032000", "154933.035000", "154933.042000", "154933.045000", "154933.047000", "154933.050000", "154933.052000", "154933.054000", "154933.057000", "154933.059000", "154933.062000", "154933.064000", "154933.067000", "154933.069000", "154933.072000", "154933.074000", "154933.077000", "154933.079000", "154933.082000", "154933.084000", "154933.087000", "154933.089000", "154952.907000", "154952.910000", "154952.912000", "154952.915000", "154952.917000", "154952.920000", "154952.922000", "154952.925000", "154952.927000", "154952.930000", "154952.932000", "154952.935000", "154952.937000", "154952.939000", "154952.942000", "154952.944000", "154952.947000", "154952.949000", "154952.952000", "154952.954000", "155012.912000", "155012.915000", "155012.917000", "155012.920000", "155012.922000", "155012.925000", "155012.927000", "155012.930000", "155012.932000", "155012.935000", "155012.937000", "155012.940000", "155012.942000", "155012.945000", "155012.947000", "155012.949000", "155012.952000", "155012.954000", "155012.957000", "155012.959000", "155032.894000", "155032.896000", "155032.899000", "155032.902000", "155032.904000", "155032.907000", "155032.909000", "155032.912000", "155032.914000", "155032.917000", "155032.919000", "155032.922000", "155032.924000", "155032.927000", "155032.929000", "155032.932000", "155032.934000", "155032.937000", "155032.939000", "155112.931000", "155112.933000", "155112.936000", "155112.938000", "155112.941000", "155112.943000", "155112.946000", "155112.948000", "155112.951000", "155112.954000", "155112.956000", "155112.959000", "155112.961000", "155112.964000", "155112.966000", "155112.969000", "155112.971000", "155112.974000", "155112.976000", "155112.979000", "155112.981000", "155112.984000", "155112.986000", "155112.988000", "155112.991000", "155112.993000", "155112.996000", "155153.406000", "155153.409000", "155153.412000", "155153.414000", "155153.417000", "155153.419000", "155153.422000", "155153.424000", "155153.427000", "155153.429000", "155153.431000", "155153.434000", "155153.436000", "155153.439000", "155153.441000", "155153.444000", "155153.446000", "155153.449000", "155153.451000", "155153.454000", "155153.456000", "155153.459000", "155153.461000", "155153.464000", "155153.466000", "155153.469000", "155153.471000", "155232.930000", "155232.933000", "155232.935000", "155232.938000", "155232.940000", "155232.943000", "155232.945000", "155232.948000", "155232.950000", "155232.953000", "155232.955000", "155232.958000", "155232.960000", "155232.963000", "155232.965000", "155232.968000", "155232.970000", "155232.973000", "155232.975000", "155232.978000", "155232.980000", "155232.983000", "155232.985000", "155232.988000", "155232.990000", "155232.992000", "155232.995000", "155312.926000", "155312.929000", "155312.931000", "155312.934000", "155312.937000", "155312.939000", "155312.941000", "155312.944000", "155312.946000", "155312.949000", "155312.951000", "155312.954000", "155312.956000", "155312.959000", "155312.961000", "155312.964000", "155312.967000", "155312.969000", "155312.972000", "155312.974000", "155312.977000", "155312.979000", "155312.982000", "155312.984000", "155312.987000", "155312.989000", "155312.992000", "155352.985000", "155352.988000", "155352.990000", "155352.993000", "155352.995000", "155353.002000", "155353.005000", "155353.007000", "155353.010000", "155353.012000", "155353.015000", "155353.017000", "155353.020000", "155353.023000", "155353.025000", "155353.027000", "155353.030000", "155353.033000", "155353.035000", "155353.038000", "155353.040000", "155353.042000", "155353.045000", "155353.047000", "155353.050000", "155353.052000", "155432.939000", "155432.941000", "155432.944000", "155432.946000", "155432.949000", "155432.951000", "155432.954000", "155432.956000", "155432.959000", "155432.961000", "155432.964000", "155432.966000", "155432.969000", "155432.971000", "155432.974000", "155432.976000", "155432.979000", "155432.981000", "155432.983000", "155432.986000", "155432.988000", "155432.991000", "155432.994000", "155432.996000", "155432.999000", "155433.001000", "155433.004000", "155512.922000", "155512.925000", "155512.927000", "155512.930000", "155512.932000", "155512.935000", "155512.937000", "155512.940000", "155512.942000", "155512.945000", "155512.947000", "155512.950000", "155512.952000", "155512.955000", "155512.957000", "155512.960000", "155512.962000", "155512.965000", "155512.967000", "155512.969000", "155512.972000", "155512.975000", "155512.977000", "155512.980000", "155512.982000", "155512.985000", "155512.987000", "155552.942000", "155552.944000", "155552.947000", "155552.949000", "155552.952000", "155552.954000", "155552.957000", "155552.959000", "155552.962000", "155552.964000", "155552.967000", "155552.969000", "155552.972000", "155552.974000", "155552.977000", "155552.979000", "155552.982000", "155552.984000", "155552.987000", "155552.989000", "155552.992000", "155552.995000", "155552.997000", "155553.001000", "155553.003000", "155553.006000", "155553.008000", "155632.938000", "155632.941000", "155632.943000", "155632.946000", "155632.955000", "155632.958000", "155632.960000", "155632.963000", "155632.965000", "155632.968000", "155632.970000", "155632.973000", "155632.975000", "155632.978000", "155632.980000", "155632.983000", "155632.985000", "155632.988000", "155632.990000", "155632.993000", "155632.995000", "155632.998000", "155633.001000", "155633.004000", "155633.006000", "155633.009000", "155633.011000", "155712.941000", "155712.944000", "155712.947000", "155712.949000", "155712.952000", "155712.954000", "155712.956000", "155712.959000", "155712.961000", "155712.964000", "155712.966000", "155712.973000", "155712.975000", "155712.978000", "155712.980000", "155712.982000", "155712.985000", "155712.987000", "155712.990000", "155712.992000", "155712.995000", "155712.997000", "155713.001000", "155713.003000", "155713.006000", "155713.008000", "155713.011000", "155714.740000"],
      "InstanceCreationTime": ["154932.989000", "154932.992000", "154932.994000", "154932.997000", "154933.000000", "154933.003000", "154933.005000", "154933.008000", "154933.010000", "154933.013000", "154933.016000", "154933.019000", "154933.022000", "154933.024000", "154933.027000", "154933.030000", "154933.032000", "154933.035000", "154933.042000", "154933.045000", "154933.047000", "154933.050000", "154933.052000", "154933.054000", "154933.057000", "154933.059000", "154933.062000", "154933.064000", "154933.067000", "154933.069000", "154933.072000", "154933.074000", "154933.077000", "154933.079000", "154933.082000", "154933.084000", "154933.087000", "154933.089000", "154952.907000", "154952.910000", "154952.912000", "154952.915000", "154952.917000", "154952.920000", "154952.922000", "154952.925000", "154952.927000", "154952.930000", "154952.932000", "154952.935000", "154952.937000", "154952.939000", "154952.942000", "154952.944000", "154952.947000", "154952.949000", "154952.952000", "154952.954000", "155012.912000", "155012.915000", "155012.917000", "155012.920000", "155012.922000", "155012.925000", "155012.927000", "155012.930000", "155012.932000", "155012.935000", "155012.937000", "155012.940000", "155012.942000", "155012.945000", "155012.947000", "155012.949000", "155012.952000", "155012.954000", "155012.957000", "155012.959000", "155032.894000", "155032.896000", "155032.899000", "155032.902000", "155032.904000", "155032.907000", "155032.909000", "155032.912000", "155032.914000", "155032.917000", "155032.919000", "155032.922000", "155032.924000", "155032.927000", "155032.929000", "155032.932000", "155032.934000", "155032.937000", "155032.939000", "155112.931000", "155112.933000", "155112.936000", "155112.938000", "155112.941000", "155112.943000", "155112.946000", "155112.948000", "155112.951000", "155112.954000", "155112.956000", "155112.959000", "155112.961000", "155112.964000", "155112.966000", "155112.969000", "155112.971000", "155112.974000", "155112.976000", "155112.979000", "155112.981000", "155112.984000", "155112.986000", "155112.988000", "155112.991000", "155112.993000", "155112.996000", "155153.406000", "155153.409000", "155153.412000", "155153.414000", "155153.417000", "155153.419000", "155153.422000", "155153.424000", "155153.427000", "155153.429000", "155153.431000", "155153.434000", "155153.436000", "155153.439000", "155153.441000", "155153.444000", "155153.446000", "155153.449000", "155153.451000", "155153.454000", "155153.456000", "155153.459000", "155153.461000", "155153.464000", "155153.466000", "155153.469000", "155153.471000", "155232.930000", "155232.933000", "155232.935000", "155232.938000", "155232.940000", "155232.943000", "155232.945000", "155232.948000", "155232.950000", "155232.953000", "155232.955000", "155232.958000", "155232.960000", "155232.963000", "155232.965000", "155232.968000", "155232.970000", "155232.973000", "155232.975000", "155232.978000", "155232.980000", "155232.983000", "155232.985000", "155232.988000", "155232.990000", "155232.992000", "155232.995000", "155312.926000", "155312.929000", "155312.931000", "155312.934000", "155312.937000", "155312.939000", "155312.941000", "155312.944000", "155312.946000", "155312.949000", "155312.951000", "155312.954000", "155312.956000", "155312.959000", "155312.961000", "155312.964000", "155312.967000", "155312.969000", "155312.972000", "155312.974000", "155312.977000", "155312.979000", "155312.982000", "155312.984000", "155312.987000", "155312.989000", "155312.992000", "155352.985000", "155352.988000", "155352.990000", "155352.993000", "155352.995000", "155353.002000", "155353.005000", "155353.007000", "155353.010000", "155353.012000", "155353.015000", "155353.017000", "155353.020000", "155353.023000", "155353.025000", "155353.027000", "155353.030000", "155353.033000", "155353.035000", "155353.038000", "155353.040000", "155353.042000", "155353.045000", "155353.047000", "155353.050000", "155353.052000", "155432.939000", "155432.941000", "155432.944000", "155432.946000", "155432.949000", "155432.951000", "155432.954000", "155432.956000", "155432.959000", "155432.961000", "155432.964000", "155432.966000", "155432.969000", "155432.971000", "155432.974000", "155432.976000", "155432.979000", "155432.981000", "155432.983000", "155432.986000", "155432.988000", "155432.991000", "155432.994000", "155432.996000", "155432.999000", "155433.001000", "155433.004000", "155512.922000", "155512.925000", "155512.927000", "155512.930000", "155512.932000", "155512.935000", "155512.937000", "155512.940000", "155512.942000", "155512.945000", "155512.947000", "155512.950000", "155512.952000", "155512.955000", "155512.957000", "155512.960000", "155512.962000", "155512.965000", "155512.967000", "155512.969000", "155512.972000", "155512.975000", "155512.977000", "155512.980000", "155512.982000", "155512.985000", "155512.987000", "155552.942000", "155552.944000", "155552.947000", "155552.949000", "155552.952000", "155552.954000", "155552.957000", "155552.959000", "155552.962000", "155552.964000", "155552.967000", "155552.969000", "155552.972000", "155552.974000", "155552.977000", "155552.979000", "155552.982000", "155552.984000", "155552.987000", "155552.989000", "155552.992000", "155552.995000", "155552.997000", "155553.001000", "155553.003000", "155553.006000", "155553.008000", "155632.938000", "155632.941000", "155632.943000", "155632.946000", "155632.955000", "155632.958000", "155632.960000", "155632.963000", "155632.965000", "155632.968000", "155632.970000", "155632.973000", "155632.975000", "155632.978000", "155632.980000", "155632.983000", "155632.985000", "155632.988000", "155632.990000", "155632.993000", "155632.995000", "155632.998000", "155633.001000", "155633.004000", "155633.006000", "155633.009000", "155633.011000", "155712.941000", "155712.944000", "155712.947000", "155712.949000", "155712.952000", "155712.954000", "155712.956000", "155712.959000", "155712.961000", "155712.964000", "155712.966000", "155712.973000", "155712.975000", "155712.978000", "155712.980000", "155712.982000", "155712.985000", "155712.987000", "155712.990000", "155712.992000", "155712.995000", "155712.997000", "155713.001000", "155713.003000", "155713.006000", "155713.008000", "155713.011000", "155714.740000"],
      "InstanceNumber": [1, 2, 3, 4, 5, 6, 7, 8, 9, 10, 11, 12, 13, 14, 15, 16, 17, 18, 19, 20, 21, 22, 23, 24, 25, 26, 27, 28, 29, 30, 31, 32, 33, 34, 35, 36, 37, 38, 39, 40, 41, 42, 43, 44, 45, 46, 47, 48, 49, 50, 51, 52, 53, 54, 55, 56, 57, 58, 59, 60, 61, 62, 63, 64, 65, 66, 67, 68, 69, 70, 71, 72, 73, 74, 75, 76, 77, 78, 79, 80, 81, 82, 83, 84, 85, 86, 87, 88, 89, 90, 91, 92, 93, 94, 95, 96, 97, 98, 99, 100, 101, 102, 103, 104, 105, 106, 107, 108, 109, 110, 111, 112, 113, 114, 115, 116, 117, 118, 119, 120, 121, 122, 123, 124, 125, 126, 127, 128, 129, 130, 131, 132, 133, 134, 135, 136, 137, 138, 139, 140, 141, 142, 143, 144, 145, 146, 147, 148, 149, 150, 151, 152, 153, 154, 155, 156, 157, 158, 159, 160, 161, 162, 163, 164, 165, 166, 167, 168, 169, 170, 171, 172, 173, 174, 175, 176, 177, 178, 179, 180, 181, 182, 183, 184, 185, 186, 187, 188, 189, 190, 191, 192, 193, 194, 195, 196, 197, 198, 199, 200, 201, 202, 203, 204, 205, 206, 207, 208, 209, 210, 211, 212, 213, 214, 215, 216, 217, 218, 219, 220, 221, 222, 223, 224, 225, 226, 227, 228, 229, 230, 231, 232, 233, 234, 235, 236, 237, 238, 239, 240, 241, 242, 243, 244, 245, 246, 247, 248, 249, 250, 251, 252, 253, 254, 255, 256, 257, 258, 259, 260, 261, 262, 263, 264, 265, 266, 267, 268, 269, 270, 271, 272, 273, 274, 275, 276, 277, 278, 279, 280, 281, 282, 283, 284, 285, 286, 287, 288, 289, 290, 291, 292, 293, 294, 295, 296, 297, 298, 299, 300, 301, 302, 303, 304, 305, 306, 307, 308, 309, 310, 311, 312, 313, 314, 315, 316, 317, 318, 319, 320, 321, 322, 323, 324, 325, 326, 327, 328, 329, 330, 331, 332, 333, 334, 335, 336, 337, 338, 339, 340, 341, 342, 343, 344, 345, 346, 347, 348, 349, 350, 351, 352, 353, 354, 355, 356, 357, 358, 359, 360, 361, 362, 363, 364, 365, 366, 367],
