{
  "AcquisitionMatrixPE": 104,
  "AcquisitionNumber": 1,
  "AcquisitionTime": "16:00:25.830000",
  "BandwidthPerPixelPhaseEncode": 17.17,
  "BaseResolution": 104,
  "BodyPartExamined": "BRAIN",
  "CoilCombinationMethod": "Sum of Squares",
  "ConsistencyInfo": "N4_VE11C_LATEST_20160120",
  "ConversionSoftware": "dcm2niix",
  "ConversionSoftwareVersion": "v1.0.20220505",
  "DerivedVendorReportedEchoSpacing": 0.000560011,
  "DeviceSerialNumber": "167006",
  "DwellTime": 2.1e-06,
  "EchoTime": 0.037,
  "EchoTime1": 0.037,
  "EchoTime2": 0.001,
  "EchoTrainLength": 104,
  "EffectiveEchoSpacing": 0.000560011,
  "FlipAngle": 52,
  "HeudiconvVersion": "0.5.3.post811+g6206e14",
  "ImageComments": "Unaliased MB4/PE3/LB",
  "ImageOrientationPatientDICOM": [0.999471, -0.0323902, -0.00290718, 0.0287907, 0.922868, -0.384038],
  "ImageOrientationText": "Tra>Cor(-22.6)>Sag(-0.9)",
  "ImageType": [
    "ORIGINAL",
    "PRIMARY",
    "P",
    "MB",
    "ND",
    "MOSAIC",
    "PHASE"
],
  "ImagingFrequency": 123.259,
  "InPlanePhaseEncodingDirectionDICOM": "COL",
  "InstitutionAddress": "Chemin Queen-Mary 4565,Montreal,District,CA,H3W 1W5",
  "InstitutionName": "IUGM",
  "InstitutionalDepartmentName": "Department",
  "MRAcquisitionType": "2D",
  "MagneticFieldStrength": 3,
  "Manufacturer": "Siemens",
  "ManufacturersModelName": "Prisma_fit",
  "MatrixCoilMode": "SENSE",
  "Modality": "MR",
  "MultibandAccelerationFactor": 4,
  "PartialFourier": 1,
  "PatientPosition": "HFS",
  "PercentPhaseFOV": 100,
  "PercentSampling": 100,
  "PhaseEncodingDirection": "j",
  "PhaseEncodingSteps": 104,
  "PhaseResolution": 1,
  "PixelBandwidth": 2290,
  "ProcedureStepDescription": "games^mario3",
  "ProtocolName": "func_task-mario3_run-02",
  "PulseSequenceDetails": "%CustomerSeq%\\cmrr_mbep2d_bold",
  "ReceiveCoilActiveElements": "HC1-7;NC1,2",
  "ReceiveCoilName": "HeadNeck_64",
  "ReconMatrixPE": 104,
  "RepetitionTime": 1.49,
  "SAR": 0.0557735,
  "ScanOptions": "FS",
  "ScanningSequence": "EP",
  "SequenceName": "epfid2d1_104",
  "SequenceVariant": "SK\\SS",
  "SeriesDescription": "func_task-mario3_run-02",
  "SeriesNumber": 14,
  "ShimSetting": [623, -7255, -8819, 518, 2, -203, -114, -3],
  "SliceThickness": 2,
  "SliceTiming": [0, 0.7825, 0.0975, 0.8825, 0.195, 0.98, 0.2925, 1.0775, 0.3925, 1.175, 0.49, 1.2725, 0.5875, 1.3725, 0.685, 0, 0.7825, 0.0975, 0.8825, 0.195, 0.98, 0.2925, 1.0775, 0.3925, 1.175, 0.49, 1.2725, 0.5875, 1.3725, 0.685, 0, 0.7825, 0.0975, 0.8825, 0.195, 0.98, 0.2925, 1.0775, 0.3925, 1.175, 0.49, 1.2725, 0.5875, 1.3725, 0.685, 0, 0.7825, 0.0975, 0.8825, 0.195, 0.98, 0.2925, 1.0775, 0.3925, 1.175, 0.49, 1.2725, 0.5875, 1.3725, 0.685],
  "SoftwareVersions": "syngo MR E11",
  "SpacingBetweenSlices": 2,
  "StationName": "MRC35049",
  "TaskName": "mario3",
  "TotalReadoutTime": 0.0576811,
  "TxRefAmp": 251.2,
  "WipMemBlock": "c3d73607-bc70-4b24-9ec2-898b3548cc43||Sequence: R017 ve11c/master r/75a17815+; Jun 28 2022 16:32:11 by eja",
  "dcmmeta_affine": [
    [-1.9989421367645264, 0.057581305503845215, -0.030244046822190285, 104.54354858398438],
    [0.06478041410446167, 1.8457362651824951, -0.7675030827522278, -65.29047393798828],
    [-0.005814352072775364, 0.7680767178535461, 1.8466250896453857, -61.71562957763672],
    [0.0, 0.0, 0.0, 1.0]
],
  "dcmmeta_reorient_transform": [
    [0.0, -1.0, 0.0, 103.0],
    [1.0, 0.0, 0.0, 0.0],
    [0.0, 0.0, 1.0, 0.0],
    [0.0, 0.0, 0.0, 1.0]
],
  "dcmmeta_shape": [104, 104, 60, 345],
  "dcmmeta_slice_dim": 2,
  "dcmmeta_version": 0.6,
  "global": {
    "const": {
      "AcquisitionMatrix": [104, 0, 0, 104],
      "AngioFlag": "N",
      "BitsAllocated": 16,
      "BitsStored": 16,
      "BodyPartExamined": "BRAIN",
      "Columns": 832,
      "EchoNumbers": 1,
      "EchoTime": 37.0,
      "EchoTrainLength": 104,
      "FlipAngle": 52.0,
      "HighBit": 15,
      "ImageOrientationPatient": [0.99947107146709, -0.0323902088335, -0.0029071759742, 0.02879065331771, 0.92286815411183, -0.3840383684058],
      "ImagePositionPatient": [-859.0489606236, -773.08830949866, 299.09262931024],
      "ImageType": [
        "ORIGINAL",
        "PRIMARY",
        "P",
        "MB",
        "ND",
        "MOSAIC"
],
      "ImagedNucleus": "1H",
      "ImagingFrequency": 123.258762,
      "InPlanePhaseEncodingDirection": "COL",
      "LargestImagePixelValue": 4095,
      "MRAcquisitionType": "2D",
      "MagneticFieldStrength": 3.0,
      "Manufacturer": "SIEMENS",
      "ManufacturerModelName": "Prisma_fit",
      "Modality": "MR",
      "NumberOfAverages": 1.0,
      "NumberOfPhaseEncodingSteps": 104,
      "PercentPhaseFieldOfView": 100.0,
      "PercentSampling": 100.0,
      "PerformedProcedureStepStartTime": "154450.897000",
      "PhotometricInterpretation": "MONOCHROME2",
      "PixelBandwidth": 2290.0,
      "PixelRepresentation": 0,
      "PixelSpacing": [2.0, 2.0],
      "ProtocolName": "func_task-mario3_run-02",
      "RepetitionTime": 1490.0,
      "RescaleIntercept": -4096.0,
      "RescaleSlope": 2.0,
      "RescaleType": "US",
      "Rows": 832,
      "SAR": 0.05577352085657,
      "SamplesPerPixel": 1,
      "ScanOptions": "FS",
      "ScanningSequence": "EP",
      "SequenceName": "epfid2d1_104",
      "SequenceVariant": [
        "SK",
        "SS"
],
      "SeriesDescription": "func_task-mario3_run-02",
      "SeriesNumber": 14,
      "SeriesTime": "160132.665000",
      "SliceLocation": -33.508406906232,
      "SliceThickness": 2.0,
      "SmallestImagePixelValue": 0,
      "SoftwareVersions": "syngo MR E11",
      "SpacingBetweenSlices": 2.0000000237687,
      "SpecificCharacterSet": "ISO_IR 100",
      "StudyID": "1",
      "StudyTime": "154450.805000",
      "TransmitCoilName": "Body",
      "VariableFlipAngleFlag": "N",
      "WindowCenterWidthExplanation": "Algo1",
      "dBdt": 0.0},
    "slices": {}
  },
  "time": {
    "samples": {
      "AcquisitionNumber": [1, 2, 3, 4, 5, 6, 7, 8, 9, 10, 11, 12, 13, 14, 15, 16, 17, 18, 19, 20, 21, 22, 23, 24, 25, 26, 27, 28, 29, 30, 31, 32, 33, 34, 35, 36, 37, 38, 39, 40, 41, 42, 43, 44, 45, 46, 47, 48, 49, 50, 51, 52, 53, 54, 55, 56, 57, 58, 59, 60, 61, 62, 63, 64, 65, 66, 67, 68, 69, 70, 71, 72, 73, 74, 75, 76, 77, 78, 79, 80, 81, 82, 83, 84, 85, 86, 87, 88, 89, 90, 91, 92, 93, 94, 95, 96, 97, 98, 99, 100, 101, 102, 103, 104, 105, 106, 107, 108, 109, 110, 111, 112, 113, 114, 115, 116, 117, 118, 119, 120, 121, 122, 123, 124, 125, 126, 127, 128, 129, 130, 131, 132, 133, 134, 135, 136, 137, 138, 139, 140, 141, 142, 143, 144, 145, 146, 147, 148, 149, 150, 151, 152, 153, 154, 155, 156, 157, 158, 159, 160, 161, 162, 163, 164, 165, 166, 167, 168, 169, 170, 171, 172, 173, 174, 175, 176, 177, 178, 179, 180, 181, 182, 183, 184, 185, 186, 187, 188, 189, 190, 191, 192, 193, 194, 195, 196, 197, 198, 199, 200, 201, 202, 203, 204, 205, 206, 207, 208, 209, 210, 211, 212, 213, 214, 215, 216, 217, 218, 219, 220, 221, 222, 223, 224, 225, 226, 227, 228, 229, 230, 231, 232, 233, 234, 235, 236, 237, 238, 239, 240, 241, 242, 243, 244, 245, 246, 247, 248, 249, 250, 251, 252, 253, 254, 255, 256, 257, 258, 259, 260, 261, 262, 263, 264, 265, 266, 267, 268, 269, 270, 271, 272, 273, 274, 275, 276, 277, 278, 279, 280, 281, 282, 283, 284, 285, 286, 287, 288, 289, 290, 291, 292, 293, 294, 295, 296, 297, 298, 299, 300, 301, 302, 303, 304, 305, 306, 307, 308, 309, 310, 311, 312, 313, 314, 315, 316, 317, 318, 319, 320, 321, 322, 323, 324, 325, 326, 327, 328, 329, 330, 331, 332, 333, 334, 335, 336, 337, 338, 339, 340, 341, 342, 343, 344, 345],
      "AcquisitionTime": ["160025.830000", "160027.320000", "160028.810000", "160030.300000", "160031.790000", "160033.280000", "160034.770000", "160036.260000", "160037.750000", "160039.240000", "160040.730000", "160042.220000", "160043.710000", "160045.200000", "160046.690000", "160048.180000", "160049.670000", "160051.160000", "160052.650000", "160054.140000", "160055.630000", "160057.120000", "160058.610000", "160100.100000", "160101.590000", "160103.080000", "160104.570000", "160106.060000", "160107.550000", "160109.040000", "160110.530000", "160112.020000", "160113.510000", "160115.000000", "160116.490000", "160117.980000", "160119.470000", "160120.960000", "160122.450000", "160123.940000", "160125.430000", "160126.920000", "160128.410000", "160129.900000", "160131.390000", "160132.880000", "160134.370000", "160135.860000", "160137.350000", "160138.840000", "160140.330000", "160141.820000", "160143.310000", "160144.800000", "160146.290000", "160147.780000", "160149.270000", "160150.760000", "160152.250000", "160153.740000", "160155.230000", "160156.720000", "160158.210000", "160159.700000", "160201.190000", "160202.680000", "160204.170000", "160205.660000", "160207.150000", "160208.640000", "160210.130000", "160211.620000", "160213.110000", "160214.600000", "160216.090000", "160217.580000", "160219.070000", "160220.560000", "160222.050000", "160223.540000", "160225.030000", "160226.520000", "160228.010000", "160229.500000", "160230.990000", "160232.480000", "160233.970000", "160235.460000", "160236.950000", "160238.440000", "160239.930000", "160241.420000", "160242.910000", "160244.400000", "160245.890000", "160247.380000", "160248.870000", "160250.360000", "160251.850000", "160253.340000", "160254.830000", "160256.320000", "160257.810000", "160259.300000", "160300.790000", "160302.280000", "160303.770000", "160305.260000", "160306.750000", "160308.240000", "160309.730000", "160311.220000", "160312.710000", "160314.200000", "160315.690000", "160317.180000", "160318.670000", "160320.160000", "160321.650000", "160323.140000", "160324.630000", "160326.120000", "160327.610000", "160329.100000", "160330.590000", "160332.080000", "160333.570000", "160335.060000", "160336.550000", "160338.040000", "160339.530000", "160341.020000", "160342.510000", "160344.000000", "160345.490000", "160346.980000", "160348.470000", "160349.960000", "160351.450000", "160352.940000", "160354.430000", "160355.920000", "160357.410000", "160358.900000", "160400.390000", "160401.880000", "160403.370000", "160404.860000", "160406.350000", "160407.840000", "160409.330000", "160410.820000", "160412.310000", "160413.800000", "160415.290000", "160416.780000", "160418.270000", "160419.760000", "160421.250000", "160422.740000", "160424.230000", "160425.720000", "160427.210000", "160428.700000", "160430.190000", "160431.680000", "160433.170000", "160434.660000", "160436.150000", "160437.640000", "160439.130000", "160440.620000", "160442.110000", "160443.600000", "160445.090000", "160446.580000", "160448.070000", "160449.560000", "160451.050000", "160452.540000", "160454.030000", "160455.520000", "160457.010000", "160458.500000", "160459.990000", "160501.480000", "160502.970000", "160504.460000", "160505.950000", "160507.440000", "160508.930000", "160510.420000", "160511.910000", "160513.400000", "160514.890000", "160516.380000", "160517.870000", "160519.360000", "160520.850000", "160522.340000", "160523.830000", "160525.320000", "160526.810000", "160528.300000", "160529.790000", "160531.280000", "160532.770000", "160534.260000", "160535.750000", "160537.240000", "160538.730000", "160540.220000", "160541.710000", "160543.200000", "160544.690000", "160546.180000", "160547.670000", "160549.160000", "160550.650000", "160552.140000", "160553.630000", "160555.120000", "160556.610000", "160558.100000", "160559.590000", "160601.080000", "160602.570000", "160604.060000", "160605.550000", "160607.040000", "160608.530000", "160610.020000", "160611.510000", "160613.000000", "160614.490000", "160615.980000", "160617.470000", "160618.960000", "160620.450000", "160621.940000", "160623.430000", "160624.920000", "160626.410000", "160627.900000", "160629.390000", "160630.880000", "160632.370000", "160633.860000", "160635.350000", "160636.840000", "160638.330000", "160639.820000", "160641.310000", "160642.800000", "160644.290000", "160645.780000", "160647.270000", "160648.760000", "160650.250000", "160651.740000", "160653.230000", "160654.720000", "160656.210000", "160657.700000", "160659.190000", "160700.680000", "160702.170000", "160703.660000", "160705.150000", "160706.640000", "160708.130000", "160709.620000", "160711.110000", "160712.600000", "160714.090000", "160715.580000", "160717.070000", "160718.560000", "160720.050000", "160721.540000", "160723.030000", "160724.520000", "160726.010000", "160727.500000", "160728.990000", "160730.480000", "160731.970000", "160733.460000", "160734.950000", "160736.440000", "160737.930000", "160739.420000", "160740.910000", "160742.400000", "160743.890000", "160745.380000", "160746.870000", "160748.360000", "160749.850000", "160751.340000", "160752.830000", "160754.320000", "160755.810000", "160757.300000", "160758.790000", "160800.280000", "160801.770000", "160803.260000", "160804.750000", "160806.240000", "160807.730000", "160809.220000", "160810.710000", "160812.200000", "160813.690000", "160815.180000", "160816.670000", "160818.160000", "160819.650000", "160821.140000", "160822.630000", "160824.120000", "160825.610000", "160827.100000", "160828.590000", "160830.080000", "160831.570000", "160833.060000", "160834.550000", "160836.040000", "160837.530000", "160839.020000", "160840.510000", "160842.000000", "160843.490000", "160844.980000", "160846.470000", "160847.960000", "160849.450000", "160850.940000", "160852.430000", "160853.920000", "160855.410000", "160856.900000", "160858.390000"],
      "ContentTime": ["160132.667000", "160132.670000", "160132.672000", "160132.674000", "160132.677000", "160132.679000", "160132.682000", "160132.684000", "160132.687000", "160132.689000", "160132.692000", "160132.694000", "160132.697000", "160132.699000", "160132.706000", "160132.709000", "160132.711000", "160132.713000", "160152.641000", "160152.644000", "160152.646000", "160152.649000", "160152.651000", "160152.654000", "160152.656000", "160152.659000", "160152.661000", "160152.664000", "160152.666000", "160152.669000", "160152.671000", "160152.674000", "160152.676000", "160152.678000", "160152.681000", "160152.683000", "160152.686000", "160152.688000", "160212.635000", "160212.648000", "160212.651000", "160212.653000", "160212.656000", "160212.658000", "160212.661000", "160212.663000", "160212.666000", "160212.668000", "160212.671000", "160212.673000", "160212.676000", "160212.678000", "160212.681000", "160212.683000", "160212.685000", "160212.688000", "160212.690000", "160212.693000", "160212.695000", "160232.616000", "160232.618000", "160232.621000", "160232.623000", "160232.626000", "160232.628000", "160232.631000", "160232.633000", "160232.636000", "160232.638000", "160232.640000", "160232.643000", "160232.645000", "160232.648000", "160232.650000", "160232.653000", "160232.655000", "160232.658000", "160232.660000", "160232.663000", "160312.670000", "160312.672000", "160312.675000", "160312.677000", "160312.680000", "160312.682000", "160312.685000", "160312.687000", "160312.697000", "160312.699000", "160312.702000", "160312.704000", "160312.707000", "160312.709000", "160312.711000", "160312.714000", "160312.721000", "160312.727000", "160312.730000", "160312.732000", "160312.735000", "160312.737000", "160312.740000", "160312.742000", "160312.745000", "160312.747000", "160312.750000", "160312.752000", "160312.754000", "160312.757000", "160312.760000", "160312.762000", "160352.638000", "160352.640000", "160352.643000", "160352.646000", "160352.648000", "160352.651000", "160352.653000", "160352.656000", "160352.658000", "160352.661000", "160352.663000", "160352.666000", "160352.668000", "160352.671000", "160352.673000", "160352.676000", "160352.678000", "160352.681000", "160352.683000", "160352.686000", "160352.688000", "160352.691000", "160352.693000", "160352.696000", "160352.698000", "160352.701000", "160352.703000", "160432.674000", "160432.677000", "160432.679000", "160432.682000", "160432.684000", "160432.687000", "160432.689000", "160432.691000", "160432.694000", "160432.696000", "160432.699000", "160432.701000", "160432.704000", "160432.706000", "160432.709000", "160432.711000", "160432.714000", "160432.716000", "160432.719000", "160432.721000", "160432.724000", "160432.726000", "160432.729000", "160432.731000", "160432.734000", "160432.736000", "160432.739000", "160512.647000", "160512.650000", "160512.652000", "160512.655000", "160512.657000", "160512.660000", "160512.662000", "160512.665000", "160512.667000", "160512.670000", "160512.672000", "160512.675000", "160512.677000", "160512.680000", "160512.682000", "160512.685000", "160512.687000", "160512.690000", "160512.692000", "160512.695000", "160512.697000", "160512.699000", "160512.702000", "160512.704000", "160512.707000", "160512.709000", "160553.066000", "160553.068000", "160553.071000", "160553.074000", "160553.076000", "160553.079000", "160553.081000", "160553.084000", "160553.086000", "160553.089000", "160553.091000", "160553.094000", "160553.096000", "160553.099000", "160553.101000", "160553.104000", "160553.106000", "160553.108000", "160553.111000", "160553.113000", "160553.116000", "160553.118000", "160553.121000", "160553.123000", "160553.126000", "160553.128000", "160553.131000", "160632.652000", "160632.655000", "160632.657000", "160632.660000", "160632.662000", "160632.665000", "160632.667000", "160632.670000", "160632.672000", "160632.675000", "160632.677000", "160632.680000", "160632.682000", "160632.684000", "160632.687000", "160632.689000", "160632.692000", "160632.694000", "160632.697000", "160632.699000", "160632.702000", "160632.704000", "160632.707000", "160632.709000", "160632.712000", "160632.714000", "160632.716000", "160712.643000", "160712.645000", "160712.648000", "160712.650000", "160712.653000", "160712.655000", "160712.658000", "160712.660000", "160712.663000", "160712.665000", "160712.668000", "160712.670000", "160712.673000", "160712.675000", "160712.678000", "160712.680000", "160712.683000", "160712.685000", "160712.688000", "160712.691000", "160712.694000", "160712.696000", "160712.699000", "160712.701000", "160712.704000", "160712.706000", "160712.709000", "160752.639000", "160752.642000", "160752.644000", "160752.647000", "160752.649000", "160752.652000", "160752.654000", "160752.657000", "160752.659000", "160752.662000", "160752.664000", "160752.667000", "160752.669000", "160752.672000", "160752.674000", "160752.677000", "160752.679000", "160752.682000", "160752.684000", "160752.687000", "160752.689000", "160752.691000", "160752.694000", "160752.697000", "160752.699000", "160752.702000", "160752.704000", "160832.654000", "160832.657000", "160832.659000", "160832.662000", "160832.664000", "160832.667000", "160832.669000", "160832.672000", "160832.674000", "160832.676000", "160832.679000", "160832.681000", "160832.684000", "160832.686000", "160832.689000", "160832.691000", "160832.694000", "160832.696000", "160832.699000", "160832.701000", "160832.704000", "160832.706000", "160832.709000", "160832.711000", "160832.714000", "160832.716000", "160832.719000", "160901.194000", "160901.196000", "160901.199000", "160901.201000", "160901.204000", "160901.207000", "160901.209000", "160901.212000", "160901.214000", "160901.217000", "160901.219000", "160901.222000", "160901.224000", "160901.227000", "160901.230000", "160901.233000", "160901.235000", "160901.238000", "160901.241000"],
      "InstanceCreationTime": ["160132.667000", "160132.670000", "160132.672000", "160132.674000", "160132.677000", "160132.679000", "160132.682000", "160132.684000", "160132.687000", "160132.689000", "160132.692000", "160132.694000", "160132.697000", "160132.699000", "160132.706000", "160132.709000", "160132.711000", "160132.713000", "160152.641000", "160152.644000", "160152.646000", "160152.649000", "160152.651000", "160152.654000", "160152.656000", "160152.659000", "160152.661000", "160152.664000", "160152.666000", "160152.669000", "160152.671000", "160152.674000", "160152.676000", "160152.678000", "160152.681000", "160152.683000", "160152.686000", "160152.688000", "160212.635000", "160212.648000", "160212.651000", "160212.653000", "160212.656000", "160212.658000", "160212.661000", "160212.663000", "160212.666000", "160212.668000", "160212.671000", "160212.673000", "160212.676000", "160212.678000", "160212.681000", "160212.683000", "160212.685000", "160212.688000", "160212.690000", "160212.693000", "160212.695000", "160232.616000", "160232.618000", "160232.621000", "160232.623000", "160232.626000", "160232.628000", "160232.631000", "160232.633000", "160232.636000", "160232.638000", "160232.640000", "160232.643000", "160232.645000", "160232.648000", "160232.650000", "160232.653000", "160232.655000", "160232.658000", "160232.660000", "160232.663000", "160312.670000", "160312.672000", "160312.675000", "160312.677000", "160312.680000", "160312.682000", "160312.685000", "160312.687000", "160312.697000", "160312.699000", "160312.702000", "160312.704000", "160312.707000", "160312.709000", "160312.711000", "160312.714000", "160312.721000", "160312.727000", "160312.730000", "160312.732000", "160312.735000", "160312.737000", "160312.740000", "160312.742000", "160312.745000", "160312.747000", "160312.750000", "160312.752000", "160312.754000", "160312.757000", "160312.760000", "160312.762000", "160352.638000", "160352.640000", "160352.643000", "160352.646000", "160352.648000", "160352.651000", "160352.653000", "160352.656000", "160352.658000", "160352.661000", "160352.663000", "160352.666000", "160352.668000", "160352.671000", "160352.673000", "160352.676000", "160352.678000", "160352.681000", "160352.683000", "160352.686000", "160352.688000", "160352.691000", "160352.693000", "160352.696000", "160352.698000", "160352.701000", "160352.703000", "160432.674000", "160432.677000", "160432.679000", "160432.682000", "160432.684000", "160432.687000", "160432.689000", "160432.691000", "160432.694000", "160432.696000", "160432.699000", "160432.701000", "160432.704000", "160432.706000", "160432.709000", "160432.711000", "160432.714000", "160432.716000", "160432.719000", "160432.721000", "160432.724000", "160432.726000", "160432.729000", "160432.731000", "160432.734000", "160432.736000", "160432.739000", "160512.647000", "160512.650000", "160512.652000", "160512.655000", "160512.657000", "160512.660000", "160512.662000", "160512.665000", "160512.667000", "160512.670000", "160512.672000", "160512.675000", "160512.677000", "160512.680000", "160512.682000", "160512.685000", "160512.687000", "160512.690000", "160512.692000", "160512.695000", "160512.697000", "160512.699000", "160512.702000", "160512.704000", "160512.707000", "160512.709000", "160553.066000", "160553.068000", "160553.071000", "160553.074000", "160553.076000", "160553.079000", "160553.081000", "160553.084000", "160553.086000", "160553.089000", "160553.091000", "160553.094000", "160553.096000", "160553.099000", "160553.101000", "160553.104000", "160553.106000", "160553.108000", "160553.111000", "160553.113000", "160553.116000", "160553.118000", "160553.121000", "160553.123000", "160553.126000", "160553.128000", "160553.131000", "160632.652000", "160632.655000", "160632.657000", "160632.660000", "160632.662000", "160632.665000", "160632.667000", "160632.670000", "160632.672000", "160632.675000", "160632.677000", "160632.680000", "160632.682000", "160632.684000", "160632.687000", "160632.689000", "160632.692000", "160632.694000", "160632.697000", "160632.699000", "160632.702000", "160632.704000", "160632.707000", "160632.709000", "160632.712000", "160632.714000", "160632.716000", "160712.643000", "160712.645000", "160712.648000", "160712.650000", "160712.653000", "160712.655000", "160712.658000", "160712.660000", "160712.663000", "160712.665000", "160712.668000", "160712.670000", "160712.673000", "160712.675000", "160712.678000", "160712.680000", "160712.683000", "160712.685000", "160712.688000", "160712.691000", "160712.694000", "160712.696000", "160712.699000", "160712.701000", "160712.704000", "160712.706000", "160712.709000", "160752.639000", "160752.642000", "160752.644000", "160752.647000", "160752.649000", "160752.652000", "160752.654000", "160752.657000", "160752.659000", "160752.662000", "160752.664000", "160752.667000", "160752.669000", "160752.672000", "160752.674000", "160752.677000", "160752.679000", "160752.682000", "160752.684000", "160752.687000", "160752.689000", "160752.691000", "160752.694000", "160752.697000", "160752.699000", "160752.702000", "160752.704000", "160832.654000", "160832.657000", "160832.659000", "160832.662000", "160832.664000", "160832.667000", "160832.669000", "160832.672000", "160832.674000", "160832.676000", "160832.679000", "160832.681000", "160832.684000", "160832.686000", "160832.689000", "160832.691000", "160832.694000", "160832.696000", "160832.699000", "160832.701000", "160832.704000", "160832.706000", "160832.709000", "160832.711000", "160832.714000", "160832.716000", "160832.719000", "160901.194000", "160901.196000", "160901.199000", "160901.201000", "160901.204000", "160901.207000", "160901.209000", "160901.212000", "160901.214000", "160901.217000", "160901.219000", "160901.222000", "160901.224000", "160901.227000", "160901.230000", "160901.233000", "160901.235000", "160901.238000", "160901.241000"],
      "InstanceNumber": [1, 2, 3, 4, 5, 6, 7, 8, 9, 10, 11, 12, 13, 14, 15, 16, 17, 18, 19, 20, 21, 22, 23, 24, 25, 26, 27, 28, 29, 30, 31, 32, 33, 34, 35, 36, 37, 38, 39, 40, 41, 42, 43, 44, 45, 46, 47, 48, 49, 50, 51, 52, 53, 54, 55, 56, 57, 58, 59, 60, 61, 62, 63, 64, 65, 66, 67, 68, 69, 70, 71, 72, 73, 74, 75, 76, 77, 78, 79, 80, 81, 82, 83, 84, 85, 86, 87, 88, 89, 90, 91, 92, 93, 94, 95, 96, 97, 98, 99, 100, 101, 102, 103, 104, 105, 106, 107, 108, 109, 110, 111, 112, 113, 114, 115, 116, 117, 118, 119, 120, 121, 122, 123, 124, 125, 126, 127, 128, 129, 130, 131, 132, 133, 134, 135, 136, 137, 138, 139, 140, 141, 142, 143, 144, 145, 146, 147, 148, 149, 150, 151, 152, 153, 154, 155, 156, 157, 158, 159, 160, 161, 162, 163, 164, 165, 166, 167, 168, 169, 170, 171, 172, 173, 174, 175, 176, 177, 178, 179, 180, 181, 182, 183, 184, 185, 186, 187, 188, 189, 190, 191, 192, 193, 194, 195, 196, 197, 198, 199, 200, 201, 202, 203, 204, 205, 206, 207, 208, 209, 210, 211, 212, 213, 214, 215, 216, 217, 218, 219, 220, 221, 222, 223, 224, 225, 226, 227, 228, 229, 230, 231, 232, 233, 234, 235, 236, 237, 238, 239, 240, 241, 242, 243, 244, 245, 246, 247, 248, 249, 250, 251, 252, 253, 254, 255, 256, 257, 258, 259, 260, 261, 262, 263, 264, 265, 266, 267, 268, 269, 270, 271, 272, 273, 274, 275, 276, 277, 278, 279, 280, 281, 282, 283, 284, 285, 286, 287, 288, 289, 290, 291, 292, 293, 294, 295, 296, 297, 298, 299, 300, 301, 302, 303, 304, 305, 306, 307, 308, 309, 310, 311, 312, 313, 314, 315, 316, 317, 318, 319, 320, 321, 322, 323, 324, 325, 326, 327, 328, 329, 330, 331, 332, 333, 334, 335, 336, 337, 338, 339, 340, 341, 342, 343, 344, 345],
      "WindowCenter": [4836.0, 4870.0, 4862.0, 4836.0, 4862.0, 4834.0, 4862.0, 4862.0, 4864.0, 4862.0, 4866.0, 4864.0, 4864.0, 4864.0, 4834.0, 4862.0, 4836.0, 4862.0, 4860.0, 4866.0, 4832.0, 4834.0, 4864.0, 4864.0, 4870.0, 4864.0, 4862.0, 4864.0, 4866.0, 4840.0, 4862.0, 4862.0, 4862.0, 4866.0, 4860.0, 4866.0, 4864.0, 4838.0, 4866.0, 4868.0, 4860.0, 4862.0, 4836.0, 4862.0, 4860.0, 4860.0, 4862.0, 4870.0, 4832.0, 4864.0, 4872.0, 4872.0, 4868.0, 4866.0, 4858.0, 4828.0, 4834.0, 4860.0, 4858.0, 4864.0, 4862.0, 4868.0, 4864.0, 4866.0, 4832.0, 4834.0, 4838.0, 4838.0, 4862.0, 4830.0, 4834.0, 4874.0, 4878.0, 4874.0, 4864.0, 4866.0, 4858.0, 4832.0, 4862.0, 4858.0, 4858.0, 4864.0, 4862.0, 4866.0, 4828.0, 4836.0, 4868.0, 4876.0, 4872.0, 4872.0, 4864.0, 4826.0, 4800.0, 4836.0, 4866.0, 4876.0, 4874.0, 4870.0, 4874.0, 4862.0, 4834.0, 4860.0, 4864.0, 4866.0, 4834.0, 4860.0, 4866.0, 4868.0, 4866.0, 4864.0, 4864.0, 4860.0, 4860.0, 4858.0, 4860.0, 4860.0, 4862.0, 4860.0, 4866.0, 4860.0, 4860.0, 4868.0, 4832.0, 4864.0, 4858.0, 4862.0, 4864.0, 4858.0, 4860.0, 4832.0, 4862.0, 4864.0, 4866.0, 4864.0, 4860.0, 4830.0, 4860.0, 4864.0, 4868.0, 4864.0, 4866.0, 4864.0, 4860.0, 4862.0, 4860.0, 4802.0, 4836.0, 4868.0, 4868.0, 4870.0, 4872.0, 4868.0, 4864.0, 4868.0, 4824.0, 4830.0, 4830.0, 4802.0, 4834.0, 4870.0, 4876.0, 4878.0, 4874.0, 4864.0, 4830.0, 4780.0, 4802.0, 4836.0, 4872.0, 4880.0, 4878.0, 4878.0, 4870.0, 4860.0, 4824.0, 4826.0, 4804.0, 4834.0, 4862.0, 4868.0, 4898.0, 4866.0, 4830.0, 4860.0, 4866.0, 4870.0, 4860.0, 4836.0, 4836.0, 4858.0, 4862.0, 4832.0, 4860.0, 4868.0, 4864.0, 4860.0, 4868.0, 4870.0, 4862.0, 4864.0, 4856.0, 4830.0, 4836.0, 4866.0, 4864.0, 4864.0, 4862.0, 4866.0, 4864.0, 4866.0, 4836.0, 4860.0, 4864.0, 4864.0, 4832.0, 4858.0, 4862.0, 4866.0, 4860.0, 4866.0, 4856.0, 4866.0, 4860.0, 4862.0, 4866.0, 4862.0, 4834.0, 4828.0, 4864.0, 4866.0, 4868.0, 4866.0, 4864.0, 4864.0, 4866.0, 4866.0, 4828.0, 4826.0, 4862.0, 4864.0, 4828.0, 4836.0, 4874.0, 4880.0, 4876.0, 4872.0, 4866.0, 4860.0, 4836.0, 4834.0, 4834.0, 4858.0, 4834.0, 4824.0, 4864.0, 4874.0, 4876.0, 4872.0, 4872.0, 4832.0, 4830.0, 4830.0, 4830.0, 4836.0, 4836.0, 4864.0, 4868.0, 4860.0, 4866.0, 4864.0, 4864.0, 4862.0, 4804.0, 4804.0, 4830.0, 4868.0, 4880.0, 4902.0, 4876.0, 4894.0, 4864.0, 4826.0, 4802.0, 4830.0, 4862.0, 4870.0, 4892.0, 4834.0, 4832.0, 4870.0, 4870.0, 4870.0, 4868.0, 4862.0, 4860.0, 4832.0, 4832.0, 4830.0, 4856.0, 4864.0, 4870.0, 4800.0, 4824.0, 4870.0, 4870.0, 4872.0, 4834.0, 4860.0, 4864.0, 4862.0, 4856.0, 4826.0, 4858.0, 4862.0, 4860.0, 4804.0, 4836.0, 4874.0, 4880.0, 4880.0, 4876.0, 4870.0, 4862.0, 4828.0, 4802.0, 4804.0, 4858.0, 4872.0, 4874.0, 4880.0, 4876.0, 4868.0, 4862.0, 4836.0, 4830.0, 4830.0, 4856.0, 4862.0, 4868.0, 4870.0, 4870.0, 4860.0, 4822.0, 4804.0, 4826.0],
