{
  "AcquisitionMatrixPE": 104,
  "AcquisitionNumber": 1,
  "AcquisitionTime": "16:09:47.437500",
  "BandwidthPerPixelPhaseEncode": 17.17,
  "BaseResolution": 104,
  "BodyPartExamined": "BRAIN",
  "CoilCombinationMethod": "Sum of Squares",
  "ConsistencyInfo": "N4_VE11C_LATEST_20160120",
  "ConversionSoftware": "dcm2niix",
  "ConversionSoftwareVersion": "v1.0.20220505",
  "DerivedVendorReportedEchoSpacing": 0.000560011,
  "DeviceSerialNumber": "167006",
  "DwellTime": 2.1e-06,
  "EchoTime": 0.037,
  "EchoTime1": 0.037,
  "EchoTime2": 0.001,
  "EchoTrainLength": 104,
  "EffectiveEchoSpacing": 0.000560011,
  "FlipAngle": 52,
  "HeudiconvVersion": "0.5.3.post811+g6206e14",
  "ImageComments": "Unaliased MB4/PE3/LB",
  "ImageOrientationPatientDICOM": [0.999471, -0.0323902, -0.00290718, 0.0287907, 0.922868, -0.384038],
  "ImageOrientationText": "Tra>Cor(-22.6)>Sag(-0.9)",
  "ImageType": [
    "ORIGINAL",
    "PRIMARY",
    "P",
    "MB",
    "ND",
    "MOSAIC",
    "PHASE"
],
  "ImagingFrequency": 123.259,
  "InPlanePhaseEncodingDirectionDICOM": "COL",
  "InstitutionAddress": "Chemin Queen-Mary 4565,Montreal,District,CA,H3W 1W5",
  "InstitutionName": "IUGM",
  "InstitutionalDepartmentName": "Department",
  "MRAcquisitionType": "2D",
  "MagneticFieldStrength": 3,
  "Manufacturer": "Siemens",
  "ManufacturersModelName": "Prisma_fit",
  "MatrixCoilMode": "SENSE",
  "Modality": "MR",
  "MultibandAccelerationFactor": 4,
  "PartialFourier": 1,
  "PatientPosition": "HFS",
  "PercentPhaseFOV": 100,
  "PercentSampling": 100,
  "PhaseEncodingDirection": "j",
  "PhaseEncodingSteps": 104,
  "PhaseResolution": 1,
  "PixelBandwidth": 2290,
  "ProcedureStepDescription": "games^mario3",
  "ProtocolName": "func_task-mario3_run-03",
  "PulseSequenceDetails": "%CustomerSeq%\\cmrr_mbep2d_bold",
  "ReceiveCoilActiveElements": "HC1-7;NC1,2",
  "ReceiveCoilName": "HeadNeck_64",
  "ReconMatrixPE": 104,
  "RepetitionTime": 1.49,
  "SAR": 0.0557735,
  "ScanOptions": "FS",
  "ScanningSequence": "EP",
  "SequenceName": "epfid2d1_104",
  "SequenceVariant": "SK\\SS",
  "SeriesDescription": "func_task-mario3_run-03",
  "SeriesNumber": 17,
  "ShimSetting": [623, -7255, -8819, 518, 2, -203, -114, -3],
  "SliceThickness": 2,
  "SliceTiming": [0, 0.785, 0.1, 0.8825, 0.1975, 0.98, 0.295, 1.0775, 0.3925, 1.1775, 0.49, 1.275, 0.59, 1.3725, 0.6875, 0, 0.785, 0.1, 0.8825, 0.1975, 0.98, 0.295, 1.0775, 0.3925, 1.1775, 0.49, 1.275, 0.59, 1.3725, 0.6875, 0, 0.785, 0.1, 0.8825, 0.1975, 0.98, 0.295, 1.0775, 0.3925, 1.1775, 0.49, 1.275, 0.59, 1.3725, 0.6875, 0, 0.785, 0.1, 0.8825, 0.1975, 0.98, 0.295, 1.0775, 0.3925, 1.1775, 0.49, 1.275, 0.59, 1.3725, 0.6875],
  "SoftwareVersions": "syngo MR E11",
  "SpacingBetweenSlices": 2,
  "StationName": "MRC35049",
  "TaskName": "mario3",
  "TotalReadoutTime": 0.0576811,
  "TxRefAmp": 251.2,
  "WipMemBlock": "95f0451a-49cb-4ae5-89c3-4d164077f8e9||Sequence: R017 ve11c/master r/75a17815+; Jun 28 2022 16:32:11 by eja",
  "dcmmeta_affine": [
    [-1.9989421367645264, 0.057581305503845215, -0.030244046822190285, 104.54354858398438],
    [0.06478041410446167, 1.8457362651824951, -0.7675030827522278, -65.29047393798828],
    [-0.005814352072775364, 0.7680767178535461, 1.8466250896453857, -61.71562957763672],
    [0.0, 0.0, 0.0, 1.0]
],
  "dcmmeta_reorient_transform": [
    [0.0, -1.0, 0.0, 103.0],
    [1.0, 0.0, 0.0, 0.0],
    [0.0, 0.0, 1.0, 0.0],
    [0.0, 0.0, 0.0, 1.0]
],
  "dcmmeta_shape": [104, 104, 60, 311],
  "dcmmeta_slice_dim": 2,
  "dcmmeta_version": 0.6,
  "global": {
    "const": {
      "AcquisitionMatrix": [104, 0, 0, 104],
      "AngioFlag": "N",
      "BitsAllocated": 16,
      "BitsStored": 16,
      "BodyPartExamined": "BRAIN",
      "Columns": 832,
      "EchoNumbers": 1,
      "EchoTime": 37.0,
      "EchoTrainLength": 104,
      "FlipAngle": 52.0,
      "HighBit": 15,
      "ImageOrientationPatient": [0.99947107146709, -0.0323902088335, -0.0029071759742, 0.02879065331771, 0.92286815411183, -0.3840383684058],
      "ImagePositionPatient": [-859.0489606236, -773.08830949866, 299.09262931024],
      "ImageType": [
        "ORIGINAL",
        "PRIMARY",
        "P",
        "MB",
        "ND",
        "MOSAIC"
],
      "ImagedNucleus": "1H",
      "ImagingFrequency": 123.258764,
      "InPlanePhaseEncodingDirection": "COL",
      "LargestImagePixelValue": 4095,
      "MRAcquisitionType": "2D",
      "MagneticFieldStrength": 3.0,
      "Manufacturer": "SIEMENS",
      "ManufacturerModelName": "Prisma_fit",
      "Modality": "MR",
      "NumberOfAverages": 1.0,
      "NumberOfPhaseEncodingSteps": 104,
      "PercentPhaseFieldOfView": 100.0,
      "PercentSampling": 100.0,
      "PerformedProcedureStepStartTime": "154450.897000",
      "PhotometricInterpretation": "MONOCHROME2",
      "PixelBandwidth": 2290.0,
      "PixelRepresentation": 0,
      "PixelSpacing": [2.0, 2.0],
      "ProtocolName": "func_task-mario3_run-03",
      "RepetitionTime": 1490.0,
      "RescaleIntercept": -4096.0,
      "RescaleSlope": 2.0,
      "RescaleType": "US",
      "Rows": 832,
      "SAR": 0.05577352085657,
      "SamplesPerPixel": 1,
      "ScanOptions": "FS",
      "ScanningSequence": "EP",
      "SequenceName": "epfid2d1_104",
      "SequenceVariant": [
        "SK",
        "SS"
],
      "SeriesDescription": "func_task-mario3_run-03",
      "SeriesNumber": 17,
      "SeriesTime": "161046.898000",
      "SliceLocation": -33.508406906232,
      "SliceThickness": 2.0,
      "SmallestImagePixelValue": 0,
      "SoftwareVersions": "syngo MR E11",
      "SpacingBetweenSlices": 2.0000000237687,
      "SpecificCharacterSet": "ISO_IR 100",
      "StudyID": "1",
      "StudyTime": "154450.805000",
      "TransmitCoilName": "Body",
      "VariableFlipAngleFlag": "N",
      "WindowCenterWidthExplanation": "Algo1",
      "dBdt": 0.0},
    "slices": {}
  },
  "time": {
    "samples": {
      "AcquisitionNumber": [1, 2, 3, 4, 5, 6, 7, 8, 9, 10, 11, 12, 13, 14, 15, 16, 17, 18, 19, 20, 21, 22, 23, 24, 25, 26, 27, 28, 29, 30, 31, 32, 33, 34, 35, 36, 37, 38, 39, 40, 41, 42, 43, 44, 45, 46, 47, 48, 49, 50, 51, 52, 53, 54, 55, 56, 57, 58, 59, 60, 61, 62, 63, 64, 65, 66, 67, 68, 69, 70, 71, 72, 73, 74, 75, 76, 77, 78, 79, 80, 81, 82, 83, 84, 85, 86, 87, 88, 89, 90, 91, 92, 93, 94, 95, 96, 97, 98, 99, 100, 101, 102, 103, 104, 105, 106, 107, 108, 109, 110, 111, 112, 113, 114, 115, 116, 117, 118, 119, 120, 121, 122, 123, 124, 125, 126, 127, 128, 129, 130, 131, 132, 133, 134, 135, 136, 137, 138, 139, 140, 141, 142, 143, 144, 145, 146, 147, 148, 149, 150, 151, 152, 153, 154, 155, 156, 157, 158, 159, 160, 161, 162, 163, 164, 165, 166, 167, 168, 169, 170, 171, 172, 173, 174, 175, 176, 177, 178, 179, 180, 181, 182, 183, 184, 185, 186, 187, 188, 189, 190, 191, 192, 193, 194, 195, 196, 197, 198, 199, 200, 201, 202, 203, 204, 205, 206, 207, 208, 209, 210, 211, 212, 213, 214, 215, 216, 217, 218, 219, 220, 221, 222, 223, 224, 225, 226, 227, 228, 229, 230, 231, 232, 233, 234, 235, 236, 237, 238, 239, 240, 241, 242, 243, 244, 245, 246, 247, 248, 249, 250, 251, 252, 253, 254, 255, 256, 257, 258, 259, 260, 261, 262, 263, 264, 265, 266, 267, 268, 269, 270, 271, 272, 273, 274, 275, 276, 277, 278, 279, 280, 281, 282, 283, 284, 285, 286, 287, 288, 289, 290, 291, 292, 293, 294, 295, 296, 297, 298, 299, 300, 301, 302, 303, 304, 305, 306, 307, 308, 309, 310, 311],
      "AcquisitionTime": ["160947.437500", "160948.927500", "160950.417500", "160951.907500", "160953.397500", "160954.887500", "160956.377500", "160957.867500", "160959.357500", "161000.847500", "161002.337500", "161003.827500", "161005.317500", "161006.807500", "161008.297500", "161009.787500", "161011.277500", "161012.767500", "161014.257500", "161015.747500", "161017.237500", "161018.727500", "161020.217500", "161021.707500", "161023.197500", "161024.687500", "161026.177500", "161027.667500", "161029.157500", "161030.647500", "161032.137500", "161033.627500", "161035.117500", "161036.607500", "161038.097500", "161039.587500", "161041.077500", "161042.567500", "161044.057500", "161045.547500", "161047.037500", "161048.527500", "161050.017500", "161051.507500", "161052.997500", "161054.487500", "161055.977500", "161057.467500", "161058.957500", "161100.447500", "161101.937500", "161103.427500", "161104.917500", "161106.407500", "161107.897500", "161109.387500", "161110.877500", "161112.367500", "161113.857500", "161115.347500", "161116.837500", "161118.327500", "161119.817500", "161121.307500", "161122.797500", "161124.287500", "161125.777500", "161127.267500", "161128.757500", "161130.247500", "161131.737500", "161133.227500", "161134.717500", "161136.207500", "161137.697500", "161139.187500", "161140.677500", "161142.167500", "161143.657500", "161145.147500", "161146.637500", "161148.127500", "161149.617500", "161151.107500", "161152.597500", "161154.087500", "161155.577500", "161157.067500", "161158.557500", "161200.047500", "161201.537500", "161203.027500", "161204.517500", "161206.007500", "161207.497500", "161208.987500", "161210.477500", "161211.967500", "161213.457500", "161214.947500", "161216.437500", "161217.927500", "161219.417500", "161220.907500", "161222.397500", "161223.887500", "161225.377500", "161226.867500", "161228.357500", "161229.847500", "161231.337500", "161232.827500", "161234.317500", "161235.807500", "161237.297500", "161238.787500", "161240.277500", "161241.767500", "161243.257500", "161244.747500", "161246.237500", "161247.727500", "161249.217500", "161250.707500", "161252.197500", "161253.687500", "161255.177500", "161256.667500", "161258.157500", "161259.647500", "161301.137500", "161302.627500", "161304.117500", "161305.607500", "161307.097500", "161308.587500", "161310.077500", "161311.567500", "161313.057500", "161314.547500", "161316.037500", "161317.527500", "161319.017500", "161320.507500", "161321.997500", "161323.487500", "161324.977500", "161326.467500", "161327.957500", "161329.447500", "161330.937500", "161332.427500", "161333.917500", "161335.407500", "161336.897500", "161338.387500", "161339.877500", "161341.367500", "161342.857500", "161344.347500", "161345.837500", "161347.327500", "161348.817500", "161350.307500", "161351.797500", "161353.287500", "161354.777500", "161356.267500", "161357.757500", "161359.247500", "161400.737500", "161402.227500", "161403.717500", "161405.207500", "161406.697500", "161408.187500", "161409.677500", "161411.167500", "161412.657500", "161414.147500", "161415.637500", "161417.127500", "161418.617500", "161420.107500", "161421.597500", "161423.087500", "161424.577500", "161426.067500", "161427.557500", "161429.047500", "161430.537500", "161432.027500", "161433.517500", "161435.007500", "161436.497500", "161437.987500", "161439.477500", "161440.967500", "161442.457500", "161443.947500", "161445.437500", "161446.927500", "161448.417500", "161449.907500", "161451.397500", "161452.887500", "161454.377500", "161455.867500", "161457.357500", "161458.847500", "161500.337500", "161501.827500", "161503.317500", "161504.807500", "161506.297500", "161507.787500", "161509.277500", "161510.767500", "161512.257500", "161513.747500", "161515.237500", "161516.727500", "161518.217500", "161519.707500", "161521.197500", "161522.687500", "161524.177500", "161525.667500", "161527.157500", "161528.647500", "161530.137500", "161531.627500", "161533.117500", "161534.607500", "161536.097500", "161537.587500", "161539.077500", "161540.567500", "161542.057500", "161543.547500", "161545.037500", "161546.527500", "161548.017500", "161549.507500", "161550.997500", "161552.487500", "161553.977500", "161555.467500", "161556.957500", "161558.447500", "161559.937500", "161601.427500", "161602.917500", "161604.407500", "161605.897500", "161607.387500", "161608.877500", "161610.367500", "161611.857500", "161613.347500", "161614.837500", "161616.327500", "161617.817500", "161619.307500", "161620.797500", "161622.287500", "161623.777500", "161625.267500", "161626.757500", "161628.247500", "161629.737500", "161631.227500", "161632.717500", "161634.207500", "161635.697500", "161637.187500", "161638.677500", "161640.167500", "161641.657500", "161643.147500", "161644.637500", "161646.127500", "161647.617500", "161649.107500", "161650.597500", "161652.087500", "161653.577500", "161655.067500", "161656.557500", "161658.047500", "161659.537500", "161701.027500", "161702.517500", "161704.007500", "161705.497500", "161706.987500", "161708.477500", "161709.967500", "161711.457500", "161712.947500", "161714.437500", "161715.927500", "161717.417500", "161718.907500", "161720.397500", "161721.887500", "161723.377500", "161724.867500", "161726.357500", "161727.847500", "161729.337500"],
      "ContentTime": ["161046.900000", "161046.903000", "161046.905000", "161046.908000", "161046.910000", "161046.912000", "161046.915000", "161106.904000", "161106.906000", "161106.909000", "161106.911000", "161106.914000", "161106.916000", "161106.919000", "161106.921000", "161106.924000", "161106.926000", "161106.934000", "161106.937000", "161106.939000", "161106.942000", "161106.944000", "161106.947000", "161106.949000", "161106.952000", "161106.954000", "161106.957000", "161106.959000", "161126.904000", "161126.906000", "161126.909000", "161126.916000", "161126.919000", "161126.921000", "161126.924000", "161126.926000", "161126.929000", "161126.931000", "161126.934000", "161126.936000", "161126.939000", "161126.941000", "161126.944000", "161126.946000", "161126.949000", "161126.951000", "161126.954000", "161126.956000", "161146.897000", "161146.900000", "161146.902000", "161146.905000", "161146.907000", "161146.910000", "161146.912000", "161146.914000", "161146.917000", "161146.919000", "161146.922000", "161146.924000", "161146.927000", "161146.929000", "161146.932000", "161146.934000", "161146.937000", "161146.939000", "161146.942000", "161146.951000", "161206.930000", "161206.933000", "161206.935000", "161206.938000", "161206.940000", "161206.943000", "161206.945000", "161206.948000", "161206.951000", "161206.953000", "161206.955000", "161206.958000", "161206.960000", "161206.963000", "161206.965000", "161206.968000", "161206.971000", "161206.973000", "161206.976000", "161206.978000", "161246.939000", "161246.941000", "161246.944000", "161246.946000", "161246.954000", "161246.956000", "161246.959000", "161246.962000", "161246.964000", "161246.966000", "161246.969000", "161246.971000", "161246.974000", "161246.976000", "161246.979000", "161246.981000", "161246.984000", "161246.986000", "161246.989000", "161246.991000", "161246.994000", "161246.996000", "161247.000000", "161247.002000", "161247.005000", "161247.007000", "161247.010000", "161247.012000", "161247.015000", "161247.017000", "161247.020000", "161326.946000", "161326.949000", "161326.951000", "161326.954000", "161326.956000", "161326.959000", "161326.961000", "161326.964000", "161326.966000", "161326.968000", "161326.971000", "161326.974000", "161326.976000", "161326.978000", "161326.981000", "161326.983000", "161326.986000", "161326.988000", "161326.991000", "161326.993000", "161326.996000", "161326.998000", "161327.002000", "161327.004000", "161327.007000", "161327.009000", "161327.012000", "161406.954000", "161406.957000", "161406.959000", "161406.962000", "161406.964000", "161406.967000", "161406.969000", "161406.972000", "161406.974000", "161406.977000", "161406.979000", "161406.982000", "161406.984000", "161406.987000", "161406.989000", "161406.992000", "161406.994000", "161406.997000", "161407.000000", "161407.003000", "161407.005000", "161407.008000", "161407.010000", "161407.013000", "161407.015000", "161407.018000", "161407.020000", "161446.921000", "161446.923000", "161446.926000", "161446.928000", "161446.931000", "161446.933000", "161446.936000", "161446.938000", "161446.941000", "161446.943000", "161446.946000", "161446.956000", "161446.958000", "161446.961000", "161446.963000", "161446.966000", "161446.968000", "161446.971000", "161446.973000", "161446.976000", "161446.978000", "161446.981000", "161446.983000", "161446.986000", "161446.988000", "161446.991000", "161446.993000", "161526.951000", "161526.954000", "161526.957000", "161526.966000", "161526.968000", "161526.971000", "161526.973000", "161526.976000", "161526.978000", "161526.981000", "161526.983000", "161526.986000", "161526.988000", "161526.991000", "161526.993000", "161526.996000", "161526.998000", "161527.002000", "161527.004000", "161527.007000", "161527.009000", "161527.012000", "161527.014000", "161527.017000", "161527.019000", "161527.022000", "161527.024000", "161606.949000", "161606.952000", "161606.954000", "161606.957000", "161606.959000", "161606.962000", "161606.964000", "161606.967000", "161606.969000", "161606.972000", "161606.974000", "161606.977000", "161606.979000", "161606.982000", "161606.984000", "161606.987000", "161606.989000", "161606.992000", "161606.994000", "161606.997000", "161607.000000", "161607.003000", "161607.005000", "161607.008000", "161607.010000", "161607.013000", "161646.928000", "161646.930000", "161646.933000", "161646.935000", "161646.938000", "161646.940000", "161646.943000", "161646.945000", "161646.948000", "161646.950000", "161646.953000", "161646.955000", "161646.958000", "161646.960000", "161646.963000", "161646.965000", "161646.968000", "161646.970000", "161646.973000", "161646.975000", "161646.978000", "161646.980000", "161646.983000", "161646.985000", "161646.988000", "161646.990000", "161646.993000", "161727.381000", "161727.384000", "161727.387000", "161727.390000", "161727.393000", "161727.396000", "161727.398000", "161727.401000", "161727.403000", "161727.406000", "161727.408000", "161727.411000", "161727.413000", "161727.416000", "161727.418000", "161727.421000", "161727.423000", "161727.426000", "161727.428000", "161727.431000", "161727.433000", "161727.436000", "161727.438000", "161727.441000", "161727.443000", "161727.446000", "161727.448000", "161732.588000", "161732.591000", "161732.593000", "161732.596000"],
      "InstanceCreationTime": ["161046.900000", "161046.903000", "161046.905000", "161046.908000", "161046.910000", "161046.912000", "161046.915000", "161106.904000", "161106.906000", "161106.909000", "161106.911000", "161106.914000", "161106.916000", "161106.919000", "161106.921000", "161106.924000", "161106.926000", "161106.934000", "161106.937000", "161106.939000", "161106.942000", "161106.944000", "161106.947000", "161106.949000", "161106.952000", "161106.954000", "161106.957000", "161106.959000", "161126.904000", "161126.906000", "161126.909000", "161126.916000", "161126.919000", "161126.921000", "161126.924000", "161126.926000", "161126.929000", "161126.931000", "161126.934000", "161126.936000", "161126.939000", "161126.941000", "161126.944000", "161126.946000", "161126.949000", "161126.951000", "161126.954000", "161126.956000", "161146.897000", "161146.900000", "161146.902000", "161146.905000", "161146.907000", "161146.910000", "161146.912000", "161146.914000", "161146.917000", "161146.919000", "161146.922000", "161146.924000", "161146.927000", "161146.929000", "161146.932000", "161146.934000", "161146.937000", "161146.939000", "161146.942000", "161146.951000", "161206.930000", "161206.933000", "161206.935000", "161206.938000", "161206.940000", "161206.943000", "161206.945000", "161206.948000", "161206.951000", "161206.953000", "161206.955000", "161206.958000", "161206.960000", "161206.963000", "161206.965000", "161206.968000", "161206.971000", "161206.973000", "161206.976000", "161206.978000", "161246.939000", "161246.941000", "161246.944000", "161246.946000", "161246.954000", "161246.956000", "161246.959000", "161246.962000", "161246.964000", "161246.966000", "161246.969000", "161246.971000", "161246.974000", "161246.976000", "161246.979000", "161246.981000", "161246.984000", "161246.986000", "161246.989000", "161246.991000", "161246.994000", "161246.996000", "161247.000000", "161247.002000", "161247.005000", "161247.007000", "161247.010000", "161247.012000", "161247.015000", "161247.017000", "161247.020000", "161326.946000", "161326.949000", "161326.951000", "161326.954000", "161326.956000", "161326.959000", "161326.961000", "161326.964000", "161326.966000", "161326.968000", "161326.971000", "161326.974000", "161326.976000", "161326.978000", "161326.981000", "161326.983000", "161326.986000", "161326.988000", "161326.991000", "161326.993000", "161326.996000", "161326.998000", "161327.002000", "161327.004000", "161327.007000", "161327.009000", "161327.012000", "161406.954000", "161406.957000", "161406.959000", "161406.962000", "161406.964000", "161406.967000", "161406.969000", "161406.972000", "161406.974000", "161406.977000", "161406.979000", "161406.982000", "161406.984000", "161406.987000", "161406.989000", "161406.992000", "161406.994000", "161406.997000", "161407.000000", "161407.003000", "161407.005000", "161407.008000", "161407.010000", "161407.013000", "161407.015000", "161407.018000", "161407.020000", "161446.921000", "161446.923000", "161446.926000", "161446.928000", "161446.931000", "161446.933000", "161446.936000", "161446.938000", "161446.941000", "161446.943000", "161446.946000", "161446.956000", "161446.958000", "161446.961000", "161446.963000", "161446.966000", "161446.968000", "161446.971000", "161446.973000", "161446.976000", "161446.978000", "161446.981000", "161446.983000", "161446.986000", "161446.988000", "161446.991000", "161446.993000", "161526.951000", "161526.954000", "161526.957000", "161526.966000", "161526.968000", "161526.971000", "161526.973000", "161526.976000", "161526.978000", "161526.981000", "161526.983000", "161526.986000", "161526.988000", "161526.991000", "161526.993000", "161526.996000", "161526.998000", "161527.002000", "161527.004000", "161527.007000", "161527.009000", "161527.012000", "161527.014000", "161527.017000", "161527.019000", "161527.022000", "161527.024000", "161606.949000", "161606.952000", "161606.954000", "161606.957000", "161606.959000", "161606.962000", "161606.964000", "161606.967000", "161606.969000", "161606.972000", "161606.974000", "161606.977000", "161606.979000", "161606.982000", "161606.984000", "161606.987000", "161606.989000", "161606.992000", "161606.994000", "161606.997000", "161607.000000", "161607.003000", "161607.005000", "161607.008000", "161607.010000", "161607.013000", "161646.928000", "161646.930000", "161646.933000", "161646.935000", "161646.938000", "161646.940000", "161646.943000", "161646.945000", "161646.948000", "161646.950000", "161646.953000", "161646.955000", "161646.958000", "161646.960000", "161646.963000", "161646.965000", "161646.968000", "161646.970000", "161646.973000", "161646.975000", "161646.978000", "161646.980000", "161646.983000", "161646.985000", "161646.988000", "161646.990000", "161646.993000", "161727.381000", "161727.384000", "161727.387000", "161727.390000", "161727.393000", "161727.396000", "161727.398000", "161727.401000", "161727.403000", "161727.406000", "161727.408000", "161727.411000", "161727.413000", "161727.416000", "161727.418000", "161727.421000", "161727.423000", "161727.426000", "161727.428000", "161727.431000", "161727.433000", "161727.436000", "161727.438000", "161727.441000", "161727.443000", "161727.446000", "161727.448000", "161732.588000", "161732.591000", "161732.593000", "161732.596000"],
      "InstanceNumber": [1, 2, 3, 4, 5, 6, 7, 8, 9, 10, 11, 12, 13, 14, 15, 16, 17, 18, 19, 20, 21, 22, 23, 24, 25, 26, 27, 28, 29, 30, 31, 32, 33, 34, 35, 36, 37, 38, 39, 40, 41, 42, 43, 44, 45, 46, 47, 48, 49, 50, 51, 52, 53, 54, 55, 56, 57, 58, 59, 60, 61, 62, 63, 64, 65, 66, 67, 68, 69, 70, 71, 72, 73, 74, 75, 76, 77, 78, 79, 80, 81, 82, 83, 84, 85, 86, 87, 88, 89, 90, 91, 92, 93, 94, 95, 96, 97, 98, 99, 100, 101, 102, 103, 104, 105, 106, 107, 108, 109, 110, 111, 112, 113, 114, 115, 116, 117, 118, 119, 120, 121, 122, 123, 124, 125, 126, 127, 128, 129, 130, 131, 132, 133, 134, 135, 136, 137, 138, 139, 140, 141, 142, 143, 144, 145, 146, 147, 148, 149, 150, 151, 152, 153, 154, 155, 156, 157, 158, 159, 160, 161, 162, 163, 164, 165, 166, 167, 168, 169, 170, 171, 172, 173, 174, 175, 176, 177, 178, 179, 180, 181, 182, 183, 184, 185, 186, 187, 188, 189, 190, 191, 192, 193, 194, 195, 196, 197, 198, 199, 200, 201, 202, 203, 204, 205, 206, 207, 208, 209, 210, 211, 212, 213, 214, 215, 216, 217, 218, 219, 220, 221, 222, 223, 224, 225, 226, 227, 228, 229, 230, 231, 232, 233, 234, 235, 236, 237, 238, 239, 240, 241, 242, 243, 244, 245, 246, 247, 248, 249, 250, 251, 252, 253, 254, 255, 256, 257, 258, 259, 260, 261, 262, 263, 264, 265, 266, 267, 268, 269, 270, 271, 272, 273, 274, 275, 276, 277, 278, 279, 280, 281, 282, 283, 284, 285, 286, 287, 288, 289, 290, 291, 292, 293, 294, 295, 296, 297, 298, 299, 300, 301, 302, 303, 304, 305, 306, 307, 308, 309, 310, 311],
      "WindowCenter": [4862.0, 4862.0, 4832.0, 4826.0, 4834.0, 4862.0, 4834.0, 4862.0, 4836.0, 4864.0, 4838.0, 4836.0, 4830.0, 4834.0, 4834.0, 4834.0, 4860.0, 4864.0, 4830.0, 4836.0, 4866.0, 4860.0, 4862.0, 4832.0, 4858.0, 4834.0, 4858.0, 4858.0, 4832.0, 4830.0, 4834.0, 4856.0, 4834.0, 4868.0, 4832.0, 4800.0, 4838.0, 4868.0, 4866.0, 4864.0, 4860.0, 4858.0, 4832.0, 4832.0, 4836.0, 4832.0, 4858.0, 4800.0, 4836.0, 4866.0, 4862.0, 4824.0, 4830.0, 4872.0, 4878.0, 4902.0, 4872.0, 4828.0, 4802.0, 4830.0, 4832.0, 4858.0, 4866.0, 4864.0, 4860.0, 4836.0, 4860.0, 4862.0, 4860.0, 4860.0, 4826.0, 4802.0, 4832.0, 4864.0, 4862.0, 4866.0, 4832.0, 4836.0, 4858.0, 4832.0, 4826.0, 4860.0, 4862.0, 4866.0, 4862.0, 4838.0, 4864.0, 4832.0, 4830.0, 4828.0, 4832.0, 4832.0, 4832.0, 4834.0, 4826.0, 4834.0, 4858.0, 4832.0, 4826.0, 4800.0, 4828.0, 4862.0, 4858.0, 4802.0, 4800.0, 4830.0, 4870.0, 4868.0, 4866.0, 4834.0, 4834.0, 4832.0, 4832.0, 4798.0, 4776.0, 4834.0, 4872.0, 4876.0, 4874.0, 4876.0, 4868.0, 4834.0, 4828.0, 4826.0, 4824.0, 4828.0, 4834.0, 4868.0, 4874.0, 4876.0, 4872.0, 4860.0, 4830.0, 4826.0, 4834.0, 4838.0, 4830.0, 4826.0, 4862.0, 4872.0, 4870.0, 4870.0, 4866.0, 4864.0, 4858.0, 4834.0, 4826.0, 4802.0, 4860.0, 4864.0, 4870.0, 4874.0, 4836.0, 4860.0, 4870.0, 4862.0, 4832.0, 4830.0, 4804.0, 4800.0, 4862.0, 4866.0, 4872.0, 4872.0, 4868.0, 4838.0, 4858.0, 4832.0, 4832.0, 4828.0, 4828.0, 4828.0, 4802.0, 4802.0, 4866.0, 4874.0, 4874.0, 4864.0, 4870.0, 4870.0, 4860.0, 4826.0, 4802.0, 4780.0, 4826.0, 4866.0, 4872.0, 4876.0, 4874.0, 4868.0, 4836.0, 4828.0, 4798.0, 4800.0, 4826.0, 4858.0, 4864.0, 4870.0, 4870.0, 4838.0, 4804.0, 4834.0, 4864.0, 4866.0, 4866.0, 4864.0, 4862.0, 4860.0, 4834.0, 4858.0, 4834.0, 4858.0, 4826.0, 4802.0, 4860.0, 4868.0, 4870.0, 4864.0, 4868.0, 4834.0, 4856.0, 4832.0, 4804.0, 4800.0, 4830.0, 4862.0, 4862.0, 4802.0, 4832.0, 4874.0, 4876.0, 4876.0, 4836.0, 4808.0, 4806.0, 4826.0, 4838.0, 4862.0, 4864.0, 4860.0, 4860.0, 4858.0, 4828.0, 4834.0, 4858.0, 4838.0, 4858.0, 4862.0, 4832.0, 4836.0, 4870.0, 4872.0, 4866.0, 4864.0, 4836.0, 4802.0, 4834.0, 4860.0, 4830.0, 4862.0, 4868.0, 4834.0, 4804.0, 4866.0, 4866.0, 4864.0, 4864.0, 4864.0, 4830.0, 4834.0, 4836.0, 4832.0, 4834.0, 4864.0, 4868.0, 4862.0, 4864.0, 4866.0, 4842.0, 4838.0, 4804.0, 4806.0, 4868.0, 4872.0, 4868.0, 4876.0, 4866.0, 4862.0, 4832.0, 4834.0, 4828.0, 4826.0, 4836.0, 4830.0, 4828.0, 4866.0, 4866.0, 4808.0, 4866.0, 4900.0, 4876.0, 4870.0, 4866.0, 4860.0, 4836.0, 4830.0, 4836.0, 4860.0, 4864.0, 4866.0, 4860.0],
