{
  "AcquisitionMatrixPE": 104,
  "AcquisitionNumber": 1,
  "AcquisitionTime": "15:48:7.017500",
  "BandwidthPerPixelPhaseEncode": 17.17,
  "BaseResolution": 104,
  "BodyPartExamined": "BRAIN",
  "CoilCombinationMethod": "Sum of Squares",
  "ConsistencyInfo": "N4_VE11C_LATEST_20160120",
  "ConversionSoftware": "dcm2niix",
  "ConversionSoftwareVersion": "v1.0.20220505",
  "DerivedVendorReportedEchoSpacing": 0.000560011,
  "DeviceSerialNumber": "167006",
  "DwellTime": 2.1e-06,
  "EchoTime": 0.037,
  "EchoTrainLength": 104,
  "EffectiveEchoSpacing": 0.000560011,
  "FlipAngle": 52,
  "HeudiconvVersion": "0.5.3.post811+g6206e14",
  "ImageComments": "Unaliased MB4/PE3/LB",
  "ImageOrientationPatientDICOM": [0.999471, -0.0323902, -0.00290718, 0.0287907, 0.922868, -0.384038],
  "ImageOrientationText": "Tra>Cor(-22.6)>Sag(-0.9)",
  "ImageType": [
    "ORIGINAL",
    "PRIMARY",
    "M",
    "MB",
    "ND",
    "MOSAIC"
],
  "ImagingFrequency": 123.259,
  "InPlanePhaseEncodingDirectionDICOM": "COL",
  "InstitutionAddress": "Chemin Queen-Mary 4565,Montreal,District,CA,H3W 1W5",
  "InstitutionName": "IUGM",
  "InstitutionalDepartmentName": "Department",
  "MRAcquisitionType": "2D",
  "MagneticFieldStrength": 3,
  "Manufacturer": "Siemens",
  "ManufacturersModelName": "Prisma_fit",
  "MatrixCoilMode": "SENSE",
  "Modality": "MR",
  "MultibandAccelerationFactor": 4,
  "PartialFourier": 1,
  "PatientPosition": "HFS",
  "PercentPhaseFOV": 100,
  "PercentSampling": 100,
  "PhaseEncodingDirection": "j",
  "PhaseEncodingSteps": 104,
  "PhaseResolution": 1,
  "PixelBandwidth": 2290,
  "ProcedureStepDescription": "games^mario3",
  "ProtocolName": "func_task-mario3_run-01",
  "PulseSequenceDetails": "%CustomerSeq%\\cmrr_mbep2d_bold",
  "ReceiveCoilActiveElements": "HC1-7;NC1,2",
  "ReceiveCoilName": "HeadNeck_64",
  "ReconMatrixPE": 104,
  "RepetitionTime": 1.49,
  "SAR": 0.0557735,
  "ScanOptions": "FS",
  "ScanningSequence": "EP",
  "SequenceName": "epfid2d1_104",
  "SequenceVariant": "SK\\SS",
  "SeriesDescription": "func_task-mario3_run-01",
  "SeriesNumber": 10,
  "ShimSetting": [623, -7255, -8819, 518, 2, -203, -114, -3],
  "SliceThickness": 2,
  "SliceTiming": [0, 0.785, 0.1, 0.8825, 0.1975, 0.98, 0.295, 1.08, 0.3925, 1.1775, 0.49, 1.275, 0.59, 1.3725, 0.6875, 0, 0.785, 0.1, 0.8825, 0.1975, 0.98, 0.295, 1.08, 0.3925, 1.1775, 0.49, 1.275, 0.59, 1.3725, 0.6875, 0, 0.785, 0.1, 0.8825, 0.1975, 0.98, 0.295, 1.08, 0.3925, 1.1775, 0.49, 1.275, 0.59, 1.3725, 0.6875, 0, 0.785, 0.1, 0.8825, 0.1975, 0.98, 0.295, 1.08, 0.3925, 1.1775, 0.49, 1.275, 0.59, 1.3725, 0.6875],
  "SoftwareVersions": "syngo MR E11",
  "SpacingBetweenSlices": 2,
  "StationName": "MRC35049",
  "TaskName": "mario3",
  "TotalReadoutTime": 0.0576811,
  "TxRefAmp": 251.2,
  "WipMemBlock": "1fc51bd6-250b-4322-a178-eb244b6ecda0||Sequence: R017 ve11c/master r/75a17815+; Jun 28 2022 16:32:11 by eja",
  "dcmmeta_affine": [
    [-1.9989421367645264, 0.057581305503845215, -0.030244046822190285, 104.54354858398438],
    [0.06478041410446167, 1.8457362651824951, -0.7675030827522278, -65.29047393798828],
    [-0.005814352072775364, 0.7680767178535461, 1.8466250896453857, -61.71562957763672],
    [0.0, 0.0, 0.0, 1.0]
],
  "dcmmeta_reorient_transform": [
    [0.0, -1.0, 0.0, 103.0],
    [1.0, 0.0, 0.0, 0.0],
    [0.0, 0.0, 1.0, 0.0],
    [0.0, 0.0, 0.0, 1.0]
],
  "dcmmeta_shape": [104, 104, 60, 367],
  "dcmmeta_slice_dim": 2,
  "dcmmeta_version": 0.6,
  "global": {
    "const": {
      "AcquisitionMatrix": [104, 0, 0, 104],
      "AngioFlag": "N",
      "BitsAllocated": 16,
      "BitsStored": 16,
      "BodyPartExamined": "BRAIN",
      "Columns": 832,
      "EchoNumbers": 1,
      "EchoTime": 37.0,
      "EchoTrainLength": 104,
      "FlipAngle": 52.0,
      "HighBit": 15,
      "ImageOrientationPatient": [0.99947107146709, -0.0323902088335, -0.0029071759742, 0.02879065331771, 0.92286815411183, -0.3840383684058],
      "ImagePositionPatient": [-859.0489606236, -773.08830949866, 299.09262931024],
      "ImageType": [
        "ORIGINAL",
        "PRIMARY",
        "M",
        "MB",
        "ND",
        "MOSAIC"
],
      "ImagedNucleus": "1H",
      "ImagingFrequency": 123.258756,
      "InPlanePhaseEncodingDirection": "COL",
      "MRAcquisitionType": "2D",
      "MagneticFieldStrength": 3.0,
      "Manufacturer": "SIEMENS",
      "ManufacturerModelName": "Prisma_fit",
      "Modality": "MR",
      "NumberOfAverages": 1.0,
      "NumberOfPhaseEncodingSteps": 104,
      "PercentPhaseFieldOfView": 100.0,
      "PercentSampling": 100.0,
      "PerformedProcedureStepStartTime": "154450.897000",
      "PhotometricInterpretation": "MONOCHROME2",
      "PixelBandwidth": 2290.0,
      "PixelRepresentation": 0,
      "PixelSpacing": [2.0, 2.0],
      "ProtocolName": "func_task-mario3_run-01",
      "RepetitionTime": 1490.0,
      "Rows": 832,
      "SAR": 0.05577352085657,
      "SamplesPerPixel": 1,
      "ScanOptions": "FS",
      "ScanningSequence": "EP",
      "SequenceName": "epfid2d1_104",
      "SequenceVariant": [
        "SK",
        "SS"
],
      "SeriesDescription": "func_task-mario3_run-01",
      "SeriesNumber": 10,
      "SeriesTime": "154932.816000",
      "SliceLocation": -33.508406906232,
      "SliceThickness": 2.0,
      "SmallestImagePixelValue": 0,
      "SoftwareVersions": "syngo MR E11",
      "SpacingBetweenSlices": 2.0000000237687,
      "SpecificCharacterSet": "ISO_IR 100",
      "StudyID": "1",
      "StudyTime": "154450.805000",
      "TransmitCoilName": "Body",
      "VariableFlipAngleFlag": "N",
      "WindowCenterWidthExplanation": "Algo1",
      "dBdt": 0.0},
    "slices": {}
  },
  "time": {
    "samples": {
      "AcquisitionNumber": [1, 2, 3, 4, 5, 6, 7, 8, 9, 10, 11, 12, 13, 14, 15, 16, 17, 18, 19, 20, 21, 22, 23, 24, 25, 26, 27, 28, 29, 30, 31, 32, 33, 34, 35, 36, 37, 38, 39, 40, 41, 42, 43, 44, 45, 46, 47, 48, 49, 50, 51, 52, 53, 54, 55, 56, 57, 58, 59, 60, 61, 62, 63, 64, 65, 66, 67, 68, 69, 70, 71, 72, 73, 74, 75, 76, 77, 78, 79, 80, 81, 82, 83, 84, 85, 86, 87, 88, 89, 90, 91, 92, 93, 94, 95, 96, 97, 98, 99, 100, 101, 102, 103, 104, 105, 106, 107, 108, 109, 110, 111, 112, 113, 114, 115, 116, 117, 118, 119, 120, 121, 122, 123, 124, 125, 126, 127, 128, 129, 130, 131, 132, 133, 134, 135, 136, 137, 138, 139, 140, 141, 142, 143, 144, 145, 146, 147, 148, 149, 150, 151, 152, 153, 154, 155, 156, 157, 158, 159, 160, 161, 162, 163, 164, 165, 166, 167, 168, 169, 170, 171, 172, 173, 174, 175, 176, 177, 178, 179, 180, 181, 182, 183, 184, 185, 186, 187, 188, 189, 190, 191, 192, 193, 194, 195, 196, 197, 198, 199, 200, 201, 202, 203, 204, 205, 206, 207, 208, 209, 210, 211, 212, 213, 214, 215, 216, 217, 218, 219, 220, 221, 222, 223, 224, 225, 226, 227, 228, 229, 230, 231, 232, 233, 234, 235, 236, 237, 238, 239, 240, 241, 242, 243, 244, 245, 246, 247, 248, 249, 250, 251, 252, 253, 254, 255, 256, 257, 258, 259, 260, 261, 262, 263, 264, 265, 266, 267, 268, 269, 270, 271, 272, 273, 274, 275, 276, 277, 278, 279, 280, 281, 282, 283, 284, 285, 286, 287, 288, 289, 290, 291, 292, 293, 294, 295, 296, 297, 298, 299, 300, 301, 302, 303, 304, 305, 306, 307, 308, 309, 310, 311, 312, 313, 314, 315, 316, 317, 318, 319, 320, 321, 322, 323, 324, 325, 326, 327, 328, 329, 330, 331, 332, 333, 334, 335, 336, 337, 338, 339, 340, 341, 342, 343, 344, 345, 346, 347, 348, 349, 350, 351, 352, 353, 354, 355, 356, 357, 358, 359, 360, 361, 362, 363, 364, 365, 366, 367],
      "AcquisitionTime": ["154807.017500", "154808.507500", "154809.997500", "154811.487500", "154812.977500", "154814.467500", "154815.957500", "154817.447500", "154818.937500", "154820.427500", "154821.917500", "154823.407500", "154824.897500", "154826.387500", "154827.877500", "154829.367500", "154830.857500", "154832.347500", "154833.837500", "154835.327500", "154836.817500", "154838.307500", "154839.797500", "154841.287500", "154842.777500", "154844.267500", "154845.757500", "154847.247500", "154848.737500", "154850.227500", "154851.717500", "154853.207500", "154854.697500", "154856.187500", "154857.677500", "154859.167500", "154900.657500", "154902.147500", "154903.637500", "154905.127500", "154906.617500", "154908.107500", "154909.597500", "154911.087500", "154912.577500", "154914.067500", "154915.557500", "154917.047500", "154918.537500", "154920.027500", "154921.517500", "154923.007500", "154924.497500", "154925.987500", "154927.477500", "154928.967500", "154930.457500", "154931.947500", "154933.437500", "154934.927500", "154936.417500", "154937.907500", "154939.397500", "154940.887500", "154942.377500", "154943.867500", "154945.357500", "154946.847500", "154948.337500", "154949.827500", "154951.317500", "154952.807500", "154954.297500", "154955.787500", "154957.277500", "154958.767500", "155000.257500", "155001.747500", "155003.237500", "155004.727500", "155006.217500", "155007.707500", "155009.197500", "155010.687500", "155012.177500", "155013.667500", "155015.157500", "155016.647500", "155018.137500", "155019.627500", "155021.117500", "155022.607500", "155024.097500", "155025.587500", "155027.077500", "155028.567500", "155030.057500", "155031.547500", "155033.037500", "155034.527500", "155036.017500", "155037.507500", "155038.997500", "155040.487500", "155041.977500", "155043.467500", "155044.957500", "155046.447500", "155047.937500", "155049.427500", "155050.917500", "155052.407500", "155053.897500", "155055.387500", "155056.877500", "155058.367500", "155059.857500", "155101.347500", "155102.837500", "155104.327500", "155105.817500", "155107.307500", "155108.797500", "155110.287500", "155111.777500", "155113.267500", "155114.757500", "155116.247500", "155117.737500", "155119.227500", "155120.717500", "155122.207500", "155123.697500", "155125.187500", "155126.677500", "155128.167500", "155129.657500", "155131.147500", "155132.637500", "155134.127500", "155135.617500", "155137.107500", "155138.597500", "155140.087500", "155141.577500", "155143.067500", "155144.557500", "155146.047500", "155147.537500", "155149.027500", "155150.517500", "155152.007500", "155153.497500", "155154.987500", "155156.477500", "155157.967500", "155159.457500", "155200.947500", "155202.437500", "155203.927500", "155205.417500", "155206.907500", "155208.397500", "155209.887500", "155211.377500", "155212.867500", "155214.357500", "155215.847500", "155217.337500", "155218.827500", "155220.317500", "155221.807500", "155223.297500", "155224.787500", "155226.277500", "155227.767500", "155229.257500", "155230.747500", "155232.237500", "155233.727500", "155235.217500", "155236.707500", "155238.197500", "155239.687500", "155241.177500", "155242.667500", "155244.157500", "155245.647500", "155247.137500", "155248.627500", "155250.117500", "155251.607500", "155253.097500", "155254.587500", "155256.077500", "155257.567500", "155259.057500", "155300.547500", "155302.037500", "155303.527500", "155305.017500", "155306.507500", "155307.997500", "155309.487500", "155310.977500", "155312.467500", "155313.957500", "155315.447500", "155316.937500", "155318.427500", "155319.917500", "155321.407500", "155322.897500", "155324.387500", "155325.877500", "155327.367500", "155328.857500", "155330.347500", "155331.837500", "155333.327500", "155334.817500", "155336.307500", "155337.797500", "155339.287500", "155340.777500", "155342.267500", "155343.757500", "155345.247500", "155346.737500", "155348.227500", "155349.717500", "155351.207500", "155352.697500", "155354.187500", "155355.677500", "155357.167500", "155358.657500", "155400.147500", "155401.637500", "155403.127500", "155404.617500", "155406.107500", "155407.597500", "155409.087500", "155410.577500", "155412.067500", "155413.557500", "155415.047500", "155416.537500", "155418.027500", "155419.517500", "155421.007500", "155422.497500", "155423.987500", "155425.477500", "155426.967500", "155428.457500", "155429.947500", "155431.437500", "155432.927500", "155434.417500", "155435.907500", "155437.397500", "155438.887500", "155440.377500", "155441.867500", "155443.357500", "155444.847500", "155446.337500", "155447.827500", "155449.317500", "155450.807500", "155452.297500", "155453.787500", "155455.277500", "155456.767500", "155458.257500", "155459.747500", "155501.237500", "155502.727500", "155504.217500", "155505.707500", "155507.197500", "155508.687500", "155510.177500", "155511.667500", "155513.157500", "155514.647500", "155516.137500", "155517.627500", "155519.117500", "155520.607500", "155522.097500", "155523.587500", "155525.077500", "155526.567500", "155528.057500", "155529.547500", "155531.037500", "155532.527500", "155534.017500", "155535.507500", "155536.997500", "155538.487500", "155539.977500", "155541.467500", "155542.957500", "155544.447500", "155545.937500", "155547.427500", "155548.917500", "155550.407500", "155551.897500", "155553.387500", "155554.877500", "155556.367500", "155557.857500", "155559.347500", "155600.837500", "155602.327500", "155603.817500", "155605.307500", "155606.797500", "155608.287500", "155609.777500", "155611.267500", "155612.757500", "155614.247500", "155615.737500", "155617.227500", "155618.717500", "155620.207500", "155621.697500", "155623.187500", "155624.677500", "155626.167500", "155627.657500", "155629.147500", "155630.637500", "155632.127500", "155633.617500", "155635.107500", "155636.597500", "155638.087500", "155639.577500", "155641.067500", "155642.557500", "155644.047500", "155645.537500", "155647.027500", "155648.517500", "155650.007500", "155651.497500", "155652.987500", "155654.477500", "155655.967500", "155657.457500", "155658.947500", "155700.437500", "155701.927500", "155703.417500", "155704.907500", "155706.397500", "155707.887500", "155709.377500", "155710.867500", "155712.357500"],
      "ContentTime": ["154932.819000", "154932.823000", "154932.826000", "154932.830000", "154932.833000", "154932.836000", "154932.840000", "154932.843000", "154932.846000", "154932.849000", "154932.853000", "154932.856000", "154932.859000", "154932.863000", "154932.866000", "154932.869000", "154932.872000", "154932.876000", "154932.879000", "154932.882000", "154932.891000", "154932.894000", "154932.897000", "154932.900000", "154932.904000", "154932.907000", "154932.910000", "154932.913000", "154932.917000", "154932.920000", "154932.923000", "154932.926000", "154932.930000", "154932.933000", "154932.936000", "154932.940000", "154932.943000", "154932.946000", "154952.793000", "154952.797000", "154952.800000", "154952.809000", "154952.813000", "154952.816000", "154952.819000", "154952.823000", "154952.827000", "154952.830000", "154952.833000", "154952.836000", "154952.840000", "154952.843000", "154952.846000", "154952.849000", "154952.853000", "154952.856000", "154952.859000", "154952.862000", "155012.793000", "155012.797000", "155012.800000", "155012.803000", "155012.806000", "155012.810000", "155012.813000", "155012.816000", "155012.819000", "155012.823000", "155012.826000", "155012.829000", "155012.832000", "155012.836000", "155012.839000", "155012.842000", "155012.845000", "155012.849000", "155012.852000", "155012.855000", "155032.792000", "155032.796000", "155032.799000", "155032.802000", "155032.805000", "155032.809000", "155032.812000", "155032.815000", "155032.819000", "155032.822000", "155032.825000", "155032.829000", "155032.832000", "155032.835000", "155032.838000", "155032.842000", "155032.845000", "155032.848000", "155032.851000", "155112.793000", "155112.796000", "155112.800000", "155112.803000", "155112.807000", "155112.810000", "155112.814000", "155112.817000", "155112.820000", "155112.824000", "155112.827000", "155112.830000", "155112.833000", "155112.837000", "155112.840000", "155112.843000", "155112.847000", "155112.850000", "155112.853000", "155112.856000", "155112.860000", "155112.863000", "155112.866000", "155112.869000", "155112.873000", "155112.876000", "155112.879000", "155152.792000", "155152.796000", "155152.799000", "155152.802000", "155152.805000", "155152.828000", "155152.831000", "155152.835000", "155152.844000", "155152.848000", "155152.851000", "155152.854000", "155152.858000", "155152.861000", "155152.864000", "155152.867000", "155152.871000", "155152.874000", "155152.877000", "155152.880000", "155152.884000", "155152.887000", "155152.890000", "155152.893000", "155152.897000", "155152.900000", "155152.903000", "155232.793000", "155232.797000", "155232.800000", "155232.803000", "155232.807000", "155232.810000", "155232.813000", "155232.816000", "155232.820000", "155232.823000", "155232.826000", "155232.829000", "155232.833000", "155232.836000", "155232.839000", "155232.842000", "155232.846000", "155232.849000", "155232.852000", "155232.855000", "155232.859000", "155232.862000", "155232.865000", "155232.868000", "155232.872000", "155232.875000", "155232.878000", "155312.792000", "155312.796000", "155312.799000", "155312.802000", "155312.806000", "155312.809000", "155312.812000", "155312.816000", "155312.819000", "155312.822000", "155312.825000", "155312.829000", "155312.832000", "155312.835000", "155312.838000", "155312.842000", "155312.845000", "155312.848000", "155312.852000", "155312.855000", "155312.858000", "155312.861000", "155312.864000", "155312.868000", "155312.871000", "155312.874000", "155312.878000", "155352.792000", "155352.796000", "155352.799000", "155352.802000", "155352.806000", "155352.809000", "155352.812000", "155352.815000", "155352.819000", "155352.822000", "155352.825000", "155352.829000", "155352.832000", "155352.836000", "155352.839000", "155352.842000", "155352.846000", "155352.860000", "155352.864000", "155352.900000", "155352.904000", "155352.907000", "155352.910000", "155352.913000", "155352.932000", "155352.936000", "155432.793000", "155432.797000", "155432.800000", "155432.803000", "155432.807000", "155432.810000", "155432.813000", "155432.816000", "155432.820000", "155432.823000", "155432.827000", "155432.830000", "155432.833000", "155432.836000", "155432.840000", "155432.843000", "155432.846000", "155432.850000", "155432.853000", "155432.856000", "155432.860000", "155432.863000", "155432.866000", "155432.869000", "155432.873000", "155432.876000", "155432.879000", "155512.792000", "155512.796000", "155512.799000", "155512.803000", "155512.806000", "155512.809000", "155512.812000", "155512.816000", "155512.819000", "155512.822000", "155512.825000", "155512.829000", "155512.832000", "155512.835000", "155512.838000", "155512.842000", "155512.845000", "155512.848000", "155512.852000", "155512.855000", "155512.858000", "155512.861000", "155512.865000", "155512.868000", "155512.871000", "155512.874000", "155512.878000", "155552.792000", "155552.796000", "155552.799000", "155552.803000", "155552.806000", "155552.809000", "155552.821000", "155552.824000", "155552.828000", "155552.831000", "155552.834000", "155552.838000", "155552.841000", "155552.844000", "155552.847000", "155552.851000", "155552.854000", "155552.857000", "155552.861000", "155552.864000", "155552.867000", "155552.871000", "155552.874000", "155552.877000", "155552.880000", "155552.884000", "155552.887000", "155632.792000", "155632.796000", "155632.799000", "155632.802000", "155632.806000", "155632.809000", "155632.822000", "155632.825000", "155632.829000", "155632.832000", "155632.835000", "155632.838000", "155632.842000", "155632.845000", "155632.848000", "155632.852000", "155632.855000", "155632.858000", "155632.862000", "155632.865000", "155632.868000", "155632.871000", "155632.875000", "155632.878000", "155632.881000", "155632.885000", "155632.888000", "155712.793000", "155712.797000", "155712.800000", "155712.803000", "155712.807000", "155712.810000", "155712.813000", "155712.817000", "155712.820000", "155712.823000", "155712.826000", "155712.830000", "155712.833000", "155712.836000", "155712.840000", "155712.843000", "155712.847000", "155712.850000", "155712.853000", "155712.856000", "155712.860000", "155712.863000", "155712.866000", "155712.870000", "155712.873000", "155712.876000", "155712.879000", "155714.716000"],
      "InstanceCreationTime": ["154932.819000", "154932.823000", "154932.826000", "154932.830000", "154932.833000", "154932.836000", "154932.840000", "154932.843000", "154932.846000", "154932.849000", "154932.853000", "154932.856000", "154932.859000", "154932.863000", "154932.866000", "154932.869000", "154932.872000", "154932.876000", "154932.879000", "154932.882000", "154932.891000", "154932.894000", "154932.897000", "154932.900000", "154932.904000", "154932.907000", "154932.910000", "154932.913000", "154932.917000", "154932.920000", "154932.923000", "154932.926000", "154932.930000", "154932.933000", "154932.936000", "154932.940000", "154932.943000", "154932.946000", "154952.793000", "154952.797000", "154952.800000", "154952.809000", "154952.813000", "154952.816000", "154952.819000", "154952.823000", "154952.827000", "154952.830000", "154952.833000", "154952.836000", "154952.840000", "154952.843000", "154952.846000", "154952.849000", "154952.853000", "154952.856000", "154952.859000", "154952.862000", "155012.793000", "155012.797000", "155012.800000", "155012.803000", "155012.806000", "155012.810000", "155012.813000", "155012.816000", "155012.819000", "155012.823000", "155012.826000", "155012.829000", "155012.832000", "155012.836000", "155012.839000", "155012.842000", "155012.845000", "155012.849000", "155012.852000", "155012.855000", "155032.792000", "155032.796000", "155032.799000", "155032.802000", "155032.805000", "155032.809000", "155032.812000", "155032.815000", "155032.819000", "155032.822000", "155032.825000", "155032.829000", "155032.832000", "155032.835000", "155032.838000", "155032.842000", "155032.845000", "155032.848000", "155032.851000", "155112.793000", "155112.796000", "155112.800000", "155112.803000", "155112.807000", "155112.810000", "155112.814000", "155112.817000", "155112.820000", "155112.824000", "155112.827000", "155112.830000", "155112.833000", "155112.837000", "155112.840000", "155112.843000", "155112.847000", "155112.850000", "155112.853000", "155112.856000", "155112.860000", "155112.863000", "155112.866000", "155112.869000", "155112.873000", "155112.876000", "155112.879000", "155152.792000", "155152.796000", "155152.799000", "155152.802000", "155152.805000", "155152.828000", "155152.831000", "155152.835000", "155152.844000", "155152.848000", "155152.851000", "155152.854000", "155152.858000", "155152.861000", "155152.864000", "155152.867000", "155152.871000", "155152.874000", "155152.877000", "155152.880000", "155152.884000", "155152.887000", "155152.890000", "155152.893000", "155152.897000", "155152.900000", "155152.903000", "155232.793000", "155232.797000", "155232.800000", "155232.803000", "155232.807000", "155232.810000", "155232.813000", "155232.816000", "155232.820000", "155232.823000", "155232.826000", "155232.829000", "155232.833000", "155232.836000", "155232.839000", "155232.842000", "155232.846000", "155232.849000", "155232.852000", "155232.855000", "155232.859000", "155232.862000", "155232.865000", "155232.868000", "155232.872000", "155232.875000", "155232.878000", "155312.792000", "155312.796000", "155312.799000", "155312.802000", "155312.806000", "155312.809000", "155312.812000", "155312.816000", "155312.819000", "155312.822000", "155312.825000", "155312.829000", "155312.832000", "155312.835000", "155312.838000", "155312.842000", "155312.845000", "155312.848000", "155312.852000", "155312.855000", "155312.858000", "155312.861000", "155312.864000", "155312.868000", "155312.871000", "155312.874000", "155312.878000", "155352.792000", "155352.796000", "155352.799000", "155352.802000", "155352.806000", "155352.809000", "155352.812000", "155352.815000", "155352.819000", "155352.822000", "155352.825000", "155352.829000", "155352.832000", "155352.836000", "155352.839000", "155352.842000", "155352.846000", "155352.860000", "155352.864000", "155352.900000", "155352.904000", "155352.907000", "155352.910000", "155352.913000", "155352.932000", "155352.936000", "155432.793000", "155432.797000", "155432.800000", "155432.803000", "155432.807000", "155432.810000", "155432.813000", "155432.816000", "155432.820000", "155432.823000", "155432.827000", "155432.830000", "155432.833000", "155432.836000", "155432.840000", "155432.843000", "155432.846000", "155432.850000", "155432.853000", "155432.856000", "155432.860000", "155432.863000", "155432.866000", "155432.869000", "155432.873000", "155432.876000", "155432.879000", "155512.792000", "155512.796000", "155512.799000", "155512.803000", "155512.806000", "155512.809000", "155512.812000", "155512.816000", "155512.819000", "155512.822000", "155512.825000", "155512.829000", "155512.832000", "155512.835000", "155512.838000", "155512.842000", "155512.845000", "155512.848000", "155512.852000", "155512.855000", "155512.858000", "155512.861000", "155512.865000", "155512.868000", "155512.871000", "155512.874000", "155512.878000", "155552.792000", "155552.796000", "155552.799000", "155552.803000", "155552.806000", "155552.809000", "155552.821000", "155552.824000", "155552.828000", "155552.831000", "155552.834000", "155552.838000", "155552.841000", "155552.844000", "155552.847000", "155552.851000", "155552.854000", "155552.857000", "155552.861000", "155552.864000", "155552.867000", "155552.871000", "155552.874000", "155552.877000", "155552.880000", "155552.884000", "155552.887000", "155632.792000", "155632.796000", "155632.799000", "155632.802000", "155632.806000", "155632.809000", "155632.822000", "155632.825000", "155632.829000", "155632.832000", "155632.835000", "155632.838000", "155632.842000", "155632.845000", "155632.848000", "155632.852000", "155632.855000", "155632.858000", "155632.862000", "155632.865000", "155632.868000", "155632.871000", "155632.875000", "155632.878000", "155632.881000", "155632.885000", "155632.888000", "155712.793000", "155712.797000", "155712.800000", "155712.803000", "155712.807000", "155712.810000", "155712.813000", "155712.817000", "155712.820000", "155712.823000", "155712.826000", "155712.830000", "155712.833000", "155712.836000", "155712.840000", "155712.843000", "155712.847000", "155712.850000", "155712.853000", "155712.856000", "155712.860000", "155712.863000", "155712.866000", "155712.870000", "155712.873000", "155712.876000", "155712.879000", "155714.716000"],
      "InstanceNumber": [1, 2, 3, 4, 5, 6, 7, 8, 9, 10, 11, 12, 13, 14, 15, 16, 17, 18, 19, 20, 21, 22, 23, 24, 25, 26, 27, 28, 29, 30, 31, 32, 33, 34, 35, 36, 37, 38, 39, 40, 41, 42, 43, 44, 45, 46, 47, 48, 49, 50, 51, 52, 53, 54, 55, 56, 57, 58, 59, 60, 61, 62, 63, 64, 65, 66, 67, 68, 69, 70, 71, 72, 73, 74, 75, 76, 77, 78, 79, 80, 81, 82, 83, 84, 85, 86, 87, 88, 89, 90, 91, 92, 93, 94, 95, 96, 97, 98, 99, 100, 101, 102, 103, 104, 105, 106, 107, 108, 109, 110, 111, 112, 113, 114, 115, 116, 117, 118, 119, 120, 121, 122, 123, 124, 125, 126, 127, 128, 129, 130, 131, 132, 133, 134, 135, 136, 137, 138, 139, 140, 141, 142, 143, 144, 145, 146, 147, 148, 149, 150, 151, 152, 153, 154, 155, 156, 157, 158, 159, 160, 161, 162, 163, 164, 165, 166, 167, 168, 169, 170, 171, 172, 173, 174, 175, 176, 177, 178, 179, 180, 181, 182, 183, 184, 185, 186, 187, 188, 189, 190, 191, 192, 193, 194, 195, 196, 197, 198, 199, 200, 201, 202, 203, 204, 205, 206, 207, 208, 209, 210, 211, 212, 213, 214, 215, 216, 217, 218, 219, 220, 221, 222, 223, 224, 225, 226, 227, 228, 229, 230, 231, 232, 233, 234, 235, 236, 237, 238, 239, 240, 241, 242, 243, 244, 245, 246, 247, 248, 249, 250, 251, 252, 253, 254, 255, 256, 257, 258, 259, 260, 261, 262, 263, 264, 265, 266, 267, 268, 269, 270, 271, 272, 273, 274, 275, 276, 277, 278, 279, 280, 281, 282, 283, 284, 285, 286, 287, 288, 289, 290, 291, 292, 293, 294, 295, 296, 297, 298, 299, 300, 301, 302, 303, 304, 305, 306, 307, 308, 309, 310, 311, 312, 313, 314, 315, 316, 317, 318, 319, 320, 321, 322, 323, 324, 325, 326, 327, 328, 329, 330, 331, 332, 333, 334, 335, 336, 337, 338, 339, 340, 341, 342, 343, 344, 345, 346, 347, 348, 349, 350, 351, 352, 353, 354, 355, 356, 357, 358, 359, 360, 361, 362, 363, 364, 365, 366, 367],
