{
  "AcquisitionMatrixPE": 104,
  "AcquisitionNumber": 1,
  "AcquisitionTime": "17:18:29.155000",
  "BandwidthPerPixelPhaseEncode": 17.17,
  "BaseResolution": 104,
  "BodyPartExamined": "BRAIN",
  "CoilCombinationMethod": "Sum of Squares",
  "ConsistencyInfo": "N4_VE11C_LATEST_20160120",
  "ConversionSoftware": "dcm2niix",
  "ConversionSoftwareVersion": "v1.0.20220505",
  "DerivedVendorReportedEchoSpacing": 0.000560011,
  "DeviceSerialNumber": "167006",
  "DwellTime": 2.1e-06,
  "EchoTime": 0.037,
  "EchoTime1": 0.037,
  "EchoTime2": 0.001,
  "EchoTrainLength": 104,
  "EffectiveEchoSpacing": 0.000560011,
  "FlipAngle": 52,
  "HeudiconvVersion": "0.5.3.post811+g6206e14",
  "ImageComments": "Unaliased MB4/PE3/LB",
  "ImageOrientationPatientDICOM": [0.993461, 0.112918, 0.0169013, -0.0984601, 0.922226, -0.373904],
  "ImageOrientationText": "Tra>Cor(-21.7)>Sag(3.3)",
  "ImageType": [
    "ORIGINAL",
    "PRIMARY",
    "P",
    "MB",
    "ND",
    "MOSAIC",
    "PHASE"
],
  "ImagingFrequency": 123.26,
  "InPlanePhaseEncodingDirectionDICOM": "COL",
  "InstitutionAddress": "Chemin Queen-Mary 4565,Montreal,District,CA,H3W 1W5",
  "InstitutionName": "IUGM",
  "InstitutionalDepartmentName": "Department",
  "MRAcquisitionType": "2D",
  "MagneticFieldStrength": 3,
  "Manufacturer": "Siemens",
  "ManufacturersModelName": "Prisma_fit",
  "MatrixCoilMode": "SENSE",
  "Modality": "MR",
  "MultibandAccelerationFactor": 4,
  "PartialFourier": 1,
  "PatientPosition": "HFS",
  "PercentPhaseFOV": 100,
  "PercentSampling": 100,
  "PhaseEncodingDirection": "j",
  "PhaseEncodingSteps": 104,
  "PhaseResolution": 1,
  "PixelBandwidth": 2290,
  "ProcedureStepDescription": "games^mario3",
  "ProtocolName": "func_task-mario3_run-01",
  "PulseSequenceDetails": "%CustomerSeq%\\cmrr_mbep2d_bold",
  "ReceiveCoilActiveElements": "HC1-7;NC1,2",
  "ReceiveCoilName": "HeadNeck_64",
  "ReconMatrixPE": 104,
  "RepetitionTime": 1.49,
  "SAR": 0.0475633,
  "ScanOptions": "FS",
  "ScanningSequence": "EP",
  "SequenceName": "epfid2d1_104",
  "SequenceVariant": "SK\\SS",
  "SeriesDescription": "func_task-mario3_run-01",
  "SeriesNumber": 11,
  "ShimSetting": [618, -7207, -8804, 658, 99, -29, -55, 22],
  "SliceThickness": 2,
  "SliceTiming": [0, 0.785, 0.1, 0.8825, 0.1975, 0.98, 0.295, 1.08, 0.3925, 1.1775, 0.49, 1.275, 0.59, 1.3725, 0.6875, 0, 0.785, 0.1, 0.8825, 0.1975, 0.98, 0.295, 1.08, 0.3925, 1.1775, 0.49, 1.275, 0.59, 1.3725, 0.6875, 0, 0.785, 0.1, 0.8825, 0.1975, 0.98, 0.295, 1.08, 0.3925, 1.1775, 0.49, 1.275, 0.59, 1.3725, 0.6875, 0, 0.785, 0.1, 0.8825, 0.1975, 0.98, 0.295, 1.08, 0.3925, 1.1775, 0.49, 1.275, 0.59, 1.3725, 0.6875],
  "SoftwareVersions": "syngo MR E11",
  "SpacingBetweenSlices": 2,
  "StationName": "MRC35049",
  "TaskName": "mario3",
  "TotalReadoutTime": 0.0576811,
  "TxRefAmp": 254.136,
  "WipMemBlock": "5fa652c7-142f-41c6-880b-50e0562dcdf1||Sequence: R017 ve11c/master r/75a17815+; Jun 28 2022 16:32:11 by eja",
  "dcmmeta_affine": [
    [-1.9869211912155151, -0.19692011177539825, 0.1156143993139267, 111.78648376464844],
    [-0.22583535313606262, 1.8444525003433228, -0.7395901083946228, -55.50572967529297],
    [0.03380254656076431, 0.7478085160255432, 1.8546266555786133, -64.60745239257812],
    [0.0, 0.0, 0.0, 1.0]
],
  "dcmmeta_reorient_transform": [
    [0.0, -1.0, 0.0, 103.0],
    [1.0, 0.0, 0.0, 0.0],
    [0.0, 0.0, 1.0, 0.0],
    [0.0, 0.0, 0.0, 1.0]
],
  "dcmmeta_shape": [104, 104, 60, 331],
  "dcmmeta_slice_dim": 2,
  "dcmmeta_version": 0.6,
  "global": {
    "const": {
      "AcquisitionMatrix": [104, 0, 0, 104],
      "AngioFlag": "N",
      "BitsAllocated": 16,
      "BitsStored": 16,
      "BodyPartExamined": "BRAIN",
      "Columns": 832,
      "EchoNumbers": 1,
      "EchoTime": 37.0,
      "EchoTrainLength": 104,
      "FlipAngle": 52.0,
      "HighBit": 15,
      "ImageOrientationPatient": [0.99346059042697, 0.11291767894472, 0.01690127362764, -0.098460058624, 0.9222262356434, -0.3739042486343],
      "ImagePositionPatient": [-743.06409630109, -888.05764427069, 272.31499029646],
      "ImageType": [
        "ORIGINAL",
        "PRIMARY",
        "P",
        "MB",
        "ND",
        "MOSAIC"
],
      "ImagedNucleus": "1H",
      "ImagingFrequency": 123.260237,
      "InPlanePhaseEncodingDirection": "COL",
      "LargestImagePixelValue": 4095,
      "MRAcquisitionType": "2D",
      "MagneticFieldStrength": 3.0,
      "Manufacturer": "SIEMENS",
      "ManufacturerModelName": "Prisma_fit",
      "Modality": "MR",
      "NumberOfAverages": 1.0,
      "NumberOfPhaseEncodingSteps": 104,
      "PercentPhaseFieldOfView": 100.0,
      "PercentSampling": 100.0,
      "PerformedProcedureStepStartTime": "171248.602000",
      "PhotometricInterpretation": "MONOCHROME2",
      "PixelBandwidth": 2290.0,
      "PixelRepresentation": 0,
      "PixelSpacing": [2.0, 2.0],
      "ProtocolName": "func_task-mario3_run-01",
      "RepetitionTime": 1490.0,
      "RescaleIntercept": -4096.0,
      "RescaleSlope": 2.0,
      "RescaleType": "US",
      "Rows": 832,
      "SAR": 0.04756325517629,
      "SamplesPerPixel": 1,
      "ScanOptions": "FS",
      "ScanningSequence": "EP",
      "SequenceName": "epfid2d1_104",
      "SequenceVariant": [
        "SK",
        "SS"
],
      "SeriesDescription": "func_task-mario3_run-01",
      "SeriesNumber": 11,
      "SeriesTime": "171953.297000",
      "SliceLocation": -32.92354180599,
      "SliceThickness": 2.0,
      "SmallestImagePixelValue": 0,
      "SoftwareVersions": "syngo MR E11",
      "SpacingBetweenSlices": 2.0000000371414,
      "SpecificCharacterSet": "ISO_IR 100",
      "StudyID": "1",
      "StudyTime": "171248.538000",
      "TransmitCoilName": "Body",
      "VariableFlipAngleFlag": "N",
      "WindowCenterWidthExplanation": "Algo1",
      "dBdt": 0.0},
    "slices": {}
  },
  "time": {
    "samples": {
      "AcquisitionNumber": [1, 2, 3, 4, 5, 6, 7, 8, 9, 10, 11, 12, 13, 14, 15, 16, 17, 18, 19, 20, 21, 22, 23, 24, 25, 26, 27, 28, 29, 30, 31, 32, 33, 34, 35, 36, 37, 38, 39, 40, 41, 42, 43, 44, 45, 46, 47, 48, 49, 50, 51, 52, 53, 54, 55, 56, 57, 58, 59, 60, 61, 62, 63, 64, 65, 66, 67, 68, 69, 70, 71, 72, 73, 74, 75, 76, 77, 78, 79, 80, 81, 82, 83, 84, 85, 86, 87, 88, 89, 90, 91, 92, 93, 94, 95, 96, 97, 98, 99, 100, 101, 102, 103, 104, 105, 106, 107, 108, 109, 110, 111, 112, 113, 114, 115, 116, 117, 118, 119, 120, 121, 122, 123, 124, 125, 126, 127, 128, 129, 130, 131, 132, 133, 134, 135, 136, 137, 138, 139, 140, 141, 142, 143, 144, 145, 146, 147, 148, 149, 150, 151, 152, 153, 154, 155, 156, 157, 158, 159, 160, 161, 162, 163, 164, 165, 166, 167, 168, 169, 170, 171, 172, 173, 174, 175, 176, 177, 178, 179, 180, 181, 182, 183, 184, 185, 186, 187, 188, 189, 190, 191, 192, 193, 194, 195, 196, 197, 198, 199, 200, 201, 202, 203, 204, 205, 206, 207, 208, 209, 210, 211, 212, 213, 214, 215, 216, 217, 218, 219, 220, 221, 222, 223, 224, 225, 226, 227, 228, 229, 230, 231, 232, 233, 234, 235, 236, 237, 238, 239, 240, 241, 242, 243, 244, 245, 246, 247, 248, 249, 250, 251, 252, 253, 254, 255, 256, 257, 258, 259, 260, 261, 262, 263, 264, 265, 266, 267, 268, 269, 270, 271, 272, 273, 274, 275, 276, 277, 278, 279, 280, 281, 282, 283, 284, 285, 286, 287, 288, 289, 290, 291, 292, 293, 294, 295, 296, 297, 298, 299, 300, 301, 302, 303, 304, 305, 306, 307, 308, 309, 310, 311, 312, 313, 314, 315, 316, 317, 318, 319, 320, 321, 322, 323, 324, 325, 326, 327, 328, 329, 330, 331],
      "AcquisitionTime": ["171829.155000", "171830.645000", "171832.135000", "171833.625000", "171835.115000", "171836.605000", "171838.095000", "171839.585000", "171841.075000", "171842.565000", "171844.055000", "171845.545000", "171847.035000", "171848.525000", "171850.015000", "171851.505000", "171852.995000", "171854.485000", "171855.975000", "171857.465000", "171858.955000", "171900.445000", "171901.935000", "171903.425000", "171904.915000", "171906.405000", "171907.895000", "171909.385000", "171910.875000", "171912.365000", "171913.855000", "171915.345000", "171916.835000", "171918.325000", "171919.815000", "171921.305000", "171922.795000", "171924.285000", "171925.775000", "171927.265000", "171928.755000", "171930.245000", "171931.735000", "171933.225000", "171934.715000", "171936.205000", "171937.695000", "171939.185000", "171940.675000", "171942.165000", "171943.655000", "171945.145000", "171946.635000", "171948.125000", "171949.615000", "171951.105000", "171952.595000", "171954.085000", "171955.575000", "171957.065000", "171958.555000", "172000.045000", "172001.535000", "172003.025000", "172004.515000", "172006.005000", "172007.495000", "172008.985000", "172010.475000", "172011.965000", "172013.455000", "172014.945000", "172016.435000", "172017.925000", "172019.415000", "172020.905000", "172022.395000", "172023.885000", "172025.375000", "172026.865000", "172028.355000", "172029.845000", "172031.335000", "172032.825000", "172034.315000", "172035.805000", "172037.295000", "172038.785000", "172040.275000", "172041.765000", "172043.255000", "172044.745000", "172046.235000", "172047.725000", "172049.215000", "172050.705000", "172052.195000", "172053.685000", "172055.175000", "172056.665000", "172058.155000", "172059.645000", "172101.135000", "172102.625000", "172104.115000", "172105.605000", "172107.095000", "172108.585000", "172110.075000", "172111.565000", "172113.055000", "172114.545000", "172116.035000", "172117.525000", "172119.015000", "172120.505000", "172121.995000", "172123.485000", "172124.975000", "172126.465000", "172127.955000", "172129.445000", "172130.935000", "172132.425000", "172133.915000", "172135.405000", "172136.895000", "172138.385000", "172139.875000", "172141.365000", "172142.855000", "172144.345000", "172145.835000", "172147.325000", "172148.815000", "172150.305000", "172151.795000", "172153.285000", "172154.775000", "172156.265000", "172157.755000", "172159.245000", "172200.735000", "172202.225000", "172203.715000", "172205.205000", "172206.695000", "172208.185000", "172209.675000", "172211.165000", "172212.655000", "172214.145000", "172215.635000", "172217.125000", "172218.615000", "172220.105000", "172221.595000", "172223.085000", "172224.575000", "172226.065000", "172227.555000", "172229.045000", "172230.535000", "172232.025000", "172233.515000", "172235.005000", "172236.495000", "172237.985000", "172239.475000", "172240.965000", "172242.455000", "172243.945000", "172245.435000", "172246.925000", "172248.415000", "172249.905000", "172251.395000", "172252.885000", "172254.375000", "172255.865000", "172257.355000", "172258.845000", "172300.335000", "172301.825000", "172303.315000", "172304.805000", "172306.295000", "172307.785000", "172309.275000", "172310.765000", "172312.255000", "172313.745000", "172315.235000", "172316.725000", "172318.215000", "172319.705000", "172321.195000", "172322.685000", "172324.175000", "172325.665000", "172327.155000", "172328.645000", "172330.135000", "172331.625000", "172333.115000", "172334.605000", "172336.095000", "172337.585000", "172339.075000", "172340.565000", "172342.055000", "172343.545000", "172345.035000", "172346.525000", "172348.015000", "172349.505000", "172350.995000", "172352.485000", "172353.975000", "172355.465000", "172356.955000", "172358.445000", "172359.935000", "172401.425000", "172402.915000", "172404.405000", "172405.895000", "172407.385000", "172408.875000", "172410.365000", "172411.855000", "172413.345000", "172414.835000", "172416.325000", "172417.815000", "172419.305000", "172420.795000", "172422.285000", "172423.775000", "172425.265000", "172426.755000", "172428.245000", "172429.735000", "172431.225000", "172432.715000", "172434.205000", "172435.695000", "172437.185000", "172438.675000", "172440.165000", "172441.655000", "172443.145000", "172444.635000", "172446.125000", "172447.615000", "172449.105000", "172450.595000", "172452.085000", "172453.575000", "172455.065000", "172456.555000", "172458.045000", "172459.535000", "172501.025000", "172502.515000", "172504.005000", "172505.495000", "172506.985000", "172508.475000", "172509.965000", "172511.455000", "172512.945000", "172514.435000", "172515.925000", "172517.415000", "172518.905000", "172520.395000", "172521.885000", "172523.375000", "172524.865000", "172526.355000", "172527.845000", "172529.335000", "172530.825000", "172532.315000", "172533.805000", "172535.295000", "172536.785000", "172538.275000", "172539.765000", "172541.255000", "172542.745000", "172544.235000", "172545.725000", "172547.215000", "172548.705000", "172550.195000", "172551.685000", "172553.175000", "172554.665000", "172556.155000", "172557.645000", "172559.135000", "172600.625000", "172602.115000", "172603.605000", "172605.095000", "172606.585000", "172608.075000", "172609.565000", "172611.055000", "172612.545000", "172614.035000", "172615.525000", "172617.015000", "172618.505000", "172619.995000", "172621.485000", "172622.975000", "172624.465000", "172625.955000", "172627.445000", "172628.935000", "172630.425000", "172631.915000", "172633.405000", "172634.895000", "172636.385000", "172637.875000", "172639.365000", "172640.855000"],
      "ContentTime": ["171953.299000", "171953.302000", "171953.304000", "171953.307000", "171953.309000", "171953.312000", "171953.314000", "171953.317000", "171953.319000", "171953.322000", "171953.324000", "171953.327000", "171953.329000", "171953.338000", "171953.341000", "171953.344000", "171953.351000", "171953.353000", "171953.356000", "171953.358000", "171953.361000", "171953.364000", "171953.366000", "171953.368000", "171953.371000", "171953.374000", "171953.376000", "171953.378000", "171953.381000", "171953.384000", "171953.386000", "171953.388000", "171953.391000", "171953.393000", "171953.396000", "172013.217000", "172013.220000", "172013.222000", "172013.224000", "172013.227000", "172013.230000", "172013.232000", "172013.234000", "172013.237000", "172013.240000", "172013.242000", "172013.244000", "172013.247000", "172013.249000", "172013.252000", "172013.254000", "172013.257000", "172013.259000", "172013.262000", "172013.264000", "172033.233000", "172033.235000", "172033.238000", "172033.240000", "172033.243000", "172033.253000", "172033.256000", "172033.258000", "172033.260000", "172033.263000", "172033.266000", "172033.268000", "172033.271000", "172033.273000", "172033.276000", "172033.278000", "172033.281000", "172033.283000", "172033.286000", "172033.288000", "172053.221000", "172053.223000", "172053.244000", "172053.247000", "172053.249000", "172053.252000", "172053.254000", "172053.257000", "172053.260000", "172053.262000", "172053.265000", "172053.267000", "172053.270000", "172053.273000", "172053.275000", "172053.277000", "172053.280000", "172053.283000", "172053.285000", "172053.288000", "172133.382000", "172133.385000", "172133.395000", "172133.397000", "172133.399000", "172133.402000", "172133.405000", "172133.407000", "172133.410000", "172133.412000", "172133.415000", "172133.418000", "172133.420000", "172133.422000", "172133.425000", "172133.428000", "172133.430000", "172133.433000", "172133.435000", "172133.438000", "172133.440000", "172133.443000", "172133.445000", "172133.448000", "172133.450000", "172133.453000", "172133.455000", "172213.253000", "172213.255000", "172213.258000", "172213.260000", "172213.263000", "172213.266000", "172213.268000", "172213.271000", "172213.274000", "172213.276000", "172213.279000", "172213.281000", "172213.284000", "172213.287000", "172213.290000", "172213.292000", "172213.295000", "172213.297000", "172213.300000", "172213.302000", "172213.305000", "172213.307000", "172213.310000", "172213.312000", "172213.315000", "172213.317000", "172213.320000", "172253.278000", "172253.281000", "172253.284000", "172253.286000", "172253.289000", "172253.291000", "172253.294000", "172253.296000", "172253.299000", "172253.301000", "172253.304000", "172253.306000", "172253.309000", "172253.311000", "172253.314000", "172253.316000", "172253.319000", "172253.321000", "172253.324000", "172253.327000", "172253.329000", "172253.331000", "172253.334000", "172253.337000", "172253.339000", "172253.341000", "172253.344000", "172333.239000", "172333.241000", "172333.244000", "172333.246000", "172333.249000", "172333.251000", "172333.254000", "172333.257000", "172333.259000", "172333.262000", "172333.264000", "172333.267000", "172333.269000", "172333.272000", "172333.274000", "172333.277000", "172333.279000", "172333.282000", "172333.284000", "172333.287000", "172333.290000", "172333.292000", "172333.295000", "172333.297000", "172333.300000", "172333.302000", "172333.305000", "172413.241000", "172413.244000", "172413.247000", "172413.249000", "172413.251000", "172413.254000", "172413.257000", "172413.259000", "172413.262000", "172413.264000", "172413.267000", "172413.269000", "172413.272000", "172413.274000", "172413.277000", "172413.279000", "172413.282000", "172413.284000", "172413.287000", "172413.289000", "172413.292000", "172413.294000", "172413.297000", "172413.300000", "172413.302000", "172413.304000", "172413.307000", "172453.272000", "172453.275000", "172453.278000", "172453.280000", "172453.283000", "172453.285000", "172453.288000", "172453.290000", "172453.293000", "172453.295000", "172453.298000", "172453.300000", "172453.303000", "172453.306000", "172453.308000", "172453.311000", "172453.313000", "172453.316000", "172453.318000", "172453.321000", "172453.323000", "172453.326000", "172453.328000", "172453.331000", "172453.333000", "172453.336000", "172533.235000", "172533.238000", "172533.241000", "172533.243000", "172533.246000", "172533.248000", "172533.251000", "172533.253000", "172533.256000", "172533.258000", "172533.261000", "172533.263000", "172533.266000", "172533.268000", "172533.271000", "172533.273000", "172533.276000", "172533.278000", "172533.281000", "172533.283000", "172533.286000", "172533.288000", "172533.291000", "172533.294000", "172533.296000", "172533.299000", "172533.301000", "172613.231000", "172613.234000", "172613.236000", "172613.239000", "172613.242000", "172613.244000", "172613.247000", "172613.249000", "172613.252000", "172613.254000", "172613.257000", "172613.259000", "172613.262000", "172613.264000", "172613.267000", "172613.269000", "172613.272000", "172613.274000", "172613.277000", "172613.279000", "172613.282000", "172613.284000", "172613.287000", "172613.290000", "172613.292000", "172613.294000", "172613.297000", "172644.832000", "172644.835000", "172644.837000", "172644.840000", "172644.842000", "172644.845000", "172644.848000", "172644.850000", "172644.853000", "172644.855000", "172644.858000", "172644.860000", "172644.863000", "172644.865000", "172644.868000", "172644.870000", "172644.873000", "172644.875000", "172644.878000", "172644.881000", "172644.883000"],
      "InstanceCreationTime": ["171953.299000", "171953.302000", "171953.304000", "171953.307000", "171953.309000", "171953.312000", "171953.314000", "171953.317000", "171953.319000", "171953.322000", "171953.324000", "171953.327000", "171953.329000", "171953.338000", "171953.341000", "171953.344000", "171953.351000", "171953.353000", "171953.356000", "171953.358000", "171953.361000", "171953.364000", "171953.366000", "171953.368000", "171953.371000", "171953.374000", "171953.376000", "171953.378000", "171953.381000", "171953.384000", "171953.386000", "171953.388000", "171953.391000", "171953.393000", "171953.396000", "172013.217000", "172013.220000", "172013.222000", "172013.224000", "172013.227000", "172013.230000", "172013.232000", "172013.234000", "172013.237000", "172013.240000", "172013.242000", "172013.244000", "172013.247000", "172013.249000", "172013.252000", "172013.254000", "172013.257000", "172013.259000", "172013.262000", "172013.264000", "172033.233000", "172033.235000", "172033.238000", "172033.240000", "172033.243000", "172033.253000", "172033.256000", "172033.258000", "172033.260000", "172033.263000", "172033.266000", "172033.268000", "172033.271000", "172033.273000", "172033.276000", "172033.278000", "172033.281000", "172033.283000", "172033.286000", "172033.288000", "172053.221000", "172053.223000", "172053.244000", "172053.247000", "172053.249000", "172053.252000", "172053.254000", "172053.257000", "172053.260000", "172053.262000", "172053.265000", "172053.267000", "172053.270000", "172053.273000", "172053.275000", "172053.277000", "172053.280000", "172053.283000", "172053.285000", "172053.288000", "172133.382000", "172133.385000", "172133.395000", "172133.397000", "172133.399000", "172133.402000", "172133.405000", "172133.407000", "172133.410000", "172133.412000", "172133.415000", "172133.418000", "172133.420000", "172133.422000", "172133.425000", "172133.428000", "172133.430000", "172133.433000", "172133.435000", "172133.438000", "172133.440000", "172133.443000", "172133.445000", "172133.448000", "172133.450000", "172133.453000", "172133.455000", "172213.253000", "172213.255000", "172213.258000", "172213.260000", "172213.263000", "172213.266000", "172213.268000", "172213.271000", "172213.274000", "172213.276000", "172213.279000", "172213.281000", "172213.284000", "172213.287000", "172213.290000", "172213.292000", "172213.295000", "172213.297000", "172213.300000", "172213.302000", "172213.305000", "172213.307000", "172213.310000", "172213.312000", "172213.315000", "172213.317000", "172213.320000", "172253.278000", "172253.281000", "172253.284000", "172253.286000", "172253.289000", "172253.291000", "172253.294000", "172253.296000", "172253.299000", "172253.301000", "172253.304000", "172253.306000", "172253.309000", "172253.311000", "172253.314000", "172253.316000", "172253.319000", "172253.321000", "172253.324000", "172253.327000", "172253.329000", "172253.331000", "172253.334000", "172253.337000", "172253.339000", "172253.341000", "172253.344000", "172333.239000", "172333.241000", "172333.244000", "172333.246000", "172333.249000", "172333.251000", "172333.254000", "172333.257000", "172333.259000", "172333.262000", "172333.264000", "172333.267000", "172333.269000", "172333.272000", "172333.274000", "172333.277000", "172333.279000", "172333.282000", "172333.284000", "172333.287000", "172333.290000", "172333.292000", "172333.295000", "172333.297000", "172333.300000", "172333.302000", "172333.305000", "172413.241000", "172413.244000", "172413.247000", "172413.249000", "172413.251000", "172413.254000", "172413.257000", "172413.259000", "172413.262000", "172413.264000", "172413.267000", "172413.269000", "172413.272000", "172413.274000", "172413.277000", "172413.279000", "172413.282000", "172413.284000", "172413.287000", "172413.289000", "172413.292000", "172413.294000", "172413.297000", "172413.300000", "172413.302000", "172413.304000", "172413.307000", "172453.272000", "172453.275000", "172453.278000", "172453.280000", "172453.283000", "172453.285000", "172453.288000", "172453.290000", "172453.293000", "172453.295000", "172453.298000", "172453.300000", "172453.303000", "172453.306000", "172453.308000", "172453.311000", "172453.313000", "172453.316000", "172453.318000", "172453.321000", "172453.323000", "172453.326000", "172453.328000", "172453.331000", "172453.333000", "172453.336000", "172533.235000", "172533.238000", "172533.241000", "172533.243000", "172533.246000", "172533.248000", "172533.251000", "172533.253000", "172533.256000", "172533.258000", "172533.261000", "172533.263000", "172533.266000", "172533.268000", "172533.271000", "172533.273000", "172533.276000", "172533.278000", "172533.281000", "172533.283000", "172533.286000", "172533.288000", "172533.291000", "172533.294000", "172533.296000", "172533.299000", "172533.301000", "172613.231000", "172613.234000", "172613.236000", "172613.239000", "172613.242000", "172613.244000", "172613.247000", "172613.249000", "172613.252000", "172613.254000", "172613.257000", "172613.259000", "172613.262000", "172613.264000", "172613.267000", "172613.269000", "172613.272000", "172613.274000", "172613.277000", "172613.279000", "172613.282000", "172613.284000", "172613.287000", "172613.290000", "172613.292000", "172613.294000", "172613.297000", "172644.832000", "172644.835000", "172644.837000", "172644.840000", "172644.842000", "172644.845000", "172644.848000", "172644.850000", "172644.853000", "172644.855000", "172644.858000", "172644.860000", "172644.863000", "172644.865000", "172644.868000", "172644.870000", "172644.873000", "172644.875000", "172644.878000", "172644.881000", "172644.883000"],
      "InstanceNumber": [1, 2, 3, 4, 5, 6, 7, 8, 9, 10, 11, 12, 13, 14, 15, 16, 17, 18, 19, 20, 21, 22, 23, 24, 25, 26, 27, 28, 29, 30, 31, 32, 33, 34, 35, 36, 37, 38, 39, 40, 41, 42, 43, 44, 45, 46, 47, 48, 49, 50, 51, 52, 53, 54, 55, 56, 57, 58, 59, 60, 61, 62, 63, 64, 65, 66, 67, 68, 69, 70, 71, 72, 73, 74, 75, 76, 77, 78, 79, 80, 81, 82, 83, 84, 85, 86, 87, 88, 89, 90, 91, 92, 93, 94, 95, 96, 97, 98, 99, 100, 101, 102, 103, 104, 105, 106, 107, 108, 109, 110, 111, 112, 113, 114, 115, 116, 117, 118, 119, 120, 121, 122, 123, 124, 125, 126, 127, 128, 129, 130, 131, 132, 133, 134, 135, 136, 137, 138, 139, 140, 141, 142, 143, 144, 145, 146, 147, 148, 149, 150, 151, 152, 153, 154, 155, 156, 157, 158, 159, 160, 161, 162, 163, 164, 165, 166, 167, 168, 169, 170, 171, 172, 173, 174, 175, 176, 177, 178, 179, 180, 181, 182, 183, 184, 185, 186, 187, 188, 189, 190, 191, 192, 193, 194, 195, 196, 197, 198, 199, 200, 201, 202, 203, 204, 205, 206, 207, 208, 209, 210, 211, 212, 213, 214, 215, 216, 217, 218, 219, 220, 221, 222, 223, 224, 225, 226, 227, 228, 229, 230, 231, 232, 233, 234, 235, 236, 237, 238, 239, 240, 241, 242, 243, 244, 245, 246, 247, 248, 249, 250, 251, 252, 253, 254, 255, 256, 257, 258, 259, 260, 261, 262, 263, 264, 265, 266, 267, 268, 269, 270, 271, 272, 273, 274, 275, 276, 277, 278, 279, 280, 281, 282, 283, 284, 285, 286, 287, 288, 289, 290, 291, 292, 293, 294, 295, 296, 297, 298, 299, 300, 301, 302, 303, 304, 305, 306, 307, 308, 309, 310, 311, 312, 313, 314, 315, 316, 317, 318, 319, 320, 321, 322, 323, 324, 325, 326, 327, 328, 329, 330, 331],
      "WindowCenter": [4824.0, 4824.0, 4824.0, 4824.0, 4822.0, 4844.0, 4824.0, 4846.0, 4820.0, 4826.0, 4826.0, 4848.0, 4824.0, 4824.0, 4824.0, 4850.0, 4850.0, 4824.0, 4846.0, 4826.0, 4848.0, 4824.0, 4828.0, 4826.0, 4826.0, 4850.0, 4850.0, 4848.0, 4850.0, 4850.0, 4852.0, 4848.0, 4850.0, 4826.0, 4846.0, 4852.0, 4848.0, 4822.0, 4848.0, 4828.0, 4850.0, 4852.0, 4850.0, 4848.0, 4848.0, 4850.0, 4854.0, 4848.0, 4848.0, 4850.0, 4852.0, 4852.0, 4846.0, 4852.0, 4848.0, 4826.0, 4848.0, 4848.0, 4848.0, 4852.0, 4850.0, 4852.0, 4850.0, 4850.0, 4852.0, 4848.0, 4850.0, 4854.0, 4826.0, 4828.0, 4854.0, 4848.0, 4850.0, 4850.0, 4850.0, 4846.0, 4850.0, 4848.0, 4848.0, 4850.0, 4848.0, 4848.0, 4850.0, 4848.0, 4850.0, 4848.0, 4850.0, 4848.0, 4848.0, 4852.0, 4850.0, 4850.0, 4826.0, 4848.0, 4850.0, 4848.0, 4826.0, 4848.0, 4850.0, 4848.0, 4848.0, 4850.0, 4850.0, 4824.0, 4850.0, 4850.0, 4850.0, 4848.0, 4846.0, 4850.0, 4850.0, 4850.0, 4848.0, 4852.0, 4852.0, 4848.0, 4848.0, 4848.0, 4848.0, 4848.0, 4850.0, 4850.0, 4850.0, 4850.0, 4852.0, 4828.0, 4850.0, 4852.0, 4850.0, 4850.0, 4850.0, 4850.0, 4852.0, 4850.0, 4850.0, 4848.0, 4852.0, 4852.0, 4854.0, 4854.0, 4854.0, 4850.0, 4848.0, 4850.0, 4852.0, 4852.0, 4852.0, 4852.0, 4852.0, 4854.0, 4852.0, 4850.0, 4850.0, 4852.0, 4850.0, 4854.0, 4852.0, 4850.0, 4854.0, 4850.0, 4852.0, 4852.0, 4852.0, 4852.0, 4852.0, 4854.0, 4850.0, 4854.0, 4850.0, 4850.0, 4852.0, 4852.0, 4850.0, 4850.0, 4852.0, 4848.0, 4854.0, 4852.0, 4854.0, 4852.0, 4852.0, 4854.0, 4850.0, 4852.0, 4852.0, 4850.0, 4856.0, 4852.0, 4852.0, 4852.0, 4850.0, 4848.0, 4850.0, 4850.0, 4852.0, 4854.0, 4852.0, 4848.0, 4852.0, 4848.0, 4850.0, 4850.0, 4854.0, 4852.0, 4854.0, 4850.0, 4850.0, 4854.0, 4852.0, 4852.0, 4850.0, 4850.0, 4852.0, 4854.0, 4854.0, 4854.0, 4854.0, 4856.0, 4854.0, 4852.0, 4850.0, 4850.0, 4850.0, 4852.0, 4850.0, 4850.0, 4852.0, 4852.0, 4852.0, 4852.0, 4850.0, 4852.0, 4852.0, 4852.0, 4850.0, 4852.0, 4854.0, 4850.0, 4856.0, 4854.0, 4854.0, 4852.0, 4852.0, 4852.0, 4852.0, 4854.0, 4852.0, 4856.0, 4852.0, 4852.0, 4852.0, 4850.0, 4850.0, 4854.0, 4850.0, 4854.0, 4854.0, 4852.0, 4846.0, 4850.0, 4848.0, 4848.0, 4848.0, 4852.0, 4850.0, 4848.0, 4850.0, 4848.0, 4848.0, 4846.0, 4848.0, 4848.0, 4852.0, 4848.0, 4848.0, 4848.0, 4846.0, 4844.0, 4848.0, 4848.0, 4848.0, 4850.0, 4850.0, 4848.0, 4850.0, 4852.0, 4848.0, 4850.0, 4848.0, 4850.0, 4848.0, 4852.0, 4852.0, 4852.0, 4854.0, 4850.0, 4852.0, 4854.0, 4854.0, 4852.0, 4852.0, 4852.0, 4850.0, 4852.0, 4852.0, 4852.0, 4854.0, 4852.0, 4850.0, 4856.0, 4854.0, 4854.0, 4850.0, 4850.0, 4854.0, 4854.0, 4854.0, 4852.0, 4852.0, 4852.0, 4852.0, 4850.0, 4854.0, 4850.0, 4852.0, 4852.0, 4854.0, 4854.0, 4852.0, 4854.0, 4850.0],
