{
  "AcquisitionMatrixPE": 104,
  "AcquisitionNumber": 1,
  "AcquisitionTime": "17:38:13.665000",
  "BandwidthPerPixelPhaseEncode": 17.17,
  "BaseResolution": 104,
  "BodyPartExamined": "BRAIN",
  "CoilCombinationMethod": "Sum of Squares",
  "ConsistencyInfo": "N4_VE11C_LATEST_20160120",
  "ConversionSoftware": "dcm2niix",
  "ConversionSoftwareVersion": "v1.0.20220505",
  "DerivedVendorReportedEchoSpacing": 0.000560011,
  "DeviceSerialNumber": "167006",
  "DwellTime": 2.1e-06,
  "EchoTime": 0.037,
  "EchoTime1": 0.037,
  "EchoTime2": 0.001,
  "EchoTrainLength": 104,
  "EffectiveEchoSpacing": 0.000560011,
  "FlipAngle": 52,
  "HeudiconvVersion": "0.5.3.post811+g6206e14",
  "ImageComments": "Unaliased MB4/PE3/LB",
  "ImageOrientationPatientDICOM": [0.993461, 0.112918, 0.0169013, -0.0984601, 0.922226, -0.373904],
  "ImageOrientationText": "Tra>Cor(-21.7)>Sag(3.3)",
  "ImageType": [
    "ORIGINAL",
    "PRIMARY",
    "P",
    "MB",
    "ND",
    "MOSAIC",
    "PHASE"
],
  "ImagingFrequency": 123.26,
  "InPlanePhaseEncodingDirectionDICOM": "COL",
  "InstitutionAddress": "Chemin Queen-Mary 4565,Montreal,District,CA,H3W 1W5",
  "InstitutionName": "IUGM",
  "InstitutionalDepartmentName": "Department",
  "MRAcquisitionType": "2D",
  "MagneticFieldStrength": 3,
  "Manufacturer": "Siemens",
  "ManufacturersModelName": "Prisma_fit",
  "MatrixCoilMode": "SENSE",
  "Modality": "MR",
  "MultibandAccelerationFactor": 4,
  "PartialFourier": 1,
  "PatientPosition": "HFS",
  "PercentPhaseFOV": 100,
  "PercentSampling": 100,
  "PhaseEncodingDirection": "j",
  "PhaseEncodingSteps": 104,
  "PhaseResolution": 1,
  "PixelBandwidth": 2290,
  "ProcedureStepDescription": "games^mario3",
  "ProtocolName": "func_task-mario3_run-03",
  "PulseSequenceDetails": "%CustomerSeq%\\cmrr_mbep2d_bold",
  "ReceiveCoilActiveElements": "HC1-7;NC1,2",
  "ReceiveCoilName": "HeadNeck_64",
  "ReconMatrixPE": 104,
  "RepetitionTime": 1.49,
  "SAR": 0.0475633,
  "ScanOptions": "FS",
  "ScanningSequence": "EP",
  "SequenceName": "epfid2d1_104",
  "SequenceVariant": "SK\\SS",
  "SeriesDescription": "func_task-mario3_run-03",
  "SeriesNumber": 17,
  "ShimSetting": [618, -7207, -8804, 658, 99, -29, -55, 22],
  "SliceThickness": 2,
  "SliceTiming": [0, 0.785, 0.0975, 0.8825, 0.195, 0.98, 0.295, 1.0775, 0.3925, 1.175, 0.49, 1.275, 0.5875, 1.3725, 0.685, 0, 0.785, 0.0975, 0.8825, 0.195, 0.98, 0.295, 1.0775, 0.3925, 1.175, 0.49, 1.275, 0.5875, 1.3725, 0.685, 0, 0.785, 0.0975, 0.8825, 0.195, 0.98, 0.295, 1.0775, 0.3925, 1.175, 0.49, 1.275, 0.5875, 1.3725, 0.685, 0, 0.785, 0.0975, 0.8825, 0.195, 0.98, 0.295, 1.0775, 0.3925, 1.175, 0.49, 1.275, 0.5875, 1.3725, 0.685],
  "SoftwareVersions": "syngo MR E11",
  "SpacingBetweenSlices": 2,
  "StationName": "MRC35049",
  "TaskName": "mario3",
  "TotalReadoutTime": 0.0576811,
  "TxRefAmp": 254.136,
  "WipMemBlock": "e661d058-5893-4e82-9001-2a3414cf6a9c||Sequence: R017 ve11c/master r/75a17815+; Jun 28 2022 16:32:11 by eja",
  "dcmmeta_affine": [
    [-1.9869211912155151, -0.19692011177539825, 0.1156143993139267, 111.78648376464844],
    [-0.22583535313606262, 1.8444525003433228, -0.7395901083946228, -55.50572967529297],
    [0.03380254656076431, 0.7478085160255432, 1.8546266555786133, -64.60745239257812],
    [0.0, 0.0, 0.0, 1.0]
],
  "dcmmeta_reorient_transform": [
    [0.0, -1.0, 0.0, 103.0],
    [1.0, 0.0, 0.0, 0.0],
    [0.0, 0.0, 1.0, 0.0],
    [0.0, 0.0, 0.0, 1.0]
],
  "dcmmeta_shape": [104, 104, 60, 600],
  "dcmmeta_slice_dim": 2,
  "dcmmeta_version": 0.6,
  "global": {
    "const": {
      "AcquisitionMatrix": [104, 0, 0, 104],
      "AngioFlag": "N",
      "BitsAllocated": 16,
      "BitsStored": 16,
      "BodyPartExamined": "BRAIN",
      "Columns": 832,
      "EchoNumbers": 1,
      "EchoTime": 37.0,
      "EchoTrainLength": 104,
      "FlipAngle": 52.0,
      "HighBit": 15,
      "ImageOrientationPatient": [0.99346059042697, 0.11291767894472, 0.01690127362764, -0.098460058624, 0.9222262356434, -0.3739042486343],
      "ImagePositionPatient": [-743.06409630109, -888.05764427069, 272.31499029646],
      "ImageType": [
        "ORIGINAL",
        "PRIMARY",
        "P",
        "MB",
        "ND",
        "MOSAIC"
],
      "ImagedNucleus": "1H",
      "ImagingFrequency": 123.260243,
      "InPlanePhaseEncodingDirection": "COL",
      "LargestImagePixelValue": 4095,
      "MRAcquisitionType": "2D",
      "MagneticFieldStrength": 3.0,
      "Manufacturer": "SIEMENS",
      "ManufacturerModelName": "Prisma_fit",
      "Modality": "MR",
      "NumberOfAverages": 1.0,
      "NumberOfPhaseEncodingSteps": 104,
      "PercentPhaseFieldOfView": 100.0,
      "PercentSampling": 100.0,
      "PerformedProcedureStepStartTime": "171248.602000",
      "PhotometricInterpretation": "MONOCHROME2",
      "PixelBandwidth": 2290.0,
      "PixelRepresentation": 0,
      "PixelSpacing": [2.0, 2.0],
      "ProtocolName": "func_task-mario3_run-03",
      "RepetitionTime": 1490.0,
      "RescaleIntercept": -4096.0,
      "RescaleSlope": 2.0,
      "RescaleType": "US",
      "Rows": 832,
      "SAR": 0.04756325517629,
      "SamplesPerPixel": 1,
      "ScanOptions": "FS",
      "ScanningSequence": "EP",
      "SequenceName": "epfid2d1_104",
      "SequenceVariant": [
        "SK",
        "SS"
],
      "SeriesDescription": "func_task-mario3_run-03",
      "SeriesNumber": 17,
      "SeriesTime": "173938.704000",
      "SliceLocation": -32.92354180599,
      "SliceThickness": 2.0,
      "SmallestImagePixelValue": 0,
      "SoftwareVersions": "syngo MR E11",
      "SpacingBetweenSlices": 2.0000000371414,
      "SpecificCharacterSet": "ISO_IR 100",
      "StudyID": "1",
      "StudyTime": "171248.538000",
      "TransmitCoilName": "Body",
      "VariableFlipAngleFlag": "N",
      "WindowCenterWidthExplanation": "Algo1",
      "dBdt": 0.0},
    "slices": {}
  },
  "time": {
    "samples": {
      "AcquisitionNumber": [1, 2, 3, 4, 5, 6, 7, 8, 9, 10, 11, 12, 13, 14, 15, 16, 17, 18, 19, 20, 21, 22, 23, 24, 25, 26, 27, 28, 29, 30, 31, 32, 33, 34, 35, 36, 37, 38, 39, 40, 41, 42, 43, 44, 45, 46, 47, 48, 49, 50, 51, 52, 53, 54, 55, 56, 57, 58, 59, 60, 61, 62, 63, 64, 65, 66, 67, 68, 69, 70, 71, 72, 73, 74, 75, 76, 77, 78, 79, 80, 81, 82, 83, 84, 85, 86, 87, 88, 89, 90, 91, 92, 93, 94, 95, 96, 97, 98, 99, 100, 101, 102, 103, 104, 105, 106, 107, 108, 109, 110, 111, 112, 113, 114, 115, 116, 117, 118, 119, 120, 121, 122, 123, 124, 125, 126, 127, 128, 129, 130, 131, 132, 133, 134, 135, 136, 137, 138, 139, 140, 141, 142, 143, 144, 145, 146, 147, 148, 149, 150, 151, 152, 153, 154, 155, 156, 157, 158, 159, 160, 161, 162, 163, 164, 165, 166, 167, 168, 169, 170, 171, 172, 173, 174, 175, 176, 177, 178, 179, 180, 181, 182, 183, 184, 185, 186, 187, 188, 189, 190, 191, 192, 193, 194, 195, 196, 197, 198, 199, 200, 201, 202, 203, 204, 205, 206, 207, 208, 209, 210, 211, 212, 213, 214, 215, 216, 217, 218, 219, 220, 221, 222, 223, 224, 225, 226, 227, 228, 229, 230, 231, 232, 233, 234, 235, 236, 237, 238, 239, 240, 241, 242, 243, 244, 245, 246, 247, 248, 249, 250, 251, 252, 253, 254, 255, 256, 257, 258, 259, 260, 261, 262, 263, 264, 265, 266, 267, 268, 269, 270, 271, 272, 273, 274, 275, 276, 277, 278, 279, 280, 281, 282, 283, 284, 285, 286, 287, 288, 289, 290, 291, 292, 293, 294, 295, 296, 297, 298, 299, 300, 301, 302, 303, 304, 305, 306, 307, 308, 309, 310, 311, 312, 313, 314, 315, 316, 317, 318, 319, 320, 321, 322, 323, 324, 325, 326, 327, 328, 329, 330, 331, 332, 333, 334, 335, 336, 337, 338, 339, 340, 341, 342, 343, 344, 345, 346, 347, 348, 349, 350, 351, 352, 353, 354, 355, 356, 357, 358, 359, 360, 361, 362, 363, 364, 365, 366, 367, 368, 369, 370, 371, 372, 373, 374, 375, 376, 377, 378, 379, 380, 381, 382, 383, 384, 385, 386, 387, 388, 389, 390, 391, 392, 393, 394, 395, 396, 397, 398, 399, 400, 401, 402, 403, 404, 405, 406, 407, 408, 409, 410, 411, 412, 413, 414, 415, 416, 417, 418, 419, 420, 421, 422, 423, 424, 425, 426, 427, 428, 429, 430, 431, 432, 433, 434, 435, 436, 437, 438, 439, 440, 441, 442, 443, 444, 445, 446, 447, 448, 449, 450, 451, 452, 453, 454, 455, 456, 457, 458, 459, 460, 461, 462, 463, 464, 465, 466, 467, 468, 469, 470, 471, 472, 473, 474, 475, 476, 477, 478, 479, 480, 481, 482, 483, 484, 485, 486, 487, 488, 489, 490, 491, 492, 493, 494, 495, 496, 497, 498, 499, 500, 501, 502, 503, 504, 505, 506, 507, 508, 509, 510, 511, 512, 513, 514, 515, 516, 517, 518, 519, 520, 521, 522, 523, 524, 525, 526, 527, 528, 529, 530, 531, 532, 533, 534, 535, 536, 537, 538, 539, 540, 541, 542, 543, 544, 545, 546, 547, 548, 549, 550, 551, 552, 553, 554, 555, 556, 557, 558, 559, 560, 561, 562, 563, 564, 565, 566, 567, 568, 569, 570, 571, 572, 573, 574, 575, 576, 577, 578, 579, 580, 581, 582, 583, 584, 585, 586, 587, 588, 589, 590, 591, 592, 593, 594, 595, 596, 597, 598, 599, 600],
      "AcquisitionTime": ["173813.665000", "173815.155000", "173816.645000", "173818.135000", "173819.625000", "173821.115000", "173822.605000", "173824.095000", "173825.585000", "173827.075000", "173828.565000", "173830.055000", "173831.545000", "173833.035000", "173834.525000", "173836.015000", "173837.505000", "173838.995000", "173840.485000", "173841.975000", "173843.465000", "173844.955000", "173846.445000", "173847.935000", "173849.425000", "173850.915000", "173852.405000", "173853.895000", "173855.385000", "173856.875000", "173858.365000", "173859.855000", "173901.345000", "173902.835000", "173904.325000", "173905.815000", "173907.305000", "173908.795000", "173910.285000", "173911.775000", "173913.265000", "173914.755000", "173916.245000", "173917.735000", "173919.225000", "173920.715000", "173922.205000", "173923.695000", "173925.185000", "173926.675000", "173928.165000", "173929.655000", "173931.145000", "173932.635000", "173934.125000", "173935.615000", "173937.105000", "173938.595000", "173940.085000", "173941.575000", "173943.065000", "173944.555000", "173946.045000", "173947.535000", "173949.025000", "173950.515000", "173952.005000", "173953.495000", "173954.985000", "173956.475000", "173957.965000", "173959.455000", "174000.945000", "174002.435000", "174003.925000", "174005.415000", "174006.905000", "174008.395000", "174009.885000", "174011.375000", "174012.865000", "174014.355000", "174015.845000", "174017.335000", "174018.825000", "174020.315000", "174021.805000", "174023.295000", "174024.785000", "174026.275000", "174027.765000", "174029.255000", "174030.745000", "174032.235000", "174033.725000", "174035.215000", "174036.705000", "174038.195000", "174039.685000", "174041.175000", "174042.665000", "174044.155000", "174045.645000", "174047.135000", "174048.625000", "174050.115000", "174051.605000", "174053.095000", "174054.585000", "174056.075000", "174057.565000", "174059.055000", "174100.545000", "174102.035000", "174103.525000", "174105.015000", "174106.505000", "174107.995000", "174109.485000", "174110.975000", "174112.465000", "174113.955000", "174115.445000", "174116.935000", "174118.425000", "174119.915000", "174121.405000", "174122.895000", "174124.385000", "174125.875000", "174127.365000", "174128.855000", "174130.345000", "174131.835000", "174133.325000", "174134.815000", "174136.305000", "174137.795000", "174139.285000", "174140.775000", "174142.265000", "174143.755000", "174145.245000", "174146.735000", "174148.225000", "174149.715000", "174151.205000", "174152.695000", "174154.185000", "174155.675000", "174157.165000", "174158.655000", "174200.145000", "174201.635000", "174203.125000", "174204.615000", "174206.105000", "174207.595000", "174209.085000", "174210.575000", "174212.065000", "174213.555000", "174215.045000", "174216.535000", "174218.025000", "174219.515000", "174221.005000", "174222.495000", "174223.985000", "174225.475000", "174226.965000", "174228.455000", "174229.945000", "174231.435000", "174232.925000", "174234.415000", "174235.905000", "174237.395000", "174238.885000", "174240.375000", "174241.865000", "174243.355000", "174244.845000", "174246.335000", "174247.825000", "174249.315000", "174250.805000", "174252.295000", "174253.785000", "174255.275000", "174256.765000", "174258.255000", "174259.745000", "174301.235000", "174302.725000", "174304.215000", "174305.705000", "174307.195000", "174308.685000", "174310.175000", "174311.665000", "174313.155000", "174314.645000", "174316.135000", "174317.625000", "174319.115000", "174320.605000", "174322.095000", "174323.585000", "174325.075000", "174326.565000", "174328.055000", "174329.545000", "174331.035000", "174332.525000", "174334.015000", "174335.505000", "174336.995000", "174338.485000", "174339.975000", "174341.465000", "174342.955000", "174344.445000", "174345.935000", "174347.425000", "174348.915000", "174350.405000", "174351.895000", "174353.385000", "174354.875000", "174356.365000", "174357.855000", "174359.345000", "174400.835000", "174402.325000", "174403.815000", "174405.305000", "174406.795000", "174408.285000", "174409.775000", "174411.265000", "174412.755000", "174414.245000", "174415.735000", "174417.225000", "174418.715000", "174420.205000", "174421.695000", "174423.185000", "174424.675000", "174426.165000", "174427.655000", "174429.145000", "174430.635000", "174432.125000", "174433.615000", "174435.105000", "174436.595000", "174438.085000", "174439.575000", "174441.065000", "174442.555000", "174444.045000", "174445.535000", "174447.025000", "174448.515000", "174450.005000", "174451.495000", "174452.985000", "174454.475000", "174455.965000", "174457.455000", "174458.945000", "174500.435000", "174501.925000", "174503.415000", "174504.905000", "174506.395000", "174507.885000", "174509.375000", "174510.865000", "174512.355000", "174513.845000", "174515.335000", "174516.825000", "174518.315000", "174519.805000", "174521.295000", "174522.785000", "174524.275000", "174525.765000", "174527.255000", "174528.745000", "174530.235000", "174531.725000", "174533.215000", "174534.705000", "174536.195000", "174537.685000", "174539.175000", "174540.665000", "174542.155000", "174543.645000", "174545.135000", "174546.625000", "174548.115000", "174549.605000", "174551.095000", "174552.585000", "174554.075000", "174555.565000", "174557.055000", "174558.545000", "174600.035000", "174601.525000", "174603.015000", "174604.505000", "174605.995000", "174607.485000", "174608.975000", "174610.465000", "174611.955000", "174613.445000", "174614.935000", "174616.425000", "174617.915000", "174619.405000", "174620.895000", "174622.385000", "174623.875000", "174625.365000", "174626.855000", "174628.345000", "174629.835000", "174631.325000", "174632.815000", "174634.305000", "174635.795000", "174637.285000", "174638.775000", "174640.265000", "174641.755000", "174643.245000", "174644.735000", "174646.225000", "174647.715000", "174649.205000", "174650.695000", "174652.185000", "174653.675000", "174655.165000", "174656.655000", "174658.145000", "174659.635000", "174701.125000", "174702.615000", "174704.105000", "174705.595000", "174707.085000", "174708.575000", "174710.065000", "174711.555000", "174713.045000", "174714.535000", "174716.025000", "174717.515000", "174719.005000", "174720.495000", "174721.985000", "174723.475000", "174724.965000", "174726.455000", "174727.945000", "174729.435000", "174730.925000", "174732.415000", "174733.905000", "174735.395000", "174736.885000", "174738.375000", "174739.865000", "174741.355000", "174742.845000", "174744.335000", "174745.825000", "174747.315000", "174748.805000", "174750.295000", "174751.785000", "174753.275000", "174754.765000", "174756.255000", "174757.745000", "174759.235000", "174800.725000", "174802.215000", "174803.705000", "174805.195000", "174806.685000", "174808.175000", "174809.665000", "174811.155000", "174812.645000", "174814.135000", "174815.625000", "174817.115000", "174818.605000", "174820.095000", "174821.585000", "174823.075000", "174824.565000", "174826.055000", "174827.545000", "174829.035000", "174830.525000", "174832.015000", "174833.505000", "174834.995000", "174836.485000", "174837.975000", "174839.465000", "174840.955000", "174842.445000", "174843.935000", "174845.425000", "174846.915000", "174848.405000", "174849.895000", "174851.385000", "174852.875000", "174854.365000", "174855.855000", "174857.345000", "174858.835000", "174900.325000", "174901.815000", "174903.305000", "174904.795000", "174906.285000", "174907.775000", "174909.265000", "174910.755000", "174912.245000", "174913.735000", "174915.225000", "174916.715000", "174918.205000", "174919.695000", "174921.185000", "174922.675000", "174924.165000", "174925.655000", "174927.145000", "174928.635000", "174930.125000", "174931.615000", "174933.105000", "174934.595000", "174936.085000", "174937.575000", "174939.065000", "174940.555000", "174942.045000", "174943.535000", "174945.025000", "174946.515000", "174948.005000", "174949.495000", "174950.985000", "174952.475000", "174953.965000", "174955.455000", "174956.945000", "174958.435000", "174959.925000", "175001.415000", "175002.905000", "175004.395000", "175005.885000", "175007.375000", "175008.865000", "175010.355000", "175011.845000", "175013.335000", "175014.825000", "175016.315000", "175017.805000", "175019.295000", "175020.785000", "175022.275000", "175023.765000", "175025.255000", "175026.745000", "175028.235000", "175029.725000", "175031.215000", "175032.705000", "175034.195000", "175035.685000", "175037.175000", "175038.665000", "175040.155000", "175041.645000", "175043.135000", "175044.625000", "175046.115000", "175047.605000", "175049.095000", "175050.585000", "175052.075000", "175053.565000", "175055.055000", "175056.545000", "175058.035000", "175059.525000", "175101.015000", "175102.505000", "175103.995000", "175105.485000", "175106.975000", "175108.465000", "175109.955000", "175111.445000", "175112.935000", "175114.425000", "175115.915000", "175117.405000", "175118.895000", "175120.385000", "175121.875000", "175123.365000", "175124.855000", "175126.345000", "175127.835000", "175129.325000", "175130.815000", "175132.305000", "175133.795000", "175135.285000", "175136.775000", "175138.265000", "175139.755000", "175141.245000", "175142.735000", "175144.225000", "175145.715000", "175147.205000", "175148.695000", "175150.185000", "175151.675000", "175153.165000", "175154.655000", "175156.145000", "175157.635000", "175159.125000", "175200.615000", "175202.105000", "175203.595000", "175205.085000", "175206.575000", "175208.065000", "175209.555000", "175211.045000", "175212.535000", "175214.025000", "175215.515000", "175217.005000", "175218.495000", "175219.985000", "175221.475000", "175222.965000", "175224.455000", "175225.945000", "175227.435000", "175228.925000", "175230.415000", "175231.905000", "175233.395000", "175234.885000", "175236.375000", "175237.865000", "175239.355000", "175240.845000", "175242.335000", "175243.825000", "175245.315000", "175246.805000", "175248.295000", "175249.785000", "175251.275000", "175252.765000", "175254.255000", "175255.745000", "175257.235000", "175258.725000", "175300.215000", "175301.705000", "175303.195000", "175304.685000", "175306.175000"],
      "ContentTime": ["173938.706000", "173938.708000", "173938.711000", "173938.713000", "173938.723000", "173938.725000", "173938.728000", "173938.730000", "173938.733000", "173938.735000", "173938.738000", "173938.740000", "173938.743000", "173938.761000", "173938.764000", "173938.766000", "173938.769000", "173938.772000", "173938.774000", "173938.777000", "173938.779000", "173938.782000", "173938.784000", "173938.787000", "173938.789000", "173938.792000", "173938.794000", "173938.814000", "173938.816000", "173938.819000", "173938.821000", "173938.824000", "173938.826000", "173938.829000", "173958.634000", "173958.637000", "173958.639000", "173958.642000", "173958.644000", "173958.647000", "173958.649000", "173958.652000", "173958.654000", "173958.657000", "173958.659000", "173958.662000", "173958.664000", "173958.667000", "173958.669000", "173958.672000", "173958.674000", "173958.677000", "173958.679000", "173958.682000", "174018.954000", "174018.957000", "174018.959000", "174018.962000", "174018.964000", "174018.967000", "174018.969000", "174018.972000", "174018.974000", "174018.977000", "174018.979000", "174018.981000", "174018.984000", "174018.986000", "174018.989000", "174018.991000", "174018.994000", "174018.996000", "174019.000000", "174019.002000", "174019.005000", "174038.622000", "174038.624000", "174038.627000", "174038.629000", "174038.632000", "174038.634000", "174038.637000", "174038.639000", "174038.642000", "174038.644000", "174038.647000", "174038.649000", "174038.652000", "174038.654000", "174038.657000", "174038.659000", "174038.662000", "174038.664000", "174038.667000", "174038.669000", "174118.652000", "174118.655000", "174118.657000", "174118.660000", "174118.663000", "174118.665000", "174118.667000", "174118.670000", "174118.672000", "174118.675000", "174118.677000", "174118.680000", "174118.682000", "174118.685000", "174118.687000", "174118.690000", "174118.692000", "174118.695000", "174118.697000", "174118.700000", "174118.702000", "174118.705000", "174118.707000", "174118.710000", "174118.712000", "174118.715000", "174118.717000", "174118.720000", "174158.660000", "174158.662000", "174158.665000", "174158.668000", "174158.670000", "174158.673000", "174158.675000", "174158.678000", "174158.680000", "174158.683000", "174158.685000", "174158.688000", "174158.690000", "174158.693000", "174158.695000", "174158.698000", "174158.700000", "174158.703000", "174158.705000", "174158.708000", "174158.710000", "174158.713000", "174158.715000", "174158.718000", "174158.720000", "174158.723000", "174158.725000", "174238.657000", "174238.660000", "174238.662000", "174238.665000", "174238.667000", "174238.670000", "174238.672000", "174238.675000", "174238.677000", "174238.680000", "174238.682000", "174238.685000", "174238.687000", "174238.690000", "174238.692000", "174238.695000", "174238.697000", "174238.700000", "174238.702000", "174238.705000", "174238.707000", "174238.710000", "174238.712000", "174238.715000", "174238.717000", "174238.720000", "174238.722000", "174318.658000", "174318.661000", "174318.664000", "174318.666000", "174318.669000", "174318.671000", "174318.680000", "174318.683000", "174318.685000", "174318.688000", "174318.691000", "174318.694000", "174318.696000", "174318.699000", "174318.701000", "174318.704000", "174318.707000", "174318.709000", "174318.711000", "174318.714000", "174318.716000", "174318.719000", "174318.721000", "174318.724000", "174318.726000", "174318.729000", "174358.655000", "174358.669000", "174358.671000", "174358.674000", "174358.676000", "174358.679000", "174358.681000", "174358.684000", "174358.686000", "174358.689000", "174358.691000", "174358.694000", "174358.696000", "174358.699000", "174358.701000", "174358.704000", "174358.706000", "174358.709000", "174358.711000", "174358.714000", "174358.716000", "174358.719000", "174358.721000", "174358.724000", "174358.726000", "174358.729000", "174358.731000", "174438.657000", "174438.660000", "174438.662000", "174438.665000", "174438.667000", "174438.670000", "174438.672000", "174438.675000", "174438.677000", "174438.680000", "174438.682000", "174438.685000", "174438.687000", "174438.690000", "174438.692000", "174438.695000", "174438.697000", "174438.700000", "174438.702000", "174438.704000", "174438.707000", "174438.709000", "174438.712000", "174438.714000", "174438.717000", "174438.720000", "174438.722000", "174458.593000", "174458.596000", "174458.599000", "174458.601000", "174458.604000", "174458.606000", "174458.608000", "174458.611000", "174458.614000", "174458.616000", "174458.619000", "174458.621000", "174458.624000", "174538.653000", "174538.656000", "174538.658000", "174538.661000", "174538.663000", "174538.666000", "174538.668000", "174538.671000", "174538.673000", "174538.676000", "174538.678000", "174538.681000", "174538.683000", "174538.686000", "174538.688000", "174538.691000", "174538.693000", "174538.696000", "174538.698000", "174538.701000", "174538.703000", "174538.706000", "174538.708000", "174538.710000", "174538.713000", "174538.715000", "174538.718000", "174618.655000", "174618.658000", "174618.660000", "174618.663000", "174618.665000", "174618.668000", "174618.670000", "174618.673000", "174618.675000", "174618.678000", "174618.680000", "174618.683000", "174618.685000", "174618.688000", "174618.690000", "174618.693000", "174618.695000", "174618.698000", "174618.700000", "174618.703000", "174618.705000", "174618.708000", "174618.710000", "174618.713000", "174618.715000", "174618.718000", "174618.720000", "174658.669000", "174658.672000", "174658.675000", "174658.677000", "174658.680000", "174658.682000", "174658.685000", "174658.687000", "174658.690000", "174658.692000", "174658.695000", "174658.697000", "174658.700000", "174658.702000", "174658.705000", "174658.707000", "174658.710000", "174658.713000", "174658.715000", "174658.718000", "174658.720000", "174658.723000", "174658.725000", "174658.728000", "174658.730000", "174658.733000", "174658.735000", "174738.705000", "174738.708000", "174738.711000", "174738.713000", "174738.715000", "174738.718000", "174738.721000", "174738.723000", "174738.726000", "174738.728000", "174738.731000", "174738.733000", "174738.736000", "174738.738000", "174738.741000", "174738.743000", "174738.746000", "174738.748000", "174738.751000", "174738.753000", "174738.756000", "174738.759000", "174738.761000", "174738.764000", "174738.766000", "174738.769000", "174738.771000", "174818.651000", "174818.653000", "174818.656000", "174818.658000", "174818.661000", "174818.663000", "174818.666000", "174818.668000", "174818.671000", "174818.673000", "174818.676000", "174818.678000", "174818.681000", "174818.683000", "174818.686000", "174818.688000", "174818.691000", "174818.693000", "174818.696000", "174818.698000", "174818.701000", "174818.703000", "174818.706000", "174818.708000", "174818.711000", "174818.713000", "174818.716000", "174858.648000", "174858.650000", "174858.653000", "174858.655000", "174858.658000", "174858.660000", "174858.663000", "174858.665000", "174858.668000", "174858.671000", "174858.673000", "174858.675000", "174858.678000", "174858.680000", "174858.683000", "174858.685000", "174858.688000", "174858.690000", "174858.693000", "174858.695000", "174858.698000", "174858.700000", "174858.703000", "174858.706000", "174858.708000", "174858.710000", "174858.713000", "174938.646000", "174938.648000", "174938.651000", "174938.653000", "174938.656000", "174938.658000", "174938.661000", "174938.663000", "174938.666000", "174938.668000", "174938.671000", "174938.673000", "174938.676000", "174938.678000", "174938.681000", "174938.683000", "174938.686000", "174938.688000", "174938.691000", "174938.693000", "174938.696000", "174938.698000", "174938.701000", "174938.703000", "174938.706000", "174938.708000", "175018.985000", "175018.987000", "175018.990000", "175018.992000", "175018.995000", "175019.003000", "175019.006000", "175019.008000", "175019.011000", "175019.013000", "175019.016000", "175019.018000", "175019.021000", "175019.024000", "175019.026000", "175019.029000", "175019.031000", "175019.034000", "175019.036000", "175019.039000", "175019.041000", "175019.044000", "175019.046000", "175019.049000", "175019.051000", "175019.054000", "175019.056000", "175058.662000", "175058.665000", "175058.667000", "175058.670000", "175058.672000", "175058.675000", "175058.677000", "175058.680000", "175058.682000", "175058.685000", "175058.687000", "175058.690000", "175058.692000", "175058.695000", "175058.697000", "175058.700000", "175058.702000", "175058.705000", "175058.707000", "175058.710000", "175058.712000", "175058.715000", "175058.717000", "175058.720000", "175058.722000", "175058.725000", "175058.727000", "175138.648000", "175138.650000", "175138.653000", "175138.655000", "175138.658000", "175138.661000", "175138.663000", "175138.666000", "175138.668000", "175138.671000", "175138.673000", "175138.676000", "175138.678000", "175138.681000", "175138.683000", "175138.686000", "175138.688000", "175138.691000", "175138.693000", "175138.696000", "175138.698000", "175138.701000", "175138.703000", "175138.706000", "175138.708000", "175138.711000", "175138.713000", "175218.652000", "175218.655000", "175218.657000", "175218.660000", "175218.662000", "175218.665000", "175218.667000", "175218.670000", "175218.672000", "175218.675000", "175218.677000", "175218.680000", "175218.683000", "175218.685000", "175218.688000", "175218.690000", "175218.693000", "175218.695000", "175218.698000", "175218.700000", "175218.703000", "175218.705000", "175218.708000", "175218.710000", "175218.713000", "175218.715000", "175218.718000", "175258.661000", "175258.663000", "175258.666000", "175258.668000", "175258.671000", "175258.673000", "175258.676000", "175258.679000", "175258.681000", "175258.684000", "175258.686000", "175258.689000", "175258.691000", "175258.694000", "175258.696000", "175258.699000", "175258.701000", "175258.704000", "175258.706000", "175258.709000", "175258.711000", "175258.714000", "175258.716000", "175258.719000", "175258.721000", "175258.724000", "175258.726000", "175308.846000", "175308.849000", "175308.852000", "175308.855000", "175308.857000", "175308.860000", "175308.862000"],
