{
  "AcquisitionMatrixPE": 104,
  "AcquisitionNumber": 1,
  "AcquisitionTime": "17:27:44.772500",
  "BandwidthPerPixelPhaseEncode": 17.17,
  "BaseResolution": 104,
  "BodyPartExamined": "BRAIN",
  "CoilCombinationMethod": "Sum of Squares",
  "ConsistencyInfo": "N4_VE11C_LATEST_20160120",
  "ConversionSoftware": "dcm2niix",
  "ConversionSoftwareVersion": "v1.0.20220505",
  "DerivedVendorReportedEchoSpacing": 0.000560011,
  "DeviceSerialNumber": "167006",
  "DwellTime": 2.1e-06,
  "EchoTime": 0.037,
  "EchoTrainLength": 104,
  "EffectiveEchoSpacing": 0.000560011,
  "FlipAngle": 52,
  "HeudiconvVersion": "0.5.3.post811+g6206e14",
  "ImageComments": "Unaliased MB4/PE3/LB",
  "ImageOrientationPatientDICOM": [0.993461, 0.112918, 0.0169013, -0.0984601, 0.922226, -0.373904],
  "ImageOrientationText": "Tra>Cor(-21.7)>Sag(3.3)",
  "ImageType": [
    "ORIGINAL",
    "PRIMARY",
    "M",
    "MB",
    "ND",
    "MOSAIC"
],
  "ImagingFrequency": 123.26,
  "InPlanePhaseEncodingDirectionDICOM": "COL",
  "InstitutionAddress": "Chemin Queen-Mary 4565,Montreal,District,CA,H3W 1W5",
  "InstitutionName": "IUGM",
  "InstitutionalDepartmentName": "Department",
  "MRAcquisitionType": "2D",
  "MagneticFieldStrength": 3,
  "Manufacturer": "Siemens",
  "ManufacturersModelName": "Prisma_fit",
  "MatrixCoilMode": "SENSE",
  "Modality": "MR",
  "MultibandAccelerationFactor": 4,
  "PartialFourier": 1,
  "PatientPosition": "HFS",
  "PercentPhaseFOV": 100,
  "PercentSampling": 100,
  "PhaseEncodingDirection": "j",
  "PhaseEncodingSteps": 104,
  "PhaseResolution": 1,
  "PixelBandwidth": 2290,
  "ProcedureStepDescription": "games^mario3",
  "ProtocolName": "func_task-mario3_run-02",
  "PulseSequenceDetails": "%CustomerSeq%\\cmrr_mbep2d_bold",
  "ReceiveCoilActiveElements": "HC1-7;NC1,2",
  "ReceiveCoilName": "HeadNeck_64",
  "ReconMatrixPE": 104,
  "RepetitionTime": 1.49,
  "SAR": 0.0475633,
  "ScanOptions": "FS",
  "ScanningSequence": "EP",
  "SequenceName": "epfid2d1_104",
  "SequenceVariant": "SK\\SS",
  "SeriesDescription": "func_task-mario3_run-02",
  "SeriesNumber": 13,
  "ShimSetting": [618, -7207, -8804, 658, 99, -29, -55, 22],
  "SliceThickness": 2,
  "SliceTiming": [0, 0.7825, 0.0975, 0.88, 0.195, 0.98, 0.2925, 1.0775, 0.39, 1.175, 0.49, 1.2725, 0.5875, 1.37, 0.685, 0, 0.7825, 0.0975, 0.88, 0.195, 0.98, 0.2925, 1.0775, 0.39, 1.175, 0.49, 1.2725, 0.5875, 1.37, 0.685, 0, 0.7825, 0.0975, 0.88, 0.195, 0.98, 0.2925, 1.0775, 0.39, 1.175, 0.49, 1.2725, 0.5875, 1.37, 0.685, 0, 0.7825, 0.0975, 0.88, 0.195, 0.98, 0.2925, 1.0775, 0.39, 1.175, 0.49, 1.2725, 0.5875, 1.37, 0.685],
  "SoftwareVersions": "syngo MR E11",
  "SpacingBetweenSlices": 2,
  "StationName": "MRC35049",
  "TaskName": "mario3",
  "TotalReadoutTime": 0.0576811,
  "TxRefAmp": 254.136,
  "WipMemBlock": "d09057cb-602f-44d9-8e06-0df568da920c||Sequence: R017 ve11c/master r/75a17815+; Jun 28 2022 16:32:11 by eja",
  "dcmmeta_affine": [
    [-1.9869211912155151, -0.19692011177539825, 0.1156143993139267, 111.78648376464844],
    [-0.22583535313606262, 1.8444525003433228, -0.7395901083946228, -55.50572967529297],
    [0.03380254656076431, 0.7478085160255432, 1.8546266555786133, -64.60745239257812],
    [0.0, 0.0, 0.0, 1.0]
],
  "dcmmeta_reorient_transform": [
    [0.0, -1.0, 0.0, 103.0],
    [1.0, 0.0, 0.0, 0.0],
    [0.0, 0.0, 1.0, 0.0],
    [0.0, 0.0, 0.0, 1.0]
],
  "dcmmeta_shape": [104, 104, 60, 373],
  "dcmmeta_slice_dim": 2,
  "dcmmeta_version": 0.6,
  "global": {
    "const": {
      "AcquisitionMatrix": [104, 0, 0, 104],
      "AngioFlag": "N",
      "BitsAllocated": 16,
      "BitsStored": 16,
      "BodyPartExamined": "BRAIN",
      "Columns": 832,
      "EchoNumbers": 1,
      "EchoTime": 37.0,
      "EchoTrainLength": 104,
      "FlipAngle": 52.0,
      "HighBit": 15,
      "ImageOrientationPatient": [0.99346059042697, 0.11291767894472, 0.01690127362764, -0.098460058624, 0.9222262356434, -0.3739042486343],
      "ImagePositionPatient": [-743.06409630109, -888.05764427069, 272.31499029646],
      "ImageType": [
        "ORIGINAL",
        "PRIMARY",
        "M",
        "MB",
        "ND",
        "MOSAIC"
],
      "ImagedNucleus": "1H",
      "ImagingFrequency": 123.260242,
      "InPlanePhaseEncodingDirection": "COL",
      "MRAcquisitionType": "2D",
      "MagneticFieldStrength": 3.0,
      "Manufacturer": "SIEMENS",
      "ManufacturerModelName": "Prisma_fit",
      "Modality": "MR",
      "NumberOfAverages": 1.0,
      "NumberOfPhaseEncodingSteps": 104,
      "PercentPhaseFieldOfView": 100.0,
      "PercentSampling": 100.0,
      "PerformedProcedureStepStartTime": "171248.602000",
      "PhotometricInterpretation": "MONOCHROME2",
      "PixelBandwidth": 2290.0,
      "PixelRepresentation": 0,
      "PixelSpacing": [2.0, 2.0],
      "ProtocolName": "func_task-mario3_run-02",
      "RepetitionTime": 1490.0,
      "Rows": 832,
      "SAR": 0.04756325517629,
      "SamplesPerPixel": 1,
      "ScanOptions": "FS",
      "ScanningSequence": "EP",
      "SequenceName": "epfid2d1_104",
      "SequenceVariant": [
        "SK",
        "SS"
],
      "SeriesDescription": "func_task-mario3_run-02",
      "SeriesNumber": 13,
      "SeriesTime": "172913.537000",
      "SliceLocation": -32.92354180599,
      "SliceThickness": 2.0,
      "SmallestImagePixelValue": 0,
      "SoftwareVersions": "syngo MR E11",
      "SpacingBetweenSlices": 2.0000000371414,
      "SpecificCharacterSet": "ISO_IR 100",
      "StudyID": "1",
      "StudyTime": "171248.538000",
      "TransmitCoilName": "Body",
      "VariableFlipAngleFlag": "N",
      "WindowCenterWidthExplanation": "Algo1",
      "dBdt": 0.0},
    "slices": {}
  },
  "time": {
    "samples": {
      "AcquisitionNumber": [1, 2, 3, 4, 5, 6, 7, 8, 9, 10, 11, 12, 13, 14, 15, 16, 17, 18, 19, 20, 21, 22, 23, 24, 25, 26, 27, 28, 29, 30, 31, 32, 33, 34, 35, 36, 37, 38, 39, 40, 41, 42, 43, 44, 45, 46, 47, 48, 49, 50, 51, 52, 53, 54, 55, 56, 57, 58, 59, 60, 61, 62, 63, 64, 65, 66, 67, 68, 69, 70, 71, 72, 73, 74, 75, 76, 77, 78, 79, 80, 81, 82, 83, 84, 85, 86, 87, 88, 89, 90, 91, 92, 93, 94, 95, 96, 97, 98, 99, 100, 101, 102, 103, 104, 105, 106, 107, 108, 109, 110, 111, 112, 113, 114, 115, 116, 117, 118, 119, 120, 121, 122, 123, 124, 125, 126, 127, 128, 129, 130, 131, 132, 133, 134, 135, 136, 137, 138, 139, 140, 141, 142, 143, 144, 145, 146, 147, 148, 149, 150, 151, 152, 153, 154, 155, 156, 157, 158, 159, 160, 161, 162, 163, 164, 165, 166, 167, 168, 169, 170, 171, 172, 173, 174, 175, 176, 177, 178, 179, 180, 181, 182, 183, 184, 185, 186, 187, 188, 189, 190, 191, 192, 193, 194, 195, 196, 197, 198, 199, 200, 201, 202, 203, 204, 205, 206, 207, 208, 209, 210, 211, 212, 213, 214, 215, 216, 217, 218, 219, 220, 221, 222, 223, 224, 225, 226, 227, 228, 229, 230, 231, 232, 233, 234, 235, 236, 237, 238, 239, 240, 241, 242, 243, 244, 245, 246, 247, 248, 249, 250, 251, 252, 253, 254, 255, 256, 257, 258, 259, 260, 261, 262, 263, 264, 265, 266, 267, 268, 269, 270, 271, 272, 273, 274, 275, 276, 277, 278, 279, 280, 281, 282, 283, 284, 285, 286, 287, 288, 289, 290, 291, 292, 293, 294, 295, 296, 297, 298, 299, 300, 301, 302, 303, 304, 305, 306, 307, 308, 309, 310, 311, 312, 313, 314, 315, 316, 317, 318, 319, 320, 321, 322, 323, 324, 325, 326, 327, 328, 329, 330, 331, 332, 333, 334, 335, 336, 337, 338, 339, 340, 341, 342, 343, 344, 345, 346, 347, 348, 349, 350, 351, 352, 353, 354, 355, 356, 357, 358, 359, 360, 361, 362, 363, 364, 365, 366, 367, 368, 369, 370, 371, 372, 373],
      "AcquisitionTime": ["172744.772500", "172746.262500", "172747.752500", "172749.242500", "172750.732500", "172752.222500", "172753.712500", "172755.202500", "172756.692500", "172758.182500", "172759.672500", "172801.162500", "172802.652500", "172804.142500", "172805.632500", "172807.122500", "172808.612500", "172810.102500", "172811.592500", "172813.082500", "172814.572500", "172816.062500", "172817.552500", "172819.042500", "172820.532500", "172822.022500", "172823.512500", "172825.002500", "172826.492500", "172827.982500", "172829.472500", "172830.962500", "172832.452500", "172833.942500", "172835.432500", "172836.922500", "172838.412500", "172839.902500", "172841.392500", "172842.882500", "172844.372500", "172845.862500", "172847.352500", "172848.842500", "172850.332500", "172851.822500", "172853.312500", "172854.802500", "172856.292500", "172857.782500", "172859.272500", "172900.762500", "172902.252500", "172903.742500", "172905.232500", "172906.722500", "172908.212500", "172909.702500", "172911.192500", "172912.682500", "172914.172500", "172915.662500", "172917.152500", "172918.642500", "172920.132500", "172921.622500", "172923.112500", "172924.602500", "172926.092500", "172927.582500", "172929.072500", "172930.562500", "172932.052500", "172933.542500", "172935.032500", "172936.522500", "172938.012500", "172939.502500", "172940.992500", "172942.482500", "172943.972500", "172945.462500", "172946.952500", "172948.442500", "172949.932500", "172951.422500", "172952.912500", "172954.402500", "172955.892500", "172957.382500", "172958.872500", "173000.362500", "173001.852500", "173003.342500", "173004.832500", "173006.322500", "173007.812500", "173009.302500", "173010.792500", "173012.282500", "173013.772500", "173015.262500", "173016.752500", "173018.242500", "173019.732500", "173021.222500", "173022.712500", "173024.202500", "173025.692500", "173027.182500", "173028.672500", "173030.162500", "173031.652500", "173033.142500", "173034.632500", "173036.122500", "173037.612500", "173039.102500", "173040.592500", "173042.082500", "173043.572500", "173045.062500", "173046.552500", "173048.042500", "173049.532500", "173051.022500", "173052.512500", "173054.002500", "173055.492500", "173056.982500", "173058.472500", "173059.962500", "173101.452500", "173102.942500", "173104.432500", "173105.922500", "173107.412500", "173108.902500", "173110.392500", "173111.882500", "173113.372500", "173114.862500", "173116.352500", "173117.842500", "173119.332500", "173120.822500", "173122.312500", "173123.802500", "173125.292500", "173126.782500", "173128.272500", "173129.762500", "173131.252500", "173132.742500", "173134.232500", "173135.722500", "173137.212500", "173138.702500", "173140.192500", "173141.682500", "173143.172500", "173144.662500", "173146.152500", "173147.642500", "173149.132500", "173150.622500", "173152.112500", "173153.602500", "173155.092500", "173156.582500", "173158.072500", "173159.562500", "173201.052500", "173202.542500", "173204.032500", "173205.522500", "173207.012500", "173208.502500", "173209.992500", "173211.482500", "173212.972500", "173214.462500", "173215.952500", "173217.442500", "173218.932500", "173220.422500", "173221.912500", "173223.402500", "173224.892500", "173226.382500", "173227.872500", "173229.362500", "173230.852500", "173232.342500", "173233.832500", "173235.322500", "173236.812500", "173238.302500", "173239.792500", "173241.282500", "173242.772500", "173244.262500", "173245.752500", "173247.242500", "173248.732500", "173250.222500", "173251.712500", "173253.202500", "173254.692500", "173256.182500", "173257.672500", "173259.162500", "173300.652500", "173302.142500", "173303.632500", "173305.122500", "173306.612500", "173308.102500", "173309.592500", "173311.082500", "173312.572500", "173314.062500", "173315.552500", "173317.042500", "173318.532500", "173320.022500", "173321.512500", "173323.002500", "173324.492500", "173325.982500", "173327.472500", "173328.962500", "173330.452500", "173331.942500", "173333.432500", "173334.922500", "173336.412500", "173337.902500", "173339.392500", "173340.882500", "173342.372500", "173343.862500", "173345.352500", "173346.842500", "173348.332500", "173349.822500", "173351.312500", "173352.802500", "173354.292500", "173355.782500", "173357.272500", "173358.762500", "173400.252500", "173401.742500", "173403.232500", "173404.722500", "173406.212500", "173407.702500", "173409.192500", "173410.682500", "173412.172500", "173413.662500", "173415.152500", "173416.642500", "173418.132500", "173419.622500", "173421.112500", "173422.602500", "173424.092500", "173425.582500", "173427.072500", "173428.562500", "173430.052500", "173431.542500", "173433.032500", "173434.522500", "173436.012500", "173437.502500", "173438.992500", "173440.482500", "173441.972500", "173443.462500", "173444.952500", "173446.442500", "173447.932500", "173449.422500", "173450.912500", "173452.402500", "173453.892500", "173455.382500", "173456.872500", "173458.362500", "173459.852500", "173501.342500", "173502.832500", "173504.322500", "173505.812500", "173507.302500", "173508.792500", "173510.282500", "173511.772500", "173513.262500", "173514.752500", "173516.242500", "173517.732500", "173519.222500", "173520.712500", "173522.202500", "173523.692500", "173525.182500", "173526.672500", "173528.162500", "173529.652500", "173531.142500", "173532.632500", "173534.122500", "173535.612500", "173537.102500", "173538.592500", "173540.082500", "173541.572500", "173543.062500", "173544.552500", "173546.042500", "173547.532500", "173549.022500", "173550.512500", "173552.002500", "173553.492500", "173554.982500", "173556.472500", "173557.962500", "173559.452500", "173600.942500", "173602.432500", "173603.922500", "173605.412500", "173606.902500", "173608.392500", "173609.882500", "173611.372500", "173612.862500", "173614.352500", "173615.842500", "173617.332500", "173618.822500", "173620.312500", "173621.802500", "173623.292500", "173624.782500", "173626.272500", "173627.762500", "173629.252500", "173630.742500", "173632.232500", "173633.722500", "173635.212500", "173636.702500", "173638.192500", "173639.682500", "173641.172500", "173642.662500", "173644.152500", "173645.642500", "173647.132500", "173648.622500", "173650.112500", "173651.602500", "173653.092500", "173654.582500", "173656.072500", "173657.562500", "173659.052500"],
      "ContentTime": ["172913.541000", "172913.553000", "172913.556000", "172913.559000", "172913.563000", "172913.566000", "172913.604000", "172913.607000", "172913.610000", "172913.614000", "172913.617000", "172913.620000", "172913.624000", "172913.627000", "172913.631000", "172913.634000", "172913.638000", "172913.641000", "172913.645000", "172913.648000", "172913.651000", "172913.655000", "172913.658000", "172913.661000", "172913.665000", "172913.668000", "172913.671000", "172913.675000", "172913.678000", "172913.681000", "172913.686000", "172913.690000", "172913.693000", "172913.696000", "172913.700000", "172913.703000", "172913.717000", "172913.729000", "172933.483000", "172933.487000", "172933.490000", "172933.494000", "172933.497000", "172933.500000", "172933.504000", "172933.507000", "172933.510000", "172933.514000", "172933.517000", "172933.520000", "172933.524000", "172933.527000", "172933.530000", "172933.534000", "172933.537000", "172933.541000", "172933.544000", "172933.547000", "172933.551000", "172953.483000", "172953.487000", "172953.490000", "172953.494000", "172953.497000", "172953.501000", "172953.504000", "172953.507000", "172953.511000", "172953.514000", "172953.517000", "172953.521000", "172953.524000", "172953.528000", "172953.531000", "172953.534000", "172953.537000", "172953.541000", "172953.544000", "172953.547000", "173013.483000", "173013.487000", "173013.490000", "173013.494000", "173013.497000", "173013.500000", "173013.504000", "173013.507000", "173013.510000", "173013.514000", "173013.517000", "173013.520000", "173013.524000", "173013.527000", "173013.530000", "173013.533000", "173013.537000", "173013.540000", "173013.543000", "173013.547000", "173053.482000", "173053.486000", "173053.489000", "173053.493000", "173053.496000", "173053.500000", "173053.503000", "173053.506000", "173053.510000", "173053.513000", "173053.516000", "173053.520000", "173053.523000", "173053.527000", "173053.530000", "173053.533000", "173053.536000", "173053.540000", "173053.543000", "173053.546000", "173053.550000", "173053.553000", "173053.557000", "173053.560000", "173053.563000", "173053.567000", "173053.570000", "173133.483000", "173133.487000", "173133.490000", "173133.503000", "173133.506000", "173133.510000", "173133.513000", "173133.516000", "173133.520000", "173133.523000", "173133.526000", "173133.530000", "173133.533000", "173133.536000", "173133.540000", "173133.543000", "173133.546000", "173133.550000", "173133.553000", "173133.557000", "173133.560000", "173133.563000", "173133.566000", "173133.570000", "173133.573000", "173133.577000", "173133.580000", "173213.483000", "173213.487000", "173213.490000", "173213.494000", "173213.497000", "173213.500000", "173213.504000", "173213.507000", "173213.510000", "173213.514000", "173213.517000", "173213.521000", "173213.524000", "173213.527000", "173213.531000", "173213.534000", "173213.537000", "173213.541000", "173213.544000", "173213.547000", "173213.551000", "173213.554000", "173213.557000", "173213.561000", "173213.564000", "173213.568000", "173213.571000", "173253.483000", "173253.487000", "173253.490000", "173253.494000", "173253.497000", "173253.508000", "173253.511000", "173253.515000", "173253.518000", "173253.521000", "173253.525000", "173253.528000", "173253.532000", "173253.535000", "173253.538000", "173253.542000", "173253.545000", "173253.548000", "173253.552000", "173253.555000", "173253.558000", "173253.562000", "173253.565000", "173253.569000", "173253.572000", "173253.575000", "173333.482000", "173333.486000", "173333.490000", "173333.493000", "173333.496000", "173333.500000", "173333.503000", "173333.507000", "173333.510000", "173333.514000", "173333.517000", "173333.520000", "173333.524000", "173333.527000", "173333.531000", "173333.534000", "173333.537000", "173333.541000", "173333.549000", "173333.552000", "173333.555000", "173333.559000", "173333.562000", "173333.577000", "173333.581000", "173333.584000", "173333.587000", "173413.483000", "173413.487000", "173413.490000", "173413.494000", "173413.498000", "173413.501000", "173413.505000", "173413.508000", "173413.512000", "173413.515000", "173413.518000", "173413.521000", "173413.525000", "173413.528000", "173413.532000", "173413.535000", "173413.538000", "173413.542000", "173413.545000", "173413.548000", "173413.552000", "173413.556000", "173413.559000", "173413.562000", "173413.566000", "173413.569000", "173413.572000", "173453.484000", "173453.487000", "173453.491000", "173453.494000", "173453.497000", "173453.501000", "173453.504000", "173453.508000", "173453.511000", "173453.515000", "173453.518000", "173453.521000", "173453.525000", "173453.528000", "173453.532000", "173453.535000", "173453.538000", "173453.542000", "173453.545000", "173453.548000", "173453.551000", "173453.555000", "173453.558000", "173453.562000", "173453.565000", "173453.569000", "173453.572000", "173533.482000", "173533.486000", "173533.489000", "173533.493000", "173533.496000", "173533.499000", "173533.503000", "173533.506000", "173533.509000", "173533.513000", "173533.516000", "173533.519000", "173533.522000", "173533.526000", "173533.529000", "173533.532000", "173533.536000", "173533.539000", "173533.542000", "173533.545000", "173533.549000", "173533.552000", "173533.555000", "173533.559000", "173533.562000", "173533.565000", "173533.569000", "173613.483000", "173613.487000", "173613.490000", "173613.494000", "173613.512000", "173613.516000", "173613.519000", "173613.522000", "173613.526000", "173613.529000", "173613.532000", "173613.536000", "173613.539000", "173613.543000", "173613.546000", "173613.549000", "173613.553000", "173613.556000", "173613.559000", "173613.563000", "173613.566000", "173613.569000", "173613.573000", "173613.576000", "173613.579000", "173613.583000", "173613.586000", "173653.483000", "173653.487000", "173653.490000", "173653.494000", "173653.512000", "173653.515000", "173653.523000", "173653.526000", "173653.529000", "173653.533000", "173653.536000", "173653.540000", "173653.543000", "173653.546000", "173653.550000", "173653.553000", "173653.556000", "173653.560000", "173653.563000", "173653.566000", "173653.570000", "173653.573000", "173653.577000", "173653.580000", "173653.583000", "173653.587000", "173702.151000", "173702.156000", "173702.159000", "173702.163000", "173702.166000", "173702.169000"],
      "InstanceCreationTime": ["172913.541000", "172913.553000", "172913.556000", "172913.559000", "172913.563000", "172913.566000", "172913.604000", "172913.607000", "172913.610000", "172913.614000", "172913.617000", "172913.620000", "172913.624000", "172913.627000", "172913.631000", "172913.634000", "172913.638000", "172913.641000", "172913.645000", "172913.648000", "172913.651000", "172913.655000", "172913.658000", "172913.661000", "172913.665000", "172913.668000", "172913.671000", "172913.675000", "172913.678000", "172913.681000", "172913.686000", "172913.690000", "172913.693000", "172913.696000", "172913.700000", "172913.703000", "172913.717000", "172913.729000", "172933.483000", "172933.487000", "172933.490000", "172933.494000", "172933.497000", "172933.500000", "172933.504000", "172933.507000", "172933.510000", "172933.514000", "172933.517000", "172933.520000", "172933.524000", "172933.527000", "172933.530000", "172933.534000", "172933.537000", "172933.541000", "172933.544000", "172933.547000", "172933.551000", "172953.483000", "172953.487000", "172953.490000", "172953.494000", "172953.497000", "172953.501000", "172953.504000", "172953.507000", "172953.511000", "172953.514000", "172953.517000", "172953.521000", "172953.524000", "172953.528000", "172953.531000", "172953.534000", "172953.537000", "172953.541000", "172953.544000", "172953.547000", "173013.483000", "173013.487000", "173013.490000", "173013.494000", "173013.497000", "173013.500000", "173013.504000", "173013.507000", "173013.510000", "173013.514000", "173013.517000", "173013.520000", "173013.524000", "173013.527000", "173013.530000", "173013.533000", "173013.537000", "173013.540000", "173013.543000", "173013.547000", "173053.482000", "173053.486000", "173053.489000", "173053.493000", "173053.496000", "173053.500000", "173053.503000", "173053.506000", "173053.510000", "173053.513000", "173053.516000", "173053.520000", "173053.523000", "173053.527000", "173053.530000", "173053.533000", "173053.536000", "173053.540000", "173053.543000", "173053.546000", "173053.550000", "173053.553000", "173053.557000", "173053.560000", "173053.563000", "173053.567000", "173053.570000", "173133.483000", "173133.487000", "173133.490000", "173133.503000", "173133.506000", "173133.510000", "173133.513000", "173133.516000", "173133.520000", "173133.523000", "173133.526000", "173133.530000", "173133.533000", "173133.536000", "173133.540000", "173133.543000", "173133.546000", "173133.550000", "173133.553000", "173133.557000", "173133.560000", "173133.563000", "173133.566000", "173133.570000", "173133.573000", "173133.577000", "173133.580000", "173213.483000", "173213.487000", "173213.490000", "173213.494000", "173213.497000", "173213.500000", "173213.504000", "173213.507000", "173213.510000", "173213.514000", "173213.517000", "173213.521000", "173213.524000", "173213.527000", "173213.531000", "173213.534000", "173213.537000", "173213.541000", "173213.544000", "173213.547000", "173213.551000", "173213.554000", "173213.557000", "173213.561000", "173213.564000", "173213.568000", "173213.571000", "173253.483000", "173253.487000", "173253.490000", "173253.494000", "173253.497000", "173253.508000", "173253.511000", "173253.515000", "173253.518000", "173253.521000", "173253.525000", "173253.528000", "173253.532000", "173253.535000", "173253.538000", "173253.542000", "173253.545000", "173253.548000", "173253.552000", "173253.555000", "173253.558000", "173253.562000", "173253.565000", "173253.569000", "173253.572000", "173253.575000", "173333.482000", "173333.486000", "173333.490000", "173333.493000", "173333.496000", "173333.500000", "173333.503000", "173333.507000", "173333.510000", "173333.514000", "173333.517000", "173333.520000", "173333.524000", "173333.527000", "173333.531000", "173333.534000", "173333.537000", "173333.541000", "173333.549000", "173333.552000", "173333.555000", "173333.559000", "173333.562000", "173333.577000", "173333.581000", "173333.584000", "173333.587000", "173413.483000", "173413.487000", "173413.490000", "173413.494000", "173413.498000", "173413.501000", "173413.505000", "173413.508000", "173413.512000", "173413.515000", "173413.518000", "173413.521000", "173413.525000", "173413.528000", "173413.532000", "173413.535000", "173413.538000", "173413.542000", "173413.545000", "173413.548000", "173413.552000", "173413.556000", "173413.559000", "173413.562000", "173413.566000", "173413.569000", "173413.572000", "173453.484000", "173453.487000", "173453.491000", "173453.494000", "173453.497000", "173453.501000", "173453.504000", "173453.508000", "173453.511000", "173453.515000", "173453.518000", "173453.521000", "173453.525000", "173453.528000", "173453.532000", "173453.535000", "173453.538000", "173453.542000", "173453.545000", "173453.548000", "173453.551000", "173453.555000", "173453.558000", "173453.562000", "173453.565000", "173453.569000", "173453.572000", "173533.482000", "173533.486000", "173533.489000", "173533.493000", "173533.496000", "173533.499000", "173533.503000", "173533.506000", "173533.509000", "173533.513000", "173533.516000", "173533.519000", "173533.522000", "173533.526000", "173533.529000", "173533.532000", "173533.536000", "173533.539000", "173533.542000", "173533.545000", "173533.549000", "173533.552000", "173533.555000", "173533.559000", "173533.562000", "173533.565000", "173533.569000", "173613.483000", "173613.487000", "173613.490000", "173613.494000", "173613.512000", "173613.516000", "173613.519000", "173613.522000", "173613.526000", "173613.529000", "173613.532000", "173613.536000", "173613.539000", "173613.543000", "173613.546000", "173613.549000", "173613.553000", "173613.556000", "173613.559000", "173613.563000", "173613.566000", "173613.569000", "173613.573000", "173613.576000", "173613.579000", "173613.583000", "173613.586000", "173653.483000", "173653.487000", "173653.490000", "173653.494000", "173653.512000", "173653.515000", "173653.523000", "173653.526000", "173653.529000", "173653.533000", "173653.536000", "173653.540000", "173653.543000", "173653.546000", "173653.550000", "173653.553000", "173653.556000", "173653.560000", "173653.563000", "173653.566000", "173653.570000", "173653.573000", "173653.577000", "173653.580000", "173653.583000", "173653.587000", "173702.151000", "173702.156000", "173702.159000", "173702.163000", "173702.166000", "173702.169000"],
      "InstanceNumber": [1, 2, 3, 4, 5, 6, 7, 8, 9, 10, 11, 12, 13, 14, 15, 16, 17, 18, 19, 20, 21, 22, 23, 24, 25, 26, 27, 28, 29, 30, 31, 32, 33, 34, 35, 36, 37, 38, 39, 40, 41, 42, 43, 44, 45, 46, 47, 48, 49, 50, 51, 52, 53, 54, 55, 56, 57, 58, 59, 60, 61, 62, 63, 64, 65, 66, 67, 68, 69, 70, 71, 72, 73, 74, 75, 76, 77, 78, 79, 80, 81, 82, 83, 84, 85, 86, 87, 88, 89, 90, 91, 92, 93, 94, 95, 96, 97, 98, 99, 100, 101, 102, 103, 104, 105, 106, 107, 108, 109, 110, 111, 112, 113, 114, 115, 116, 117, 118, 119, 120, 121, 122, 123, 124, 125, 126, 127, 128, 129, 130, 131, 132, 133, 134, 135, 136, 137, 138, 139, 140, 141, 142, 143, 144, 145, 146, 147, 148, 149, 150, 151, 152, 153, 154, 155, 156, 157, 158, 159, 160, 161, 162, 163, 164, 165, 166, 167, 168, 169, 170, 171, 172, 173, 174, 175, 176, 177, 178, 179, 180, 181, 182, 183, 184, 185, 186, 187, 188, 189, 190, 191, 192, 193, 194, 195, 196, 197, 198, 199, 200, 201, 202, 203, 204, 205, 206, 207, 208, 209, 210, 211, 212, 213, 214, 215, 216, 217, 218, 219, 220, 221, 222, 223, 224, 225, 226, 227, 228, 229, 230, 231, 232, 233, 234, 235, 236, 237, 238, 239, 240, 241, 242, 243, 244, 245, 246, 247, 248, 249, 250, 251, 252, 253, 254, 255, 256, 257, 258, 259, 260, 261, 262, 263, 264, 265, 266, 267, 268, 269, 270, 271, 272, 273, 274, 275, 276, 277, 278, 279, 280, 281, 282, 283, 284, 285, 286, 287, 288, 289, 290, 291, 292, 293, 294, 295, 296, 297, 298, 299, 300, 301, 302, 303, 304, 305, 306, 307, 308, 309, 310, 311, 312, 313, 314, 315, 316, 317, 318, 319, 320, 321, 322, 323, 324, 325, 326, 327, 328, 329, 330, 331, 332, 333, 334, 335, 336, 337, 338, 339, 340, 341, 342, 343, 344, 345, 346, 347, 348, 349, 350, 351, 352, 353, 354, 355, 356, 357, 358, 359, 360, 361, 362, 363, 364, 365, 366, 367, 368, 369, 370, 371, 372, 373],
