{
  "AcquisitionMatrixPE": 104,
  "AcquisitionNumber": 1,
  "AcquisitionTime": "14:18:34.737500",
  "BandwidthPerPixelPhaseEncode": 17.17,
  "BaseResolution": 104,
  "BodyPartExamined": "BRAIN",
  "CoilCombinationMethod": "Sum of Squares",
  "ConsistencyInfo": "N4_VE11C_LATEST_20160120",
  "ConversionSoftware": "dcm2niix",
  "ConversionSoftwareVersion": "v1.0.20220505",
  "DerivedVendorReportedEchoSpacing": 0.000560011,
  "DeviceSerialNumber": "167006",
  "DwellTime": 2.1e-06,
  "EchoTime": 0.037,
  "EchoTime1": 0.037,
  "EchoTime2": 0.001,
  "EchoTrainLength": 104,
  "EffectiveEchoSpacing": 0.000560011,
  "FlipAngle": 52,
  "HeudiconvVersion": "0.5.3.post811+g6206e14",
  "ImageComments": "Unaliased MB4/PE3/LB",
  "ImageOrientationPatientDICOM": [0.999763, 0.0153954, 0.0154198, -0.010819, 0.965003, -0.262017],
  "ImageOrientationText": "Tra>Cor(-15.2)>Sag(1.1)",
  "ImageType": [
    "ORIGINAL",
    "PRIMARY",
    "P",
    "MB",
    "ND",
    "MOSAIC",
    "PHASE"
],
  "ImagingFrequency": 123.259,
  "InPlanePhaseEncodingDirectionDICOM": "COL",
  "InstitutionAddress": "Chemin Queen-Mary 4565,Montreal,District,CA,H3W 1W5",
  "InstitutionName": "IUGM",
  "InstitutionalDepartmentName": "Department",
  "MRAcquisitionType": "2D",
  "MagneticFieldStrength": 3,
  "Manufacturer": "Siemens",
  "ManufacturersModelName": "Prisma_fit",
  "MatrixCoilMode": "SENSE",
  "Modality": "MR",
  "MultibandAccelerationFactor": 4,
  "PartialFourier": 1,
  "PatientPosition": "HFS",
  "PercentPhaseFOV": 100,
  "PercentSampling": 100,
  "PhaseEncodingDirection": "j",
  "PhaseEncodingSteps": 104,
  "PhaseResolution": 1,
  "PixelBandwidth": 2290,
  "ProcedureStepDescription": "games^mario3",
  "ProtocolName": "func_task-mario3_run-03",
  "PulseSequenceDetails": "%CustomerSeq%\\cmrr_mbep2d_bold",
  "ReceiveCoilActiveElements": "HC1-7;NC1,2",
  "ReceiveCoilName": "HeadNeck_64",
  "ReconMatrixPE": 104,
  "RepetitionTime": 1.49,
  "SAR": 0.0396103,
  "ScanOptions": "FS",
  "ScanningSequence": "EP",
  "SequenceName": "epfid2d1_104",
  "SequenceVariant": "SK\\SS",
  "SeriesDescription": "func_task-mario3_run-03",
  "SeriesNumber": 25,
  "ShimSetting": [641, -7223, -8735, 708, 70, -18, 50, -13],
  "SliceThickness": 2,
  "SliceTiming": [0, 0.785, 0.0975, 0.8825, 0.1975, 0.98, 0.295, 1.0775, 0.3925, 1.175, 0.49, 1.275, 0.5875, 1.3725, 0.685, 0, 0.785, 0.0975, 0.8825, 0.1975, 0.98, 0.295, 1.0775, 0.3925, 1.175, 0.49, 1.275, 0.5875, 1.3725, 0.685, 0, 0.785, 0.0975, 0.8825, 0.1975, 0.98, 0.295, 1.0775, 0.3925, 1.175, 0.49, 1.275, 0.5875, 1.3725, 0.685, 0, 0.785, 0.0975, 0.8825, 0.1975, 0.98, 0.295, 1.0775, 0.3925, 1.175, 0.49, 1.275, 0.5875, 1.3725, 0.685],
  "SoftwareVersions": "syngo MR E11",
  "SpacingBetweenSlices": 2,
  "StationName": "MRC35049",
  "TaskName": "mario3",
  "TotalReadoutTime": 0.0576811,
  "TxRefAmp": 210.273,
  "WipMemBlock": "b50a4c5c-798e-4658-b091-b24b5228d6d9||Sequence: R017 ve11c/master r/75a17815+; Jun 28 2022 16:32:11 by eja",
  "dcmmeta_affine": [
    [-1.9995251893997192, -0.021637914702296257, 0.037828098982572556, 109.3109130859375],
    [-0.030790885910391808, 1.930005431175232, -0.5235753655433655, -72.09054565429688],
    [0.030839677900075912, 0.5240334272384644, 1.9298803806304932, -49.31401062011719],
    [0.0, 0.0, 0.0, 1.0]
],
  "dcmmeta_reorient_transform": [
    [0.0, -1.0, 0.0, 103.0],
    [1.0, 0.0, 0.0, 0.0],
    [0.0, 0.0, 1.0, 0.0],
    [0.0, 0.0, 0.0, 1.0]
],
  "dcmmeta_shape": [104, 104, 60, 168],
  "dcmmeta_slice_dim": 2,
  "dcmmeta_version": 0.6,
  "global": {
    "const": {
      "AcquisitionMatrix": [104, 0, 0, 104],
      "AngioFlag": "N",
      "BitsAllocated": 16,
      "BitsStored": 16,
      "BodyPartExamined": "BRAIN",
      "Columns": 832,
      "EchoNumbers": 1,
      "EchoTime": 37.0,
      "EchoTrainLength": 104,
      "FlipAngle": 52.0,
      "HighBit": 15,
      "ImageOrientationPatient": [0.99976257626672, 0.01539544265239, 0.01541983923602, -0.010818956924, 0.96500269390623, -0.262016699706],
      "ImagePositionPatient": [-827.03316126235, -840.42985130134, 184.18394397485],
      "ImageType": [
        "ORIGINAL",
        "PRIMARY",
        "P",
        "MB",
        "ND",
        "MOSAIC"
],
      "ImagedNucleus": "1H",
      "ImagingFrequency": 123.258776,
      "InPlanePhaseEncodingDirection": "COL",
      "LargestImagePixelValue": 4095,
      "MRAcquisitionType": "2D",
      "MagneticFieldStrength": 3.0,
      "Manufacturer": "SIEMENS",
      "ManufacturerModelName": "Prisma_fit",
      "Modality": "MR",
      "NumberOfAverages": 1.0,
      "NumberOfPhaseEncodingSteps": 104,
      "PercentPhaseFieldOfView": 100.0,
      "PercentSampling": 100.0,
      "PerformedProcedureStepStartTime": "134620.923000",
      "PhotometricInterpretation": "MONOCHROME2",
      "PixelBandwidth": 2290.0,
      "PixelRepresentation": 0,
      "PixelSpacing": [2.0, 2.0],
      "ProtocolName": "func_task-mario3_run-03",
      "RepetitionTime": 1490.0,
      "RescaleIntercept": -4096.0,
      "RescaleSlope": 2.0,
      "RescaleType": "US",
      "Rows": 832,
      "SAR": 0.03961025241121,
      "SamplesPerPixel": 1,
      "ScanOptions": "FS",
      "ScanningSequence": "EP",
      "SequenceName": "epfid2d1_104",
      "SequenceVariant": [
        "SK",
        "SS"
],
      "SeriesDescription": "func_task-mario3_run-03",
      "SeriesNumber": 25,
      "SeriesTime": "141945.475000",
      "SliceLocation": -26.645140467936,
      "SliceThickness": 2.0,
      "SmallestImagePixelValue": 0,
      "SoftwareVersions": "syngo MR E11",
      "SpacingBetweenSlices": 2.0000000523398,
      "SpecificCharacterSet": "ISO_IR 100",
      "StudyID": "1",
      "StudyTime": "134620.855000",
      "TransmitCoilName": "Body",
      "VariableFlipAngleFlag": "N",
      "WindowCenterWidthExplanation": "Algo1",
      "dBdt": 0.0},
    "slices": {}
  },
  "time": {
    "samples": {
      "AcquisitionNumber": [1, 2, 3, 4, 5, 6, 7, 8, 9, 10, 11, 12, 13, 14, 15, 16, 17, 18, 19, 20, 21, 22, 23, 24, 25, 26, 27, 28, 29, 30, 31, 32, 33, 34, 35, 36, 37, 38, 39, 40, 41, 42, 43, 44, 45, 46, 47, 48, 49, 50, 51, 52, 53, 54, 55, 56, 57, 58, 59, 60, 61, 62, 63, 64, 65, 66, 67, 68, 69, 70, 71, 72, 73, 74, 75, 76, 77, 78, 79, 80, 81, 82, 83, 84, 85, 86, 87, 88, 89, 90, 91, 92, 93, 94, 95, 96, 97, 98, 99, 100, 101, 102, 103, 104, 105, 106, 107, 108, 109, 110, 111, 112, 113, 114, 115, 116, 117, 118, 119, 120, 121, 122, 123, 124, 125, 126, 127, 128, 129, 130, 131, 132, 133, 134, 135, 136, 137, 138, 139, 140, 141, 142, 143, 144, 145, 146, 147, 148, 149, 150, 151, 152, 153, 154, 155, 156, 157, 158, 159, 160, 161, 162, 163, 164, 165, 166, 167, 168],
      "AcquisitionTime": ["141834.737500", "141836.227500", "141837.717500", "141839.207500", "141840.697500", "141842.187500", "141843.677500", "141845.167500", "141846.657500", "141848.147500", "141849.637500", "141851.127500", "141852.617500", "141854.107500", "141855.597500", "141857.087500", "141858.577500", "141900.067500", "141901.557500", "141903.047500", "141904.537500", "141906.027500", "141907.517500", "141909.007500", "141910.497500", "141911.987500", "141913.477500", "141914.967500", "141916.457500", "141917.947500", "141919.437500", "141920.927500", "141922.417500", "141923.907500", "141925.397500", "141926.887500", "141928.377500", "141929.867500", "141931.357500", "141932.847500", "141934.337500", "141935.827500", "141937.317500", "141938.807500", "141940.297500", "141941.787500", "141943.277500", "141944.767500", "141946.257500", "141947.747500", "141949.237500", "141950.727500", "141952.217500", "141953.707500", "141955.197500", "141956.687500", "141958.177500", "141959.667500", "142001.157500", "142002.647500", "142004.137500", "142005.627500", "142007.117500", "142008.607500", "142010.097500", "142011.587500", "142013.077500", "142014.567500", "142016.057500", "142017.547500", "142019.037500", "142020.527500", "142022.017500", "142023.507500", "142024.997500", "142026.487500", "142027.977500", "142029.467500", "142030.957500", "142032.447500", "142033.937500", "142035.427500", "142036.917500", "142038.407500", "142039.897500", "142041.387500", "142042.877500", "142044.367500", "142045.857500", "142047.347500", "142048.837500", "142050.327500", "142051.817500", "142053.307500", "142054.797500", "142056.287500", "142057.777500", "142059.267500", "142100.757500", "142102.247500", "142103.737500", "142105.227500", "142106.717500", "142108.207500", "142109.697500", "142111.187500", "142112.677500", "142114.167500", "142115.657500", "142117.147500", "142118.637500", "142120.127500", "142121.617500", "142123.107500", "142124.597500", "142126.087500", "142127.577500", "142129.067500", "142130.557500", "142132.047500", "142133.537500", "142135.027500", "142136.517500", "142138.007500", "142139.497500", "142140.987500", "142142.477500", "142143.967500", "142145.457500", "142146.947500", "142148.437500", "142149.927500", "142151.417500", "142152.907500", "142154.397500", "142155.887500", "142157.377500", "142158.867500", "142200.357500", "142201.847500", "142203.337500", "142204.827500", "142206.317500", "142207.807500", "142209.297500", "142210.787500", "142212.277500", "142213.767500", "142215.257500", "142216.747500", "142218.237500", "142219.727500", "142221.217500", "142222.707500", "142224.197500", "142225.687500", "142227.177500", "142228.667500", "142230.157500", "142231.647500", "142233.137500", "142234.627500", "142236.117500", "142237.607500", "142239.097500", "142240.587500", "142242.077500", "142243.567500"],
      "ContentTime": ["141945.477000", "141945.480000", "141945.482000", "141945.485000", "141945.487000", "141945.490000", "141945.492000", "141945.495000", "141945.497000", "141945.500000", "141945.502000", "141945.504000", "141945.507000", "141945.509000", "141945.512000", "141945.515000", "141945.517000", "141945.519000", "141945.522000", "141945.524000", "141945.527000", "142005.434000", "142005.436000", "142005.439000", "142005.441000", "142005.444000", "142005.446000", "142005.448000", "142005.452000", "142005.454000", "142005.457000", "142005.459000", "142005.469000", "142005.472000", "142005.474000", "142005.477000", "142005.479000", "142005.482000", "142005.484000", "142005.487000", "142005.489000", "142025.433000", "142025.435000", "142025.438000", "142025.440000", "142025.443000", "142025.445000", "142025.448000", "142025.450000", "142025.453000", "142025.455000", "142025.458000", "142025.460000", "142025.463000", "142025.465000", "142025.468000", "142025.470000", "142025.473000", "142025.475000", "142025.478000", "142025.480000", "142025.483000", "142045.420000", "142045.423000", "142045.425000", "142045.428000", "142045.430000", "142045.433000", "142045.435000", "142045.438000", "142045.440000", "142045.443000", "142045.445000", "142045.448000", "142045.450000", "142045.453000", "142045.455000", "142045.458000", "142045.460000", "142045.463000", "142045.465000", "142045.467000", "142125.480000", "142125.483000", "142125.489000", "142125.491000", "142125.494000", "142125.496000", "142125.499000", "142125.501000", "142125.512000", "142125.514000", "142125.522000", "142125.524000", "142125.527000", "142125.529000", "142125.532000", "142125.534000", "142125.537000", "142125.540000", "142125.542000", "142125.545000", "142125.547000", "142125.550000", "142125.552000", "142125.555000", "142125.557000", "142125.560000", "142125.562000", "142125.565000", "142125.567000", "142125.570000", "142125.572000", "142205.494000", "142205.497000", "142205.500000", "142205.502000", "142205.505000", "142205.507000", "142205.510000", "142205.512000", "142205.515000", "142205.517000", "142205.520000", "142205.522000", "142205.525000", "142205.527000", "142205.530000", "142205.532000", "142205.535000", "142205.537000", "142205.540000", "142205.542000", "142205.545000", "142205.547000", "142205.550000", "142205.552000", "142205.555000", "142205.557000", "142205.560000", "142245.456000", "142245.458000", "142245.461000", "142245.463000", "142245.466000", "142245.468000", "142245.471000", "142245.473000", "142245.476000", "142245.478000", "142245.481000", "142245.483000", "142245.486000", "142245.488000", "142245.491000", "142245.493000", "142245.496000", "142245.498000", "142245.500000", "142245.503000", "142245.505000", "142245.508000", "142245.510000", "142245.513000", "142245.515000", "142245.518000", "142245.520000", "142246.050000"],
      "InstanceCreationTime": ["141945.477000", "141945.480000", "141945.482000", "141945.485000", "141945.487000", "141945.490000", "141945.492000", "141945.495000", "141945.497000", "141945.500000", "141945.502000", "141945.504000", "141945.507000", "141945.509000", "141945.512000", "141945.515000", "141945.517000", "141945.519000", "141945.522000", "141945.524000", "141945.527000", "142005.434000", "142005.436000", "142005.439000", "142005.441000", "142005.444000", "142005.446000", "142005.448000", "142005.452000", "142005.454000", "142005.457000", "142005.459000", "142005.469000", "142005.472000", "142005.474000", "142005.477000", "142005.479000", "142005.482000", "142005.484000", "142005.487000", "142005.489000", "142025.433000", "142025.435000", "142025.438000", "142025.440000", "142025.443000", "142025.445000", "142025.448000", "142025.450000", "142025.453000", "142025.455000", "142025.458000", "142025.460000", "142025.463000", "142025.465000", "142025.468000", "142025.470000", "142025.473000", "142025.475000", "142025.478000", "142025.480000", "142025.483000", "142045.420000", "142045.423000", "142045.425000", "142045.428000", "142045.430000", "142045.433000", "142045.435000", "142045.438000", "142045.440000", "142045.443000", "142045.445000", "142045.448000", "142045.450000", "142045.453000", "142045.455000", "142045.458000", "142045.460000", "142045.463000", "142045.465000", "142045.467000", "142125.480000", "142125.483000", "142125.489000", "142125.491000", "142125.494000", "142125.496000", "142125.499000", "142125.501000", "142125.512000", "142125.514000", "142125.522000", "142125.524000", "142125.527000", "142125.529000", "142125.532000", "142125.534000", "142125.537000", "142125.540000", "142125.542000", "142125.545000", "142125.547000", "142125.550000", "142125.552000", "142125.555000", "142125.557000", "142125.560000", "142125.562000", "142125.565000", "142125.567000", "142125.570000", "142125.572000", "142205.494000", "142205.497000", "142205.500000", "142205.502000", "142205.505000", "142205.507000", "142205.510000", "142205.512000", "142205.515000", "142205.517000", "142205.520000", "142205.522000", "142205.525000", "142205.527000", "142205.530000", "142205.532000", "142205.535000", "142205.537000", "142205.540000", "142205.542000", "142205.545000", "142205.547000", "142205.550000", "142205.552000", "142205.555000", "142205.557000", "142205.560000", "142245.456000", "142245.458000", "142245.461000", "142245.463000", "142245.466000", "142245.468000", "142245.471000", "142245.473000", "142245.476000", "142245.478000", "142245.481000", "142245.483000", "142245.486000", "142245.488000", "142245.491000", "142245.493000", "142245.496000", "142245.498000", "142245.500000", "142245.503000", "142245.505000", "142245.508000", "142245.510000", "142245.513000", "142245.515000", "142245.518000", "142245.520000", "142246.050000"],
      "InstanceNumber": [1, 2, 3, 4, 5, 6, 7, 8, 9, 10, 11, 12, 13, 14, 15, 16, 17, 18, 19, 20, 21, 22, 23, 24, 25, 26, 27, 28, 29, 30, 31, 32, 33, 34, 35, 36, 37, 38, 39, 40, 41, 42, 43, 44, 45, 46, 47, 48, 49, 50, 51, 52, 53, 54, 55, 56, 57, 58, 59, 60, 61, 62, 63, 64, 65, 66, 67, 68, 69, 70, 71, 72, 73, 74, 75, 76, 77, 78, 79, 80, 81, 82, 83, 84, 85, 86, 87, 88, 89, 90, 91, 92, 93, 94, 95, 96, 97, 98, 99, 100, 101, 102, 103, 104, 105, 106, 107, 108, 109, 110, 111, 112, 113, 114, 115, 116, 117, 118, 119, 120, 121, 122, 123, 124, 125, 126, 127, 128, 129, 130, 131, 132, 133, 134, 135, 136, 137, 138, 139, 140, 141, 142, 143, 144, 145, 146, 147, 148, 149, 150, 151, 152, 153, 154, 155, 156, 157, 158, 159, 160, 161, 162, 163, 164, 165, 166, 167, 168],
      "WindowCenter": [4876.0, 4876.0, 4874.0, 4874.0, 4874.0, 4874.0, 4898.0, 4874.0, 4872.0, 4894.0, 4872.0, 4872.0, 4894.0, 4894.0, 4874.0, 4894.0, 4894.0, 4896.0, 4894.0, 4892.0, 4892.0, 4872.0, 4894.0, 4892.0, 4894.0, 4868.0, 4866.0, 4870.0, 4900.0, 4896.0, 4870.0, 4872.0, 4866.0, 4866.0, 4868.0, 4866.0, 4868.0, 4894.0, 4862.0, 4868.0, 4872.0, 4866.0, 4892.0, 4894.0, 4874.0, 4872.0, 4872.0, 4872.0, 4870.0, 4864.0, 4866.0, 4866.0, 4892.0, 4870.0, 4892.0, 4890.0, 4894.0, 4874.0, 4872.0, 4872.0, 4868.0, 4868.0, 4866.0, 4868.0, 4870.0, 4870.0, 4872.0, 4894.0, 4872.0, 4870.0, 4896.0, 4892.0, 4892.0, 4866.0, 4890.0, 4872.0, 4892.0, 4892.0, 4894.0, 4866.0, 4890.0, 4890.0, 4892.0, 4892.0, 4870.0, 4898.0, 4872.0, 4870.0, 4890.0, 4870.0, 4870.0, 4868.0, 4892.0, 4892.0, 4868.0, 4896.0, 4870.0, 4872.0, 4890.0, 4870.0, 4872.0, 4888.0, 4870.0, 4892.0, 4892.0, 4870.0, 4872.0, 4866.0, 4868.0, 4864.0, 4868.0, 4866.0, 4868.0, 4892.0, 4896.0, 4870.0, 4890.0, 4894.0, 4868.0, 4868.0, 4866.0, 4892.0, 4888.0, 4892.0, 4890.0, 4888.0, 4868.0, 4892.0, 4892.0, 4894.0, 4872.0, 4874.0, 4870.0, 4866.0, 4864.0, 4860.0, 4864.0, 4868.0, 4892.0, 4870.0, 4872.0, 4870.0, 4894.0, 4892.0, 4868.0, 4868.0, 4886.0, 4866.0, 4866.0, 4868.0, 4892.0, 4868.0, 4866.0, 4892.0, 4890.0, 4886.0, 4864.0, 4864.0, 4870.0, 4870.0, 4868.0, 4890.0, 4868.0, 4866.0, 4866.0, 4864.0, 4866.0, 4892.0],
      "WindowWidth": [18680.0, 18682.0, 18680.0, 18682.0, 18680.0, 18678.0, 18714.0, 18684.0, 18688.0, 18718.0, 18686.0, 18688.0, 18716.0, 18712.0, 18680.0, 18712.0, 18712.0, 18716.0, 18718.0, 18726.0, 18712.0, 18690.0, 18720.0, 18722.0, 18714.0, 18690.0, 18690.0, 18688.0, 18712.0, 18712.0, 18676.0, 18688.0, 18686.0, 18690.0, 18686.0, 18686.0, 18688.0, 18714.0, 18686.0, 18682.0, 18690.0, 18684.0, 18724.0, 18712.0, 18684.0, 18684.0, 18682.0, 18684.0, 18688.0, 18690.0, 18694.0, 18688.0, 18720.0, 18684.0, 18714.0, 18718.0, 18712.0, 18674.0, 18676.0, 18684.0, 18686.0, 18684.0, 18686.0, 18688.0, 18682.0, 18688.0, 18690.0, 18718.0, 18680.0, 18684.0, 18718.0, 18718.0, 18720.0, 18692.0, 18722.0, 18684.0, 18718.0, 18722.0, 18716.0, 18684.0, 18718.0, 18724.0, 18716.0, 18718.0, 18684.0, 18716.0, 18688.0, 18690.0, 18724.0, 18688.0, 18692.0, 18690.0, 18728.0, 18722.0, 18690.0, 18716.0, 18690.0, 18692.0, 18716.0, 18688.0, 18690.0, 18720.0, 18686.0, 18718.0, 18712.0, 18674.0, 18682.0, 18688.0, 18694.0, 18688.0, 18692.0, 18688.0, 18694.0, 18720.0, 18720.0, 18686.0, 18722.0, 18722.0, 18692.0, 18694.0, 18690.0, 18722.0, 18720.0, 18722.0, 18724.0, 18724.0, 18686.0, 18718.0, 18724.0, 18712.0, 18680.0, 18682.0, 18682.0, 18686.0, 18688.0, 18690.0, 18690.0, 18694.0, 18720.0, 18688.0, 18682.0, 18686.0, 18720.0, 18716.0, 18692.0, 18692.0, 18730.0, 18694.0, 18694.0, 18692.0, 18722.0, 18686.0, 18692.0, 18714.0, 18724.0, 18724.0, 18690.0, 18688.0, 18694.0, 18684.0, 18682.0, 18718.0, 18682.0, 18686.0, 18694.0, 18690.0, 18688.0, 18716.0]
    },
    "slices": {}
  }
}