{
  "AcquisitionMatrixPE": 104,
  "AcquisitionNumber": 1,
  "AcquisitionTime": "13:59:27.387500",
  "BandwidthPerPixelPhaseEncode": 17.17,
  "BaseResolution": 104,
  "BodyPartExamined": "BRAIN",
  "CoilCombinationMethod": "Sum of Squares",
  "ConsistencyInfo": "N4_VE11C_LATEST_20160120",
  "ConversionSoftware": "dcm2niix",
  "ConversionSoftwareVersion": "v1.0.20220505",
  "DerivedVendorReportedEchoSpacing": 0.000560011,
  "DeviceSerialNumber": "167006",
  "DwellTime": 2.1e-06,
  "EchoTime": 0.037,
  "EchoTrainLength": 104,
  "EffectiveEchoSpacing": 0.000560011,
  "FlipAngle": 52,
  "HeudiconvVersion": "0.5.3.post811+g6206e14",
  "ImageComments": "Unaliased MB4/PE3/LB",
  "ImageOrientationPatientDICOM": [0.999724, 0.0205693, 0.0113346, -0.0167522, 0.962805, -0.269678],
  "ImageOrientationText": "Tra>Cor(-15.6)>Sag(0.9)",
  "ImageType": [
    "ORIGINAL",
    "PRIMARY",
    "M",
    "MB",
    "ND",
    "MOSAIC"
],
  "ImagingFrequency": 123.259,
  "InPlanePhaseEncodingDirectionDICOM": "COL",
  "InstitutionAddress": "Chemin Queen-Mary 4565,Montreal,District,CA,H3W 1W5",
  "InstitutionName": "IUGM",
  "InstitutionalDepartmentName": "Department",
  "MRAcquisitionType": "2D",
  "MagneticFieldStrength": 3,
  "Manufacturer": "Siemens",
  "ManufacturersModelName": "Prisma_fit",
  "MatrixCoilMode": "SENSE",
  "Modality": "MR",
  "MultibandAccelerationFactor": 4,
  "PartialFourier": 1,
  "PatientPosition": "HFS",
  "PercentPhaseFOV": 100,
  "PercentSampling": 100,
  "PhaseEncodingDirection": "j",
  "PhaseEncodingSteps": 104,
  "PhaseResolution": 1,
  "PixelBandwidth": 2290,
  "ProcedureStepDescription": "games^mario3",
  "ProtocolName": "func_task-mario3_run-02",
  "PulseSequenceDetails": "%CustomerSeq%\\cmrr_mbep2d_bold",
  "ReceiveCoilActiveElements": "HC1-7;NC1,2",
  "ReceiveCoilName": "HeadNeck_64",
  "ReconMatrixPE": 104,
  "RepetitionTime": 1.49,
  "SAR": 0.0536912,
  "ScanOptions": "FS",
  "ScanningSequence": "EP",
  "SequenceName": "epfid2d1_104",
  "SequenceVariant": "SK\\SS",
  "SeriesDescription": "func_task-mario3_run-02",
  "SeriesNumber": 13,
  "ShimSetting": [638, -7205, -8736, 692, 70, 38, -12, -14],
  "SliceThickness": 2,
  "SliceTiming": [0, 0.7825, 0.0975, 0.88, 0.195, 0.98, 0.2925, 1.0775, 0.39, 1.175, 0.49, 1.2725, 0.5875, 1.37, 0.685, 0, 0.7825, 0.0975, 0.88, 0.195, 0.98, 0.2925, 1.0775, 0.39, 1.175, 0.49, 1.2725, 0.5875, 1.37, 0.685, 0, 0.7825, 0.0975, 0.88, 0.195, 0.98, 0.2925, 1.0775, 0.39, 1.175, 0.49, 1.2725, 0.5875, 1.37, 0.685, 0, 0.7825, 0.0975, 0.88, 0.195, 0.98, 0.2925, 1.0775, 0.39, 1.175, 0.49, 1.2725, 0.5875, 1.37, 0.685],
  "SoftwareVersions": "syngo MR E11",
  "SpacingBetweenSlices": 2,
  "StationName": "MRC35049",
  "TaskName": "mario3",
  "TotalReadoutTime": 0.0576811,
  "TxRefAmp": 226.876,
  "WipMemBlock": "63985315-62c6-4cfa-8c87-85a8c28b551d||Sequence: R017 ve11c/master r/75a17815+; Jun 28 2022 16:32:11 by eja",
  "dcmmeta_affine": [
    [-1.999448299407959, -0.03350432962179184, 0.03292025625705719, 109.79768371582031],
    [-0.04113864526152611, 1.9256095886230469, -0.5388275384902954, -70.92302703857422],
    [0.02266925573348999, 0.5393560528755188, 1.9257676601409912, -49.21192169189453],
    [0.0, 0.0, 0.0, 1.0]
],
  "dcmmeta_reorient_transform": [
    [0.0, -1.0, 0.0, 103.0],
    [1.0, 0.0, 0.0, 0.0],
    [0.0, 0.0, 1.0, 0.0],
    [0.0, 0.0, 0.0, 1.0]
],
  "dcmmeta_shape": [104, 104, 60, 302],
  "dcmmeta_slice_dim": 2,
  "dcmmeta_version": 0.6,
  "global": {
    "const": {
      "AcquisitionMatrix": [104, 0, 0, 104],
      "AngioFlag": "N",
      "BitsAllocated": 16,
      "BitsStored": 16,
      "BodyPartExamined": "BRAIN",
      "Columns": 832,
      "EchoNumbers": 1,
      "EchoTime": 37.0,
      "EchoTrainLength": 104,
      "FlipAngle": 52.0,
      "HighBit": 15,
      "ImageOrientationPatient": [0.99972417653806, 0.02056932343385, 0.01133462742096, -0.0167521644106, 0.96280482157123, -0.2696780312646],
      "ImagePositionPatient": [-821.9503598306, -843.31114278546, 194.41575107567],
      "ImageType": [
        "ORIGINAL",
        "PRIMARY",
        "M",
        "MB",
        "ND",
        "MOSAIC"
],
      "ImagedNucleus": "1H",
      "ImagingFrequency": 123.258781,
      "InPlanePhaseEncodingDirection": "COL",
      "MRAcquisitionType": "2D",
      "MagneticFieldStrength": 3.0,
      "Manufacturer": "SIEMENS",
      "ManufacturerModelName": "Prisma_fit",
      "Modality": "MR",
      "NumberOfAverages": 1.0,
      "NumberOfPhaseEncodingSteps": 104,
      "PercentPhaseFieldOfView": 100.0,
      "PercentSampling": 100.0,
      "PerformedProcedureStepStartTime": "134620.923000",
      "PhotometricInterpretation": "MONOCHROME2",
      "PixelBandwidth": 2290.0,
      "PixelRepresentation": 0,
      "PixelSpacing": [2.0, 2.0],
      "ProtocolName": "func_task-mario3_run-02",
      "RepetitionTime": 1490.0,
      "Rows": 832,
      "SAR": 0.05369120923674,
      "SamplesPerPixel": 1,
      "ScanOptions": "FS",
      "ScanningSequence": "EP",
      "SequenceName": "epfid2d1_104",
      "SequenceVariant": [
        "SK",
        "SS"
],
      "SeriesDescription": "func_task-mario3_run-02",
      "SeriesNumber": 13,
      "SeriesTime": "140025.359000",
      "SliceLocation": -26.470439546285,
      "SliceThickness": 2.0,
      "SmallestImagePixelValue": 0,
      "SoftwareVersions": "syngo MR E11",
      "SpacingBetweenSlices": 1.9999999639876,
      "SpecificCharacterSet": "ISO_IR 100",
      "StudyID": "1",
      "StudyTime": "134620.855000",
      "TransmitCoilName": "Body",
      "VariableFlipAngleFlag": "N",
      "WindowCenterWidthExplanation": "Algo1",
      "dBdt": 0.0},
    "slices": {}
  },
  "time": {
    "samples": {
      "AcquisitionNumber": [1, 2, 3, 4, 5, 6, 7, 8, 9, 10, 11, 12, 13, 14, 15, 16, 17, 18, 19, 20, 21, 22, 23, 24, 25, 26, 27, 28, 29, 30, 31, 32, 33, 34, 35, 36, 37, 38, 39, 40, 41, 42, 43, 44, 45, 46, 47, 48, 49, 50, 51, 52, 53, 54, 55, 56, 57, 58, 59, 60, 61, 62, 63, 64, 65, 66, 67, 68, 69, 70, 71, 72, 73, 74, 75, 76, 77, 78, 79, 80, 81, 82, 83, 84, 85, 86, 87, 88, 89, 90, 91, 92, 93, 94, 95, 96, 97, 98, 99, 100, 101, 102, 103, 104, 105, 106, 107, 108, 109, 110, 111, 112, 113, 114, 115, 116, 117, 118, 119, 120, 121, 122, 123, 124, 125, 126, 127, 128, 129, 130, 131, 132, 133, 134, 135, 136, 137, 138, 139, 140, 141, 142, 143, 144, 145, 146, 147, 148, 149, 150, 151, 152, 153, 154, 155, 156, 157, 158, 159, 160, 161, 162, 163, 164, 165, 166, 167, 168, 169, 170, 171, 172, 173, 174, 175, 176, 177, 178, 179, 180, 181, 182, 183, 184, 185, 186, 187, 188, 189, 190, 191, 192, 193, 194, 195, 196, 197, 198, 199, 200, 201, 202, 203, 204, 205, 206, 207, 208, 209, 210, 211, 212, 213, 214, 215, 216, 217, 218, 219, 220, 221, 222, 223, 224, 225, 226, 227, 228, 229, 230, 231, 232, 233, 234, 235, 236, 237, 238, 239, 240, 241, 242, 243, 244, 245, 246, 247, 248, 249, 250, 251, 252, 253, 254, 255, 256, 257, 258, 259, 260, 261, 262, 263, 264, 265, 266, 267, 268, 269, 270, 271, 272, 273, 274, 275, 276, 277, 278, 279, 280, 281, 282, 283, 284, 285, 286, 287, 288, 289, 290, 291, 292, 293, 294, 295, 296, 297, 298, 299, 300, 301, 302],
      "AcquisitionTime": ["135927.387500", "135928.877500", "135930.367500", "135931.857500", "135933.347500", "135934.837500", "135936.327500", "135937.817500", "135939.307500", "135940.797500", "135942.287500", "135943.777500", "135945.267500", "135946.757500", "135948.247500", "135949.737500", "135951.227500", "135952.717500", "135954.207500", "135955.697500", "135957.187500", "135958.677500", "140000.167500", "140001.657500", "140003.147500", "140004.637500", "140006.127500", "140007.617500", "140009.107500", "140010.597500", "140012.087500", "140013.577500", "140015.067500", "140016.557500", "140018.047500", "140019.537500", "140021.027500", "140022.517500", "140024.007500", "140025.497500", "140026.987500", "140028.477500", "140029.967500", "140031.457500", "140032.947500", "140034.437500", "140035.927500", "140037.417500", "140038.907500", "140040.397500", "140041.887500", "140043.377500", "140044.867500", "140046.357500", "140047.847500", "140049.337500", "140050.827500", "140052.317500", "140053.807500", "140055.297500", "140056.787500", "140058.277500", "140059.767500", "140101.257500", "140102.747500", "140104.237500", "140105.727500", "140107.217500", "140108.707500", "140110.197500", "140111.687500", "140113.177500", "140114.667500", "140116.157500", "140117.647500", "140119.137500", "140120.627500", "140122.117500", "140123.607500", "140125.097500", "140126.587500", "140128.077500", "140129.567500", "140131.057500", "140132.547500", "140134.037500", "140135.527500", "140137.017500", "140138.507500", "140139.997500", "140141.487500", "140142.977500", "140144.467500", "140145.957500", "140147.447500", "140148.937500", "140150.427500", "140151.917500", "140153.407500", "140154.897500", "140156.387500", "140157.877500", "140159.367500", "140200.857500", "140202.347500", "140203.837500", "140205.327500", "140206.817500", "140208.307500", "140209.797500", "140211.287500", "140212.777500", "140214.267500", "140215.757500", "140217.247500", "140218.737500", "140220.227500", "140221.717500", "140223.207500", "140224.697500", "140226.187500", "140227.677500", "140229.167500", "140230.657500", "140232.147500", "140233.637500", "140235.127500", "140236.617500", "140238.107500", "140239.597500", "140241.087500", "140242.577500", "140244.067500", "140245.557500", "140247.047500", "140248.537500", "140250.027500", "140251.517500", "140253.007500", "140254.497500", "140255.987500", "140257.477500", "140258.967500", "140300.457500", "140301.947500", "140303.437500", "140304.927500", "140306.417500", "140307.907500", "140309.397500", "140310.887500", "140312.377500", "140313.867500", "140315.357500", "140316.847500", "140318.337500", "140319.827500", "140321.317500", "140322.807500", "140324.297500", "140325.787500", "140327.277500", "140328.767500", "140330.257500", "140331.747500", "140333.237500", "140334.727500", "140336.217500", "140337.707500", "140339.197500", "140340.687500", "140342.177500", "140343.667500", "140345.157500", "140346.647500", "140348.137500", "140349.627500", "140351.117500", "140352.607500", "140354.097500", "140355.587500", "140357.077500", "140358.567500", "140400.057500", "140401.547500", "140403.037500", "140404.527500", "140406.017500", "140407.507500", "140408.997500", "140410.487500", "140411.977500", "140413.467500", "140414.957500", "140416.447500", "140417.937500", "140419.427500", "140420.917500", "140422.407500", "140423.897500", "140425.387500", "140426.877500", "140428.367500", "140429.857500", "140431.347500", "140432.837500", "140434.327500", "140435.817500", "140437.307500", "140438.797500", "140440.287500", "140441.777500", "140443.267500", "140444.757500", "140446.247500", "140447.737500", "140449.227500", "140450.717500", "140452.207500", "140453.697500", "140455.187500", "140456.677500", "140458.167500", "140459.657500", "140501.147500", "140502.637500", "140504.127500", "140505.617500", "140507.107500", "140508.597500", "140510.087500", "140511.577500", "140513.067500", "140514.557500", "140516.047500", "140517.537500", "140519.027500", "140520.517500", "140522.007500", "140523.497500", "140524.987500", "140526.477500", "140527.967500", "140529.457500", "140530.947500", "140532.437500", "140533.927500", "140535.417500", "140536.907500", "140538.397500", "140539.887500", "140541.377500", "140542.867500", "140544.357500", "140545.847500", "140547.337500", "140548.827500", "140550.317500", "140551.807500", "140553.297500", "140554.787500", "140556.277500", "140557.767500", "140559.257500", "140600.747500", "140602.237500", "140603.727500", "140605.217500", "140606.707500", "140608.197500", "140609.687500", "140611.177500", "140612.667500", "140614.157500", "140615.647500", "140617.137500", "140618.627500", "140620.117500", "140621.607500", "140623.097500", "140624.587500", "140626.077500", "140627.567500", "140629.057500", "140630.547500", "140632.037500", "140633.527500", "140635.017500", "140636.507500", "140637.997500", "140639.487500", "140640.977500", "140642.467500", "140643.957500", "140645.447500", "140646.937500", "140648.427500", "140649.917500", "140651.407500", "140652.897500", "140654.387500", "140655.877500"],
      "ContentTime": ["140025.362000", "140025.366000", "140025.369000", "140025.373000", "140025.376000", "140025.379000", "140025.394000", "140025.397000", "140025.400000", "140025.405000", "140045.315000", "140045.319000", "140045.322000", "140045.325000", "140045.329000", "140045.332000", "140045.335000", "140045.338000", "140045.342000", "140045.345000", "140045.348000", "140045.351000", "140045.355000", "140045.358000", "140045.361000", "140045.364000", "140045.368000", "140045.371000", "140045.374000", "140045.378000", "140105.314000", "140105.318000", "140105.321000", "140105.324000", "140105.328000", "140105.331000", "140105.334000", "140105.337000", "140105.341000", "140105.344000", "140105.347000", "140105.350000", "140105.366000", "140105.370000", "140105.373000", "140105.376000", "140105.379000", "140105.383000", "140105.386000", "140105.389000", "140125.314000", "140125.318000", "140125.321000", "140125.324000", "140125.327000", "140125.331000", "140125.334000", "140125.337000", "140125.341000", "140125.344000", "140125.347000", "140125.350000", "140125.354000", "140125.357000", "140125.360000", "140125.364000", "140125.367000", "140125.370000", "140125.373000", "140125.377000", "140145.314000", "140145.318000", "140145.325000", "140145.328000", "140145.332000", "140145.335000", "140145.338000", "140145.342000", "140145.345000", "140145.348000", "140145.352000", "140145.355000", "140145.358000", "140145.361000", "140145.365000", "140145.368000", "140145.371000", "140145.375000", "140145.378000", "140145.382000", "140225.314000", "140225.318000", "140225.321000", "140225.324000", "140225.328000", "140225.331000", "140225.334000", "140225.337000", "140225.341000", "140225.344000", "140225.347000", "140225.350000", "140225.354000", "140225.357000", "140225.375000", "140225.378000", "140225.381000", "140225.384000", "140225.388000", "140225.391000", "140225.394000", "140225.397000", "140225.401000", "140225.404000", "140225.407000", "140225.411000", "140225.414000", "140225.417000", "140305.315000", "140305.319000", "140305.322000", "140305.325000", "140305.329000", "140305.332000", "140305.335000", "140305.339000", "140305.342000", "140305.345000", "140305.348000", "140305.352000", "140305.355000", "140305.358000", "140305.361000", "140305.365000", "140305.368000", "140305.371000", "140305.374000", "140305.378000", "140305.381000", "140305.384000", "140305.388000", "140305.391000", "140305.394000", "140305.398000", "140305.401000", "140345.314000", "140345.318000", "140345.321000", "140345.324000", "140345.328000", "140345.331000", "140345.334000", "140345.338000", "140345.341000", "140345.344000", "140345.347000", "140345.351000", "140345.354000", "140345.357000", "140345.361000", "140345.364000", "140345.367000", "140345.370000", "140345.374000", "140345.385000", "140345.388000", "140345.392000", "140345.395000", "140345.398000", "140345.402000", "140345.405000", "140345.408000", "140425.314000", "140425.318000", "140425.321000", "140425.324000", "140425.328000", "140425.331000", "140425.334000", "140425.338000", "140425.341000", "140425.344000", "140425.347000", "140425.351000", "140425.354000", "140425.357000", "140425.361000", "140425.364000", "140425.367000", "140425.370000", "140425.374000", "140425.377000", "140425.380000", "140425.384000", "140425.387000", "140425.390000", "140425.393000", "140425.397000", "140425.400000", "140505.314000", "140505.318000", "140505.321000", "140505.325000", "140505.328000", "140505.331000", "140505.334000", "140505.338000", "140505.341000", "140505.344000", "140505.348000", "140505.351000", "140505.354000", "140505.358000", "140505.361000", "140505.364000", "140505.368000", "140505.371000", "140505.374000", "140505.378000", "140505.381000", "140505.384000", "140505.387000", "140505.391000", "140505.394000", "140505.397000", "140505.401000", "140545.314000", "140545.318000", "140545.322000", "140545.325000", "140545.328000", "140545.332000", "140545.335000", "140545.338000", "140545.342000", "140545.345000", "140545.348000", "140545.352000", "140545.355000", "140545.358000", "140545.361000", "140545.365000", "140545.368000", "140545.371000", "140545.375000", "140545.378000", "140545.381000", "140545.385000", "140545.388000", "140545.391000", "140545.394000", "140545.398000", "140545.401000", "140625.314000", "140625.318000", "140625.321000", "140625.325000", "140625.328000", "140625.331000", "140625.334000", "140625.338000", "140625.341000", "140625.344000", "140625.348000", "140625.351000", "140625.354000", "140625.358000", "140625.361000", "140625.364000", "140625.368000", "140625.371000", "140625.374000", "140625.378000", "140625.381000", "140625.384000", "140625.387000", "140625.391000", "140625.394000", "140625.397000", "140658.653000", "140658.657000", "140658.663000", "140658.667000", "140658.671000", "140658.675000", "140658.678000", "140658.682000", "140658.686000", "140658.690000", "140658.694000", "140658.697000", "140658.701000", "140658.704000", "140658.721000", "140658.724000", "140658.728000", "140658.731000", "140658.735000", "140658.738000", "140658.741000", "140658.745000", "140658.748000"],
      "InstanceCreationTime": ["140025.362000", "140025.366000", "140025.369000", "140025.373000", "140025.376000", "140025.379000", "140025.394000", "140025.397000", "140025.400000", "140025.405000", "140045.315000", "140045.319000", "140045.322000", "140045.325000", "140045.329000", "140045.332000", "140045.335000", "140045.338000", "140045.342000", "140045.345000", "140045.348000", "140045.351000", "140045.355000", "140045.358000", "140045.361000", "140045.364000", "140045.368000", "140045.371000", "140045.374000", "140045.378000", "140105.314000", "140105.318000", "140105.321000", "140105.324000", "140105.328000", "140105.331000", "140105.334000", "140105.337000", "140105.341000", "140105.344000", "140105.347000", "140105.350000", "140105.366000", "140105.370000", "140105.373000", "140105.376000", "140105.379000", "140105.383000", "140105.386000", "140105.389000", "140125.314000", "140125.318000", "140125.321000", "140125.324000", "140125.327000", "140125.331000", "140125.334000", "140125.337000", "140125.341000", "140125.344000", "140125.347000", "140125.350000", "140125.354000", "140125.357000", "140125.360000", "140125.364000", "140125.367000", "140125.370000", "140125.373000", "140125.377000", "140145.314000", "140145.318000", "140145.325000", "140145.328000", "140145.332000", "140145.335000", "140145.338000", "140145.342000", "140145.345000", "140145.348000", "140145.352000", "140145.355000", "140145.358000", "140145.361000", "140145.365000", "140145.368000", "140145.371000", "140145.375000", "140145.378000", "140145.382000", "140225.314000", "140225.318000", "140225.321000", "140225.324000", "140225.328000", "140225.331000", "140225.334000", "140225.337000", "140225.341000", "140225.344000", "140225.347000", "140225.350000", "140225.354000", "140225.357000", "140225.375000", "140225.378000", "140225.381000", "140225.384000", "140225.388000", "140225.391000", "140225.394000", "140225.397000", "140225.401000", "140225.404000", "140225.407000", "140225.411000", "140225.414000", "140225.417000", "140305.315000", "140305.319000", "140305.322000", "140305.325000", "140305.329000", "140305.332000", "140305.335000", "140305.339000", "140305.342000", "140305.345000", "140305.348000", "140305.352000", "140305.355000", "140305.358000", "140305.361000", "140305.365000", "140305.368000", "140305.371000", "140305.374000", "140305.378000", "140305.381000", "140305.384000", "140305.388000", "140305.391000", "140305.394000", "140305.398000", "140305.401000", "140345.314000", "140345.318000", "140345.321000", "140345.324000", "140345.328000", "140345.331000", "140345.334000", "140345.338000", "140345.341000", "140345.344000", "140345.347000", "140345.351000", "140345.354000", "140345.357000", "140345.361000", "140345.364000", "140345.367000", "140345.370000", "140345.374000", "140345.385000", "140345.388000", "140345.392000", "140345.395000", "140345.398000", "140345.402000", "140345.405000", "140345.408000", "140425.314000", "140425.318000", "140425.321000", "140425.324000", "140425.328000", "140425.331000", "140425.334000", "140425.338000", "140425.341000", "140425.344000", "140425.347000", "140425.351000", "140425.354000", "140425.357000", "140425.361000", "140425.364000", "140425.367000", "140425.370000", "140425.374000", "140425.377000", "140425.380000", "140425.384000", "140425.387000", "140425.390000", "140425.393000", "140425.397000", "140425.400000", "140505.314000", "140505.318000", "140505.321000", "140505.325000", "140505.328000", "140505.331000", "140505.334000", "140505.338000", "140505.341000", "140505.344000", "140505.348000", "140505.351000", "140505.354000", "140505.358000", "140505.361000", "140505.364000", "140505.368000", "140505.371000", "140505.374000", "140505.378000", "140505.381000", "140505.384000", "140505.387000", "140505.391000", "140505.394000", "140505.397000", "140505.401000", "140545.314000", "140545.318000", "140545.322000", "140545.325000", "140545.328000", "140545.332000", "140545.335000", "140545.338000", "140545.342000", "140545.345000", "140545.348000", "140545.352000", "140545.355000", "140545.358000", "140545.361000", "140545.365000", "140545.368000", "140545.371000", "140545.375000", "140545.378000", "140545.381000", "140545.385000", "140545.388000", "140545.391000", "140545.394000", "140545.398000", "140545.401000", "140625.314000", "140625.318000", "140625.321000", "140625.325000", "140625.328000", "140625.331000", "140625.334000", "140625.338000", "140625.341000", "140625.344000", "140625.348000", "140625.351000", "140625.354000", "140625.358000", "140625.361000", "140625.364000", "140625.368000", "140625.371000", "140625.374000", "140625.378000", "140625.381000", "140625.384000", "140625.387000", "140625.391000", "140625.394000", "140625.397000", "140658.653000", "140658.657000", "140658.663000", "140658.667000", "140658.671000", "140658.675000", "140658.678000", "140658.682000", "140658.686000", "140658.690000", "140658.694000", "140658.697000", "140658.701000", "140658.704000", "140658.721000", "140658.724000", "140658.728000", "140658.731000", "140658.735000", "140658.738000", "140658.741000", "140658.745000", "140658.748000"],
      "InstanceNumber": [1, 2, 3, 4, 5, 6, 7, 8, 9, 10, 11, 12, 13, 14, 15, 16, 17, 18, 19, 20, 21, 22, 23, 24, 25, 26, 27, 28, 29, 30, 31, 32, 33, 34, 35, 36, 37, 38, 39, 40, 41, 42, 43, 44, 45, 46, 47, 48, 49, 50, 51, 52, 53, 54, 55, 56, 57, 58, 59, 60, 61, 62, 63, 64, 65, 66, 67, 68, 69, 70, 71, 72, 73, 74, 75, 76, 77, 78, 79, 80, 81, 82, 83, 84, 85, 86, 87, 88, 89, 90, 91, 92, 93, 94, 95, 96, 97, 98, 99, 100, 101, 102, 103, 104, 105, 106, 107, 108, 109, 110, 111, 112, 113, 114, 115, 116, 117, 118, 119, 120, 121, 122, 123, 124, 125, 126, 127, 128, 129, 130, 131, 132, 133, 134, 135, 136, 137, 138, 139, 140, 141, 142, 143, 144, 145, 146, 147, 148, 149, 150, 151, 152, 153, 154, 155, 156, 157, 158, 159, 160, 161, 162, 163, 164, 165, 166, 167, 168, 169, 170, 171, 172, 173, 174, 175, 176, 177, 178, 179, 180, 181, 182, 183, 184, 185, 186, 187, 188, 189, 190, 191, 192, 193, 194, 195, 196, 197, 198, 199, 200, 201, 202, 203, 204, 205, 206, 207, 208, 209, 210, 211, 212, 213, 214, 215, 216, 217, 218, 219, 220, 221, 222, 223, 224, 225, 226, 227, 228, 229, 230, 231, 232, 233, 234, 235, 236, 237, 238, 239, 240, 241, 242, 243, 244, 245, 246, 247, 248, 249, 250, 251, 252, 253, 254, 255, 256, 257, 258, 259, 260, 261, 262, 263, 264, 265, 266, 267, 268, 269, 270, 271, 272, 273, 274, 275, 276, 277, 278, 279, 280, 281, 282, 283, 284, 285, 286, 287, 288, 289, 290, 291, 292, 293, 294, 295, 296, 297, 298, 299, 300, 301, 302],
      "LargestImagePixelValue": [42622, 41049, 41064, 38859, 39304, 39531, 39537, 39724, 39920, 39354, 39836, 39804, 40487, 40441, 40786, 40372, 40417, 40431, 40511, 40470, 40286, 40213, 40162, 40430, 39876, 40103, 40095, 39934, 40336, 40066, 40269, 39394, 39220, 39724, 39968, 39568, 40508, 40043, 39837, 40769, 40444, 39773, 39484, 39119, 39273, 39498, 39044, 39430, 39241, 39514, 39824, 39272, 39687, 39136, 38752, 38747, 38917, 38922, 39012, 39267, 38975, 39175, 38832, 38549, 38079, 38486, 39038, 40181, 39351, 38629, 39612, 39362, 38792, 39234, 39348, 38714, 39784, 38942, 39717, 39388, 39291, 39389, 38920, 39037, 38666, 38807, 38494, 38523, 38329, 38528, 38380, 38732, 38260, 38718, 38178, 38121, 38350, 38806, 38759, 38550, 38518, 38356, 38779, 38411, 38881, 38801, 38479, 38742, 38678, 38671, 38313, 38798, 38575, 38944, 39021, 38432, 39176, 38742, 38396, 38361, 38395, 38264, 38345, 38691, 38580, 39210, 38201, 38472, 39842, 39126, 38835, 39104, 38057, 38548, 38170, 38435, 38095, 38426, 38507, 38353, 38508, 38118, 38182, 38208, 38092, 38059, 38145, 38156, 37932, 38302, 38396, 38683, 38498, 38812, 38621, 38382, 38630, 40045, 38160, 38360, 38407, 38503, 41025, 39552, 38851, 38096, 38165, 38766, 38822, 39125, 39440, 38377, 38207, 38279, 38306, 38324, 38335, 38743, 38517, 38438, 38866, 38655, 38213, 38194, 38472, 38530, 38487, 39267, 38923, 38628, 38596, 38583, 39210, 38421, 40856, 39860, 39193, 39991, 39569, 39663, 38598, 39114, 39139, 39627, 38624, 38257, 38296, 38641, 38565, 38150, 38527, 38604, 38451, 38845, 38550, 39039, 38380, 39647, 38951, 38281, 38717, 39600, 39634, 39085, 38775, 39234, 39043, 38756, 38422, 41156, 40235, 39974, 39672, 39436, 38249, 38523, 38221, 38811, 38497, 38911, 38837, 38990, 39203, 40198, 40374, 40205, 39714, 39552, 39613, 39732, 39662, 38762, 39177, 39714, 38370, 38701, 39219, 39693, 39080, 38784, 38960, 39107, 38621, 38753, 39527, 38436, 38643, 38431, 38275, 38150, 38266, 38480, 38904, 38561, 38161, 38605, 38125, 38619, 39765, 38314, 38589, 39004, 38571, 38422, 39742, 38884, 38455, 37826, 39833, 39307, 40161, 39638, 39627, 39715, 39840, 39462, 39555, 39619, 39256, 39880, 40198, 39191],
      "WindowCenter": [10096.0, 10069.0, 10044.0, 10004.0, 9995.0, 10002.0, 10004.0, 10004.0, 10010.0, 10028.0, 10041.0, 10043.0, 10030.0, 10010.0, 10005.0, 10022.0, 10022.0, 10024.0, 10016.0, 10013.0, 10005.0, 10007.0, 10005.0, 10011.0, 10004.0, 10002.0, 10007.0, 9981.0, 10015.0, 10017.0, 10011.0, 9987.0, 9983.0, 10002.0, 10001.0, 10002.0, 9984.0, 9951.0, 9938.0, 9966.0, 9978.0, 10004.0, 10006.0, 10008.0, 10029.0, 10019.0, 10004.0, 9994.0, 9958.0, 9939.0, 9952.0, 9966.0, 10004.0, 10009.0, 10003.0, 9966.0, 9970.0, 9974.0, 9995.0, 10004.0, 9998.0, 9979.0, 9979.0, 9968.0, 9978.0, 9966.0, 9949.0, 9960.0, 9955.0, 9954.0, 9995.0, 9984.0, 9978.0, 9985.0, 9997.0, 9996.0, 10006.0, 9978.0, 9975.0, 9951.0, 9957.0, 9956.0, 9974.0, 9993.0, 9997.0, 9998.0, 10000.0, 9996.0, 10007.0, 9999.0, 9996.0, 10012.0, 10022.0, 10031.0, 10017.0, 9999.0, 9986.0, 9989.0, 10007.0, 10028.0, 10032.0, 10015.0, 9994.0, 9992.0, 10006.0, 10017.0, 10030.0, 10041.0, 10011.0, 9982.0, 9982.0, 9998.0, 10038.0, 10038.0, 10023.0, 9927.0, 9974.0, 9952.0, 9980.0, 9987.0, 10000.0, 9990.0, 10008.0, 10031.0, 10032.0, 10021.0, 10013.0, 9964.0, 10078.0, 10040.0, 10022.0, 10004.0, 9997.0, 10005.0, 10014.0, 10013.0, 9995.0, 10009.0, 10002.0, 10030.0, 10030.0, 10012.0, 10004.0, 10009.0, 10001.0, 9999.0, 10016.0, 10011.0, 9986.0, 9964.0, 9962.0, 9977.0, 9989.0, 10013.0, 10017.0, 10015.0, 10008.0, 10039.0, 10022.0, 9999.0, 9978.0, 9973.0, 10064.0, 10061.0, 10015.0, 9963.0, 9919.0, 9906.0, 9900.0, 9929.0, 9972.0, 9988.0, 10012.0, 10035.0, 10008.0, 10010.0, 10017.0, 10017.0, 10005.0, 10006.0, 9993.0, 9979.0, 9979.0, 9987.0, 9996.0, 9989.0, 9973.0, 9960.0, 9926.0, 9935.0, 9940.0, 9948.0, 9960.0, 9921.0, 10031.0, 10008.0, 9986.0, 9970.0, 9979.0, 9979.0, 9956.0, 9988.0, 10005.0, 10019.0, 10002.0, 9990.0, 9981.0, 9997.0, 9996.0, 9977.0, 9987.0, 9994.0, 10005.0, 9986.0, 9993.0, 9964.0, 9913.0, 10013.0, 10009.0, 9997.0, 10010.0, 10022.0, 10000.0, 9980.0, 9970.0, 9976.0, 9974.0, 9987.0, 9895.0, 10015.0, 10009.0, 10007.0, 9984.0, 9956.0, 9974.0, 9948.0, 9963.0, 9961.0, 9941.0, 9933.0, 9924.0, 9939.0, 9952.0, 9989.0, 10018.0, 9991.0, 9963.0, 9936.0, 9863.0, 9976.0, 9982.0, 9982.0, 9959.0, 9976.0, 9953.0, 9959.0, 9986.0, 10004.0, 10007.0, 10008.0, 10024.0, 10020.0, 10010.0, 9994.0, 10023.0, 10006.0, 10017.0, 9986.0, 9971.0, 9957.0, 9961.0, 9962.0, 9988.0, 9999.0, 9993.0, 9987.0, 9959.0, 9959.0, 9981.0, 9970.0, 9977.0, 9950.0, 9957.0, 9953.0, 9940.0, 9989.0, 9984.0, 9967.0, 10051.0, 9993.0, 10016.0, 9975.0, 9963.0, 9969.0, 9976.0, 9963.0, 9968.0, 9981.0, 9989.0, 10005.0, 10019.0, 9981.0],
