{
  "AcquisitionMatrixPE": 104,
  "AcquisitionNumber": 1,
  "AcquisitionTime": "13:49:37.922500",
  "BandwidthPerPixelPhaseEncode": 17.17,
  "BaseResolution": 104,
  "BodyPartExamined": "BRAIN",
  "CoilCombinationMethod": "Sum of Squares",
  "ConsistencyInfo": "N4_VE11C_LATEST_20160120",
  "ConversionSoftware": "dcm2niix",
  "ConversionSoftwareVersion": "v1.0.20220505",
  "DerivedVendorReportedEchoSpacing": 0.000560011,
  "DeviceSerialNumber": "167006",
  "DwellTime": 2.1e-06,
  "EchoTime": 0.037,
  "EchoTime1": 0.037,
  "EchoTime2": 0.001,
  "EchoTrainLength": 104,
  "EffectiveEchoSpacing": 0.000560011,
  "FlipAngle": 52,
  "HeudiconvVersion": "0.5.3.post811+g6206e14",
  "ImageComments": "Unaliased MB4/PE3/LB",
  "ImageOrientationPatientDICOM": [0.999724, 0.0205693, 0.0113346, -0.0167522, 0.962805, -0.269678],
  "ImageOrientationText": "Tra>Cor(-15.6)>Sag(0.9)",
  "ImageType": [
    "ORIGINAL",
    "PRIMARY",
    "P",
    "MB",
    "ND",
    "MOSAIC",
    "PHASE"
],
  "ImagingFrequency": 123.259,
  "InPlanePhaseEncodingDirectionDICOM": "COL",
  "InstitutionAddress": "Chemin Queen-Mary 4565,Montreal,District,CA,H3W 1W5",
  "InstitutionName": "IUGM",
  "InstitutionalDepartmentName": "Department",
  "MRAcquisitionType": "2D",
  "MagneticFieldStrength": 3,
  "Manufacturer": "Siemens",
  "ManufacturersModelName": "Prisma_fit",
  "MatrixCoilMode": "SENSE",
  "Modality": "MR",
  "MultibandAccelerationFactor": 4,
  "PartialFourier": 1,
  "PatientPosition": "HFS",
  "PercentPhaseFOV": 100,
  "PercentSampling": 100,
  "PhaseEncodingDirection": "j",
  "PhaseEncodingSteps": 104,
  "PhaseResolution": 1,
  "PixelBandwidth": 2290,
  "ProcedureStepDescription": "games^mario3",
  "ProtocolName": "func_task-mario3_run-01",
  "PulseSequenceDetails": "%CustomerSeq%\\cmrr_mbep2d_bold",
  "ReceiveCoilActiveElements": "HC1-7;NC1,2",
  "ReceiveCoilName": "HeadNeck_64",
  "ReconMatrixPE": 104,
  "RepetitionTime": 1.49,
  "SAR": 0.0536912,
  "ScanOptions": "FS",
  "ScanningSequence": "EP",
  "SequenceName": "epfid2d1_104",
  "SequenceVariant": "SK\\SS",
  "SeriesDescription": "func_task-mario3_run-01",
  "SeriesNumber": 11,
  "ShimSetting": [638, -7205, -8736, 692, 70, 38, -12, -14],
  "SliceThickness": 2,
  "SliceTiming": [0, 0.785, 0.0975, 0.8825, 0.1975, 0.98, 0.295, 1.0775, 0.3925, 1.175, 0.49, 1.275, 0.5875, 1.3725, 0.685, 0, 0.785, 0.0975, 0.8825, 0.1975, 0.98, 0.295, 1.0775, 0.3925, 1.175, 0.49, 1.275, 0.5875, 1.3725, 0.685, 0, 0.785, 0.0975, 0.8825, 0.1975, 0.98, 0.295, 1.0775, 0.3925, 1.175, 0.49, 1.275, 0.5875, 1.3725, 0.685, 0, 0.785, 0.0975, 0.8825, 0.1975, 0.98, 0.295, 1.0775, 0.3925, 1.175, 0.49, 1.275, 0.5875, 1.3725, 0.685],
  "SoftwareVersions": "syngo MR E11",
  "SpacingBetweenSlices": 2,
  "StationName": "MRC35049",
  "TaskName": "mario3",
  "TotalReadoutTime": 0.0576811,
  "TxRefAmp": 226.876,
  "WipMemBlock": "bd20858d-3872-48e0-968b-06f2c83eb300||Sequence: R017 ve11c/master r/75a17815+; Jun 28 2022 16:32:11 by eja",
  "dcmmeta_affine": [
    [-1.999448299407959, -0.03350432962179184, 0.03292025625705719, 109.79768371582031],
    [-0.04113864526152611, 1.9256095886230469, -0.5388275384902954, -70.92302703857422],
    [0.02266925573348999, 0.5393560528755188, 1.9257676601409912, -49.21192169189453],
    [0.0, 0.0, 0.0, 1.0]
],
  "dcmmeta_reorient_transform": [
    [0.0, -1.0, 0.0, 103.0],
    [1.0, 0.0, 0.0, 0.0],
    [0.0, 0.0, 1.0, 0.0],
    [0.0, 0.0, 0.0, 1.0]
],
  "dcmmeta_shape": [104, 104, 60, 326],
  "dcmmeta_slice_dim": 2,
  "dcmmeta_version": 0.6,
  "global": {
    "const": {
      "AcquisitionMatrix": [104, 0, 0, 104],
      "AngioFlag": "N",
      "BitsAllocated": 16,
      "BitsStored": 16,
      "BodyPartExamined": "BRAIN",
      "Columns": 832,
      "EchoNumbers": 1,
      "EchoTime": 37.0,
      "EchoTrainLength": 104,
      "FlipAngle": 52.0,
      "HighBit": 15,
      "ImageOrientationPatient": [0.99972417653806, 0.02056932343385, 0.01133462742096, -0.0167521644106, 0.96280482157123, -0.2696780312646],
      "ImagePositionPatient": [-821.9503598306, -843.31114278546, 194.41575107567],
      "ImageType": [
        "ORIGINAL",
        "PRIMARY",
        "P",
        "MB",
        "ND",
        "MOSAIC"
],
      "ImagedNucleus": "1H",
      "ImagingFrequency": 123.258773,
      "InPlanePhaseEncodingDirection": "COL",
      "LargestImagePixelValue": 4095,
      "MRAcquisitionType": "2D",
      "MagneticFieldStrength": 3.0,
      "Manufacturer": "SIEMENS",
      "ManufacturerModelName": "Prisma_fit",
      "Modality": "MR",
      "NumberOfAverages": 1.0,
      "NumberOfPhaseEncodingSteps": 104,
      "PercentPhaseFieldOfView": 100.0,
      "PercentSampling": 100.0,
      "PerformedProcedureStepStartTime": "134620.923000",
      "PhotometricInterpretation": "MONOCHROME2",
      "PixelBandwidth": 2290.0,
      "PixelRepresentation": 0,
      "PixelSpacing": [2.0, 2.0],
      "ProtocolName": "func_task-mario3_run-01",
      "RepetitionTime": 1490.0,
      "RescaleIntercept": -4096.0,
      "RescaleSlope": 2.0,
      "RescaleType": "US",
      "Rows": 832,
      "SAR": 0.05369120923674,
      "SamplesPerPixel": 1,
      "ScanOptions": "FS",
      "ScanningSequence": "EP",
      "SequenceName": "epfid2d1_104",
      "SequenceVariant": [
        "SK",
        "SS"
],
      "SeriesDescription": "func_task-mario3_run-01",
      "SeriesNumber": 11,
      "SeriesTime": "135029.532000",
      "SliceLocation": -26.470439546285,
      "SliceThickness": 2.0,
      "SmallestImagePixelValue": 0,
      "SoftwareVersions": "syngo MR E11",
      "SpacingBetweenSlices": 1.9999999639876,
      "SpecificCharacterSet": "ISO_IR 100",
      "StudyID": "1",
      "StudyTime": "134620.855000",
      "TransmitCoilName": "Body",
      "VariableFlipAngleFlag": "N",
      "WindowCenterWidthExplanation": "Algo1",
      "dBdt": 0.0},
    "slices": {}
  },
  "time": {
    "samples": {
      "AcquisitionNumber": [1, 2, 3, 4, 5, 6, 7, 8, 9, 10, 11, 12, 13, 14, 15, 16, 17, 18, 19, 20, 21, 22, 23, 24, 25, 26, 27, 28, 29, 30, 31, 32, 33, 34, 35, 36, 37, 38, 39, 40, 41, 42, 43, 44, 45, 46, 47, 48, 49, 50, 51, 52, 53, 54, 55, 56, 57, 58, 59, 60, 61, 62, 63, 64, 65, 66, 67, 68, 69, 70, 71, 72, 73, 74, 75, 76, 77, 78, 79, 80, 81, 82, 83, 84, 85, 86, 87, 88, 89, 90, 91, 92, 93, 94, 95, 96, 97, 98, 99, 100, 101, 102, 103, 104, 105, 106, 107, 108, 109, 110, 111, 112, 113, 114, 115, 116, 117, 118, 119, 120, 121, 122, 123, 124, 125, 126, 127, 128, 129, 130, 131, 132, 133, 134, 135, 136, 137, 138, 139, 140, 141, 142, 143, 144, 145, 146, 147, 148, 149, 150, 151, 152, 153, 154, 155, 156, 157, 158, 159, 160, 161, 162, 163, 164, 165, 166, 167, 168, 169, 170, 171, 172, 173, 174, 175, 176, 177, 178, 179, 180, 181, 182, 183, 184, 185, 186, 187, 188, 189, 190, 191, 192, 193, 194, 195, 196, 197, 198, 199, 200, 201, 202, 203, 204, 205, 206, 207, 208, 209, 210, 211, 212, 213, 214, 215, 216, 217, 218, 219, 220, 221, 222, 223, 224, 225, 226, 227, 228, 229, 230, 231, 232, 233, 234, 235, 236, 237, 238, 239, 240, 241, 242, 243, 244, 245, 246, 247, 248, 249, 250, 251, 252, 253, 254, 255, 256, 257, 258, 259, 260, 261, 262, 263, 264, 265, 266, 267, 268, 269, 270, 271, 272, 273, 274, 275, 276, 277, 278, 279, 280, 281, 282, 283, 284, 285, 286, 287, 288, 289, 290, 291, 292, 293, 294, 295, 296, 297, 298, 299, 300, 301, 302, 303, 304, 305, 306, 307, 308, 309, 310, 311, 312, 313, 314, 315, 316, 317, 318, 319, 320, 321, 322, 323, 324, 325, 326],
      "AcquisitionTime": ["134937.922500", "134939.412500", "134940.902500", "134942.392500", "134943.882500", "134945.372500", "134946.862500", "134948.352500", "134949.842500", "134951.332500", "134952.822500", "134954.312500", "134955.802500", "134957.292500", "134958.782500", "135000.272500", "135001.762500", "135003.252500", "135004.742500", "135006.232500", "135007.722500", "135009.212500", "135010.702500", "135012.192500", "135013.682500", "135015.172500", "135016.662500", "135018.152500", "135019.642500", "135021.132500", "135022.622500", "135024.112500", "135025.602500", "135027.092500", "135028.582500", "135030.072500", "135031.562500", "135033.052500", "135034.542500", "135036.032500", "135037.522500", "135039.012500", "135040.502500", "135041.992500", "135043.482500", "135044.972500", "135046.462500", "135047.952500", "135049.442500", "135050.932500", "135052.422500", "135053.912500", "135055.402500", "135056.892500", "135058.382500", "135059.872500", "135101.362500", "135102.852500", "135104.342500", "135105.832500", "135107.322500", "135108.812500", "135110.302500", "135111.792500", "135113.282500", "135114.772500", "135116.262500", "135117.752500", "135119.242500", "135120.732500", "135122.222500", "135123.712500", "135125.202500", "135126.692500", "135128.182500", "135129.672500", "135131.162500", "135132.652500", "135134.142500", "135135.632500", "135137.122500", "135138.612500", "135140.102500", "135141.592500", "135143.082500", "135144.572500", "135146.062500", "135147.552500", "135149.042500", "135150.532500", "135152.022500", "135153.512500", "135155.002500", "135156.492500", "135157.982500", "135159.472500", "135200.962500", "135202.452500", "135203.942500", "135205.432500", "135206.922500", "135208.412500", "135209.902500", "135211.392500", "135212.882500", "135214.372500", "135215.862500", "135217.352500", "135218.842500", "135220.332500", "135221.822500", "135223.312500", "135224.802500", "135226.292500", "135227.782500", "135229.272500", "135230.762500", "135232.252500", "135233.742500", "135235.232500", "135236.722500", "135238.212500", "135239.702500", "135241.192500", "135242.682500", "135244.172500", "135245.662500", "135247.152500", "135248.642500", "135250.132500", "135251.622500", "135253.112500", "135254.602500", "135256.092500", "135257.582500", "135259.072500", "135300.562500", "135302.052500", "135303.542500", "135305.032500", "135306.522500", "135308.012500", "135309.502500", "135310.992500", "135312.482500", "135313.972500", "135315.462500", "135316.952500", "135318.442500", "135319.932500", "135321.422500", "135322.912500", "135324.402500", "135325.892500", "135327.382500", "135328.872500", "135330.362500", "135331.852500", "135333.342500", "135334.832500", "135336.322500", "135337.812500", "135339.302500", "135340.792500", "135342.282500", "135343.772500", "135345.262500", "135346.752500", "135348.242500", "135349.732500", "135351.222500", "135352.712500", "135354.202500", "135355.692500", "135357.182500", "135358.672500", "135400.162500", "135401.652500", "135403.142500", "135404.632500", "135406.122500", "135407.612500", "135409.102500", "135410.592500", "135412.082500", "135413.572500", "135415.062500", "135416.552500", "135418.042500", "135419.532500", "135421.022500", "135422.512500", "135424.002500", "135425.492500", "135426.982500", "135428.472500", "135429.962500", "135431.452500", "135432.942500", "135434.432500", "135435.922500", "135437.412500", "135438.902500", "135440.392500", "135441.882500", "135443.372500", "135444.862500", "135446.352500", "135447.842500", "135449.332500", "135450.822500", "135452.312500", "135453.802500", "135455.292500", "135456.782500", "135458.272500", "135459.762500", "135501.252500", "135502.742500", "135504.232500", "135505.722500", "135507.212500", "135508.702500", "135510.192500", "135511.682500", "135513.172500", "135514.662500", "135516.152500", "135517.642500", "135519.132500", "135520.622500", "135522.112500", "135523.602500", "135525.092500", "135526.582500", "135528.072500", "135529.562500", "135531.052500", "135532.542500", "135534.032500", "135535.522500", "135537.012500", "135538.502500", "135539.992500", "135541.482500", "135542.972500", "135544.462500", "135545.952500", "135547.442500", "135548.932500", "135550.422500", "135551.912500", "135553.402500", "135554.892500", "135556.382500", "135557.872500", "135559.362500", "135600.852500", "135602.342500", "135603.832500", "135605.322500", "135606.812500", "135608.302500", "135609.792500", "135611.282500", "135612.772500", "135614.262500", "135615.752500", "135617.242500", "135618.732500", "135620.222500", "135621.712500", "135623.202500", "135624.692500", "135626.182500", "135627.672500", "135629.162500", "135630.652500", "135632.142500", "135633.632500", "135635.122500", "135636.612500", "135638.102500", "135639.592500", "135641.082500", "135642.572500", "135644.062500", "135645.552500", "135647.042500", "135648.532500", "135650.022500", "135651.512500", "135653.002500", "135654.492500", "135655.982500", "135657.472500", "135658.962500", "135700.452500", "135701.942500", "135703.432500", "135704.922500", "135706.412500", "135707.902500", "135709.392500", "135710.882500", "135712.372500", "135713.862500", "135715.352500", "135716.842500", "135718.332500", "135719.822500", "135721.312500", "135722.802500", "135724.292500", "135725.782500", "135727.272500", "135728.762500", "135730.252500", "135731.742500", "135733.232500", "135734.722500", "135736.212500", "135737.702500", "135739.192500", "135740.682500", "135742.172500"],
      "ContentTime": ["135029.534000", "135029.536000", "135049.577000", "135049.579000", "135049.582000", "135049.584000", "135049.587000", "135049.589000", "135049.591000", "135049.594000", "135049.596000", "135049.599000", "135049.601000", "135049.604000", "135049.606000", "135049.609000", "135049.611000", "135049.613000", "135049.616000", "135049.618000", "135049.621000", "135049.623000", "135109.599000", "135109.601000", "135109.604000", "135109.606000", "135109.609000", "135109.612000", "135109.614000", "135109.617000", "135109.619000", "135109.622000", "135109.624000", "135109.627000", "135109.629000", "135109.632000", "135109.634000", "135109.636000", "135109.639000", "135109.641000", "135109.644000", "135109.646000", "135129.598000", "135129.601000", "135129.603000", "135129.606000", "135129.608000", "135129.610000", "135129.613000", "135129.615000", "135129.618000", "135129.620000", "135129.623000", "135129.625000", "135129.628000", "135129.630000", "135129.633000", "135129.635000", "135129.638000", "135129.640000", "135129.642000", "135129.645000", "135129.647000", "135149.574000", "135149.577000", "135149.579000", "135149.582000", "135149.584000", "135149.587000", "135149.589000", "135149.592000", "135149.594000", "135149.597000", "135149.599000", "135149.602000", "135149.604000", "135149.606000", "135149.609000", "135149.611000", "135149.614000", "135149.616000", "135149.619000", "135149.621000", "135229.635000", "135229.639000", "135229.641000", "135229.644000", "135229.648000", "135229.652000", "135229.655000", "135229.657000", "135229.660000", "135229.663000", "135229.673000", "135229.676000", "135229.678000", "135229.681000", "135229.683000", "135229.686000", "135229.688000", "135229.691000", "135229.693000", "135229.696000", "135229.698000", "135229.701000", "135229.703000", "135229.706000", "135229.708000", "135229.711000", "135229.713000", "135229.716000", "135229.718000", "135229.721000", "135229.723000", "135309.612000", "135309.615000", "135309.618000", "135309.620000", "135309.623000", "135309.625000", "135309.628000", "135309.630000", "135309.632000", "135309.635000", "135309.638000", "135309.641000", "135309.644000", "135309.646000", "135309.649000", "135309.651000", "135309.654000", "135309.656000", "135309.658000", "135309.661000", "135309.664000", "135309.666000", "135309.668000", "135309.671000", "135309.673000", "135309.676000", "135309.678000", "135349.615000", "135349.618000", "135349.621000", "135349.623000", "135349.626000", "135349.628000", "135349.631000", "135349.633000", "135349.636000", "135349.638000", "135349.641000", "135349.643000", "135349.646000", "135349.648000", "135349.651000", "135349.653000", "135349.655000", "135349.658000", "135349.660000", "135349.663000", "135349.665000", "135349.668000", "135349.670000", "135349.673000", "135349.675000", "135349.686000", "135349.688000", "135429.600000", "135429.603000", "135429.605000", "135429.608000", "135429.610000", "135429.612000", "135429.615000", "135429.617000", "135429.620000", "135429.622000", "135429.625000", "135429.627000", "135429.630000", "135429.632000", "135429.635000", "135429.637000", "135429.640000", "135429.642000", "135429.645000", "135429.647000", "135429.649000", "135429.652000", "135429.654000", "135429.657000", "135429.659000", "135429.662000", "135429.664000", "135509.602000", "135509.605000", "135509.607000", "135509.610000", "135509.612000", "135509.615000", "135509.617000", "135509.620000", "135509.622000", "135509.625000", "135509.627000", "135509.629000", "135509.632000", "135509.635000", "135509.637000", "135509.640000", "135509.642000", "135509.645000", "135509.647000", "135509.650000", "135509.652000", "135509.655000", "135509.657000", "135509.659000", "135509.662000", "135509.664000", "135509.667000", "135549.634000", "135549.636000", "135549.639000", "135549.641000", "135549.644000", "135549.646000", "135549.649000", "135549.651000", "135549.654000", "135549.656000", "135549.659000", "135549.661000", "135549.664000", "135549.666000", "135549.668000", "135549.671000", "135549.673000", "135549.676000", "135549.678000", "135549.681000", "135549.683000", "135549.686000", "135549.688000", "135549.691000", "135549.693000", "135549.696000", "135549.698000", "135629.613000", "135629.615000", "135629.618000", "135629.620000", "135629.623000", "135629.625000", "135629.628000", "135629.630000", "135629.633000", "135629.635000", "135629.638000", "135629.640000", "135629.643000", "135629.645000", "135629.648000", "135629.650000", "135629.653000", "135629.655000", "135629.658000", "135629.660000", "135629.663000", "135629.665000", "135629.668000", "135629.670000", "135629.673000", "135629.675000", "135709.622000", "135709.625000", "135709.627000", "135709.629000", "135709.632000", "135709.635000", "135709.637000", "135709.640000", "135709.642000", "135709.644000", "135709.647000", "135709.649000", "135709.652000", "135709.655000", "135709.657000", "135709.660000", "135709.662000", "135709.664000", "135709.667000", "135709.669000", "135709.672000", "135709.675000", "135709.683000", "135709.685000", "135709.688000", "135709.690000", "135709.692000", "135744.239000", "135744.243000", "135744.246000", "135744.248000", "135744.251000", "135744.254000", "135744.257000", "135744.259000", "135744.262000", "135744.265000", "135744.268000", "135744.271000", "135744.274000", "135744.277000", "135744.279000", "135744.282000", "135744.285000", "135744.288000", "135744.290000", "135744.293000", "135744.295000", "135744.298000", "135744.300000", "135744.303000"],
      "InstanceCreationTime": ["135029.534000", "135029.536000", "135049.577000", "135049.579000", "135049.582000", "135049.584000", "135049.587000", "135049.589000", "135049.591000", "135049.594000", "135049.596000", "135049.599000", "135049.601000", "135049.604000", "135049.606000", "135049.609000", "135049.611000", "135049.613000", "135049.616000", "135049.618000", "135049.621000", "135049.623000", "135109.599000", "135109.601000", "135109.604000", "135109.606000", "135109.609000", "135109.612000", "135109.614000", "135109.617000", "135109.619000", "135109.622000", "135109.624000", "135109.627000", "135109.629000", "135109.632000", "135109.634000", "135109.636000", "135109.639000", "135109.641000", "135109.644000", "135109.646000", "135129.598000", "135129.601000", "135129.603000", "135129.606000", "135129.608000", "135129.610000", "135129.613000", "135129.615000", "135129.618000", "135129.620000", "135129.623000", "135129.625000", "135129.628000", "135129.630000", "135129.633000", "135129.635000", "135129.638000", "135129.640000", "135129.642000", "135129.645000", "135129.647000", "135149.574000", "135149.577000", "135149.579000", "135149.582000", "135149.584000", "135149.587000", "135149.589000", "135149.592000", "135149.594000", "135149.597000", "135149.599000", "135149.602000", "135149.604000", "135149.606000", "135149.609000", "135149.611000", "135149.614000", "135149.616000", "135149.619000", "135149.621000", "135229.635000", "135229.639000", "135229.641000", "135229.644000", "135229.648000", "135229.652000", "135229.655000", "135229.657000", "135229.660000", "135229.663000", "135229.673000", "135229.676000", "135229.678000", "135229.681000", "135229.683000", "135229.686000", "135229.688000", "135229.691000", "135229.693000", "135229.696000", "135229.698000", "135229.701000", "135229.703000", "135229.706000", "135229.708000", "135229.711000", "135229.713000", "135229.716000", "135229.718000", "135229.721000", "135229.723000", "135309.612000", "135309.615000", "135309.618000", "135309.620000", "135309.623000", "135309.625000", "135309.628000", "135309.630000", "135309.632000", "135309.635000", "135309.638000", "135309.641000", "135309.644000", "135309.646000", "135309.649000", "135309.651000", "135309.654000", "135309.656000", "135309.658000", "135309.661000", "135309.664000", "135309.666000", "135309.668000", "135309.671000", "135309.673000", "135309.676000", "135309.678000", "135349.615000", "135349.618000", "135349.621000", "135349.623000", "135349.626000", "135349.628000", "135349.631000", "135349.633000", "135349.636000", "135349.638000", "135349.641000", "135349.643000", "135349.646000", "135349.648000", "135349.651000", "135349.653000", "135349.655000", "135349.658000", "135349.660000", "135349.663000", "135349.665000", "135349.668000", "135349.670000", "135349.673000", "135349.675000", "135349.686000", "135349.688000", "135429.600000", "135429.603000", "135429.605000", "135429.608000", "135429.610000", "135429.612000", "135429.615000", "135429.617000", "135429.620000", "135429.622000", "135429.625000", "135429.627000", "135429.630000", "135429.632000", "135429.635000", "135429.637000", "135429.640000", "135429.642000", "135429.645000", "135429.647000", "135429.649000", "135429.652000", "135429.654000", "135429.657000", "135429.659000", "135429.662000", "135429.664000", "135509.602000", "135509.605000", "135509.607000", "135509.610000", "135509.612000", "135509.615000", "135509.617000", "135509.620000", "135509.622000", "135509.625000", "135509.627000", "135509.629000", "135509.632000", "135509.635000", "135509.637000", "135509.640000", "135509.642000", "135509.645000", "135509.647000", "135509.650000", "135509.652000", "135509.655000", "135509.657000", "135509.659000", "135509.662000", "135509.664000", "135509.667000", "135549.634000", "135549.636000", "135549.639000", "135549.641000", "135549.644000", "135549.646000", "135549.649000", "135549.651000", "135549.654000", "135549.656000", "135549.659000", "135549.661000", "135549.664000", "135549.666000", "135549.668000", "135549.671000", "135549.673000", "135549.676000", "135549.678000", "135549.681000", "135549.683000", "135549.686000", "135549.688000", "135549.691000", "135549.693000", "135549.696000", "135549.698000", "135629.613000", "135629.615000", "135629.618000", "135629.620000", "135629.623000", "135629.625000", "135629.628000", "135629.630000", "135629.633000", "135629.635000", "135629.638000", "135629.640000", "135629.643000", "135629.645000", "135629.648000", "135629.650000", "135629.653000", "135629.655000", "135629.658000", "135629.660000", "135629.663000", "135629.665000", "135629.668000", "135629.670000", "135629.673000", "135629.675000", "135709.622000", "135709.625000", "135709.627000", "135709.629000", "135709.632000", "135709.635000", "135709.637000", "135709.640000", "135709.642000", "135709.644000", "135709.647000", "135709.649000", "135709.652000", "135709.655000", "135709.657000", "135709.660000", "135709.662000", "135709.664000", "135709.667000", "135709.669000", "135709.672000", "135709.675000", "135709.683000", "135709.685000", "135709.688000", "135709.690000", "135709.692000", "135744.239000", "135744.243000", "135744.246000", "135744.248000", "135744.251000", "135744.254000", "135744.257000", "135744.259000", "135744.262000", "135744.265000", "135744.268000", "135744.271000", "135744.274000", "135744.277000", "135744.279000", "135744.282000", "135744.285000", "135744.288000", "135744.290000", "135744.293000", "135744.295000", "135744.298000", "135744.300000", "135744.303000"],
      "InstanceNumber": [1, 2, 3, 4, 5, 6, 7, 8, 9, 10, 11, 12, 13, 14, 15, 16, 17, 18, 19, 20, 21, 22, 23, 24, 25, 26, 27, 28, 29, 30, 31, 32, 33, 34, 35, 36, 37, 38, 39, 40, 41, 42, 43, 44, 45, 46, 47, 48, 49, 50, 51, 52, 53, 54, 55, 56, 57, 58, 59, 60, 61, 62, 63, 64, 65, 66, 67, 68, 69, 70, 71, 72, 73, 74, 75, 76, 77, 78, 79, 80, 81, 82, 83, 84, 85, 86, 87, 88, 89, 90, 91, 92, 93, 94, 95, 96, 97, 98, 99, 100, 101, 102, 103, 104, 105, 106, 107, 108, 109, 110, 111, 112, 113, 114, 115, 116, 117, 118, 119, 120, 121, 122, 123, 124, 125, 126, 127, 128, 129, 130, 131, 132, 133, 134, 135, 136, 137, 138, 139, 140, 141, 142, 143, 144, 145, 146, 147, 148, 149, 150, 151, 152, 153, 154, 155, 156, 157, 158, 159, 160, 161, 162, 163, 164, 165, 166, 167, 168, 169, 170, 171, 172, 173, 174, 175, 176, 177, 178, 179, 180, 181, 182, 183, 184, 185, 186, 187, 188, 189, 190, 191, 192, 193, 194, 195, 196, 197, 198, 199, 200, 201, 202, 203, 204, 205, 206, 207, 208, 209, 210, 211, 212, 213, 214, 215, 216, 217, 218, 219, 220, 221, 222, 223, 224, 225, 226, 227, 228, 229, 230, 231, 232, 233, 234, 235, 236, 237, 238, 239, 240, 241, 242, 243, 244, 245, 246, 247, 248, 249, 250, 251, 252, 253, 254, 255, 256, 257, 258, 259, 260, 261, 262, 263, 264, 265, 266, 267, 268, 269, 270, 271, 272, 273, 274, 275, 276, 277, 278, 279, 280, 281, 282, 283, 284, 285, 286, 287, 288, 289, 290, 291, 292, 293, 294, 295, 296, 297, 298, 299, 300, 301, 302, 303, 304, 305, 306, 307, 308, 309, 310, 311, 312, 313, 314, 315, 316, 317, 318, 319, 320, 321, 322, 323, 324, 325, 326],
      "WindowCenter": [4896.0, 4892.0, 4892.0, 4896.0, 4896.0, 4894.0, 4896.0, 4892.0, 4894.0, 4894.0, 4896.0, 4896.0, 4898.0, 4888.0, 4894.0, 4894.0, 4898.0, 4896.0, 4896.0, 4920.0, 4896.0, 4894.0, 4896.0, 4894.0, 4892.0, 4892.0, 4890.0, 4896.0, 4892.0, 4894.0, 4896.0, 4896.0, 4896.0, 4896.0, 4890.0, 4892.0, 4888.0, 4892.0, 4890.0, 4896.0, 4892.0, 4894.0, 4894.0, 4894.0, 4890.0, 4890.0, 4856.0, 4886.0, 4892.0, 4890.0, 4920.0, 4896.0, 4898.0, 4892.0, 4890.0, 4888.0, 4880.0, 4886.0, 4884.0, 4888.0, 4890.0, 4892.0, 4896.0, 4924.0, 4916.0, 4892.0, 4888.0, 4884.0, 4888.0, 4886.0, 4882.0, 4892.0, 4890.0, 4916.0, 4890.0, 4918.0, 4888.0, 4892.0, 4892.0, 4888.0, 4888.0, 4886.0, 4888.0, 4886.0, 4886.0, 4888.0, 4892.0, 4886.0, 4888.0, 4892.0, 4888.0, 4890.0, 4888.0, 4888.0, 4882.0, 4888.0, 4886.0, 4884.0, 4886.0, 4894.0, 4892.0, 4890.0, 4916.0, 4894.0, 4882.0, 4886.0, 4882.0, 4858.0, 4880.0, 4884.0, 4880.0, 4886.0, 4894.0, 4922.0, 4896.0, 4894.0, 4890.0, 4882.0, 4858.0, 4844.0, 4852.0, 4858.0, 4892.0, 4892.0, 4890.0, 4892.0, 4890.0, 4890.0, 4884.0, 4852.0, 4852.0, 4860.0, 4880.0, 4882.0, 4890.0, 4894.0, 4892.0, 4892.0, 4892.0, 4892.0, 4888.0, 4858.0, 4858.0, 4888.0, 4888.0, 4888.0, 4888.0, 4890.0, 4888.0, 4888.0, 4882.0, 4886.0, 4886.0, 4888.0, 4882.0, 4888.0, 4886.0, 4886.0, 4892.0, 4886.0, 4884.0, 4858.0, 4862.0, 4886.0, 4886.0, 4886.0, 4858.0, 4882.0, 4886.0, 4888.0, 4886.0, 4892.0, 4892.0, 4886.0, 4888.0, 4888.0, 4884.0, 4886.0, 4884.0, 4886.0, 4858.0, 4888.0, 4890.0, 4888.0, 4884.0, 4892.0, 4892.0, 4894.0, 4892.0, 4892.0, 4890.0, 4890.0, 4882.0, 4882.0, 4886.0, 4888.0, 4882.0, 4884.0, 4890.0, 4920.0, 4896.0, 4888.0, 4886.0, 4888.0, 4894.0, 4892.0, 4890.0, 4892.0, 4882.0, 4882.0, 4884.0, 4884.0, 4890.0, 4890.0, 4890.0, 4890.0, 4892.0, 4888.0, 4886.0, 4892.0, 4882.0, 4886.0, 4884.0, 4886.0, 4882.0, 4888.0, 4890.0, 4892.0, 4890.0, 4892.0, 4888.0, 4888.0, 4884.0, 4884.0, 4884.0, 4886.0, 4888.0, 4886.0, 4882.0, 4888.0, 4894.0, 4896.0, 4888.0, 4892.0, 4890.0, 4890.0, 4860.0, 4882.0, 4890.0, 4890.0, 4892.0, 4892.0, 4892.0, 4894.0, 4916.0, 4886.0, 4886.0, 4888.0, 4884.0, 4884.0, 4890.0, 4882.0, 4886.0, 4892.0, 4884.0, 4886.0, 4888.0, 4884.0, 4878.0, 4886.0, 4880.0, 4886.0, 4886.0, 4886.0, 4882.0, 4886.0, 4890.0, 4892.0, 4894.0, 4892.0, 4886.0, 4882.0, 4854.0, 4882.0, 4888.0, 4890.0, 4914.0, 4890.0, 4890.0, 4888.0, 4892.0, 4884.0, 4884.0, 4882.0, 4884.0, 4882.0, 4888.0, 4892.0, 4888.0, 4884.0, 4884.0, 4888.0, 4888.0, 4888.0, 4858.0, 4894.0, 4896.0, 4890.0, 4892.0, 4888.0, 4882.0, 4884.0, 4888.0, 4892.0, 4892.0, 4890.0, 4886.0, 4894.0, 4894.0, 4894.0, 4894.0, 4888.0, 4882.0, 4884.0, 4884.0, 4884.0],
