{
  "AcquisitionMatrixPE": 104,
  "AcquisitionNumber": 1,
  "AcquisitionTime": "13:59:27.387500",
  "BandwidthPerPixelPhaseEncode": 17.17,
  "BaseResolution": 104,
  "BodyPartExamined": "BRAIN",
  "CoilCombinationMethod": "Sum of Squares",
  "ConsistencyInfo": "N4_VE11C_LATEST_20160120",
  "ConversionSoftware": "dcm2niix",
  "ConversionSoftwareVersion": "v1.0.20220505",
  "DerivedVendorReportedEchoSpacing": 0.000560011,
  "DeviceSerialNumber": "167006",
  "DwellTime": 2.1e-06,
  "EchoTime": 0.037,
  "EchoTime1": 0.037,
  "EchoTime2": 0.001,
  "EchoTrainLength": 104,
  "EffectiveEchoSpacing": 0.000560011,
  "FlipAngle": 52,
  "HeudiconvVersion": "0.5.3.post811+g6206e14",
  "ImageComments": "Unaliased MB4/PE3/LB",
  "ImageOrientationPatientDICOM": [0.999724, 0.0205693, 0.0113346, -0.0167522, 0.962805, -0.269678],
  "ImageOrientationText": "Tra>Cor(-15.6)>Sag(0.9)",
  "ImageType": [
    "ORIGINAL",
    "PRIMARY",
    "P",
    "MB",
    "ND",
    "MOSAIC",
    "PHASE"
],
  "ImagingFrequency": 123.259,
  "InPlanePhaseEncodingDirectionDICOM": "COL",
  "InstitutionAddress": "Chemin Queen-Mary 4565,Montreal,District,CA,H3W 1W5",
  "InstitutionName": "IUGM",
  "InstitutionalDepartmentName": "Department",
  "MRAcquisitionType": "2D",
  "MagneticFieldStrength": 3,
  "Manufacturer": "Siemens",
  "ManufacturersModelName": "Prisma_fit",
  "MatrixCoilMode": "SENSE",
  "Modality": "MR",
  "MultibandAccelerationFactor": 4,
  "PartialFourier": 1,
  "PatientPosition": "HFS",
  "PercentPhaseFOV": 100,
  "PercentSampling": 100,
  "PhaseEncodingDirection": "j",
  "PhaseEncodingSteps": 104,
  "PhaseResolution": 1,
  "PixelBandwidth": 2290,
  "ProcedureStepDescription": "games^mario3",
  "ProtocolName": "func_task-mario3_run-02",
  "PulseSequenceDetails": "%CustomerSeq%\\cmrr_mbep2d_bold",
  "ReceiveCoilActiveElements": "HC1-7;NC1,2",
  "ReceiveCoilName": "HeadNeck_64",
  "ReconMatrixPE": 104,
  "RepetitionTime": 1.49,
  "SAR": 0.0536912,
  "ScanOptions": "FS",
  "ScanningSequence": "EP",
  "SequenceName": "epfid2d1_104",
  "SequenceVariant": "SK\\SS",
  "SeriesDescription": "func_task-mario3_run-02",
  "SeriesNumber": 14,
  "ShimSetting": [638, -7205, -8736, 692, 70, 38, -12, -14],
  "SliceThickness": 2,
  "SliceTiming": [0, 0.7825, 0.0975, 0.88, 0.195, 0.98, 0.2925, 1.0775, 0.39, 1.175, 0.49, 1.2725, 0.5875, 1.37, 0.685, 0, 0.7825, 0.0975, 0.88, 0.195, 0.98, 0.2925, 1.0775, 0.39, 1.175, 0.49, 1.2725, 0.5875, 1.37, 0.685, 0, 0.7825, 0.0975, 0.88, 0.195, 0.98, 0.2925, 1.0775, 0.39, 1.175, 0.49, 1.2725, 0.5875, 1.37, 0.685, 0, 0.7825, 0.0975, 0.88, 0.195, 0.98, 0.2925, 1.0775, 0.39, 1.175, 0.49, 1.2725, 0.5875, 1.37, 0.685],
  "SoftwareVersions": "syngo MR E11",
  "SpacingBetweenSlices": 2,
  "StationName": "MRC35049",
  "TaskName": "mario3",
  "TotalReadoutTime": 0.0576811,
  "TxRefAmp": 226.876,
  "WipMemBlock": "63985315-62c6-4cfa-8c87-85a8c28b551d||Sequence: R017 ve11c/master r/75a17815+; Jun 28 2022 16:32:11 by eja",
  "dcmmeta_affine": [
    [-1.999448299407959, -0.03350432962179184, 0.03292025625705719, 109.79768371582031],
    [-0.04113864526152611, 1.9256095886230469, -0.5388275384902954, -70.92302703857422],
    [0.02266925573348999, 0.5393560528755188, 1.9257676601409912, -49.21192169189453],
    [0.0, 0.0, 0.0, 1.0]
],
  "dcmmeta_reorient_transform": [
    [0.0, -1.0, 0.0, 103.0],
    [1.0, 0.0, 0.0, 0.0],
    [0.0, 0.0, 1.0, 0.0],
    [0.0, 0.0, 0.0, 1.0]
],
  "dcmmeta_shape": [104, 104, 60, 302],
  "dcmmeta_slice_dim": 2,
  "dcmmeta_version": 0.6,
  "global": {
    "const": {
      "AcquisitionMatrix": [104, 0, 0, 104],
      "AngioFlag": "N",
      "BitsAllocated": 16,
      "BitsStored": 16,
      "BodyPartExamined": "BRAIN",
      "Columns": 832,
      "EchoNumbers": 1,
      "EchoTime": 37.0,
      "EchoTrainLength": 104,
      "FlipAngle": 52.0,
      "HighBit": 15,
      "ImageOrientationPatient": [0.99972417653806, 0.02056932343385, 0.01133462742096, -0.0167521644106, 0.96280482157123, -0.2696780312646],
      "ImagePositionPatient": [-821.9503598306, -843.31114278546, 194.41575107567],
      "ImageType": [
        "ORIGINAL",
        "PRIMARY",
        "P",
        "MB",
        "ND",
        "MOSAIC"
],
      "ImagedNucleus": "1H",
      "ImagingFrequency": 123.258781,
      "InPlanePhaseEncodingDirection": "COL",
      "LargestImagePixelValue": 4095,
      "MRAcquisitionType": "2D",
      "MagneticFieldStrength": 3.0,
      "Manufacturer": "SIEMENS",
      "ManufacturerModelName": "Prisma_fit",
      "Modality": "MR",
      "NumberOfAverages": 1.0,
      "NumberOfPhaseEncodingSteps": 104,
      "PercentPhaseFieldOfView": 100.0,
      "PercentSampling": 100.0,
      "PerformedProcedureStepStartTime": "134620.923000",
      "PhotometricInterpretation": "MONOCHROME2",
      "PixelBandwidth": 2290.0,
      "PixelRepresentation": 0,
      "PixelSpacing": [2.0, 2.0],
      "ProtocolName": "func_task-mario3_run-02",
      "RepetitionTime": 1490.0,
      "RescaleIntercept": -4096.0,
      "RescaleSlope": 2.0,
      "RescaleType": "US",
      "Rows": 832,
      "SAR": 0.05369120923674,
      "SamplesPerPixel": 1,
      "ScanOptions": "FS",
      "ScanningSequence": "EP",
      "SequenceName": "epfid2d1_104",
      "SequenceVariant": [
        "SK",
        "SS"
],
      "SeriesDescription": "func_task-mario3_run-02",
      "SeriesNumber": 14,
      "SeriesTime": "140025.428000",
      "SliceLocation": -26.470439546285,
      "SliceThickness": 2.0,
      "SmallestImagePixelValue": 0,
      "SoftwareVersions": "syngo MR E11",
      "SpacingBetweenSlices": 1.9999999639876,
      "SpecificCharacterSet": "ISO_IR 100",
      "StudyID": "1",
      "StudyTime": "134620.855000",
      "TransmitCoilName": "Body",
      "VariableFlipAngleFlag": "N",
      "WindowCenterWidthExplanation": "Algo1",
      "dBdt": 0.0},
    "slices": {}
  },
  "time": {
    "samples": {
      "AcquisitionNumber": [1, 2, 3, 4, 5, 6, 7, 8, 9, 10, 11, 12, 13, 14, 15, 16, 17, 18, 19, 20, 21, 22, 23, 24, 25, 26, 27, 28, 29, 30, 31, 32, 33, 34, 35, 36, 37, 38, 39, 40, 41, 42, 43, 44, 45, 46, 47, 48, 49, 50, 51, 52, 53, 54, 55, 56, 57, 58, 59, 60, 61, 62, 63, 64, 65, 66, 67, 68, 69, 70, 71, 72, 73, 74, 75, 76, 77, 78, 79, 80, 81, 82, 83, 84, 85, 86, 87, 88, 89, 90, 91, 92, 93, 94, 95, 96, 97, 98, 99, 100, 101, 102, 103, 104, 105, 106, 107, 108, 109, 110, 111, 112, 113, 114, 115, 116, 117, 118, 119, 120, 121, 122, 123, 124, 125, 126, 127, 128, 129, 130, 131, 132, 133, 134, 135, 136, 137, 138, 139, 140, 141, 142, 143, 144, 145, 146, 147, 148, 149, 150, 151, 152, 153, 154, 155, 156, 157, 158, 159, 160, 161, 162, 163, 164, 165, 166, 167, 168, 169, 170, 171, 172, 173, 174, 175, 176, 177, 178, 179, 180, 181, 182, 183, 184, 185, 186, 187, 188, 189, 190, 191, 192, 193, 194, 195, 196, 197, 198, 199, 200, 201, 202, 203, 204, 205, 206, 207, 208, 209, 210, 211, 212, 213, 214, 215, 216, 217, 218, 219, 220, 221, 222, 223, 224, 225, 226, 227, 228, 229, 230, 231, 232, 233, 234, 235, 236, 237, 238, 239, 240, 241, 242, 243, 244, 245, 246, 247, 248, 249, 250, 251, 252, 253, 254, 255, 256, 257, 258, 259, 260, 261, 262, 263, 264, 265, 266, 267, 268, 269, 270, 271, 272, 273, 274, 275, 276, 277, 278, 279, 280, 281, 282, 283, 284, 285, 286, 287, 288, 289, 290, 291, 292, 293, 294, 295, 296, 297, 298, 299, 300, 301, 302],
      "AcquisitionTime": ["135927.387500", "135928.877500", "135930.367500", "135931.857500", "135933.347500", "135934.837500", "135936.327500", "135937.817500", "135939.307500", "135940.797500", "135942.287500", "135943.777500", "135945.267500", "135946.757500", "135948.247500", "135949.737500", "135951.227500", "135952.717500", "135954.207500", "135955.697500", "135957.187500", "135958.677500", "140000.167500", "140001.657500", "140003.147500", "140004.637500", "140006.127500", "140007.617500", "140009.107500", "140010.597500", "140012.087500", "140013.577500", "140015.067500", "140016.557500", "140018.047500", "140019.537500", "140021.027500", "140022.517500", "140024.007500", "140025.497500", "140026.987500", "140028.477500", "140029.967500", "140031.457500", "140032.947500", "140034.437500", "140035.927500", "140037.417500", "140038.907500", "140040.397500", "140041.887500", "140043.377500", "140044.867500", "140046.357500", "140047.847500", "140049.337500", "140050.827500", "140052.317500", "140053.807500", "140055.297500", "140056.787500", "140058.277500", "140059.767500", "140101.257500", "140102.747500", "140104.237500", "140105.727500", "140107.217500", "140108.707500", "140110.197500", "140111.687500", "140113.177500", "140114.667500", "140116.157500", "140117.647500", "140119.137500", "140120.627500", "140122.117500", "140123.607500", "140125.097500", "140126.587500", "140128.077500", "140129.567500", "140131.057500", "140132.547500", "140134.037500", "140135.527500", "140137.017500", "140138.507500", "140139.997500", "140141.487500", "140142.977500", "140144.467500", "140145.957500", "140147.447500", "140148.937500", "140150.427500", "140151.917500", "140153.407500", "140154.897500", "140156.387500", "140157.877500", "140159.367500", "140200.857500", "140202.347500", "140203.837500", "140205.327500", "140206.817500", "140208.307500", "140209.797500", "140211.287500", "140212.777500", "140214.267500", "140215.757500", "140217.247500", "140218.737500", "140220.227500", "140221.717500", "140223.207500", "140224.697500", "140226.187500", "140227.677500", "140229.167500", "140230.657500", "140232.147500", "140233.637500", "140235.127500", "140236.617500", "140238.107500", "140239.597500", "140241.087500", "140242.577500", "140244.067500", "140245.557500", "140247.047500", "140248.537500", "140250.027500", "140251.517500", "140253.007500", "140254.497500", "140255.987500", "140257.477500", "140258.967500", "140300.457500", "140301.947500", "140303.437500", "140304.927500", "140306.417500", "140307.907500", "140309.397500", "140310.887500", "140312.377500", "140313.867500", "140315.357500", "140316.847500", "140318.337500", "140319.827500", "140321.317500", "140322.807500", "140324.297500", "140325.787500", "140327.277500", "140328.767500", "140330.257500", "140331.747500", "140333.237500", "140334.727500", "140336.217500", "140337.707500", "140339.197500", "140340.687500", "140342.177500", "140343.667500", "140345.157500", "140346.647500", "140348.137500", "140349.627500", "140351.117500", "140352.607500", "140354.097500", "140355.587500", "140357.077500", "140358.567500", "140400.057500", "140401.547500", "140403.037500", "140404.527500", "140406.017500", "140407.507500", "140408.997500", "140410.487500", "140411.977500", "140413.467500", "140414.957500", "140416.447500", "140417.937500", "140419.427500", "140420.917500", "140422.407500", "140423.897500", "140425.387500", "140426.877500", "140428.367500", "140429.857500", "140431.347500", "140432.837500", "140434.327500", "140435.817500", "140437.307500", "140438.797500", "140440.287500", "140441.777500", "140443.267500", "140444.757500", "140446.247500", "140447.737500", "140449.227500", "140450.717500", "140452.207500", "140453.697500", "140455.187500", "140456.677500", "140458.167500", "140459.657500", "140501.147500", "140502.637500", "140504.127500", "140505.617500", "140507.107500", "140508.597500", "140510.087500", "140511.577500", "140513.067500", "140514.557500", "140516.047500", "140517.537500", "140519.027500", "140520.517500", "140522.007500", "140523.497500", "140524.987500", "140526.477500", "140527.967500", "140529.457500", "140530.947500", "140532.437500", "140533.927500", "140535.417500", "140536.907500", "140538.397500", "140539.887500", "140541.377500", "140542.867500", "140544.357500", "140545.847500", "140547.337500", "140548.827500", "140550.317500", "140551.807500", "140553.297500", "140554.787500", "140556.277500", "140557.767500", "140559.257500", "140600.747500", "140602.237500", "140603.727500", "140605.217500", "140606.707500", "140608.197500", "140609.687500", "140611.177500", "140612.667500", "140614.157500", "140615.647500", "140617.137500", "140618.627500", "140620.117500", "140621.607500", "140623.097500", "140624.587500", "140626.077500", "140627.567500", "140629.057500", "140630.547500", "140632.037500", "140633.527500", "140635.017500", "140636.507500", "140637.997500", "140639.487500", "140640.977500", "140642.467500", "140643.957500", "140645.447500", "140646.937500", "140648.427500", "140649.917500", "140651.407500", "140652.897500", "140654.387500", "140655.877500"],
      "ContentTime": ["140025.430000", "140025.437000", "140025.440000", "140025.442000", "140025.445000", "140025.447000", "140025.450000", "140025.452000", "140025.455000", "140025.457000", "140045.885000", "140045.888000", "140045.890000", "140045.893000", "140045.895000", "140045.898000", "140045.900000", "140045.903000", "140045.905000", "140045.908000", "140045.910000", "140045.913000", "140045.915000", "140045.918000", "140045.920000", "140045.922000", "140045.925000", "140045.927000", "140045.930000", "140045.932000", "140105.434000", "140105.436000", "140105.439000", "140105.441000", "140105.444000", "140105.446000", "140105.449000", "140105.451000", "140105.454000", "140105.456000", "140105.459000", "140105.461000", "140105.463000", "140105.466000", "140105.468000", "140105.471000", "140105.473000", "140105.476000", "140105.478000", "140105.481000", "140125.427000", "140125.429000", "140125.432000", "140125.434000", "140125.437000", "140125.439000", "140125.442000", "140125.444000", "140125.447000", "140125.449000", "140125.452000", "140125.454000", "140125.457000", "140125.459000", "140125.462000", "140125.464000", "140125.467000", "140125.469000", "140125.472000", "140125.474000", "140145.426000", "140145.429000", "140145.432000", "140145.434000", "140145.436000", "140145.439000", "140145.441000", "140145.444000", "140145.446000", "140145.449000", "140145.451000", "140145.454000", "140145.456000", "140145.459000", "140145.461000", "140145.464000", "140145.466000", "140145.469000", "140145.471000", "140145.474000", "140225.474000", "140225.476000", "140225.479000", "140225.481000", "140225.484000", "140225.486000", "140225.489000", "140225.491000", "140225.494000", "140225.496000", "140225.499000", "140225.501000", "140225.504000", "140225.506000", "140225.509000", "140225.511000", "140225.514000", "140225.517000", "140225.519000", "140225.522000", "140225.524000", "140225.527000", "140225.529000", "140225.532000", "140225.534000", "140225.537000", "140225.539000", "140225.542000", "140305.448000", "140305.450000", "140305.453000", "140305.455000", "140305.458000", "140305.460000", "140305.463000", "140305.465000", "140305.468000", "140305.470000", "140305.473000", "140305.475000", "140305.478000", "140305.480000", "140305.483000", "140305.485000", "140305.488000", "140305.490000", "140305.492000", "140305.495000", "140305.497000", "140305.500000", "140305.502000", "140305.505000", "140305.507000", "140305.510000", "140305.512000", "140345.460000", "140345.462000", "140345.465000", "140345.467000", "140345.470000", "140345.472000", "140345.475000", "140345.477000", "140345.480000", "140345.482000", "140345.492000", "140345.495000", "140345.497000", "140345.500000", "140345.503000", "140345.505000", "140345.508000", "140345.510000", "140345.513000", "140345.515000", "140345.518000", "140345.520000", "140345.523000", "140345.525000", "140345.528000", "140345.530000", "140345.533000", "140425.473000", "140425.476000", "140425.478000", "140425.481000", "140425.483000", "140425.485000", "140425.488000", "140425.490000", "140425.493000", "140425.495000", "140425.498000", "140425.500000", "140425.503000", "140425.505000", "140425.508000", "140425.510000", "140425.513000", "140425.515000", "140425.518000", "140425.520000", "140425.523000", "140425.525000", "140425.528000", "140425.530000", "140425.533000", "140425.535000", "140425.538000", "140505.452000", "140505.455000", "140505.461000", "140505.463000", "140505.466000", "140505.468000", "140505.471000", "140505.473000", "140505.476000", "140505.478000", "140505.481000", "140505.483000", "140505.486000", "140505.488000", "140505.491000", "140505.493000", "140505.496000", "140505.498000", "140505.501000", "140505.503000", "140505.505000", "140505.508000", "140505.510000", "140505.513000", "140505.515000", "140505.518000", "140505.520000", "140545.455000", "140545.458000", "140545.461000", "140545.463000", "140545.466000", "140545.468000", "140545.471000", "140545.473000", "140545.476000", "140545.478000", "140545.480000", "140545.483000", "140545.486000", "140545.488000", "140545.491000", "140545.493000", "140545.496000", "140545.498000", "140545.500000", "140545.503000", "140545.505000", "140545.508000", "140545.510000", "140545.513000", "140545.515000", "140545.518000", "140625.451000", "140625.454000", "140625.457000", "140625.459000", "140625.462000", "140625.464000", "140625.467000", "140625.469000", "140625.471000", "140625.474000", "140625.476000", "140625.479000", "140625.481000", "140625.490000", "140625.492000", "140625.495000", "140625.497000", "140625.500000", "140625.502000", "140625.505000", "140625.507000", "140625.510000", "140625.512000", "140625.515000", "140625.517000", "140625.520000", "140625.522000", "140658.806000", "140658.809000", "140658.811000", "140658.814000", "140658.816000", "140658.819000", "140658.822000", "140658.824000", "140658.827000", "140658.830000", "140658.832000", "140658.835000", "140658.837000", "140658.840000", "140658.843000", "140658.846000", "140658.848000", "140658.851000", "140658.854000", "140658.856000", "140658.859000", "140658.862000", "140658.864000"],
      "InstanceCreationTime": ["140025.430000", "140025.437000", "140025.440000", "140025.442000", "140025.445000", "140025.447000", "140025.450000", "140025.452000", "140025.455000", "140025.457000", "140045.885000", "140045.888000", "140045.890000", "140045.893000", "140045.895000", "140045.898000", "140045.900000", "140045.903000", "140045.905000", "140045.908000", "140045.910000", "140045.913000", "140045.915000", "140045.918000", "140045.920000", "140045.922000", "140045.925000", "140045.927000", "140045.930000", "140045.932000", "140105.434000", "140105.436000", "140105.439000", "140105.441000", "140105.444000", "140105.446000", "140105.449000", "140105.451000", "140105.454000", "140105.456000", "140105.459000", "140105.461000", "140105.463000", "140105.466000", "140105.468000", "140105.471000", "140105.473000", "140105.476000", "140105.478000", "140105.481000", "140125.427000", "140125.429000", "140125.432000", "140125.434000", "140125.437000", "140125.439000", "140125.442000", "140125.444000", "140125.447000", "140125.449000", "140125.452000", "140125.454000", "140125.457000", "140125.459000", "140125.462000", "140125.464000", "140125.467000", "140125.469000", "140125.472000", "140125.474000", "140145.426000", "140145.429000", "140145.432000", "140145.434000", "140145.436000", "140145.439000", "140145.441000", "140145.444000", "140145.446000", "140145.449000", "140145.451000", "140145.454000", "140145.456000", "140145.459000", "140145.461000", "140145.464000", "140145.466000", "140145.469000", "140145.471000", "140145.474000", "140225.474000", "140225.476000", "140225.479000", "140225.481000", "140225.484000", "140225.486000", "140225.489000", "140225.491000", "140225.494000", "140225.496000", "140225.499000", "140225.501000", "140225.504000", "140225.506000", "140225.509000", "140225.511000", "140225.514000", "140225.517000", "140225.519000", "140225.522000", "140225.524000", "140225.527000", "140225.529000", "140225.532000", "140225.534000", "140225.537000", "140225.539000", "140225.542000", "140305.448000", "140305.450000", "140305.453000", "140305.455000", "140305.458000", "140305.460000", "140305.463000", "140305.465000", "140305.468000", "140305.470000", "140305.473000", "140305.475000", "140305.478000", "140305.480000", "140305.483000", "140305.485000", "140305.488000", "140305.490000", "140305.492000", "140305.495000", "140305.497000", "140305.500000", "140305.502000", "140305.505000", "140305.507000", "140305.510000", "140305.512000", "140345.460000", "140345.462000", "140345.465000", "140345.467000", "140345.470000", "140345.472000", "140345.475000", "140345.477000", "140345.480000", "140345.482000", "140345.492000", "140345.495000", "140345.497000", "140345.500000", "140345.503000", "140345.505000", "140345.508000", "140345.510000", "140345.513000", "140345.515000", "140345.518000", "140345.520000", "140345.523000", "140345.525000", "140345.528000", "140345.530000", "140345.533000", "140425.473000", "140425.476000", "140425.478000", "140425.481000", "140425.483000", "140425.485000", "140425.488000", "140425.490000", "140425.493000", "140425.495000", "140425.498000", "140425.500000", "140425.503000", "140425.505000", "140425.508000", "140425.510000", "140425.513000", "140425.515000", "140425.518000", "140425.520000", "140425.523000", "140425.525000", "140425.528000", "140425.530000", "140425.533000", "140425.535000", "140425.538000", "140505.452000", "140505.455000", "140505.461000", "140505.463000", "140505.466000", "140505.468000", "140505.471000", "140505.473000", "140505.476000", "140505.478000", "140505.481000", "140505.483000", "140505.486000", "140505.488000", "140505.491000", "140505.493000", "140505.496000", "140505.498000", "140505.501000", "140505.503000", "140505.505000", "140505.508000", "140505.510000", "140505.513000", "140505.515000", "140505.518000", "140505.520000", "140545.455000", "140545.458000", "140545.461000", "140545.463000", "140545.466000", "140545.468000", "140545.471000", "140545.473000", "140545.476000", "140545.478000", "140545.480000", "140545.483000", "140545.486000", "140545.488000", "140545.491000", "140545.493000", "140545.496000", "140545.498000", "140545.500000", "140545.503000", "140545.505000", "140545.508000", "140545.510000", "140545.513000", "140545.515000", "140545.518000", "140625.451000", "140625.454000", "140625.457000", "140625.459000", "140625.462000", "140625.464000", "140625.467000", "140625.469000", "140625.471000", "140625.474000", "140625.476000", "140625.479000", "140625.481000", "140625.490000", "140625.492000", "140625.495000", "140625.497000", "140625.500000", "140625.502000", "140625.505000", "140625.507000", "140625.510000", "140625.512000", "140625.515000", "140625.517000", "140625.520000", "140625.522000", "140658.806000", "140658.809000", "140658.811000", "140658.814000", "140658.816000", "140658.819000", "140658.822000", "140658.824000", "140658.827000", "140658.830000", "140658.832000", "140658.835000", "140658.837000", "140658.840000", "140658.843000", "140658.846000", "140658.848000", "140658.851000", "140658.854000", "140658.856000", "140658.859000", "140658.862000", "140658.864000"],
      "InstanceNumber": [1, 2, 3, 4, 5, 6, 7, 8, 9, 10, 11, 12, 13, 14, 15, 16, 17, 18, 19, 20, 21, 22, 23, 24, 25, 26, 27, 28, 29, 30, 31, 32, 33, 34, 35, 36, 37, 38, 39, 40, 41, 42, 43, 44, 45, 46, 47, 48, 49, 50, 51, 52, 53, 54, 55, 56, 57, 58, 59, 60, 61, 62, 63, 64, 65, 66, 67, 68, 69, 70, 71, 72, 73, 74, 75, 76, 77, 78, 79, 80, 81, 82, 83, 84, 85, 86, 87, 88, 89, 90, 91, 92, 93, 94, 95, 96, 97, 98, 99, 100, 101, 102, 103, 104, 105, 106, 107, 108, 109, 110, 111, 112, 113, 114, 115, 116, 117, 118, 119, 120, 121, 122, 123, 124, 125, 126, 127, 128, 129, 130, 131, 132, 133, 134, 135, 136, 137, 138, 139, 140, 141, 142, 143, 144, 145, 146, 147, 148, 149, 150, 151, 152, 153, 154, 155, 156, 157, 158, 159, 160, 161, 162, 163, 164, 165, 166, 167, 168, 169, 170, 171, 172, 173, 174, 175, 176, 177, 178, 179, 180, 181, 182, 183, 184, 185, 186, 187, 188, 189, 190, 191, 192, 193, 194, 195, 196, 197, 198, 199, 200, 201, 202, 203, 204, 205, 206, 207, 208, 209, 210, 211, 212, 213, 214, 215, 216, 217, 218, 219, 220, 221, 222, 223, 224, 225, 226, 227, 228, 229, 230, 231, 232, 233, 234, 235, 236, 237, 238, 239, 240, 241, 242, 243, 244, 245, 246, 247, 248, 249, 250, 251, 252, 253, 254, 255, 256, 257, 258, 259, 260, 261, 262, 263, 264, 265, 266, 267, 268, 269, 270, 271, 272, 273, 274, 275, 276, 277, 278, 279, 280, 281, 282, 283, 284, 285, 286, 287, 288, 289, 290, 291, 292, 293, 294, 295, 296, 297, 298, 299, 300, 301, 302],
      "WindowCenter": [4880.0, 4878.0, 4884.0, 4884.0, 4882.0, 4880.0, 4882.0, 4880.0, 4880.0, 4880.0, 4882.0, 4882.0, 4882.0, 4904.0, 4882.0, 4882.0, 4884.0, 4882.0, 4884.0, 4880.0, 4902.0, 4878.0, 4904.0, 4882.0, 4884.0, 4880.0, 4904.0, 4904.0, 4900.0, 4902.0, 4902.0, 4906.0, 4908.0, 4908.0, 4884.0, 4882.0, 4882.0, 4904.0, 4904.0, 4902.0, 4900.0, 4902.0, 4904.0, 4884.0, 4886.0, 4912.0, 4910.0, 4910.0, 4906.0, 4904.0, 4904.0, 4898.0, 4904.0, 4900.0, 4908.0, 4908.0, 4908.0, 4906.0, 4906.0, 4932.0, 4910.0, 4902.0, 4930.0, 4902.0, 4904.0, 4906.0, 4886.0, 4884.0, 4908.0, 4906.0, 4906.0, 4908.0, 4906.0, 4908.0, 4906.0, 4884.0, 4906.0, 4886.0, 4882.0, 4906.0, 4904.0, 4896.0, 4902.0, 4906.0, 4902.0, 4882.0, 4904.0, 4908.0, 4904.0, 4906.0, 4880.0, 4902.0, 4904.0, 4906.0, 4906.0, 4906.0, 4906.0, 4902.0, 4902.0, 4904.0, 4904.0, 4904.0, 4908.0, 4906.0, 4906.0, 4906.0, 4904.0, 4906.0, 4908.0, 4906.0, 4904.0, 4906.0, 4908.0, 4908.0, 4880.0, 4878.0, 4880.0, 4876.0, 4900.0, 4900.0, 4904.0, 4904.0, 4904.0, 4882.0, 4882.0, 4882.0, 4882.0, 4880.0, 4880.0, 4876.0, 4880.0, 4880.0, 4878.0, 4878.0, 4876.0, 4880.0, 4880.0, 4882.0, 4880.0, 4880.0, 4880.0, 4880.0, 4880.0, 4904.0, 4908.0, 4882.0, 4904.0, 4882.0, 4882.0, 4882.0, 4880.0, 4902.0, 4902.0, 4884.0, 4906.0, 4902.0, 4880.0, 4884.0, 4882.0, 4880.0, 4904.0, 4900.0, 4884.0, 4884.0, 4902.0, 4904.0, 4878.0, 4880.0, 4900.0, 4900.0, 4904.0, 4904.0, 4906.0, 4904.0, 4906.0, 4904.0, 4906.0, 4904.0, 4904.0, 4904.0, 4904.0, 4906.0, 4904.0, 4906.0, 4906.0, 4880.0, 4908.0, 4900.0, 4904.0, 4904.0, 4904.0, 4900.0, 4902.0, 4880.0, 4876.0, 4876.0, 4876.0, 4878.0, 4874.0, 4876.0, 4876.0, 4902.0, 4880.0, 4880.0, 4882.0, 4882.0, 4880.0, 4880.0, 4878.0, 4880.0, 4902.0, 4904.0, 4880.0, 4880.0, 4878.0, 4902.0, 4902.0, 4902.0, 4880.0, 4902.0, 4882.0, 4904.0, 4904.0, 4904.0, 4904.0, 4902.0, 4908.0, 4882.0, 4880.0, 4880.0, 4906.0, 4882.0, 4902.0, 4900.0, 4902.0, 4898.0, 4904.0, 4876.0, 4876.0, 4878.0, 4878.0, 4872.0, 4900.0, 4900.0, 4902.0, 4904.0, 4878.0, 4878.0, 4878.0, 4876.0, 4878.0, 4874.0, 4874.0, 4876.0, 4878.0, 4874.0, 4878.0, 4880.0, 4878.0, 4880.0, 4880.0, 4882.0, 4880.0, 4878.0, 4900.0, 4902.0, 4902.0, 4902.0, 4902.0, 4882.0, 4904.0, 4902.0, 4906.0, 4880.0, 4904.0, 4904.0, 4906.0, 4906.0, 4882.0, 4908.0, 4902.0, 4906.0, 4902.0, 4902.0, 4920.0, 4900.0, 4904.0, 4902.0, 4902.0, 4878.0, 4856.0, 4876.0, 4852.0, 4874.0, 4874.0, 4870.0, 4870.0, 4876.0, 4878.0, 4878.0, 4878.0, 4882.0],
      "WindowWidth": [18652.0, 18650.0, 18654.0, 18656.0, 18652.0, 18656.0, 18656.0, 18656.0, 18656.0, 18662.0, 18658.0, 18658.0, 18656.0, 18690.0, 18650.0, 18650.0, 18656.0, 18654.0, 18656.0, 18660.0, 18692.0, 18662.0, 18688.0, 18652.0, 18656.0, 18662.0, 18684.0, 18688.0, 18688.0, 18692.0, 18694.0, 18700.0, 18688.0, 18686.0, 18654.0, 18650.0, 18654.0, 18694.0, 18698.0, 18714.0, 18708.0, 18700.0, 18686.0, 18656.0, 18644.0, 18680.0, 18680.0, 18688.0, 18702.0, 18698.0, 18708.0, 18708.0, 18698.0, 18692.0, 18692.0, 18692.0, 18686.0, 18690.0, 18686.0, 18730.0, 18698.0, 18696.0, 18734.0, 18702.0, 18690.0, 18696.0, 18654.0, 18656.0, 18698.0, 18708.0, 18698.0, 18700.0, 18700.0, 18702.0, 18692.0, 18650.0, 18690.0, 18654.0, 18662.0, 18696.0, 18700.0, 18698.0, 18700.0, 18698.0, 18690.0, 18658.0, 18690.0, 18688.0, 18692.0, 18690.0, 18660.0, 18698.0, 18698.0, 18708.0, 18696.0, 18702.0, 18686.0, 18694.0, 18694.0, 18698.0, 18698.0, 18692.0, 18702.0, 18694.0, 18704.0, 18696.0, 18700.0, 18700.0, 18698.0, 18702.0, 18704.0, 18702.0, 18686.0, 18680.0, 18650.0, 18656.0, 18658.0, 18662.0, 18696.0, 18696.0, 18702.0, 18698.0, 18698.0, 18658.0, 18662.0, 18660.0, 18662.0, 18652.0, 18650.0, 18652.0, 18668.0, 18660.0, 18664.0, 18662.0, 18660.0, 18662.0, 18654.0, 18660.0, 18660.0, 18658.0, 18660.0, 18664.0, 18664.0, 18694.0, 18696.0, 18664.0, 18694.0, 18656.0, 18658.0, 18662.0, 18666.0, 18692.0, 18686.0, 18666.0, 18694.0, 18696.0, 18656.0, 18658.0, 18658.0, 18658.0, 18698.0, 18704.0, 18660.0, 18664.0, 18692.0, 18696.0, 18666.0, 18676.0, 18700.0, 18700.0, 18700.0, 18700.0, 18694.0, 18688.0, 18692.0, 18696.0, 18696.0, 18708.0, 18698.0, 18698.0, 18700.0, 18700.0, 18698.0, 18696.0, 18692.0, 18664.0, 18692.0, 18696.0, 18688.0, 18700.0, 18700.0, 18706.0, 18698.0, 18662.0, 18654.0, 18652.0, 18654.0, 18656.0, 18658.0, 18664.0, 18662.0, 18698.0, 18660.0, 18664.0, 18656.0, 18662.0, 18656.0, 18664.0, 18670.0, 18664.0, 18700.0, 18694.0, 18658.0, 18664.0, 18660.0, 18698.0, 18710.0, 18692.0, 18666.0, 18696.0, 18660.0, 18698.0, 18700.0, 18698.0, 18700.0, 18698.0, 18704.0, 18662.0, 18658.0, 18654.0, 18690.0, 18656.0, 18696.0, 18706.0, 18714.0, 18712.0, 18698.0, 18646.0, 18646.0, 18646.0, 18648.0, 18648.0, 18698.0, 18708.0, 18696.0, 18698.0, 18662.0, 18662.0, 18658.0, 18652.0, 18654.0, 18652.0, 18656.0, 18666.0, 18664.0, 18672.0, 18672.0, 18666.0, 18662.0, 18658.0, 18662.0, 18654.0, 18662.0, 18664.0, 18704.0, 18704.0, 18696.0, 18702.0, 18694.0, 18660.0, 18694.0, 18694.0, 18702.0, 18664.0, 18706.0, 18698.0, 18704.0, 18706.0, 18642.0, 18686.0, 18692.0, 18706.0, 18714.0, 18712.0, 18756.0, 18714.0, 18708.0, 18700.0, 18692.0, 18644.0, 18614.0, 18644.0, 18622.0, 18656.0, 18668.0, 18670.0, 18666.0, 18672.0, 18666.0, 18658.0, 18660.0, 18654.0]
    },
    "slices": {}
  }
}