{
  "AcquisitionMatrixPE": 104,
  "AcquisitionNumber": 1,
  "AcquisitionTime": "14:25:27.450000",
  "BandwidthPerPixelPhaseEncode": 17.17,
  "BaseResolution": 104,
  "BodyPartExamined": "BRAIN",
  "CoilCombinationMethod": "Sum of Squares",
  "ConsistencyInfo": "N4_VE11C_LATEST_20160120",
  "ConversionSoftware": "dcm2niix",
  "ConversionSoftwareVersion": "v1.0.20220505",
  "DerivedVendorReportedEchoSpacing": 0.000560011,
  "DeviceSerialNumber": "167006",
  "DwellTime": 2.1e-06,
  "EchoTime": 0.037,
  "EchoTrainLength": 104,
  "EffectiveEchoSpacing": 0.000560011,
  "FlipAngle": 52,
  "HeudiconvVersion": "0.5.3.post811+g6206e14",
  "ImageComments": "Unaliased MB4/PE3/LB",
  "ImageOrientationPatientDICOM": [0.999763, 0.0153954, 0.0154198, -0.010819, 0.965003, -0.262017],
  "ImageOrientationText": "Tra>Cor(-15.2)>Sag(1.1)",
  "ImageType": [
    "ORIGINAL",
    "PRIMARY",
    "M",
    "MB",
    "ND",
    "MOSAIC"
],
  "ImagingFrequency": 123.259,
  "InPlanePhaseEncodingDirectionDICOM": "COL",
  "InstitutionAddress": "Chemin Queen-Mary 4565,Montreal,District,CA,H3W 1W5",
  "InstitutionName": "IUGM",
  "InstitutionalDepartmentName": "Department",
  "MRAcquisitionType": "2D",
  "MagneticFieldStrength": 3,
  "Manufacturer": "Siemens",
  "ManufacturersModelName": "Prisma_fit",
  "MatrixCoilMode": "SENSE",
  "Modality": "MR",
  "MultibandAccelerationFactor": 4,
  "PartialFourier": 1,
  "PatientPosition": "HFS",
  "PercentPhaseFOV": 100,
  "PercentSampling": 100,
  "PhaseEncodingDirection": "j",
  "PhaseEncodingSteps": 104,
  "PhaseResolution": 1,
  "PixelBandwidth": 2290,
  "ProcedureStepDescription": "games^mario3",
  "ProtocolName": "func_task-mario3_run-03",
  "PulseSequenceDetails": "%CustomerSeq%\\cmrr_mbep2d_bold",
  "ReceiveCoilActiveElements": "HC1-7;NC1,2",
  "ReceiveCoilName": "HeadNeck_64",
  "ReconMatrixPE": 104,
  "RepetitionTime": 1.49,
  "SAR": 0.0396103,
  "ScanOptions": "FS",
  "ScanningSequence": "EP",
  "SequenceName": "epfid2d1_104",
  "SequenceVariant": "SK\\SS",
  "SeriesDescription": "func_task-mario3_run-03",
  "SeriesNumber": 27,
  "ShimSetting": [641, -7223, -8735, 708, 70, -18, 50, -13],
  "SliceThickness": 2,
  "SliceTiming": [0, 0.785, 0.0975, 0.8825, 0.1975, 0.98, 0.295, 1.0775, 0.3925, 1.175, 0.49, 1.275, 0.5875, 1.3725, 0.6875, 0, 0.785, 0.0975, 0.8825, 0.1975, 0.98, 0.295, 1.0775, 0.3925, 1.175, 0.49, 1.275, 0.5875, 1.3725, 0.6875, 0, 0.785, 0.0975, 0.8825, 0.1975, 0.98, 0.295, 1.0775, 0.3925, 1.175, 0.49, 1.275, 0.5875, 1.3725, 0.6875, 0, 0.785, 0.0975, 0.8825, 0.1975, 0.98, 0.295, 1.0775, 0.3925, 1.175, 0.49, 1.275, 0.5875, 1.3725, 0.6875],
  "SoftwareVersions": "syngo MR E11",
  "SpacingBetweenSlices": 2,
  "StationName": "MRC35049",
  "TaskName": "mario3",
  "TotalReadoutTime": 0.0576811,
  "TxRefAmp": 210.273,
  "WipMemBlock": "b5159d50-2533-417b-9371-f31fa3018fc3||Sequence: R017 ve11c/master r/75a17815+; Jun 28 2022 16:32:11 by eja",
  "dcmmeta_affine": [
    [-1.9995251893997192, -0.021637914702296257, 0.037828098982572556, 109.3109130859375],
    [-0.030790885910391808, 1.930005431175232, -0.5235753655433655, -72.09054565429688],
    [0.030839677900075912, 0.5240334272384644, 1.9298803806304932, -49.31401062011719],
    [0.0, 0.0, 0.0, 1.0]
],
  "dcmmeta_reorient_transform": [
    [0.0, -1.0, 0.0, 103.0],
    [1.0, 0.0, 0.0, 0.0],
    [0.0, 0.0, 1.0, 0.0],
    [0.0, 0.0, 0.0, 1.0]
],
  "dcmmeta_shape": [104, 104, 60, 305],
  "dcmmeta_slice_dim": 2,
  "dcmmeta_version": 0.6,
  "global": {
    "const": {
      "AcquisitionMatrix": [104, 0, 0, 104],
      "AngioFlag": "N",
      "BitsAllocated": 16,
      "BitsStored": 16,
      "BodyPartExamined": "BRAIN",
      "Columns": 832,
      "EchoNumbers": 1,
      "EchoTime": 37.0,
      "EchoTrainLength": 104,
      "FlipAngle": 52.0,
      "HighBit": 15,
      "ImageOrientationPatient": [0.99976257626672, 0.01539544265239, 0.01541983923602, -0.010818956924, 0.96500269390623, -0.262016699706],
      "ImagePositionPatient": [-827.03316126235, -840.42985130134, 184.18394397485],
      "ImageType": [
        "ORIGINAL",
        "PRIMARY",
        "M",
        "MB",
        "ND",
        "MOSAIC"
],
      "ImagedNucleus": "1H",
      "ImagingFrequency": 123.258776,
      "InPlanePhaseEncodingDirection": "COL",
      "MRAcquisitionType": "2D",
      "MagneticFieldStrength": 3.0,
      "Manufacturer": "SIEMENS",
      "ManufacturerModelName": "Prisma_fit",
      "Modality": "MR",
      "NumberOfAverages": 1.0,
      "NumberOfPhaseEncodingSteps": 104,
      "PercentPhaseFieldOfView": 100.0,
      "PercentSampling": 100.0,
      "PerformedProcedureStepStartTime": "134620.923000",
      "PhotometricInterpretation": "MONOCHROME2",
      "PixelBandwidth": 2290.0,
      "PixelRepresentation": 0,
      "PixelSpacing": [2.0, 2.0],
      "ProtocolName": "func_task-mario3_run-03",
      "RepetitionTime": 1490.0,
      "Rows": 832,
      "SAR": 0.03961025241121,
      "SamplesPerPixel": 1,
      "ScanOptions": "FS",
      "ScanningSequence": "EP",
      "SequenceName": "epfid2d1_104",
      "SequenceVariant": [
        "SK",
        "SS"
],
      "SeriesDescription": "func_task-mario3_run-03",
      "SeriesNumber": 27,
      "SeriesTime": "142649.503000",
      "SliceLocation": -26.645140467936,
      "SliceThickness": 2.0,
      "SmallestImagePixelValue": 0,
      "SoftwareVersions": "syngo MR E11",
      "SpacingBetweenSlices": 2.0000000523398,
      "SpecificCharacterSet": "ISO_IR 100",
      "StudyID": "1",
      "StudyTime": "134620.855000",
      "TransmitCoilName": "Body",
      "VariableFlipAngleFlag": "N",
      "WindowCenterWidthExplanation": "Algo1",
      "dBdt": 0.0},
    "slices": {}
  },
  "time": {
    "samples": {
      "AcquisitionNumber": [1, 2, 3, 4, 5, 6, 7, 8, 9, 10, 11, 12, 13, 14, 15, 16, 17, 18, 19, 20, 21, 22, 23, 24, 25, 26, 27, 28, 29, 30, 31, 32, 33, 34, 35, 36, 37, 38, 39, 40, 41, 42, 43, 44, 45, 46, 47, 48, 49, 50, 51, 52, 53, 54, 55, 56, 57, 58, 59, 60, 61, 62, 63, 64, 65, 66, 67, 68, 69, 70, 71, 72, 73, 74, 75, 76, 77, 78, 79, 80, 81, 82, 83, 84, 85, 86, 87, 88, 89, 90, 91, 92, 93, 94, 95, 96, 97, 98, 99, 100, 101, 102, 103, 104, 105, 106, 107, 108, 109, 110, 111, 112, 113, 114, 115, 116, 117, 118, 119, 120, 121, 122, 123, 124, 125, 126, 127, 128, 129, 130, 131, 132, 133, 134, 135, 136, 137, 138, 139, 140, 141, 142, 143, 144, 145, 146, 147, 148, 149, 150, 151, 152, 153, 154, 155, 156, 157, 158, 159, 160, 161, 162, 163, 164, 165, 166, 167, 168, 169, 170, 171, 172, 173, 174, 175, 176, 177, 178, 179, 180, 181, 182, 183, 184, 185, 186, 187, 188, 189, 190, 191, 192, 193, 194, 195, 196, 197, 198, 199, 200, 201, 202, 203, 204, 205, 206, 207, 208, 209, 210, 211, 212, 213, 214, 215, 216, 217, 218, 219, 220, 221, 222, 223, 224, 225, 226, 227, 228, 229, 230, 231, 232, 233, 234, 235, 236, 237, 238, 239, 240, 241, 242, 243, 244, 245, 246, 247, 248, 249, 250, 251, 252, 253, 254, 255, 256, 257, 258, 259, 260, 261, 262, 263, 264, 265, 266, 267, 268, 269, 270, 271, 272, 273, 274, 275, 276, 277, 278, 279, 280, 281, 282, 283, 284, 285, 286, 287, 288, 289, 290, 291, 292, 293, 294, 295, 296, 297, 298, 299, 300, 301, 302, 303, 304, 305],
      "AcquisitionTime": ["142527.450000", "142528.940000", "142530.430000", "142531.920000", "142533.410000", "142534.900000", "142536.390000", "142537.880000", "142539.370000", "142540.860000", "142542.350000", "142543.840000", "142545.330000", "142546.820000", "142548.310000", "142549.800000", "142551.290000", "142552.780000", "142554.270000", "142555.760000", "142557.250000", "142558.740000", "142600.230000", "142601.720000", "142603.210000", "142604.700000", "142606.190000", "142607.680000", "142609.170000", "142610.660000", "142612.150000", "142613.640000", "142615.130000", "142616.620000", "142618.110000", "142619.600000", "142621.090000", "142622.580000", "142624.070000", "142625.560000", "142627.050000", "142628.540000", "142630.030000", "142631.520000", "142633.010000", "142634.500000", "142635.990000", "142637.480000", "142638.970000", "142640.460000", "142641.950000", "142643.440000", "142644.930000", "142646.420000", "142647.910000", "142649.400000", "142650.890000", "142652.380000", "142653.870000", "142655.360000", "142656.850000", "142658.340000", "142659.830000", "142701.320000", "142702.810000", "142704.300000", "142705.790000", "142707.280000", "142708.770000", "142710.260000", "142711.750000", "142713.240000", "142714.730000", "142716.220000", "142717.710000", "142719.200000", "142720.690000", "142722.180000", "142723.670000", "142725.160000", "142726.650000", "142728.140000", "142729.630000", "142731.120000", "142732.610000", "142734.100000", "142735.590000", "142737.080000", "142738.570000", "142740.060000", "142741.550000", "142743.040000", "142744.530000", "142746.020000", "142747.510000", "142749.000000", "142750.490000", "142751.980000", "142753.470000", "142754.960000", "142756.450000", "142757.940000", "142759.430000", "142800.920000", "142802.410000", "142803.900000", "142805.390000", "142806.880000", "142808.370000", "142809.860000", "142811.350000", "142812.840000", "142814.330000", "142815.820000", "142817.310000", "142818.800000", "142820.290000", "142821.780000", "142823.270000", "142824.760000", "142826.250000", "142827.740000", "142829.230000", "142830.720000", "142832.210000", "142833.700000", "142835.190000", "142836.680000", "142838.170000", "142839.660000", "142841.150000", "142842.640000", "142844.130000", "142845.620000", "142847.110000", "142848.600000", "142850.090000", "142851.580000", "142853.070000", "142854.560000", "142856.050000", "142857.540000", "142859.030000", "142900.520000", "142902.010000", "142903.500000", "142904.990000", "142906.480000", "142907.970000", "142909.460000", "142910.950000", "142912.440000", "142913.930000", "142915.420000", "142916.910000", "142918.400000", "142919.890000", "142921.380000", "142922.870000", "142924.360000", "142925.850000", "142927.340000", "142928.830000", "142930.320000", "142931.810000", "142933.300000", "142934.790000", "142936.280000", "142937.770000", "142939.260000", "142940.750000", "142942.240000", "142943.730000", "142945.220000", "142946.710000", "142948.200000", "142949.690000", "142951.180000", "142952.670000", "142954.160000", "142955.650000", "142957.140000", "142958.630000", "143000.120000", "143001.610000", "143003.100000", "143004.590000", "143006.080000", "143007.570000", "143009.060000", "143010.550000", "143012.040000", "143013.530000", "143015.020000", "143016.510000", "143018.000000", "143019.490000", "143020.980000", "143022.470000", "143023.960000", "143025.450000", "143026.940000", "143028.430000", "143029.920000", "143031.410000", "143032.900000", "143034.390000", "143035.880000", "143037.370000", "143038.860000", "143040.350000", "143041.840000", "143043.330000", "143044.820000", "143046.310000", "143047.800000", "143049.290000", "143050.780000", "143052.270000", "143053.760000", "143055.250000", "143056.740000", "143058.230000", "143059.720000", "143101.210000", "143102.700000", "143104.190000", "143105.680000", "143107.170000", "143108.660000", "143110.150000", "143111.640000", "143113.130000", "143114.620000", "143116.110000", "143117.600000", "143119.090000", "143120.580000", "143122.070000", "143123.560000", "143125.050000", "143126.540000", "143128.030000", "143129.520000", "143131.010000", "143132.500000", "143133.990000", "143135.480000", "143136.970000", "143138.460000", "143139.950000", "143141.440000", "143142.930000", "143144.420000", "143145.910000", "143147.400000", "143148.890000", "143150.380000", "143151.870000", "143153.360000", "143154.850000", "143156.340000", "143157.830000", "143159.320000", "143200.810000", "143202.300000", "143203.790000", "143205.280000", "143206.770000", "143208.260000", "143209.750000", "143211.240000", "143212.730000", "143214.220000", "143215.710000", "143217.200000", "143218.690000", "143220.180000", "143221.670000", "143223.160000", "143224.650000", "143226.140000", "143227.630000", "143229.120000", "143230.610000", "143232.100000", "143233.590000", "143235.080000", "143236.570000", "143238.060000", "143239.550000", "143241.040000", "143242.530000", "143244.020000", "143245.510000", "143247.000000", "143248.490000", "143249.980000", "143251.470000", "143252.960000", "143254.450000", "143255.940000", "143257.430000", "143258.920000", "143300.410000"],
      "ContentTime": ["142649.506000", "142649.510000", "142649.514000", "142649.517000", "142649.520000", "142649.523000", "142649.527000", "142649.530000", "142649.533000", "142649.536000", "142649.540000", "142649.543000", "142649.546000", "142649.550000", "142649.553000", "142649.556000", "142649.559000", "142649.563000", "142649.566000", "142649.569000", "142649.573000", "142649.580000", "142649.584000", "142649.587000", "142649.590000", "142649.593000", "142649.597000", "142649.600000", "142649.603000", "142649.607000", "142649.610000", "142649.613000", "142649.616000", "142649.620000", "142709.469000", "142709.473000", "142709.476000", "142709.479000", "142709.483000", "142709.486000", "142709.489000", "142709.493000", "142709.496000", "142709.499000", "142709.502000", "142709.518000", "142709.521000", "142709.525000", "142709.528000", "142709.531000", "142709.534000", "142709.537000", "142709.541000", "142709.544000", "142729.469000", "142729.473000", "142729.476000", "142729.479000", "142729.483000", "142729.486000", "142729.490000", "142729.493000", "142729.496000", "142729.500000", "142729.503000", "142729.506000", "142729.510000", "142729.513000", "142729.516000", "142729.519000", "142729.530000", "142729.533000", "142729.536000", "142729.540000", "142749.469000", "142749.473000", "142749.476000", "142749.480000", "142749.483000", "142749.486000", "142749.490000", "142749.493000", "142749.496000", "142749.500000", "142749.518000", "142749.521000", "142749.525000", "142749.528000", "142749.531000", "142749.534000", "142749.538000", "142749.541000", "142749.544000", "142749.548000", "142829.470000", "142829.474000", "142829.477000", "142829.480000", "142829.484000", "142829.487000", "142829.490000", "142829.494000", "142829.497000", "142829.500000", "142829.504000", "142829.507000", "142829.510000", "142829.514000", "142829.517000", "142829.521000", "142829.524000", "142829.528000", "142829.531000", "142829.534000", "142829.537000", "142829.541000", "142829.544000", "142829.547000", "142829.551000", "142829.554000", "142829.557000", "142909.470000", "142909.474000", "142909.477000", "142909.480000", "142909.484000", "142909.487000", "142909.490000", "142909.493000", "142909.497000", "142909.500000", "142909.503000", "142909.507000", "142909.510000", "142909.513000", "142909.516000", "142909.520000", "142909.535000", "142909.539000", "142909.542000", "142909.545000", "142909.549000", "142909.552000", "142909.555000", "142909.558000", "142909.562000", "142909.565000", "142909.568000", "142949.469000", "142949.473000", "142949.476000", "142949.480000", "142949.483000", "142949.486000", "142949.489000", "142949.493000", "142949.496000", "142949.499000", "142949.503000", "142949.506000", "142949.509000", "142949.513000", "142949.516000", "142949.519000", "142949.522000", "142949.526000", "142949.536000", "142949.540000", "142949.543000", "142949.547000", "142949.550000", "142949.554000", "142949.557000", "142949.560000", "142949.563000", "143029.470000", "143029.485000", "143029.488000", "143029.491000", "143029.495000", "143029.498000", "143029.501000", "143029.505000", "143029.508000", "143029.511000", "143029.514000", "143029.518000", "143029.521000", "143029.524000", "143029.528000", "143029.531000", "143029.534000", "143029.537000", "143029.541000", "143029.544000", "143029.547000", "143029.551000", "143029.554000", "143029.558000", "143029.561000", "143029.564000", "143029.567000", "143109.470000", "143109.474000", "143109.480000", "143109.483000", "143109.487000", "143109.490000", "143109.494000", "143109.497000", "143109.500000", "143109.503000", "143109.507000", "143109.510000", "143109.513000", "143109.517000", "143109.520000", "143109.523000", "143109.530000", "143109.533000", "143109.536000", "143109.540000", "143109.543000", "143109.546000", "143109.549000", "143109.553000", "143109.556000", "143109.559000", "143109.563000", "143149.469000", "143149.473000", "143149.476000", "143149.479000", "143149.498000", "143149.502000", "143149.505000", "143149.508000", "143149.512000", "143149.523000", "143149.526000", "143149.529000", "143149.533000", "143149.536000", "143149.539000", "143149.542000", "143149.546000", "143149.549000", "143149.552000", "143149.556000", "143149.559000", "143149.562000", "143149.565000", "143149.569000", "143149.572000", "143149.575000", "143149.579000", "143229.469000", "143229.473000", "143229.476000", "143229.480000", "143229.483000", "143229.486000", "143229.489000", "143229.493000", "143229.496000", "143229.499000", "143229.503000", "143229.506000", "143229.509000", "143229.513000", "143229.516000", "143229.519000", "143229.522000", "143229.526000", "143229.529000", "143229.533000", "143229.536000", "143229.540000", "143229.543000", "143229.547000", "143229.551000", "143229.554000", "143303.045000", "143303.048000", "143303.051000", "143303.055000", "143303.058000", "143303.061000", "143303.065000", "143303.068000", "143303.071000", "143303.075000", "143303.078000", "143303.081000", "143303.085000", "143303.088000", "143303.091000", "143303.095000", "143303.098000", "143303.101000", "143303.105000", "143303.108000", "143303.111000", "143303.115000", "143303.118000"],
      "InstanceCreationTime": ["142649.506000", "142649.510000", "142649.514000", "142649.517000", "142649.520000", "142649.523000", "142649.527000", "142649.530000", "142649.533000", "142649.536000", "142649.540000", "142649.543000", "142649.546000", "142649.550000", "142649.553000", "142649.556000", "142649.559000", "142649.563000", "142649.566000", "142649.569000", "142649.573000", "142649.580000", "142649.584000", "142649.587000", "142649.590000", "142649.593000", "142649.597000", "142649.600000", "142649.603000", "142649.607000", "142649.610000", "142649.613000", "142649.616000", "142649.620000", "142709.469000", "142709.473000", "142709.476000", "142709.479000", "142709.483000", "142709.486000", "142709.489000", "142709.493000", "142709.496000", "142709.499000", "142709.502000", "142709.518000", "142709.521000", "142709.525000", "142709.528000", "142709.531000", "142709.534000", "142709.537000", "142709.541000", "142709.544000", "142729.469000", "142729.473000", "142729.476000", "142729.479000", "142729.483000", "142729.486000", "142729.490000", "142729.493000", "142729.496000", "142729.500000", "142729.503000", "142729.506000", "142729.510000", "142729.513000", "142729.516000", "142729.519000", "142729.530000", "142729.533000", "142729.536000", "142729.540000", "142749.469000", "142749.473000", "142749.476000", "142749.480000", "142749.483000", "142749.486000", "142749.490000", "142749.493000", "142749.496000", "142749.500000", "142749.518000", "142749.521000", "142749.525000", "142749.528000", "142749.531000", "142749.534000", "142749.538000", "142749.541000", "142749.544000", "142749.548000", "142829.470000", "142829.474000", "142829.477000", "142829.480000", "142829.484000", "142829.487000", "142829.490000", "142829.494000", "142829.497000", "142829.500000", "142829.504000", "142829.507000", "142829.510000", "142829.514000", "142829.517000", "142829.521000", "142829.524000", "142829.528000", "142829.531000", "142829.534000", "142829.537000", "142829.541000", "142829.544000", "142829.547000", "142829.551000", "142829.554000", "142829.557000", "142909.470000", "142909.474000", "142909.477000", "142909.480000", "142909.484000", "142909.487000", "142909.490000", "142909.493000", "142909.497000", "142909.500000", "142909.503000", "142909.507000", "142909.510000", "142909.513000", "142909.516000", "142909.520000", "142909.535000", "142909.539000", "142909.542000", "142909.545000", "142909.549000", "142909.552000", "142909.555000", "142909.558000", "142909.562000", "142909.565000", "142909.568000", "142949.469000", "142949.473000", "142949.476000", "142949.480000", "142949.483000", "142949.486000", "142949.489000", "142949.493000", "142949.496000", "142949.499000", "142949.503000", "142949.506000", "142949.509000", "142949.513000", "142949.516000", "142949.519000", "142949.522000", "142949.526000", "142949.536000", "142949.540000", "142949.543000", "142949.547000", "142949.550000", "142949.554000", "142949.557000", "142949.560000", "142949.563000", "143029.470000", "143029.485000", "143029.488000", "143029.491000", "143029.495000", "143029.498000", "143029.501000", "143029.505000", "143029.508000", "143029.511000", "143029.514000", "143029.518000", "143029.521000", "143029.524000", "143029.528000", "143029.531000", "143029.534000", "143029.537000", "143029.541000", "143029.544000", "143029.547000", "143029.551000", "143029.554000", "143029.558000", "143029.561000", "143029.564000", "143029.567000", "143109.470000", "143109.474000", "143109.480000", "143109.483000", "143109.487000", "143109.490000", "143109.494000", "143109.497000", "143109.500000", "143109.503000", "143109.507000", "143109.510000", "143109.513000", "143109.517000", "143109.520000", "143109.523000", "143109.530000", "143109.533000", "143109.536000", "143109.540000", "143109.543000", "143109.546000", "143109.549000", "143109.553000", "143109.556000", "143109.559000", "143109.563000", "143149.469000", "143149.473000", "143149.476000", "143149.479000", "143149.498000", "143149.502000", "143149.505000", "143149.508000", "143149.512000", "143149.523000", "143149.526000", "143149.529000", "143149.533000", "143149.536000", "143149.539000", "143149.542000", "143149.546000", "143149.549000", "143149.552000", "143149.556000", "143149.559000", "143149.562000", "143149.565000", "143149.569000", "143149.572000", "143149.575000", "143149.579000", "143229.469000", "143229.473000", "143229.476000", "143229.480000", "143229.483000", "143229.486000", "143229.489000", "143229.493000", "143229.496000", "143229.499000", "143229.503000", "143229.506000", "143229.509000", "143229.513000", "143229.516000", "143229.519000", "143229.522000", "143229.526000", "143229.529000", "143229.533000", "143229.536000", "143229.540000", "143229.543000", "143229.547000", "143229.551000", "143229.554000", "143303.045000", "143303.048000", "143303.051000", "143303.055000", "143303.058000", "143303.061000", "143303.065000", "143303.068000", "143303.071000", "143303.075000", "143303.078000", "143303.081000", "143303.085000", "143303.088000", "143303.091000", "143303.095000", "143303.098000", "143303.101000", "143303.105000", "143303.108000", "143303.111000", "143303.115000", "143303.118000"],
      "InstanceNumber": [1, 2, 3, 4, 5, 6, 7, 8, 9, 10, 11, 12, 13, 14, 15, 16, 17, 18, 19, 20, 21, 22, 23, 24, 25, 26, 27, 28, 29, 30, 31, 32, 33, 34, 35, 36, 37, 38, 39, 40, 41, 42, 43, 44, 45, 46, 47, 48, 49, 50, 51, 52, 53, 54, 55, 56, 57, 58, 59, 60, 61, 62, 63, 64, 65, 66, 67, 68, 69, 70, 71, 72, 73, 74, 75, 76, 77, 78, 79, 80, 81, 82, 83, 84, 85, 86, 87, 88, 89, 90, 91, 92, 93, 94, 95, 96, 97, 98, 99, 100, 101, 102, 103, 104, 105, 106, 107, 108, 109, 110, 111, 112, 113, 114, 115, 116, 117, 118, 119, 120, 121, 122, 123, 124, 125, 126, 127, 128, 129, 130, 131, 132, 133, 134, 135, 136, 137, 138, 139, 140, 141, 142, 143, 144, 145, 146, 147, 148, 149, 150, 151, 152, 153, 154, 155, 156, 157, 158, 159, 160, 161, 162, 163, 164, 165, 166, 167, 168, 169, 170, 171, 172, 173, 174, 175, 176, 177, 178, 179, 180, 181, 182, 183, 184, 185, 186, 187, 188, 189, 190, 191, 192, 193, 194, 195, 196, 197, 198, 199, 200, 201, 202, 203, 204, 205, 206, 207, 208, 209, 210, 211, 212, 213, 214, 215, 216, 217, 218, 219, 220, 221, 222, 223, 224, 225, 226, 227, 228, 229, 230, 231, 232, 233, 234, 235, 236, 237, 238, 239, 240, 241, 242, 243, 244, 245, 246, 247, 248, 249, 250, 251, 252, 253, 254, 255, 256, 257, 258, 259, 260, 261, 262, 263, 264, 265, 266, 267, 268, 269, 270, 271, 272, 273, 274, 275, 276, 277, 278, 279, 280, 281, 282, 283, 284, 285, 286, 287, 288, 289, 290, 291, 292, 293, 294, 295, 296, 297, 298, 299, 300, 301, 302, 303, 304, 305],
      "LargestImagePixelValue": [41968, 40817, 39943, 40446, 39209, 40117, 39025, 39421, 39549, 39301, 39105, 38996, 39283, 38719, 38760, 39081, 39000, 38551, 38358, 38472, 38029, 38293, 38452, 38898, 38865, 38642, 38989, 38934, 38938, 38429, 38694, 39067, 39365, 38518, 38928, 38953, 38752, 39169, 38916, 39061, 39445, 39677, 39276, 39181, 37886, 39127, 39150, 39099, 38899, 38729, 38862, 38472, 39767, 39802, 39755, 39604, 39256, 38658, 39477, 39305, 38795, 39853, 38457, 38374, 38214, 38819, 38815, 38341, 38492, 39169, 39263, 39034, 38952, 38510, 38710, 38609, 38799, 38934, 38841, 38332, 38403, 38844, 40047, 38596, 38568, 38553, 37923, 39257, 39776, 39969, 39402, 39709, 39117, 39036, 39675, 39276, 39719, 39398, 39183, 39403, 39584, 39307, 39973, 39432, 39354, 39491, 39049, 39199, 38533, 39803, 38943, 38606, 38775, 39544, 39059, 39043, 39245, 38869, 39224, 39011, 39021, 38949, 39549, 39161, 39010, 39193, 39182, 39201, 39147, 39522, 39413, 39278, 39159, 39148, 39081, 39664, 39391, 39177, 39499, 39902, 40156, 40125, 39253, 38889, 40138, 39896, 39736, 39613, 38909, 38969, 38288, 41777, 39884, 40612, 39121, 38362, 38440, 38741, 38892, 39138, 39128, 38808, 39392, 39107, 39490, 39157, 39182, 39291, 40048, 39455, 39841, 39888, 39357, 39483, 39696, 39470, 39276, 39839, 39844, 39673, 39765, 40319, 40356, 40103, 39900, 40078, 39113, 39492, 38883, 38726, 38460, 38531, 38478, 38525, 39207, 39512, 39107, 38963, 39067, 39126, 39849, 38698, 39416, 39256, 38498, 38306, 38335, 40399, 40064, 39445, 40021, 39593, 39332, 39262, 39272, 38917, 39490, 38197, 40504, 40075, 39586, 39022, 39262, 39117, 39187, 39935, 40314, 39925, 39483, 39873, 40063, 39993, 39344, 38698, 38955, 39108, 39479, 39898, 39375, 39679, 39606, 39456, 39107, 39380, 39429, 39536, 39590, 38650, 38343, 38521, 38665, 40001, 39647, 39925, 39792, 39849, 37887, 38520, 38234, 38491, 38615, 38786, 38030, 38308, 38023, 38534, 38398, 38912, 38743, 39005, 38817, 38133, 39032, 37817, 38881, 37938, 38394, 38312, 38394, 38449, 39668, 39290, 38942, 39189, 39106, 38735, 39083, 39350, 39467, 39167, 39627, 39176, 39718, 40060, 43202, 41011, 39469, 39494, 39480, 38910, 39354, 39715, 39743, 40114, 39228],
      "WindowCenter": [10056.0, 10025.0, 10019.0, 10032.0, 10032.0, 10025.0, 10032.0, 10037.0, 10061.0, 10060.0, 10036.0, 10001.0, 9965.0, 9963.0, 9967.0, 9969.0, 9987.0, 10001.0, 10004.0, 10013.0, 9987.0, 9956.0, 9938.0, 9933.0, 9941.0, 9950.0, 9964.0, 9983.0, 9999.0, 9995.0, 10007.0, 9999.0, 10023.0, 10000.0, 9983.0, 9981.0, 9944.0, 9950.0, 9957.0, 9966.0, 9987.0, 9998.0, 9999.0, 9976.0, 9923.0, 9973.0, 9987.0, 9991.0, 10009.0, 9985.0, 9982.0, 9942.0, 9953.0, 9971.0, 9995.0, 9999.0, 9987.0, 9976.0, 9968.0, 9977.0, 9958.0, 10001.0, 9982.0, 9988.0, 9969.0, 9971.0, 9969.0, 9978.0, 9979.0, 9991.0, 9996.0, 10006.0, 10025.0, 10019.0, 10016.0, 10016.0, 10026.0, 10035.0, 10025.0, 10007.0, 9979.0, 9969.0, 9971.0, 9972.0, 10011.0, 10020.0, 9861.0, 9988.0, 9928.0, 9926.0, 9944.0, 9960.0, 9957.0, 9966.0, 9958.0, 9972.0, 9981.0, 9982.0, 9975.0, 9973.0, 9980.0, 9980.0, 9992.0, 9996.0, 9995.0, 10003.0, 9985.0, 10000.0, 10010.0, 10023.0, 10020.0, 9997.0, 9963.0, 9946.0, 9936.0, 9948.0, 9956.0, 9962.0, 9982.0, 9983.0, 9983.0, 9996.0, 9996.0, 10007.0, 10001.0, 9992.0, 9974.0, 9970.0, 9933.0, 9968.0, 9995.0, 10006.0, 10001.0, 9993.0, 10000.0, 10020.0, 10007.0, 9970.0, 9941.0, 9943.0, 9963.0, 9982.0, 9962.0, 9946.0, 9955.0, 9971.0, 10002.0, 10022.0, 10024.0, 10006.0, 9953.0, 10035.0, 9940.0, 9980.0, 9978.0, 9965.0, 9956.0, 9963.0, 9976.0, 10000.0, 10004.0, 9996.0, 10007.0, 10019.0, 10034.0, 10020.0, 10001.0, 9982.0, 9979.0, 9989.0, 10011.0, 10023.0, 10004.0, 10007.0, 10013.0, 10014.0, 10014.0, 9998.0, 9980.0, 9986.0, 9991.0, 10006.0, 10006.0, 9997.0, 9997.0, 10008.0, 10004.0, 10003.0, 10019.0, 10041.0, 10029.0, 10019.0, 9991.0, 9989.0, 10009.0, 10011.0, 10014.0, 10011.0, 10002.0, 10011.0, 10026.0, 10023.0, 9995.0, 10018.0, 10023.0, 10039.0, 10001.0, 10019.0, 10000.0, 9982.0, 9995.0, 10004.0, 10011.0, 10007.0, 10007.0, 10009.0, 9944.0, 9884.0, 9960.0, 9972.0, 9974.0, 9970.0, 9952.0, 9927.0, 9921.0, 9947.0, 9982.0, 10004.0, 9998.0, 9994.0, 9972.0, 9992.0, 9990.0, 10003.0, 9991.0, 9965.0, 9946.0, 9948.0, 9944.0, 9965.0, 9957.0, 9982.0, 9977.0, 9987.0, 9999.0, 10012.0, 9990.0, 9988.0, 9971.0, 9963.0, 9979.0, 9984.0, 9970.0, 9965.0, 9963.0, 9955.0, 9964.0, 9982.0, 9978.0, 10000.0, 10001.0, 10019.0, 10006.0, 9994.0, 9979.0, 9977.0, 9954.0, 9949.0, 9955.0, 9970.0, 9985.0, 9985.0, 9973.0, 9987.0, 9983.0, 9994.0, 9992.0, 9979.0, 9982.0, 9982.0, 10002.0, 9997.0, 9998.0, 9988.0, 9967.0, 9955.0, 9962.0, 10009.0, 10015.0, 10000.0, 9987.0, 9965.0, 9917.0, 9936.0, 10056.0, 10029.0, 10019.0, 9994.0, 9952.0, 9918.0, 9904.0, 9926.0, 9959.0, 9986.0, 9976.0],
