{
  "AcquisitionMatrixPE": 104,
  "AcquisitionNumber": 1,
  "AcquisitionTime": "14:18:34.737500",
  "BandwidthPerPixelPhaseEncode": 17.17,
  "BaseResolution": 104,
  "BodyPartExamined": "BRAIN",
  "CoilCombinationMethod": "Sum of Squares",
  "ConsistencyInfo": "N4_VE11C_LATEST_20160120",
  "ConversionSoftware": "dcm2niix",
  "ConversionSoftwareVersion": "v1.0.20220505",
  "DerivedVendorReportedEchoSpacing": 0.000560011,
  "DeviceSerialNumber": "167006",
  "DwellTime": 2.1e-06,
  "EchoTime": 0.037,
  "EchoTrainLength": 104,
  "EffectiveEchoSpacing": 0.000560011,
  "FlipAngle": 52,
  "HeudiconvVersion": "0.5.3.post811+g6206e14",
  "ImageComments": "Unaliased MB4/PE3/LB",
  "ImageOrientationPatientDICOM": [0.999763, 0.0153954, 0.0154198, -0.010819, 0.965003, -0.262017],
  "ImageOrientationText": "Tra>Cor(-15.2)>Sag(1.1)",
  "ImageType": [
    "ORIGINAL",
    "PRIMARY",
    "M",
    "MB",
    "ND",
    "MOSAIC"
],
  "ImagingFrequency": 123.259,
  "InPlanePhaseEncodingDirectionDICOM": "COL",
  "InstitutionAddress": "Chemin Queen-Mary 4565,Montreal,District,CA,H3W 1W5",
  "InstitutionName": "IUGM",
  "InstitutionalDepartmentName": "Department",
  "MRAcquisitionType": "2D",
  "MagneticFieldStrength": 3,
  "Manufacturer": "Siemens",
  "ManufacturersModelName": "Prisma_fit",
  "MatrixCoilMode": "SENSE",
  "Modality": "MR",
  "MultibandAccelerationFactor": 4,
  "PartialFourier": 1,
  "PatientPosition": "HFS",
  "PercentPhaseFOV": 100,
  "PercentSampling": 100,
  "PhaseEncodingDirection": "j",
  "PhaseEncodingSteps": 104,
  "PhaseResolution": 1,
  "PixelBandwidth": 2290,
  "ProcedureStepDescription": "games^mario3",
  "ProtocolName": "func_task-mario3_run-03",
  "PulseSequenceDetails": "%CustomerSeq%\\cmrr_mbep2d_bold",
  "ReceiveCoilActiveElements": "HC1-7;NC1,2",
  "ReceiveCoilName": "HeadNeck_64",
  "ReconMatrixPE": 104,
  "RepetitionTime": 1.49,
  "SAR": 0.0396103,
  "ScanOptions": "FS",
  "ScanningSequence": "EP",
  "SequenceName": "epfid2d1_104",
  "SequenceVariant": "SK\\SS",
  "SeriesDescription": "func_task-mario3_run-03",
  "SeriesNumber": 24,
  "ShimSetting": [641, -7223, -8735, 708, 70, -18, 50, -13],
  "SliceThickness": 2,
  "SliceTiming": [0, 0.785, 0.0975, 0.8825, 0.1975, 0.98, 0.295, 1.0775, 0.3925, 1.175, 0.49, 1.275, 0.5875, 1.3725, 0.685, 0, 0.785, 0.0975, 0.8825, 0.1975, 0.98, 0.295, 1.0775, 0.3925, 1.175, 0.49, 1.275, 0.5875, 1.3725, 0.685, 0, 0.785, 0.0975, 0.8825, 0.1975, 0.98, 0.295, 1.0775, 0.3925, 1.175, 0.49, 1.275, 0.5875, 1.3725, 0.685, 0, 0.785, 0.0975, 0.8825, 0.1975, 0.98, 0.295, 1.0775, 0.3925, 1.175, 0.49, 1.275, 0.5875, 1.3725, 0.685],
  "SoftwareVersions": "syngo MR E11",
  "SpacingBetweenSlices": 2,
  "StationName": "MRC35049",
  "TaskName": "mario3",
  "TotalReadoutTime": 0.0576811,
  "TxRefAmp": 210.273,
  "WipMemBlock": "b50a4c5c-798e-4658-b091-b24b5228d6d9||Sequence: R017 ve11c/master r/75a17815+; Jun 28 2022 16:32:11 by eja",
  "dcmmeta_affine": [
    [-1.9995251893997192, -0.021637914702296257, 0.037828098982572556, 109.3109130859375],
    [-0.030790885910391808, 1.930005431175232, -0.5235753655433655, -72.09054565429688],
    [0.030839677900075912, 0.5240334272384644, 1.9298803806304932, -49.31401062011719],
    [0.0, 0.0, 0.0, 1.0]
],
  "dcmmeta_reorient_transform": [
    [0.0, -1.0, 0.0, 103.0],
    [1.0, 0.0, 0.0, 0.0],
    [0.0, 0.0, 1.0, 0.0],
    [0.0, 0.0, 0.0, 1.0]
],
  "dcmmeta_shape": [104, 104, 60, 168],
  "dcmmeta_slice_dim": 2,
  "dcmmeta_version": 0.6,
  "global": {
    "const": {
      "AcquisitionMatrix": [104, 0, 0, 104],
      "AngioFlag": "N",
      "BitsAllocated": 16,
      "BitsStored": 16,
      "BodyPartExamined": "BRAIN",
      "Columns": 832,
      "EchoNumbers": 1,
      "EchoTime": 37.0,
      "EchoTrainLength": 104,
      "FlipAngle": 52.0,
      "HighBit": 15,
      "ImageOrientationPatient": [0.99976257626672, 0.01539544265239, 0.01541983923602, -0.010818956924, 0.96500269390623, -0.262016699706],
      "ImagePositionPatient": [-827.03316126235, -840.42985130134, 184.18394397485],
      "ImageType": [
        "ORIGINAL",
        "PRIMARY",
        "M",
        "MB",
        "ND",
        "MOSAIC"
],
      "ImagedNucleus": "1H",
      "ImagingFrequency": 123.258776,
      "InPlanePhaseEncodingDirection": "COL",
      "MRAcquisitionType": "2D",
      "MagneticFieldStrength": 3.0,
      "Manufacturer": "SIEMENS",
      "ManufacturerModelName": "Prisma_fit",
      "Modality": "MR",
      "NumberOfAverages": 1.0,
      "NumberOfPhaseEncodingSteps": 104,
      "PercentPhaseFieldOfView": 100.0,
      "PercentSampling": 100.0,
      "PerformedProcedureStepStartTime": "134620.923000",
      "PhotometricInterpretation": "MONOCHROME2",
      "PixelBandwidth": 2290.0,
      "PixelRepresentation": 0,
      "PixelSpacing": [2.0, 2.0],
      "ProtocolName": "func_task-mario3_run-03",
      "RepetitionTime": 1490.0,
      "Rows": 832,
      "SAR": 0.03961025241121,
      "SamplesPerPixel": 1,
      "ScanOptions": "FS",
      "ScanningSequence": "EP",
      "SequenceName": "epfid2d1_104",
      "SequenceVariant": [
        "SK",
        "SS"
],
      "SeriesDescription": "func_task-mario3_run-03",
      "SeriesNumber": 24,
      "SeriesTime": "141945.352000",
      "SliceLocation": -26.645140467936,
      "SliceThickness": 2.0,
      "SmallestImagePixelValue": 0,
      "SoftwareVersions": "syngo MR E11",
      "SpacingBetweenSlices": 2.0000000523398,
      "SpecificCharacterSet": "ISO_IR 100",
      "StudyID": "1",
      "StudyTime": "134620.855000",
      "TransmitCoilName": "Body",
      "VariableFlipAngleFlag": "N",
      "WindowCenterWidthExplanation": "Algo1",
      "dBdt": 0.0},
    "slices": {}
  },
  "time": {
    "samples": {
      "AcquisitionNumber": [1, 2, 3, 4, 5, 6, 7, 8, 9, 10, 11, 12, 13, 14, 15, 16, 17, 18, 19, 20, 21, 22, 23, 24, 25, 26, 27, 28, 29, 30, 31, 32, 33, 34, 35, 36, 37, 38, 39, 40, 41, 42, 43, 44, 45, 46, 47, 48, 49, 50, 51, 52, 53, 54, 55, 56, 57, 58, 59, 60, 61, 62, 63, 64, 65, 66, 67, 68, 69, 70, 71, 72, 73, 74, 75, 76, 77, 78, 79, 80, 81, 82, 83, 84, 85, 86, 87, 88, 89, 90, 91, 92, 93, 94, 95, 96, 97, 98, 99, 100, 101, 102, 103, 104, 105, 106, 107, 108, 109, 110, 111, 112, 113, 114, 115, 116, 117, 118, 119, 120, 121, 122, 123, 124, 125, 126, 127, 128, 129, 130, 131, 132, 133, 134, 135, 136, 137, 138, 139, 140, 141, 142, 143, 144, 145, 146, 147, 148, 149, 150, 151, 152, 153, 154, 155, 156, 157, 158, 159, 160, 161, 162, 163, 164, 165, 166, 167, 168],
      "AcquisitionTime": ["141834.737500", "141836.227500", "141837.717500", "141839.207500", "141840.697500", "141842.187500", "141843.677500", "141845.167500", "141846.657500", "141848.147500", "141849.637500", "141851.127500", "141852.617500", "141854.107500", "141855.597500", "141857.087500", "141858.577500", "141900.067500", "141901.557500", "141903.047500", "141904.537500", "141906.027500", "141907.517500", "141909.007500", "141910.497500", "141911.987500", "141913.477500", "141914.967500", "141916.457500", "141917.947500", "141919.437500", "141920.927500", "141922.417500", "141923.907500", "141925.397500", "141926.887500", "141928.377500", "141929.867500", "141931.357500", "141932.847500", "141934.337500", "141935.827500", "141937.317500", "141938.807500", "141940.297500", "141941.787500", "141943.277500", "141944.767500", "141946.257500", "141947.747500", "141949.237500", "141950.727500", "141952.217500", "141953.707500", "141955.197500", "141956.687500", "141958.177500", "141959.667500", "142001.157500", "142002.647500", "142004.137500", "142005.627500", "142007.117500", "142008.607500", "142010.097500", "142011.587500", "142013.077500", "142014.567500", "142016.057500", "142017.547500", "142019.037500", "142020.527500", "142022.017500", "142023.507500", "142024.997500", "142026.487500", "142027.977500", "142029.467500", "142030.957500", "142032.447500", "142033.937500", "142035.427500", "142036.917500", "142038.407500", "142039.897500", "142041.387500", "142042.877500", "142044.367500", "142045.857500", "142047.347500", "142048.837500", "142050.327500", "142051.817500", "142053.307500", "142054.797500", "142056.287500", "142057.777500", "142059.267500", "142100.757500", "142102.247500", "142103.737500", "142105.227500", "142106.717500", "142108.207500", "142109.697500", "142111.187500", "142112.677500", "142114.167500", "142115.657500", "142117.147500", "142118.637500", "142120.127500", "142121.617500", "142123.107500", "142124.597500", "142126.087500", "142127.577500", "142129.067500", "142130.557500", "142132.047500", "142133.537500", "142135.027500", "142136.517500", "142138.007500", "142139.497500", "142140.987500", "142142.477500", "142143.967500", "142145.457500", "142146.947500", "142148.437500", "142149.927500", "142151.417500", "142152.907500", "142154.397500", "142155.887500", "142157.377500", "142158.867500", "142200.357500", "142201.847500", "142203.337500", "142204.827500", "142206.317500", "142207.807500", "142209.297500", "142210.787500", "142212.277500", "142213.767500", "142215.257500", "142216.747500", "142218.237500", "142219.727500", "142221.217500", "142222.707500", "142224.197500", "142225.687500", "142227.177500", "142228.667500", "142230.157500", "142231.647500", "142233.137500", "142234.627500", "142236.117500", "142237.607500", "142239.097500", "142240.587500", "142242.077500", "142243.567500"],
      "ContentTime": ["141945.355000", "141945.358000", "141945.362000", "141945.365000", "141945.380000", "141945.384000", "141945.387000", "141945.390000", "141945.394000", "141945.397000", "141945.400000", "141945.403000", "141945.407000", "141945.410000", "141945.413000", "141945.416000", "141945.420000", "141945.423000", "141945.426000", "141945.429000", "141945.433000", "142005.315000", "142005.318000", "142005.322000", "142005.325000", "142005.337000", "142005.340000", "142005.343000", "142005.347000", "142005.350000", "142005.353000", "142005.356000", "142005.360000", "142005.363000", "142005.366000", "142005.370000", "142005.373000", "142005.376000", "142005.379000", "142005.383000", "142005.386000", "142025.314000", "142025.318000", "142025.321000", "142025.324000", "142025.327000", "142025.331000", "142025.334000", "142025.337000", "142025.340000", "142025.344000", "142025.347000", "142025.350000", "142025.354000", "142025.357000", "142025.360000", "142025.364000", "142025.367000", "142025.370000", "142025.373000", "142025.377000", "142025.380000", "142045.314000", "142045.318000", "142045.321000", "142045.324000", "142045.328000", "142045.331000", "142045.334000", "142045.337000", "142045.341000", "142045.344000", "142045.347000", "142045.351000", "142045.354000", "142045.357000", "142045.365000", "142045.368000", "142045.371000", "142045.374000", "142045.378000", "142045.381000", "142125.314000", "142125.318000", "142125.321000", "142125.325000", "142125.328000", "142125.331000", "142125.335000", "142125.338000", "142125.342000", "142125.346000", "142125.350000", "142125.353000", "142125.357000", "142125.360000", "142125.364000", "142125.367000", "142125.370000", "142125.373000", "142125.377000", "142125.380000", "142125.383000", "142125.386000", "142125.390000", "142125.393000", "142125.396000", "142125.400000", "142125.403000", "142125.406000", "142125.409000", "142125.413000", "142125.416000", "142205.314000", "142205.318000", "142205.321000", "142205.324000", "142205.328000", "142205.331000", "142205.334000", "142205.338000", "142205.341000", "142205.344000", "142205.348000", "142205.351000", "142205.354000", "142205.357000", "142205.361000", "142205.364000", "142205.367000", "142205.386000", "142205.407000", "142205.410000", "142205.413000", "142205.417000", "142205.420000", "142205.423000", "142205.427000", "142205.430000", "142205.434000", "142245.314000", "142245.318000", "142245.321000", "142245.334000", "142245.337000", "142245.341000", "142245.344000", "142245.347000", "142245.351000", "142245.354000", "142245.357000", "142245.360000", "142245.364000", "142245.367000", "142245.370000", "142245.374000", "142245.377000", "142245.380000", "142245.384000", "142245.387000", "142245.390000", "142245.393000", "142245.397000", "142245.400000", "142245.403000", "142245.407000", "142245.410000", "142246.026000"],
      "InstanceCreationTime": ["141945.355000", "141945.358000", "141945.362000", "141945.365000", "141945.380000", "141945.384000", "141945.387000", "141945.390000", "141945.394000", "141945.397000", "141945.400000", "141945.403000", "141945.407000", "141945.410000", "141945.413000", "141945.416000", "141945.420000", "141945.423000", "141945.426000", "141945.429000", "141945.433000", "142005.315000", "142005.318000", "142005.322000", "142005.325000", "142005.337000", "142005.340000", "142005.343000", "142005.347000", "142005.350000", "142005.353000", "142005.356000", "142005.360000", "142005.363000", "142005.366000", "142005.370000", "142005.373000", "142005.376000", "142005.379000", "142005.383000", "142005.386000", "142025.314000", "142025.318000", "142025.321000", "142025.324000", "142025.327000", "142025.331000", "142025.334000", "142025.337000", "142025.340000", "142025.344000", "142025.347000", "142025.350000", "142025.354000", "142025.357000", "142025.360000", "142025.364000", "142025.367000", "142025.370000", "142025.373000", "142025.377000", "142025.380000", "142045.314000", "142045.318000", "142045.321000", "142045.324000", "142045.328000", "142045.331000", "142045.334000", "142045.337000", "142045.341000", "142045.344000", "142045.347000", "142045.351000", "142045.354000", "142045.357000", "142045.365000", "142045.368000", "142045.371000", "142045.374000", "142045.378000", "142045.381000", "142125.314000", "142125.318000", "142125.321000", "142125.325000", "142125.328000", "142125.331000", "142125.335000", "142125.338000", "142125.342000", "142125.346000", "142125.350000", "142125.353000", "142125.357000", "142125.360000", "142125.364000", "142125.367000", "142125.370000", "142125.373000", "142125.377000", "142125.380000", "142125.383000", "142125.386000", "142125.390000", "142125.393000", "142125.396000", "142125.400000", "142125.403000", "142125.406000", "142125.409000", "142125.413000", "142125.416000", "142205.314000", "142205.318000", "142205.321000", "142205.324000", "142205.328000", "142205.331000", "142205.334000", "142205.338000", "142205.341000", "142205.344000", "142205.348000", "142205.351000", "142205.354000", "142205.357000", "142205.361000", "142205.364000", "142205.367000", "142205.386000", "142205.407000", "142205.410000", "142205.413000", "142205.417000", "142205.420000", "142205.423000", "142205.427000", "142205.430000", "142205.434000", "142245.314000", "142245.318000", "142245.321000", "142245.334000", "142245.337000", "142245.341000", "142245.344000", "142245.347000", "142245.351000", "142245.354000", "142245.357000", "142245.360000", "142245.364000", "142245.367000", "142245.370000", "142245.374000", "142245.377000", "142245.380000", "142245.384000", "142245.387000", "142245.390000", "142245.393000", "142245.397000", "142245.400000", "142245.403000", "142245.407000", "142245.410000", "142246.026000"],
      "InstanceNumber": [1, 2, 3, 4, 5, 6, 7, 8, 9, 10, 11, 12, 13, 14, 15, 16, 17, 18, 19, 20, 21, 22, 23, 24, 25, 26, 27, 28, 29, 30, 31, 32, 33, 34, 35, 36, 37, 38, 39, 40, 41, 42, 43, 44, 45, 46, 47, 48, 49, 50, 51, 52, 53, 54, 55, 56, 57, 58, 59, 60, 61, 62, 63, 64, 65, 66, 67, 68, 69, 70, 71, 72, 73, 74, 75, 76, 77, 78, 79, 80, 81, 82, 83, 84, 85, 86, 87, 88, 89, 90, 91, 92, 93, 94, 95, 96, 97, 98, 99, 100, 101, 102, 103, 104, 105, 106, 107, 108, 109, 110, 111, 112, 113, 114, 115, 116, 117, 118, 119, 120, 121, 122, 123, 124, 125, 126, 127, 128, 129, 130, 131, 132, 133, 134, 135, 136, 137, 138, 139, 140, 141, 142, 143, 144, 145, 146, 147, 148, 149, 150, 151, 152, 153, 154, 155, 156, 157, 158, 159, 160, 161, 162, 163, 164, 165, 166, 167, 168],
      "LargestImagePixelValue": [41936, 40818, 39816, 39412, 39106, 38993, 38767, 38551, 38943, 38529, 38887, 38628, 38684, 38817, 38205, 38516, 38291, 38467, 38240, 39054, 39301, 39140, 39677, 39109, 39361, 39080, 40246, 39570, 39667, 39027, 39302, 39012, 38781, 39220, 39007, 39401, 39259, 39241, 39496, 39408, 38854, 38624, 38802, 38644, 39186, 39044, 38772, 38710, 38784, 39351, 39485, 39546, 39507, 38964, 38791, 38886, 38713, 38822, 38610, 39298, 39307, 39185, 39367, 38916, 39144, 39444, 39229, 38870, 39084, 39013, 39115, 38748, 39259, 39160, 38990, 38547, 38313, 38369, 38382, 38682, 38870, 38768, 38879, 38495, 38722, 38860, 38851, 38693, 38896, 39191, 38977, 39036, 38736, 39777, 39390, 39354, 39228, 39399, 38901, 39270, 38835, 39220, 38898, 38867, 39040, 39183, 38610, 38704, 39124, 39331, 39067, 39050, 39364, 38734, 39645, 39283, 39236, 38826, 39145, 39118, 38867, 38897, 38742, 38909, 38614, 38733, 39171, 38843, 39049, 38057, 38862, 38191, 38164, 38215, 38276, 38801, 38465, 38619, 39704, 39729, 39330, 39805, 39701, 39406, 39520, 39822, 39709, 39757, 40422, 40161, 40056, 40074, 40131, 39605, 39128, 38987, 38730, 38442, 38323, 39050, 38989, 39186, 38898, 39082, 39472, 38904, 38909, 39311],
      "WindowCenter": [10084.0, 10061.0, 10045.0, 10050.0, 10048.0, 10049.0, 10037.0, 10028.0, 10050.0, 10058.0, 10063.0, 10046.0, 10033.0, 10029.0, 10019.0, 9998.0, 9977.0, 9966.0, 9951.0, 9984.0, 9991.0, 9969.0, 9941.0, 9914.0, 9933.0, 9953.0, 9978.0, 10005.0, 10009.0, 10007.0, 10001.0, 9989.0, 9966.0, 9980.0, 9982.0, 9987.0, 9981.0, 9980.0, 9966.0, 10028.0, 10049.0, 10042.0, 10010.0, 10015.0, 10036.0, 10023.0, 10012.0, 9972.0, 9941.0, 9916.0, 9931.0, 9955.0, 9974.0, 10000.0, 10044.0, 10070.0, 10061.0, 10009.0, 9965.0, 9941.0, 9954.0, 9974.0, 9989.0, 9984.0, 9976.0, 9979.0, 9977.0, 9996.0, 10016.0, 10041.0, 10037.0, 10036.0, 10019.0, 10022.0, 10029.0, 10052.0, 10061.0, 10043.0, 10013.0, 9992.0, 9978.0, 9978.0, 10005.0, 10037.0, 10051.0, 10041.0, 10005.0, 9973.0, 9996.0, 10014.0, 10017.0, 10000.0, 9989.0, 10002.0, 10018.0, 10021.0, 10015.0, 10016.0, 10025.0, 10034.0, 10019.0, 10004.0, 9998.0, 9999.0, 9992.0, 10011.0, 10008.0, 9986.0, 9975.0, 9988.0, 10007.0, 10014.0, 10023.0, 10009.0, 10021.0, 10007.0, 9995.0, 9967.0, 9965.0, 9970.0, 9980.0, 9989.0, 10001.0, 10010.0, 9995.0, 9980.0, 9979.0, 9984.0, 9999.0, 9966.0, 10014.0, 9998.0, 9982.0, 9946.0, 9932.0, 9933.0, 9955.0, 9985.0, 10007.0, 10001.0, 9989.0, 9977.0, 9986.0, 10021.0, 10042.0, 10050.0, 10026.0, 10018.0, 10011.0, 10004.0, 10021.0, 10030.0, 10022.0, 10007.0, 9991.0, 9986.0, 9997.0, 10000.0, 10003.0, 10004.0, 9991.0, 9972.0, 9975.0, 9975.0, 9987.0, 10008.0, 10013.0, 9996.0],
      "WindowWidth": [21499.0, 21424.0, 21383.0, 21388.0, 21376.0, 21374.0, 21346.0, 21322.0, 21372.0, 21397.0, 21407.0, 21368.0, 21337.0, 21324.0, 21305.0, 21257.0, 21209.0, 21184.0, 21150.0, 21227.0, 21239.0, 21188.0, 21123.0, 21063.0, 21104.0, 21156.0, 21212.0, 21271.0, 21277.0, 21276.0, 21261.0, 21235.0, 21182.0, 21213.0, 21219.0, 21230.0, 21217.0, 21216.0, 21187.0, 21326.0, 21373.0, 21356.0, 21285.0, 21289.0, 21338.0, 21309.0, 21286.0, 21194.0, 21122.0, 21061.0, 21096.0, 21154.0, 21198.0, 21259.0, 21360.0, 21420.0, 21406.0, 21282.0, 21181.0, 21123.0, 21151.0, 21204.0, 21236.0, 21224.0, 21205.0, 21213.0, 21211.0, 21254.0, 21297.0, 21354.0, 21345.0, 21342.0, 21304.0, 21311.0, 21323.0, 21379.0, 21404.0, 21359.0, 21289.0, 21241.0, 21210.0, 21210.0, 21267.0, 21341.0, 21376.0, 21352.0, 21272.0, 21197.0, 21246.0, 21289.0, 21299.0, 21256.0, 21234.0, 21260.0, 21295.0, 21306.0, 21292.0, 21290.0, 21315.0, 21334.0, 21306.0, 21267.0, 21250.0, 21252.0, 21233.0, 21286.0, 21277.0, 21223.0, 21198.0, 21227.0, 21271.0, 21291.0, 21311.0, 21280.0, 21302.0, 21274.0, 21247.0, 21185.0, 21176.0, 21187.0, 21211.0, 21231.0, 21256.0, 21280.0, 21249.0, 21212.0, 21206.0, 21220.0, 21254.0, 21185.0, 21299.0, 21260.0, 21222.0, 21138.0, 21104.0, 21108.0, 21157.0, 21225.0, 21268.0, 21258.0, 21233.0, 21200.0, 21222.0, 21306.0, 21355.0, 21374.0, 21318.0, 21296.0, 21278.0, 21261.0, 21304.0, 21322.0, 21306.0, 21271.0, 21237.0, 21224.0, 21248.0, 21259.0, 21264.0, 21269.0, 21234.0, 21192.0, 21195.0, 21199.0, 21228.0, 21274.0, 21287.0, 21245.0]
    },
    "slices": {}
  }
}