{
  "AcquisitionMatrixPE": 104,
  "AcquisitionNumber": 1,
  "AcquisitionTime": "14:25:27.450000",
  "BandwidthPerPixelPhaseEncode": 17.17,
  "BaseResolution": 104,
  "BodyPartExamined": "BRAIN",
  "CoilCombinationMethod": "Sum of Squares",
  "ConsistencyInfo": "N4_VE11C_LATEST_20160120",
  "ConversionSoftware": "dcm2niix",
  "ConversionSoftwareVersion": "v1.0.20220505",
  "DerivedVendorReportedEchoSpacing": 0.000560011,
  "DeviceSerialNumber": "167006",
  "DwellTime": 2.1e-06,
  "EchoTime": 0.037,
  "EchoTime1": 0.037,
  "EchoTime2": 0.001,
  "EchoTrainLength": 104,
  "EffectiveEchoSpacing": 0.000560011,
  "FlipAngle": 52,
  "HeudiconvVersion": "0.5.3.post811+g6206e14",
  "ImageComments": "Unaliased MB4/PE3/LB",
  "ImageOrientationPatientDICOM": [0.999763, 0.0153954, 0.0154198, -0.010819, 0.965003, -0.262017],
  "ImageOrientationText": "Tra>Cor(-15.2)>Sag(1.1)",
  "ImageType": [
    "ORIGINAL",
    "PRIMARY",
    "P",
    "MB",
    "ND",
    "MOSAIC",
    "PHASE"
],
  "ImagingFrequency": 123.259,
  "InPlanePhaseEncodingDirectionDICOM": "COL",
  "InstitutionAddress": "Chemin Queen-Mary 4565,Montreal,District,CA,H3W 1W5",
  "InstitutionName": "IUGM",
  "InstitutionalDepartmentName": "Department",
  "MRAcquisitionType": "2D",
  "MagneticFieldStrength": 3,
  "Manufacturer": "Siemens",
  "ManufacturersModelName": "Prisma_fit",
  "MatrixCoilMode": "SENSE",
  "Modality": "MR",
  "MultibandAccelerationFactor": 4,
  "PartialFourier": 1,
  "PatientPosition": "HFS",
  "PercentPhaseFOV": 100,
  "PercentSampling": 100,
  "PhaseEncodingDirection": "j",
  "PhaseEncodingSteps": 104,
  "PhaseResolution": 1,
  "PixelBandwidth": 2290,
  "ProcedureStepDescription": "games^mario3",
  "ProtocolName": "func_task-mario3_run-03",
  "PulseSequenceDetails": "%CustomerSeq%\\cmrr_mbep2d_bold",
  "ReceiveCoilActiveElements": "HC1-7;NC1,2",
  "ReceiveCoilName": "HeadNeck_64",
  "ReconMatrixPE": 104,
  "RepetitionTime": 1.49,
  "SAR": 0.0396103,
  "ScanOptions": "FS",
  "ScanningSequence": "EP",
  "SequenceName": "epfid2d1_104",
  "SequenceVariant": "SK\\SS",
  "SeriesDescription": "func_task-mario3_run-03",
  "SeriesNumber": 28,
  "ShimSetting": [641, -7223, -8735, 708, 70, -18, 50, -13],
  "SliceThickness": 2,
  "SliceTiming": [0, 0.785, 0.0975, 0.8825, 0.1975, 0.98, 0.295, 1.0775, 0.3925, 1.175, 0.49, 1.275, 0.5875, 1.3725, 0.6875, 0, 0.785, 0.0975, 0.8825, 0.1975, 0.98, 0.295, 1.0775, 0.3925, 1.175, 0.49, 1.275, 0.5875, 1.3725, 0.6875, 0, 0.785, 0.0975, 0.8825, 0.1975, 0.98, 0.295, 1.0775, 0.3925, 1.175, 0.49, 1.275, 0.5875, 1.3725, 0.6875, 0, 0.785, 0.0975, 0.8825, 0.1975, 0.98, 0.295, 1.0775, 0.3925, 1.175, 0.49, 1.275, 0.5875, 1.3725, 0.6875],
  "SoftwareVersions": "syngo MR E11",
  "SpacingBetweenSlices": 2,
  "StationName": "MRC35049",
  "TaskName": "mario3",
  "TotalReadoutTime": 0.0576811,
  "TxRefAmp": 210.273,
  "WipMemBlock": "b5159d50-2533-417b-9371-f31fa3018fc3||Sequence: R017 ve11c/master r/75a17815+; Jun 28 2022 16:32:11 by eja",
  "dcmmeta_affine": [
    [-1.9995251893997192, -0.021637914702296257, 0.037828098982572556, 109.3109130859375],
    [-0.030790885910391808, 1.930005431175232, -0.5235753655433655, -72.09054565429688],
    [0.030839677900075912, 0.5240334272384644, 1.9298803806304932, -49.31401062011719],
    [0.0, 0.0, 0.0, 1.0]
],
  "dcmmeta_reorient_transform": [
    [0.0, -1.0, 0.0, 103.0],
    [1.0, 0.0, 0.0, 0.0],
    [0.0, 0.0, 1.0, 0.0],
    [0.0, 0.0, 0.0, 1.0]
],
  "dcmmeta_shape": [104, 104, 60, 305],
  "dcmmeta_slice_dim": 2,
  "dcmmeta_version": 0.6,
  "global": {
    "const": {
      "AcquisitionMatrix": [104, 0, 0, 104],
      "AngioFlag": "N",
      "BitsAllocated": 16,
      "BitsStored": 16,
      "BodyPartExamined": "BRAIN",
      "Columns": 832,
      "EchoNumbers": 1,
      "EchoTime": 37.0,
      "EchoTrainLength": 104,
      "FlipAngle": 52.0,
      "HighBit": 15,
      "ImageOrientationPatient": [0.99976257626672, 0.01539544265239, 0.01541983923602, -0.010818956924, 0.96500269390623, -0.262016699706],
      "ImagePositionPatient": [-827.03316126235, -840.42985130134, 184.18394397485],
      "ImageType": [
        "ORIGINAL",
        "PRIMARY",
        "P",
        "MB",
        "ND",
        "MOSAIC"
],
      "ImagedNucleus": "1H",
      "ImagingFrequency": 123.258776,
      "InPlanePhaseEncodingDirection": "COL",
      "LargestImagePixelValue": 4095,
      "MRAcquisitionType": "2D",
      "MagneticFieldStrength": 3.0,
      "Manufacturer": "SIEMENS",
      "ManufacturerModelName": "Prisma_fit",
      "Modality": "MR",
      "NumberOfAverages": 1.0,
      "NumberOfPhaseEncodingSteps": 104,
      "PercentPhaseFieldOfView": 100.0,
      "PercentSampling": 100.0,
      "PerformedProcedureStepStartTime": "134620.923000",
      "PhotometricInterpretation": "MONOCHROME2",
      "PixelBandwidth": 2290.0,
      "PixelRepresentation": 0,
      "PixelSpacing": [2.0, 2.0],
      "ProtocolName": "func_task-mario3_run-03",
      "RepetitionTime": 1490.0,
      "RescaleIntercept": -4096.0,
      "RescaleSlope": 2.0,
      "RescaleType": "US",
      "Rows": 832,
      "SAR": 0.03961025241121,
      "SamplesPerPixel": 1,
      "ScanOptions": "FS",
      "ScanningSequence": "EP",
      "SequenceName": "epfid2d1_104",
      "SequenceVariant": [
        "SK",
        "SS"
],
      "SeriesDescription": "func_task-mario3_run-03",
      "SeriesNumber": 28,
      "SeriesTime": "142649.668000",
      "SliceLocation": -26.645140467936,
      "SliceThickness": 2.0,
      "SmallestImagePixelValue": 0,
      "SoftwareVersions": "syngo MR E11",
      "SpacingBetweenSlices": 2.0000000523398,
      "SpecificCharacterSet": "ISO_IR 100",
      "StudyID": "1",
      "StudyTime": "134620.855000",
      "TransmitCoilName": "Body",
      "VariableFlipAngleFlag": "N",
      "WindowCenterWidthExplanation": "Algo1",
      "dBdt": 0.0},
    "slices": {}
  },
  "time": {
    "samples": {
      "AcquisitionNumber": [1, 2, 3, 4, 5, 6, 7, 8, 9, 10, 11, 12, 13, 14, 15, 16, 17, 18, 19, 20, 21, 22, 23, 24, 25, 26, 27, 28, 29, 30, 31, 32, 33, 34, 35, 36, 37, 38, 39, 40, 41, 42, 43, 44, 45, 46, 47, 48, 49, 50, 51, 52, 53, 54, 55, 56, 57, 58, 59, 60, 61, 62, 63, 64, 65, 66, 67, 68, 69, 70, 71, 72, 73, 74, 75, 76, 77, 78, 79, 80, 81, 82, 83, 84, 85, 86, 87, 88, 89, 90, 91, 92, 93, 94, 95, 96, 97, 98, 99, 100, 101, 102, 103, 104, 105, 106, 107, 108, 109, 110, 111, 112, 113, 114, 115, 116, 117, 118, 119, 120, 121, 122, 123, 124, 125, 126, 127, 128, 129, 130, 131, 132, 133, 134, 135, 136, 137, 138, 139, 140, 141, 142, 143, 144, 145, 146, 147, 148, 149, 150, 151, 152, 153, 154, 155, 156, 157, 158, 159, 160, 161, 162, 163, 164, 165, 166, 167, 168, 169, 170, 171, 172, 173, 174, 175, 176, 177, 178, 179, 180, 181, 182, 183, 184, 185, 186, 187, 188, 189, 190, 191, 192, 193, 194, 195, 196, 197, 198, 199, 200, 201, 202, 203, 204, 205, 206, 207, 208, 209, 210, 211, 212, 213, 214, 215, 216, 217, 218, 219, 220, 221, 222, 223, 224, 225, 226, 227, 228, 229, 230, 231, 232, 233, 234, 235, 236, 237, 238, 239, 240, 241, 242, 243, 244, 245, 246, 247, 248, 249, 250, 251, 252, 253, 254, 255, 256, 257, 258, 259, 260, 261, 262, 263, 264, 265, 266, 267, 268, 269, 270, 271, 272, 273, 274, 275, 276, 277, 278, 279, 280, 281, 282, 283, 284, 285, 286, 287, 288, 289, 290, 291, 292, 293, 294, 295, 296, 297, 298, 299, 300, 301, 302, 303, 304, 305],
      "AcquisitionTime": ["142527.450000", "142528.940000", "142530.430000", "142531.920000", "142533.410000", "142534.900000", "142536.390000", "142537.880000", "142539.370000", "142540.860000", "142542.350000", "142543.840000", "142545.330000", "142546.820000", "142548.310000", "142549.800000", "142551.290000", "142552.780000", "142554.270000", "142555.760000", "142557.250000", "142558.740000", "142600.230000", "142601.720000", "142603.210000", "142604.700000", "142606.190000", "142607.680000", "142609.170000", "142610.660000", "142612.150000", "142613.640000", "142615.130000", "142616.620000", "142618.110000", "142619.600000", "142621.090000", "142622.580000", "142624.070000", "142625.560000", "142627.050000", "142628.540000", "142630.030000", "142631.520000", "142633.010000", "142634.500000", "142635.990000", "142637.480000", "142638.970000", "142640.460000", "142641.950000", "142643.440000", "142644.930000", "142646.420000", "142647.910000", "142649.400000", "142650.890000", "142652.380000", "142653.870000", "142655.360000", "142656.850000", "142658.340000", "142659.830000", "142701.320000", "142702.810000", "142704.300000", "142705.790000", "142707.280000", "142708.770000", "142710.260000", "142711.750000", "142713.240000", "142714.730000", "142716.220000", "142717.710000", "142719.200000", "142720.690000", "142722.180000", "142723.670000", "142725.160000", "142726.650000", "142728.140000", "142729.630000", "142731.120000", "142732.610000", "142734.100000", "142735.590000", "142737.080000", "142738.570000", "142740.060000", "142741.550000", "142743.040000", "142744.530000", "142746.020000", "142747.510000", "142749.000000", "142750.490000", "142751.980000", "142753.470000", "142754.960000", "142756.450000", "142757.940000", "142759.430000", "142800.920000", "142802.410000", "142803.900000", "142805.390000", "142806.880000", "142808.370000", "142809.860000", "142811.350000", "142812.840000", "142814.330000", "142815.820000", "142817.310000", "142818.800000", "142820.290000", "142821.780000", "142823.270000", "142824.760000", "142826.250000", "142827.740000", "142829.230000", "142830.720000", "142832.210000", "142833.700000", "142835.190000", "142836.680000", "142838.170000", "142839.660000", "142841.150000", "142842.640000", "142844.130000", "142845.620000", "142847.110000", "142848.600000", "142850.090000", "142851.580000", "142853.070000", "142854.560000", "142856.050000", "142857.540000", "142859.030000", "142900.520000", "142902.010000", "142903.500000", "142904.990000", "142906.480000", "142907.970000", "142909.460000", "142910.950000", "142912.440000", "142913.930000", "142915.420000", "142916.910000", "142918.400000", "142919.890000", "142921.380000", "142922.870000", "142924.360000", "142925.850000", "142927.340000", "142928.830000", "142930.320000", "142931.810000", "142933.300000", "142934.790000", "142936.280000", "142937.770000", "142939.260000", "142940.750000", "142942.240000", "142943.730000", "142945.220000", "142946.710000", "142948.200000", "142949.690000", "142951.180000", "142952.670000", "142954.160000", "142955.650000", "142957.140000", "142958.630000", "143000.120000", "143001.610000", "143003.100000", "143004.590000", "143006.080000", "143007.570000", "143009.060000", "143010.550000", "143012.040000", "143013.530000", "143015.020000", "143016.510000", "143018.000000", "143019.490000", "143020.980000", "143022.470000", "143023.960000", "143025.450000", "143026.940000", "143028.430000", "143029.920000", "143031.410000", "143032.900000", "143034.390000", "143035.880000", "143037.370000", "143038.860000", "143040.350000", "143041.840000", "143043.330000", "143044.820000", "143046.310000", "143047.800000", "143049.290000", "143050.780000", "143052.270000", "143053.760000", "143055.250000", "143056.740000", "143058.230000", "143059.720000", "143101.210000", "143102.700000", "143104.190000", "143105.680000", "143107.170000", "143108.660000", "143110.150000", "143111.640000", "143113.130000", "143114.620000", "143116.110000", "143117.600000", "143119.090000", "143120.580000", "143122.070000", "143123.560000", "143125.050000", "143126.540000", "143128.030000", "143129.520000", "143131.010000", "143132.500000", "143133.990000", "143135.480000", "143136.970000", "143138.460000", "143139.950000", "143141.440000", "143142.930000", "143144.420000", "143145.910000", "143147.400000", "143148.890000", "143150.380000", "143151.870000", "143153.360000", "143154.850000", "143156.340000", "143157.830000", "143159.320000", "143200.810000", "143202.300000", "143203.790000", "143205.280000", "143206.770000", "143208.260000", "143209.750000", "143211.240000", "143212.730000", "143214.220000", "143215.710000", "143217.200000", "143218.690000", "143220.180000", "143221.670000", "143223.160000", "143224.650000", "143226.140000", "143227.630000", "143229.120000", "143230.610000", "143232.100000", "143233.590000", "143235.080000", "143236.570000", "143238.060000", "143239.550000", "143241.040000", "143242.530000", "143244.020000", "143245.510000", "143247.000000", "143248.490000", "143249.980000", "143251.470000", "143252.960000", "143254.450000", "143255.940000", "143257.430000", "143258.920000", "143300.410000"],
      "ContentTime": ["142649.670000", "142649.673000", "142649.675000", "142649.678000", "142649.680000", "142649.683000", "142649.685000", "142649.688000", "142649.690000", "142649.694000", "142649.696000", "142649.699000", "142649.701000", "142649.704000", "142649.706000", "142649.709000", "142649.711000", "142649.714000", "142649.716000", "142649.718000", "142649.721000", "142649.723000", "142649.732000", "142649.735000", "142649.737000", "142649.740000", "142649.742000", "142649.745000", "142649.747000", "142649.750000", "142649.752000", "142649.755000", "142649.757000", "142649.760000", "142709.587000", "142709.590000", "142709.593000", "142709.595000", "142709.597000", "142709.600000", "142709.602000", "142709.605000", "142709.607000", "142709.610000", "142709.612000", "142709.615000", "142709.621000", "142709.624000", "142709.626000", "142709.628000", "142709.631000", "142709.633000", "142709.639000", "142709.642000", "142729.592000", "142729.594000", "142729.597000", "142729.599000", "142729.602000", "142729.604000", "142729.607000", "142729.610000", "142729.612000", "142729.614000", "142729.617000", "142729.619000", "142729.622000", "142729.624000", "142729.627000", "142729.629000", "142729.632000", "142729.634000", "142729.637000", "142729.639000", "142749.602000", "142749.605000", "142749.608000", "142749.610000", "142749.613000", "142749.615000", "142749.618000", "142749.620000", "142749.623000", "142749.625000", "142749.628000", "142749.630000", "142749.633000", "142749.635000", "142749.638000", "142749.640000", "142749.643000", "142749.645000", "142749.648000", "142749.650000", "142829.626000", "142829.629000", "142829.631000", "142829.634000", "142829.636000", "142829.639000", "142829.641000", "142829.644000", "142829.647000", "142829.649000", "142829.652000", "142829.654000", "142829.657000", "142829.660000", "142829.662000", "142829.665000", "142829.668000", "142829.670000", "142829.673000", "142829.675000", "142829.678000", "142829.694000", "142829.696000", "142829.699000", "142829.701000", "142829.704000", "142829.706000", "142909.623000", "142909.626000", "142909.628000", "142909.631000", "142909.633000", "142909.636000", "142909.638000", "142909.641000", "142909.643000", "142909.646000", "142909.648000", "142909.651000", "142909.653000", "142909.655000", "142909.658000", "142909.660000", "142909.663000", "142909.665000", "142909.668000", "142909.670000", "142909.673000", "142909.675000", "142909.678000", "142909.680000", "142909.683000", "142909.685000", "142909.688000", "142949.613000", "142949.616000", "142949.618000", "142949.621000", "142949.623000", "142949.626000", "142949.628000", "142949.631000", "142949.633000", "142949.636000", "142949.638000", "142949.641000", "142949.643000", "142949.646000", "142949.648000", "142949.651000", "142949.653000", "142949.656000", "142949.658000", "142949.661000", "142949.663000", "142949.666000", "142949.668000", "142949.671000", "142949.673000", "142949.676000", "142949.678000", "143029.610000", "143029.613000", "143029.615000", "143029.618000", "143029.621000", "143029.623000", "143029.626000", "143029.628000", "143029.631000", "143029.633000", "143029.636000", "143029.638000", "143029.641000", "143029.643000", "143029.645000", "143029.648000", "143029.651000", "143029.653000", "143029.656000", "143029.658000", "143029.661000", "143029.663000", "143029.666000", "143029.668000", "143029.671000", "143029.673000", "143029.675000", "143109.629000", "143109.632000", "143109.635000", "143109.637000", "143109.640000", "143109.642000", "143109.645000", "143109.647000", "143109.650000", "143109.653000", "143109.655000", "143109.657000", "143109.660000", "143109.662000", "143109.665000", "143109.667000", "143109.670000", "143109.672000", "143109.675000", "143109.677000", "143109.680000", "143109.682000", "143109.685000", "143109.687000", "143109.690000", "143109.692000", "143109.695000", "143149.631000", "143149.634000", "143149.637000", "143149.639000", "143149.642000", "143149.644000", "143149.647000", "143149.649000", "143149.652000", "143149.654000", "143149.657000", "143149.659000", "143149.662000", "143149.664000", "143149.667000", "143149.669000", "143149.672000", "143149.674000", "143149.677000", "143149.679000", "143149.682000", "143149.684000", "143149.686000", "143149.689000", "143149.691000", "143149.694000", "143149.696000", "143229.611000", "143229.613000", "143229.616000", "143229.618000", "143229.621000", "143229.623000", "143229.626000", "143229.628000", "143229.631000", "143229.633000", "143229.636000", "143229.638000", "143229.641000", "143229.643000", "143229.646000", "143229.648000", "143229.651000", "143229.653000", "143229.656000", "143229.658000", "143229.661000", "143229.663000", "143229.666000", "143229.668000", "143229.671000", "143229.673000", "143303.185000", "143303.188000", "143303.190000", "143303.193000", "143303.195000", "143303.198000", "143303.200000", "143303.203000", "143303.205000", "143303.208000", "143303.210000", "143303.213000", "143303.215000", "143303.218000", "143303.220000", "143303.223000", "143303.225000", "143303.228000", "143303.230000", "143303.232000", "143303.235000", "143303.237000", "143303.240000"],
      "InstanceCreationTime": ["142649.670000", "142649.673000", "142649.675000", "142649.678000", "142649.680000", "142649.683000", "142649.685000", "142649.688000", "142649.690000", "142649.694000", "142649.696000", "142649.699000", "142649.701000", "142649.704000", "142649.706000", "142649.709000", "142649.711000", "142649.714000", "142649.716000", "142649.718000", "142649.721000", "142649.723000", "142649.732000", "142649.735000", "142649.737000", "142649.740000", "142649.742000", "142649.745000", "142649.747000", "142649.750000", "142649.752000", "142649.755000", "142649.757000", "142649.760000", "142709.587000", "142709.590000", "142709.593000", "142709.595000", "142709.597000", "142709.600000", "142709.602000", "142709.605000", "142709.607000", "142709.610000", "142709.612000", "142709.615000", "142709.621000", "142709.624000", "142709.626000", "142709.628000", "142709.631000", "142709.633000", "142709.639000", "142709.642000", "142729.592000", "142729.594000", "142729.597000", "142729.599000", "142729.602000", "142729.604000", "142729.607000", "142729.610000", "142729.612000", "142729.614000", "142729.617000", "142729.619000", "142729.622000", "142729.624000", "142729.627000", "142729.629000", "142729.632000", "142729.634000", "142729.637000", "142729.639000", "142749.602000", "142749.605000", "142749.608000", "142749.610000", "142749.613000", "142749.615000", "142749.618000", "142749.620000", "142749.623000", "142749.625000", "142749.628000", "142749.630000", "142749.633000", "142749.635000", "142749.638000", "142749.640000", "142749.643000", "142749.645000", "142749.648000", "142749.650000", "142829.626000", "142829.629000", "142829.631000", "142829.634000", "142829.636000", "142829.639000", "142829.641000", "142829.644000", "142829.647000", "142829.649000", "142829.652000", "142829.654000", "142829.657000", "142829.660000", "142829.662000", "142829.665000", "142829.668000", "142829.670000", "142829.673000", "142829.675000", "142829.678000", "142829.694000", "142829.696000", "142829.699000", "142829.701000", "142829.704000", "142829.706000", "142909.623000", "142909.626000", "142909.628000", "142909.631000", "142909.633000", "142909.636000", "142909.638000", "142909.641000", "142909.643000", "142909.646000", "142909.648000", "142909.651000", "142909.653000", "142909.655000", "142909.658000", "142909.660000", "142909.663000", "142909.665000", "142909.668000", "142909.670000", "142909.673000", "142909.675000", "142909.678000", "142909.680000", "142909.683000", "142909.685000", "142909.688000", "142949.613000", "142949.616000", "142949.618000", "142949.621000", "142949.623000", "142949.626000", "142949.628000", "142949.631000", "142949.633000", "142949.636000", "142949.638000", "142949.641000", "142949.643000", "142949.646000", "142949.648000", "142949.651000", "142949.653000", "142949.656000", "142949.658000", "142949.661000", "142949.663000", "142949.666000", "142949.668000", "142949.671000", "142949.673000", "142949.676000", "142949.678000", "143029.610000", "143029.613000", "143029.615000", "143029.618000", "143029.621000", "143029.623000", "143029.626000", "143029.628000", "143029.631000", "143029.633000", "143029.636000", "143029.638000", "143029.641000", "143029.643000", "143029.645000", "143029.648000", "143029.651000", "143029.653000", "143029.656000", "143029.658000", "143029.661000", "143029.663000", "143029.666000", "143029.668000", "143029.671000", "143029.673000", "143029.675000", "143109.629000", "143109.632000", "143109.635000", "143109.637000", "143109.640000", "143109.642000", "143109.645000", "143109.647000", "143109.650000", "143109.653000", "143109.655000", "143109.657000", "143109.660000", "143109.662000", "143109.665000", "143109.667000", "143109.670000", "143109.672000", "143109.675000", "143109.677000", "143109.680000", "143109.682000", "143109.685000", "143109.687000", "143109.690000", "143109.692000", "143109.695000", "143149.631000", "143149.634000", "143149.637000", "143149.639000", "143149.642000", "143149.644000", "143149.647000", "143149.649000", "143149.652000", "143149.654000", "143149.657000", "143149.659000", "143149.662000", "143149.664000", "143149.667000", "143149.669000", "143149.672000", "143149.674000", "143149.677000", "143149.679000", "143149.682000", "143149.684000", "143149.686000", "143149.689000", "143149.691000", "143149.694000", "143149.696000", "143229.611000", "143229.613000", "143229.616000", "143229.618000", "143229.621000", "143229.623000", "143229.626000", "143229.628000", "143229.631000", "143229.633000", "143229.636000", "143229.638000", "143229.641000", "143229.643000", "143229.646000", "143229.648000", "143229.651000", "143229.653000", "143229.656000", "143229.658000", "143229.661000", "143229.663000", "143229.666000", "143229.668000", "143229.671000", "143229.673000", "143303.185000", "143303.188000", "143303.190000", "143303.193000", "143303.195000", "143303.198000", "143303.200000", "143303.203000", "143303.205000", "143303.208000", "143303.210000", "143303.213000", "143303.215000", "143303.218000", "143303.220000", "143303.223000", "143303.225000", "143303.228000", "143303.230000", "143303.232000", "143303.235000", "143303.237000", "143303.240000"],
      "InstanceNumber": [1, 2, 3, 4, 5, 6, 7, 8, 9, 10, 11, 12, 13, 14, 15, 16, 17, 18, 19, 20, 21, 22, 23, 24, 25, 26, 27, 28, 29, 30, 31, 32, 33, 34, 35, 36, 37, 38, 39, 40, 41, 42, 43, 44, 45, 46, 47, 48, 49, 50, 51, 52, 53, 54, 55, 56, 57, 58, 59, 60, 61, 62, 63, 64, 65, 66, 67, 68, 69, 70, 71, 72, 73, 74, 75, 76, 77, 78, 79, 80, 81, 82, 83, 84, 85, 86, 87, 88, 89, 90, 91, 92, 93, 94, 95, 96, 97, 98, 99, 100, 101, 102, 103, 104, 105, 106, 107, 108, 109, 110, 111, 112, 113, 114, 115, 116, 117, 118, 119, 120, 121, 122, 123, 124, 125, 126, 127, 128, 129, 130, 131, 132, 133, 134, 135, 136, 137, 138, 139, 140, 141, 142, 143, 144, 145, 146, 147, 148, 149, 150, 151, 152, 153, 154, 155, 156, 157, 158, 159, 160, 161, 162, 163, 164, 165, 166, 167, 168, 169, 170, 171, 172, 173, 174, 175, 176, 177, 178, 179, 180, 181, 182, 183, 184, 185, 186, 187, 188, 189, 190, 191, 192, 193, 194, 195, 196, 197, 198, 199, 200, 201, 202, 203, 204, 205, 206, 207, 208, 209, 210, 211, 212, 213, 214, 215, 216, 217, 218, 219, 220, 221, 222, 223, 224, 225, 226, 227, 228, 229, 230, 231, 232, 233, 234, 235, 236, 237, 238, 239, 240, 241, 242, 243, 244, 245, 246, 247, 248, 249, 250, 251, 252, 253, 254, 255, 256, 257, 258, 259, 260, 261, 262, 263, 264, 265, 266, 267, 268, 269, 270, 271, 272, 273, 274, 275, 276, 277, 278, 279, 280, 281, 282, 283, 284, 285, 286, 287, 288, 289, 290, 291, 292, 293, 294, 295, 296, 297, 298, 299, 300, 301, 302, 303, 304, 305],
      "WindowCenter": [4870.0, 4874.0, 4868.0, 4868.0, 4894.0, 4892.0, 4868.0, 4870.0, 4868.0, 4868.0, 4870.0, 4870.0, 4868.0, 4868.0, 4868.0, 4866.0, 4866.0, 4894.0, 4892.0, 4892.0, 4874.0, 4870.0, 4892.0, 4868.0, 4862.0, 4864.0, 4866.0, 4862.0, 4868.0, 4890.0, 4866.0, 4868.0, 4896.0, 4870.0, 4896.0, 4866.0, 4890.0, 4862.0, 4864.0, 4858.0, 4858.0, 4862.0, 4892.0, 4894.0, 4894.0, 4896.0, 4890.0, 4892.0, 4890.0, 4870.0, 4866.0, 4860.0, 4866.0, 4866.0, 4868.0, 4868.0, 4870.0, 4870.0, 4868.0, 4864.0, 4866.0, 4868.0, 4868.0, 4870.0, 4866.0, 4868.0, 4866.0, 4862.0, 4866.0, 4866.0, 4868.0, 4886.0, 4870.0, 4890.0, 4866.0, 4870.0, 4868.0, 4866.0, 4866.0, 4892.0, 4860.0, 4864.0, 4864.0, 4864.0, 4870.0, 4892.0, 4892.0, 4868.0, 4866.0, 4866.0, 4858.0, 4858.0, 4862.0, 4864.0, 4862.0, 4866.0, 4868.0, 4864.0, 4866.0, 4864.0, 4860.0, 4864.0, 4862.0, 4862.0, 4858.0, 4868.0, 4866.0, 4864.0, 4868.0, 4870.0, 4866.0, 4870.0, 4866.0, 4864.0, 4862.0, 4860.0, 4862.0, 4866.0, 4866.0, 4870.0, 4864.0, 4864.0, 4864.0, 4886.0, 4864.0, 4868.0, 4862.0, 4864.0, 4866.0, 4864.0, 4866.0, 4866.0, 4864.0, 4866.0, 4864.0, 4862.0, 4890.0, 4864.0, 4866.0, 4864.0, 4862.0, 4864.0, 4862.0, 4860.0, 4860.0, 4864.0, 4864.0, 4866.0, 4866.0, 4862.0, 4872.0, 4872.0, 4864.0, 4864.0, 4858.0, 4864.0, 4858.0, 4860.0, 4860.0, 4860.0, 4864.0, 4864.0, 4868.0, 4872.0, 4866.0, 4862.0, 4862.0, 4862.0, 4862.0, 4862.0, 4862.0, 4862.0, 4866.0, 4864.0, 4868.0, 4864.0, 4866.0, 4864.0, 4864.0, 4866.0, 4860.0, 4864.0, 4866.0, 4866.0, 4864.0, 4864.0, 4866.0, 4862.0, 4866.0, 4868.0, 4862.0, 4866.0, 4864.0, 4862.0, 4864.0, 4866.0, 4862.0, 4864.0, 4866.0, 4862.0, 4866.0, 4862.0, 4862.0, 4862.0, 4864.0, 4864.0, 4868.0, 4866.0, 4868.0, 4862.0, 4862.0, 4860.0, 4862.0, 4858.0, 4858.0, 4866.0, 4866.0, 4868.0, 4866.0, 4866.0, 4866.0, 4866.0, 4862.0, 4862.0, 4860.0, 4862.0, 4864.0, 4862.0, 4868.0, 4868.0, 4862.0, 4866.0, 4870.0, 4866.0, 4862.0, 4860.0, 4860.0, 4858.0, 4864.0, 4862.0, 4862.0, 4866.0, 4866.0, 4866.0, 4864.0, 4862.0, 4858.0, 4860.0, 4862.0, 4860.0, 4862.0, 4862.0, 4864.0, 4862.0, 4860.0, 4864.0, 4862.0, 4864.0, 4866.0, 4868.0, 4866.0, 4866.0, 4862.0, 4862.0, 4864.0, 4866.0, 4866.0, 4862.0, 4864.0, 4860.0, 4864.0, 4864.0, 4860.0, 4862.0, 4864.0, 4866.0, 4890.0, 4866.0, 4866.0, 4862.0, 4858.0, 4864.0, 4864.0, 4862.0, 4860.0, 4864.0, 4866.0, 4862.0, 4866.0, 4866.0, 4866.0, 4862.0, 4862.0, 4860.0, 4860.0, 4860.0, 4864.0, 4858.0, 4870.0, 4864.0, 4866.0, 4864.0, 4862.0, 4866.0, 4864.0],
      "WindowWidth": [18682.0, 18684.0, 18682.0, 18686.0, 18718.0, 18718.0, 18692.0, 18692.0, 18686.0, 18680.0, 18688.0, 18686.0, 18686.0, 18686.0, 18686.0, 18688.0, 18694.0, 18730.0, 18728.0, 18720.0, 18690.0, 18682.0, 18712.0, 18690.0, 18692.0, 18698.0, 18696.0, 18692.0, 18692.0, 18730.0, 18696.0, 18698.0, 18720.0, 18688.0, 18726.0, 18692.0, 18730.0, 18696.0, 18698.0, 18698.0, 18696.0, 18698.0, 18728.0, 18726.0, 18724.0, 18728.0, 18724.0, 18724.0, 18724.0, 18692.0, 18692.0, 18694.0, 18686.0, 18692.0, 18688.0, 18682.0, 18686.0, 18690.0, 18692.0, 18692.0, 18688.0, 18682.0, 18686.0, 18686.0, 18680.0, 18684.0, 18684.0, 18684.0, 18688.0, 18688.0, 18692.0, 18722.0, 18692.0, 18714.0, 18688.0, 18696.0, 18690.0, 18690.0, 18684.0, 18714.0, 18680.0, 18690.0, 18696.0, 18692.0, 18686.0, 18720.0, 18712.0, 18674.0, 18678.0, 18682.0, 18686.0, 18684.0, 18686.0, 18684.0, 18684.0, 18684.0, 18678.0, 18684.0, 18680.0, 18680.0, 18680.0, 18682.0, 18686.0, 18684.0, 18680.0, 18682.0, 18682.0, 18688.0, 18690.0, 18684.0, 18682.0, 18684.0, 18686.0, 18684.0, 18684.0, 18682.0, 18684.0, 18688.0, 18692.0, 18688.0, 18688.0, 18686.0, 18688.0, 18724.0, 18690.0, 18696.0, 18686.0, 18692.0, 18690.0, 18688.0, 18684.0, 18690.0, 18692.0, 18684.0, 18700.0, 18692.0, 18722.0, 18686.0, 18688.0, 18690.0, 18688.0, 18694.0, 18692.0, 18692.0, 18692.0, 18690.0, 18688.0, 18692.0, 18688.0, 18690.0, 18690.0, 18684.0, 18680.0, 18680.0, 18680.0, 18686.0, 18688.0, 18690.0, 18686.0, 18686.0, 18684.0, 18684.0, 18684.0, 18688.0, 18684.0, 18688.0, 18684.0, 18690.0, 18682.0, 18690.0, 18686.0, 18682.0, 18690.0, 18690.0, 18692.0, 18690.0, 18684.0, 18690.0, 18686.0, 18686.0, 18684.0, 18686.0, 18686.0, 18688.0, 18688.0, 18690.0, 18688.0, 18690.0, 18688.0, 18690.0, 18690.0, 18690.0, 18688.0, 18688.0, 18690.0, 18692.0, 18692.0, 18686.0, 18688.0, 18682.0, 18688.0, 18694.0, 18688.0, 18692.0, 18686.0, 18686.0, 18684.0, 18678.0, 18684.0, 18682.0, 18684.0, 18688.0, 18688.0, 18686.0, 18686.0, 18692.0, 18686.0, 18674.0, 18674.0, 18680.0, 18684.0, 18688.0, 18680.0, 18686.0, 18684.0, 18686.0, 18684.0, 18684.0, 18684.0, 18684.0, 18686.0, 18686.0, 18690.0, 18686.0, 18684.0, 18686.0, 18684.0, 18684.0, 18684.0, 18684.0, 18684.0, 18688.0, 18688.0, 18688.0, 18690.0, 18690.0, 18688.0, 18688.0, 18692.0, 18688.0, 18686.0, 18684.0, 18688.0, 18684.0, 18688.0, 18694.0, 18690.0, 18684.0, 18690.0, 18692.0, 18688.0, 18684.0, 18692.0, 18690.0, 18694.0, 18690.0, 18688.0, 18690.0, 18690.0, 18688.0, 18692.0, 18692.0, 18694.0, 18694.0, 18694.0, 18682.0, 18722.0, 18690.0, 18686.0, 18688.0, 18690.0, 18694.0, 18696.0, 18694.0, 18688.0, 18690.0, 18686.0, 18682.0, 18684.0, 18686.0, 18690.0, 18692.0, 18694.0, 18680.0, 18680.0, 18680.0, 18684.0, 18680.0, 18686.0, 18680.0, 18680.0, 18682.0, 18682.0, 18686.0, 18688.0]
    },
    "slices": {}
  }
}