{
  "AcquisitionMatrixPE": 104,
  "AcquisitionNumber": 1,
  "AcquisitionTime": "13:49:37.922500",
  "BandwidthPerPixelPhaseEncode": 17.17,
  "BaseResolution": 104,
  "BodyPartExamined": "BRAIN",
  "CoilCombinationMethod": "Sum of Squares",
  "ConsistencyInfo": "N4_VE11C_LATEST_20160120",
  "ConversionSoftware": "dcm2niix",
  "ConversionSoftwareVersion": "v1.0.20220505",
  "DerivedVendorReportedEchoSpacing": 0.000560011,
  "DeviceSerialNumber": "167006",
  "DwellTime": 2.1e-06,
  "EchoTime": 0.037,
  "EchoTrainLength": 104,
  "EffectiveEchoSpacing": 0.000560011,
  "FlipAngle": 52,
  "HeudiconvVersion": "0.5.3.post811+g6206e14",
  "ImageComments": "Unaliased MB4/PE3/LB",
  "ImageOrientationPatientDICOM": [0.999724, 0.0205693, 0.0113346, -0.0167522, 0.962805, -0.269678],
  "ImageOrientationText": "Tra>Cor(-15.6)>Sag(0.9)",
  "ImageType": [
    "ORIGINAL",
    "PRIMARY",
    "M",
    "MB",
    "ND",
    "MOSAIC"
],
  "ImagingFrequency": 123.259,
  "InPlanePhaseEncodingDirectionDICOM": "COL",
  "InstitutionAddress": "Chemin Queen-Mary 4565,Montreal,District,CA,H3W 1W5",
  "InstitutionName": "IUGM",
  "InstitutionalDepartmentName": "Department",
  "MRAcquisitionType": "2D",
  "MagneticFieldStrength": 3,
  "Manufacturer": "Siemens",
  "ManufacturersModelName": "Prisma_fit",
  "MatrixCoilMode": "SENSE",
  "Modality": "MR",
  "MultibandAccelerationFactor": 4,
  "PartialFourier": 1,
  "PatientPosition": "HFS",
  "PercentPhaseFOV": 100,
  "PercentSampling": 100,
  "PhaseEncodingDirection": "j",
  "PhaseEncodingSteps": 104,
  "PhaseResolution": 1,
  "PixelBandwidth": 2290,
  "ProcedureStepDescription": "games^mario3",
  "ProtocolName": "func_task-mario3_run-01",
  "PulseSequenceDetails": "%CustomerSeq%\\cmrr_mbep2d_bold",
  "ReceiveCoilActiveElements": "HC1-7;NC1,2",
  "ReceiveCoilName": "HeadNeck_64",
  "ReconMatrixPE": 104,
  "RepetitionTime": 1.49,
  "SAR": 0.0536912,
  "ScanOptions": "FS",
  "ScanningSequence": "EP",
  "SequenceName": "epfid2d1_104",
  "SequenceVariant": "SK\\SS",
  "SeriesDescription": "func_task-mario3_run-01",
  "SeriesNumber": 10,
  "ShimSetting": [638, -7205, -8736, 692, 70, 38, -12, -14],
  "SliceThickness": 2,
  "SliceTiming": [0, 0.785, 0.0975, 0.8825, 0.1975, 0.98, 0.295, 1.0775, 0.3925, 1.175, 0.49, 1.275, 0.5875, 1.3725, 0.685, 0, 0.785, 0.0975, 0.8825, 0.1975, 0.98, 0.295, 1.0775, 0.3925, 1.175, 0.49, 1.275, 0.5875, 1.3725, 0.685, 0, 0.785, 0.0975, 0.8825, 0.1975, 0.98, 0.295, 1.0775, 0.3925, 1.175, 0.49, 1.275, 0.5875, 1.3725, 0.685, 0, 0.785, 0.0975, 0.8825, 0.1975, 0.98, 0.295, 1.0775, 0.3925, 1.175, 0.49, 1.275, 0.5875, 1.3725, 0.685],
  "SoftwareVersions": "syngo MR E11",
  "SpacingBetweenSlices": 2,
  "StationName": "MRC35049",
  "TaskName": "mario3",
  "TotalReadoutTime": 0.0576811,
  "TxRefAmp": 226.876,
  "WipMemBlock": "bd20858d-3872-48e0-968b-06f2c83eb300||Sequence: R017 ve11c/master r/75a17815+; Jun 28 2022 16:32:11 by eja",
  "dcmmeta_affine": [
    [-1.999448299407959, -0.03350432962179184, 0.03292025625705719, 109.79768371582031],
    [-0.04113864526152611, 1.9256095886230469, -0.5388275384902954, -70.92302703857422],
    [0.02266925573348999, 0.5393560528755188, 1.9257676601409912, -49.21192169189453],
    [0.0, 0.0, 0.0, 1.0]
],
  "dcmmeta_reorient_transform": [
    [0.0, -1.0, 0.0, 103.0],
    [1.0, 0.0, 0.0, 0.0],
    [0.0, 0.0, 1.0, 0.0],
    [0.0, 0.0, 0.0, 1.0]
],
  "dcmmeta_shape": [104, 104, 60, 326],
  "dcmmeta_slice_dim": 2,
  "dcmmeta_version": 0.6,
  "global": {
    "const": {
      "AcquisitionMatrix": [104, 0, 0, 104],
      "AngioFlag": "N",
      "BitsAllocated": 16,
      "BitsStored": 16,
      "BodyPartExamined": "BRAIN",
      "Columns": 832,
      "EchoNumbers": 1,
      "EchoTime": 37.0,
      "EchoTrainLength": 104,
      "FlipAngle": 52.0,
      "HighBit": 15,
      "ImageOrientationPatient": [0.99972417653806, 0.02056932343385, 0.01133462742096, -0.0167521644106, 0.96280482157123, -0.2696780312646],
      "ImagePositionPatient": [-821.9503598306, -843.31114278546, 194.41575107567],
      "ImageType": [
        "ORIGINAL",
        "PRIMARY",
        "M",
        "MB",
        "ND",
        "MOSAIC"
],
      "ImagedNucleus": "1H",
      "ImagingFrequency": 123.258773,
      "InPlanePhaseEncodingDirection": "COL",
      "MRAcquisitionType": "2D",
      "MagneticFieldStrength": 3.0,
      "Manufacturer": "SIEMENS",
      "ManufacturerModelName": "Prisma_fit",
      "Modality": "MR",
      "NumberOfAverages": 1.0,
      "NumberOfPhaseEncodingSteps": 104,
      "PercentPhaseFieldOfView": 100.0,
      "PercentSampling": 100.0,
      "PerformedProcedureStepStartTime": "134620.923000",
      "PhotometricInterpretation": "MONOCHROME2",
      "PixelBandwidth": 2290.0,
      "PixelRepresentation": 0,
      "PixelSpacing": [2.0, 2.0],
      "ProtocolName": "func_task-mario3_run-01",
      "RepetitionTime": 1490.0,
      "Rows": 832,
      "SAR": 0.05369120923674,
      "SamplesPerPixel": 1,
      "ScanOptions": "FS",
      "ScanningSequence": "EP",
      "SequenceName": "epfid2d1_104",
      "SequenceVariant": [
        "SK",
        "SS"
],
      "SeriesDescription": "func_task-mario3_run-01",
      "SeriesNumber": 10,
      "SeriesTime": "135029.510000",
      "SliceLocation": -26.470439546285,
      "SliceThickness": 2.0,
      "SmallestImagePixelValue": 0,
      "SoftwareVersions": "syngo MR E11",
      "SpacingBetweenSlices": 1.9999999639876,
      "SpecificCharacterSet": "ISO_IR 100",
      "StudyID": "1",
      "StudyTime": "134620.855000",
      "TransmitCoilName": "Body",
      "VariableFlipAngleFlag": "N",
      "WindowCenterWidthExplanation": "Algo1",
      "dBdt": 0.0},
    "slices": {}
  },
  "time": {
    "samples": {
      "AcquisitionNumber": [1, 2, 3, 4, 5, 6, 7, 8, 9, 10, 11, 12, 13, 14, 15, 16, 17, 18, 19, 20, 21, 22, 23, 24, 25, 26, 27, 28, 29, 30, 31, 32, 33, 34, 35, 36, 37, 38, 39, 40, 41, 42, 43, 44, 45, 46, 47, 48, 49, 50, 51, 52, 53, 54, 55, 56, 57, 58, 59, 60, 61, 62, 63, 64, 65, 66, 67, 68, 69, 70, 71, 72, 73, 74, 75, 76, 77, 78, 79, 80, 81, 82, 83, 84, 85, 86, 87, 88, 89, 90, 91, 92, 93, 94, 95, 96, 97, 98, 99, 100, 101, 102, 103, 104, 105, 106, 107, 108, 109, 110, 111, 112, 113, 114, 115, 116, 117, 118, 119, 120, 121, 122, 123, 124, 125, 126, 127, 128, 129, 130, 131, 132, 133, 134, 135, 136, 137, 138, 139, 140, 141, 142, 143, 144, 145, 146, 147, 148, 149, 150, 151, 152, 153, 154, 155, 156, 157, 158, 159, 160, 161, 162, 163, 164, 165, 166, 167, 168, 169, 170, 171, 172, 173, 174, 175, 176, 177, 178, 179, 180, 181, 182, 183, 184, 185, 186, 187, 188, 189, 190, 191, 192, 193, 194, 195, 196, 197, 198, 199, 200, 201, 202, 203, 204, 205, 206, 207, 208, 209, 210, 211, 212, 213, 214, 215, 216, 217, 218, 219, 220, 221, 222, 223, 224, 225, 226, 227, 228, 229, 230, 231, 232, 233, 234, 235, 236, 237, 238, 239, 240, 241, 242, 243, 244, 245, 246, 247, 248, 249, 250, 251, 252, 253, 254, 255, 256, 257, 258, 259, 260, 261, 262, 263, 264, 265, 266, 267, 268, 269, 270, 271, 272, 273, 274, 275, 276, 277, 278, 279, 280, 281, 282, 283, 284, 285, 286, 287, 288, 289, 290, 291, 292, 293, 294, 295, 296, 297, 298, 299, 300, 301, 302, 303, 304, 305, 306, 307, 308, 309, 310, 311, 312, 313, 314, 315, 316, 317, 318, 319, 320, 321, 322, 323, 324, 325, 326],
      "AcquisitionTime": ["134937.922500", "134939.412500", "134940.902500", "134942.392500", "134943.882500", "134945.372500", "134946.862500", "134948.352500", "134949.842500", "134951.332500", "134952.822500", "134954.312500", "134955.802500", "134957.292500", "134958.782500", "135000.272500", "135001.762500", "135003.252500", "135004.742500", "135006.232500", "135007.722500", "135009.212500", "135010.702500", "135012.192500", "135013.682500", "135015.172500", "135016.662500", "135018.152500", "135019.642500", "135021.132500", "135022.622500", "135024.112500", "135025.602500", "135027.092500", "135028.582500", "135030.072500", "135031.562500", "135033.052500", "135034.542500", "135036.032500", "135037.522500", "135039.012500", "135040.502500", "135041.992500", "135043.482500", "135044.972500", "135046.462500", "135047.952500", "135049.442500", "135050.932500", "135052.422500", "135053.912500", "135055.402500", "135056.892500", "135058.382500", "135059.872500", "135101.362500", "135102.852500", "135104.342500", "135105.832500", "135107.322500", "135108.812500", "135110.302500", "135111.792500", "135113.282500", "135114.772500", "135116.262500", "135117.752500", "135119.242500", "135120.732500", "135122.222500", "135123.712500", "135125.202500", "135126.692500", "135128.182500", "135129.672500", "135131.162500", "135132.652500", "135134.142500", "135135.632500", "135137.122500", "135138.612500", "135140.102500", "135141.592500", "135143.082500", "135144.572500", "135146.062500", "135147.552500", "135149.042500", "135150.532500", "135152.022500", "135153.512500", "135155.002500", "135156.492500", "135157.982500", "135159.472500", "135200.962500", "135202.452500", "135203.942500", "135205.432500", "135206.922500", "135208.412500", "135209.902500", "135211.392500", "135212.882500", "135214.372500", "135215.862500", "135217.352500", "135218.842500", "135220.332500", "135221.822500", "135223.312500", "135224.802500", "135226.292500", "135227.782500", "135229.272500", "135230.762500", "135232.252500", "135233.742500", "135235.232500", "135236.722500", "135238.212500", "135239.702500", "135241.192500", "135242.682500", "135244.172500", "135245.662500", "135247.152500", "135248.642500", "135250.132500", "135251.622500", "135253.112500", "135254.602500", "135256.092500", "135257.582500", "135259.072500", "135300.562500", "135302.052500", "135303.542500", "135305.032500", "135306.522500", "135308.012500", "135309.502500", "135310.992500", "135312.482500", "135313.972500", "135315.462500", "135316.952500", "135318.442500", "135319.932500", "135321.422500", "135322.912500", "135324.402500", "135325.892500", "135327.382500", "135328.872500", "135330.362500", "135331.852500", "135333.342500", "135334.832500", "135336.322500", "135337.812500", "135339.302500", "135340.792500", "135342.282500", "135343.772500", "135345.262500", "135346.752500", "135348.242500", "135349.732500", "135351.222500", "135352.712500", "135354.202500", "135355.692500", "135357.182500", "135358.672500", "135400.162500", "135401.652500", "135403.142500", "135404.632500", "135406.122500", "135407.612500", "135409.102500", "135410.592500", "135412.082500", "135413.572500", "135415.062500", "135416.552500", "135418.042500", "135419.532500", "135421.022500", "135422.512500", "135424.002500", "135425.492500", "135426.982500", "135428.472500", "135429.962500", "135431.452500", "135432.942500", "135434.432500", "135435.922500", "135437.412500", "135438.902500", "135440.392500", "135441.882500", "135443.372500", "135444.862500", "135446.352500", "135447.842500", "135449.332500", "135450.822500", "135452.312500", "135453.802500", "135455.292500", "135456.782500", "135458.272500", "135459.762500", "135501.252500", "135502.742500", "135504.232500", "135505.722500", "135507.212500", "135508.702500", "135510.192500", "135511.682500", "135513.172500", "135514.662500", "135516.152500", "135517.642500", "135519.132500", "135520.622500", "135522.112500", "135523.602500", "135525.092500", "135526.582500", "135528.072500", "135529.562500", "135531.052500", "135532.542500", "135534.032500", "135535.522500", "135537.012500", "135538.502500", "135539.992500", "135541.482500", "135542.972500", "135544.462500", "135545.952500", "135547.442500", "135548.932500", "135550.422500", "135551.912500", "135553.402500", "135554.892500", "135556.382500", "135557.872500", "135559.362500", "135600.852500", "135602.342500", "135603.832500", "135605.322500", "135606.812500", "135608.302500", "135609.792500", "135611.282500", "135612.772500", "135614.262500", "135615.752500", "135617.242500", "135618.732500", "135620.222500", "135621.712500", "135623.202500", "135624.692500", "135626.182500", "135627.672500", "135629.162500", "135630.652500", "135632.142500", "135633.632500", "135635.122500", "135636.612500", "135638.102500", "135639.592500", "135641.082500", "135642.572500", "135644.062500", "135645.552500", "135647.042500", "135648.532500", "135650.022500", "135651.512500", "135653.002500", "135654.492500", "135655.982500", "135657.472500", "135658.962500", "135700.452500", "135701.942500", "135703.432500", "135704.922500", "135706.412500", "135707.902500", "135709.392500", "135710.882500", "135712.372500", "135713.862500", "135715.352500", "135716.842500", "135718.332500", "135719.822500", "135721.312500", "135722.802500", "135724.292500", "135725.782500", "135727.272500", "135728.762500", "135730.252500", "135731.742500", "135733.232500", "135734.722500", "135736.212500", "135737.702500", "135739.192500", "135740.682500", "135742.172500"],
      "ContentTime": ["135029.513000", "135029.517000", "135049.469000", "135049.473000", "135049.476000", "135049.479000", "135049.483000", "135049.486000", "135049.489000", "135049.492000", "135049.495000", "135049.499000", "135049.502000", "135049.505000", "135049.508000", "135049.512000", "135049.515000", "135049.518000", "135049.522000", "135049.525000", "135049.528000", "135049.531000", "135109.471000", "135109.476000", "135109.480000", "135109.484000", "135109.488000", "135109.492000", "135109.495000", "135109.499000", "135109.502000", "135109.505000", "135109.509000", "135109.532000", "135109.535000", "135109.539000", "135109.542000", "135109.545000", "135109.548000", "135109.552000", "135109.555000", "135109.558000", "135129.470000", "135129.474000", "135129.495000", "135129.498000", "135129.501000", "135129.504000", "135129.508000", "135129.511000", "135129.514000", "135129.517000", "135129.521000", "135129.524000", "135129.527000", "135129.531000", "135129.534000", "135129.537000", "135129.541000", "135129.544000", "135129.547000", "135129.550000", "135129.554000", "135149.470000", "135149.474000", "135149.477000", "135149.480000", "135149.484000", "135149.491000", "135149.494000", "135149.497000", "135149.501000", "135149.504000", "135149.507000", "135149.510000", "135149.514000", "135149.517000", "135149.520000", "135149.524000", "135149.527000", "135149.530000", "135149.533000", "135149.537000", "135229.469000", "135229.473000", "135229.476000", "135229.479000", "135229.483000", "135229.486000", "135229.495000", "135229.498000", "135229.502000", "135229.506000", "135229.509000", "135229.513000", "135229.516000", "135229.519000", "135229.522000", "135229.526000", "135229.529000", "135229.532000", "135229.536000", "135229.539000", "135229.542000", "135229.546000", "135229.549000", "135229.552000", "135229.556000", "135229.559000", "135229.562000", "135229.566000", "135229.569000", "135229.572000", "135229.576000", "135309.469000", "135309.473000", "135309.476000", "135309.479000", "135309.483000", "135309.486000", "135309.489000", "135309.492000", "135309.496000", "135309.499000", "135309.502000", "135309.506000", "135309.509000", "135309.512000", "135309.516000", "135309.519000", "135309.522000", "135309.525000", "135309.529000", "135309.532000", "135309.535000", "135309.539000", "135309.542000", "135309.545000", "135309.548000", "135309.552000", "135309.555000", "135349.470000", "135349.483000", "135349.486000", "135349.489000", "135349.494000", "135349.497000", "135349.500000", "135349.503000", "135349.507000", "135349.510000", "135349.513000", "135349.517000", "135349.520000", "135349.523000", "135349.527000", "135349.530000", "135349.534000", "135349.537000", "135349.540000", "135349.544000", "135349.547000", "135349.550000", "135349.554000", "135349.557000", "135349.560000", "135349.563000", "135349.567000", "135429.469000", "135429.473000", "135429.476000", "135429.479000", "135429.483000", "135429.486000", "135429.489000", "135429.492000", "135429.496000", "135429.499000", "135429.502000", "135429.506000", "135429.509000", "135429.512000", "135429.516000", "135429.519000", "135429.522000", "135429.525000", "135429.529000", "135429.532000", "135429.535000", "135429.538000", "135429.542000", "135429.545000", "135429.548000", "135429.552000", "135429.555000", "135509.469000", "135509.473000", "135509.476000", "135509.479000", "135509.483000", "135509.486000", "135509.489000", "135509.493000", "135509.496000", "135509.499000", "135509.503000", "135509.506000", "135509.509000", "135509.513000", "135509.516000", "135509.519000", "135509.526000", "135509.529000", "135509.532000", "135509.536000", "135509.539000", "135509.542000", "135509.545000", "135509.549000", "135509.552000", "135509.555000", "135509.559000", "135549.470000", "135549.474000", "135549.477000", "135549.481000", "135549.484000", "135549.487000", "135549.490000", "135549.494000", "135549.497000", "135549.500000", "135549.504000", "135549.507000", "135549.510000", "135549.528000", "135549.532000", "135549.535000", "135549.538000", "135549.542000", "135549.545000", "135549.548000", "135549.569000", "135549.572000", "135549.576000", "135549.579000", "135549.582000", "135549.586000", "135549.589000", "135629.470000", "135629.474000", "135629.477000", "135629.480000", "135629.484000", "135629.487000", "135629.490000", "135629.494000", "135629.497000", "135629.500000", "135629.503000", "135629.507000", "135629.510000", "135629.514000", "135629.517000", "135629.521000", "135629.525000", "135629.528000", "135629.532000", "135629.535000", "135629.539000", "135629.543000", "135629.546000", "135629.549000", "135629.553000", "135629.556000", "135709.469000", "135709.473000", "135709.476000", "135709.479000", "135709.483000", "135709.486000", "135709.489000", "135709.493000", "135709.496000", "135709.499000", "135709.503000", "135709.506000", "135709.509000", "135709.523000", "135709.526000", "135709.530000", "135709.533000", "135709.536000", "135709.540000", "135709.543000", "135709.546000", "135709.550000", "135709.553000", "135709.556000", "135709.559000", "135709.563000", "135709.566000", "135744.093000", "135744.097000", "135744.100000", "135744.103000", "135744.107000", "135744.110000", "135744.114000", "135744.118000", "135744.121000", "135744.125000", "135744.128000", "135744.132000", "135744.142000", "135744.146000", "135744.149000", "135744.153000", "135744.161000", "135744.165000", "135744.169000", "135744.174000", "135744.178000", "135744.181000", "135744.185000", "135744.189000"],
      "InstanceCreationTime": ["135029.513000", "135029.517000", "135049.469000", "135049.473000", "135049.476000", "135049.479000", "135049.483000", "135049.486000", "135049.489000", "135049.492000", "135049.495000", "135049.499000", "135049.502000", "135049.505000", "135049.508000", "135049.512000", "135049.515000", "135049.518000", "135049.522000", "135049.525000", "135049.528000", "135049.531000", "135109.471000", "135109.476000", "135109.480000", "135109.484000", "135109.488000", "135109.492000", "135109.495000", "135109.499000", "135109.502000", "135109.505000", "135109.509000", "135109.532000", "135109.535000", "135109.539000", "135109.542000", "135109.545000", "135109.548000", "135109.552000", "135109.555000", "135109.558000", "135129.470000", "135129.474000", "135129.495000", "135129.498000", "135129.501000", "135129.504000", "135129.508000", "135129.511000", "135129.514000", "135129.517000", "135129.521000", "135129.524000", "135129.527000", "135129.531000", "135129.534000", "135129.537000", "135129.541000", "135129.544000", "135129.547000", "135129.550000", "135129.554000", "135149.470000", "135149.474000", "135149.477000", "135149.480000", "135149.484000", "135149.491000", "135149.494000", "135149.497000", "135149.501000", "135149.504000", "135149.507000", "135149.510000", "135149.514000", "135149.517000", "135149.520000", "135149.524000", "135149.527000", "135149.530000", "135149.533000", "135149.537000", "135229.469000", "135229.473000", "135229.476000", "135229.479000", "135229.483000", "135229.486000", "135229.495000", "135229.498000", "135229.502000", "135229.506000", "135229.509000", "135229.513000", "135229.516000", "135229.519000", "135229.522000", "135229.526000", "135229.529000", "135229.532000", "135229.536000", "135229.539000", "135229.542000", "135229.546000", "135229.549000", "135229.552000", "135229.556000", "135229.559000", "135229.562000", "135229.566000", "135229.569000", "135229.572000", "135229.576000", "135309.469000", "135309.473000", "135309.476000", "135309.479000", "135309.483000", "135309.486000", "135309.489000", "135309.492000", "135309.496000", "135309.499000", "135309.502000", "135309.506000", "135309.509000", "135309.512000", "135309.516000", "135309.519000", "135309.522000", "135309.525000", "135309.529000", "135309.532000", "135309.535000", "135309.539000", "135309.542000", "135309.545000", "135309.548000", "135309.552000", "135309.555000", "135349.470000", "135349.483000", "135349.486000", "135349.489000", "135349.494000", "135349.497000", "135349.500000", "135349.503000", "135349.507000", "135349.510000", "135349.513000", "135349.517000", "135349.520000", "135349.523000", "135349.527000", "135349.530000", "135349.534000", "135349.537000", "135349.540000", "135349.544000", "135349.547000", "135349.550000", "135349.554000", "135349.557000", "135349.560000", "135349.563000", "135349.567000", "135429.469000", "135429.473000", "135429.476000", "135429.479000", "135429.483000", "135429.486000", "135429.489000", "135429.492000", "135429.496000", "135429.499000", "135429.502000", "135429.506000", "135429.509000", "135429.512000", "135429.516000", "135429.519000", "135429.522000", "135429.525000", "135429.529000", "135429.532000", "135429.535000", "135429.538000", "135429.542000", "135429.545000", "135429.548000", "135429.552000", "135429.555000", "135509.469000", "135509.473000", "135509.476000", "135509.479000", "135509.483000", "135509.486000", "135509.489000", "135509.493000", "135509.496000", "135509.499000", "135509.503000", "135509.506000", "135509.509000", "135509.513000", "135509.516000", "135509.519000", "135509.526000", "135509.529000", "135509.532000", "135509.536000", "135509.539000", "135509.542000", "135509.545000", "135509.549000", "135509.552000", "135509.555000", "135509.559000", "135549.470000", "135549.474000", "135549.477000", "135549.481000", "135549.484000", "135549.487000", "135549.490000", "135549.494000", "135549.497000", "135549.500000", "135549.504000", "135549.507000", "135549.510000", "135549.528000", "135549.532000", "135549.535000", "135549.538000", "135549.542000", "135549.545000", "135549.548000", "135549.569000", "135549.572000", "135549.576000", "135549.579000", "135549.582000", "135549.586000", "135549.589000", "135629.470000", "135629.474000", "135629.477000", "135629.480000", "135629.484000", "135629.487000", "135629.490000", "135629.494000", "135629.497000", "135629.500000", "135629.503000", "135629.507000", "135629.510000", "135629.514000", "135629.517000", "135629.521000", "135629.525000", "135629.528000", "135629.532000", "135629.535000", "135629.539000", "135629.543000", "135629.546000", "135629.549000", "135629.553000", "135629.556000", "135709.469000", "135709.473000", "135709.476000", "135709.479000", "135709.483000", "135709.486000", "135709.489000", "135709.493000", "135709.496000", "135709.499000", "135709.503000", "135709.506000", "135709.509000", "135709.523000", "135709.526000", "135709.530000", "135709.533000", "135709.536000", "135709.540000", "135709.543000", "135709.546000", "135709.550000", "135709.553000", "135709.556000", "135709.559000", "135709.563000", "135709.566000", "135744.093000", "135744.097000", "135744.100000", "135744.103000", "135744.107000", "135744.110000", "135744.114000", "135744.118000", "135744.121000", "135744.125000", "135744.128000", "135744.132000", "135744.142000", "135744.146000", "135744.149000", "135744.153000", "135744.161000", "135744.165000", "135744.169000", "135744.174000", "135744.178000", "135744.181000", "135744.185000", "135744.189000"],
      "InstanceNumber": [1, 2, 3, 4, 5, 6, 7, 8, 9, 10, 11, 12, 13, 14, 15, 16, 17, 18, 19, 20, 21, 22, 23, 24, 25, 26, 27, 28, 29, 30, 31, 32, 33, 34, 35, 36, 37, 38, 39, 40, 41, 42, 43, 44, 45, 46, 47, 48, 49, 50, 51, 52, 53, 54, 55, 56, 57, 58, 59, 60, 61, 62, 63, 64, 65, 66, 67, 68, 69, 70, 71, 72, 73, 74, 75, 76, 77, 78, 79, 80, 81, 82, 83, 84, 85, 86, 87, 88, 89, 90, 91, 92, 93, 94, 95, 96, 97, 98, 99, 100, 101, 102, 103, 104, 105, 106, 107, 108, 109, 110, 111, 112, 113, 114, 115, 116, 117, 118, 119, 120, 121, 122, 123, 124, 125, 126, 127, 128, 129, 130, 131, 132, 133, 134, 135, 136, 137, 138, 139, 140, 141, 142, 143, 144, 145, 146, 147, 148, 149, 150, 151, 152, 153, 154, 155, 156, 157, 158, 159, 160, 161, 162, 163, 164, 165, 166, 167, 168, 169, 170, 171, 172, 173, 174, 175, 176, 177, 178, 179, 180, 181, 182, 183, 184, 185, 186, 187, 188, 189, 190, 191, 192, 193, 194, 195, 196, 197, 198, 199, 200, 201, 202, 203, 204, 205, 206, 207, 208, 209, 210, 211, 212, 213, 214, 215, 216, 217, 218, 219, 220, 221, 222, 223, 224, 225, 226, 227, 228, 229, 230, 231, 232, 233, 234, 235, 236, 237, 238, 239, 240, 241, 242, 243, 244, 245, 246, 247, 248, 249, 250, 251, 252, 253, 254, 255, 256, 257, 258, 259, 260, 261, 262, 263, 264, 265, 266, 267, 268, 269, 270, 271, 272, 273, 274, 275, 276, 277, 278, 279, 280, 281, 282, 283, 284, 285, 286, 287, 288, 289, 290, 291, 292, 293, 294, 295, 296, 297, 298, 299, 300, 301, 302, 303, 304, 305, 306, 307, 308, 309, 310, 311, 312, 313, 314, 315, 316, 317, 318, 319, 320, 321, 322, 323, 324, 325, 326],
      "LargestImagePixelValue": [41241, 40518, 39922, 39904, 39662, 39832, 39586, 39759, 39577, 39318, 39684, 39461, 39484, 40090, 40043, 39432, 39970, 39331, 39476, 38714, 39825, 39062, 39783, 39184, 38922, 39005, 38856, 38738, 38573, 38766, 38414, 38170, 37703, 37806, 38071, 38400, 38383, 38548, 38636, 39623, 38715, 38259, 38449, 38600, 38613, 38862, 38681, 38768, 39329, 39204, 38726, 39061, 39588, 39131, 40159, 40127, 40285, 40051, 40765, 40263, 39871, 39247, 39436, 39898, 40605, 40661, 40450, 39966, 40725, 40068, 40514, 39917, 39935, 39799, 39455, 39818, 39991, 39890, 40246, 40078, 39766, 40288, 39986, 40047, 40839, 39969, 39320, 39483, 39081, 39188, 39198, 39460, 40235, 39630, 40484, 40772, 40517, 38715, 39595, 39296, 39490, 39921, 40122, 40698, 40133, 40110, 40539, 39884, 39766, 39136, 38765, 38505, 38199, 39553, 38954, 39082, 39620, 39327, 39818, 38789, 38790, 38411, 38799, 38697, 39562, 39973, 39063, 39548, 39594, 39299, 38416, 38407, 38856, 38844, 38557, 38487, 38609, 38723, 38892, 38757, 39672, 40762, 40772, 39288, 39711, 39375, 39647, 38969, 38756, 38800, 38586, 38686, 38588, 38555, 38969, 39261, 39052, 38537, 38932, 38872, 39163, 38487, 38368, 38481, 38925, 38557, 38465, 39195, 39403, 39118, 39082, 39141, 39004, 38606, 38464, 38825, 38940, 39525, 38784, 38960, 38915, 38331, 38910, 38735, 38412, 38358, 38632, 39418, 38643, 40078, 40458, 41973, 40690, 40547, 40441, 40721, 40108, 41261, 39111, 40804, 40874, 40147, 39872, 39954, 39451, 40258, 41181, 41212, 41086, 39851, 40506, 39652, 40124, 39997, 40023, 39335, 39253, 38838, 39071, 39062, 39421, 39088, 39475, 38864, 39108, 38789, 39370, 39309, 39196, 39190, 39192, 39209, 38826, 38765, 39232, 39175, 39515, 39768, 39140, 38900, 40176, 38530, 40425, 39674, 39889, 39881, 40810, 41311, 40862, 39789, 39548, 40223, 40431, 39321, 39779, 39912, 39875, 39042, 39121, 39158, 38959, 38754, 38407, 38877, 38408, 38509, 39268, 39689, 39461, 39464, 39671, 39378, 40098, 40207, 39611, 38717, 39372, 38500, 38317, 38656, 38573, 38767, 38702, 39608, 39149, 38796, 38746, 38650, 38543, 39190, 38633, 38827, 38518, 38581, 38714, 39210, 39160, 39104, 39326, 38918, 38070, 38603, 38677, 38377, 38665, 40155, 38953, 39195, 39985, 40343, 39929, 40001, 39483, 39780, 38865, 39429, 39462, 40047, 40299, 39741, 39495, 40305, 39793, 39738, 40342, 40265],
