{
  "AcquisitionMatrixPE": 104,
  "AcquisitionNumber": 1,
  "AcquisitionTime": "16:07:47.850000",
  "BandwidthPerPixelPhaseEncode": 17.17,
  "BaseResolution": 104,
  "BodyPartExamined": "BRAIN",
  "CoilCombinationMethod": "Sum of Squares",
  "ConsistencyInfo": "N4_VE11C_LATEST_20160120",
  "ConversionSoftware": "dcm2niix",
  "ConversionSoftwareVersion": "v1.0.20220505",
  "DerivedVendorReportedEchoSpacing": 0.000560011,
  "DeviceSerialNumber": "167006",
  "DwellTime": 2.1e-06,
  "EchoTime": 0.037,
  "EchoTime1": 0.037,
  "EchoTime2": 0.001,
  "EchoTrainLength": 104,
  "EffectiveEchoSpacing": 0.000560011,
  "FlipAngle": 52,
  "HeudiconvVersion": "0.5.3.post811+g6206e14",
  "ImageComments": "Unaliased MB4/PE3/LB",
  "ImageOrientationPatientDICOM": [0.999235, -0.0356203, 0.0161209, 0.0390854, 0.920685, -0.388345],
  "ImageOrientationText": "Tra>Cor(-22.9)>Sag(0.1)",
  "ImageType": [
    "ORIGINAL",
    "PRIMARY",
    "P",
    "MB",
    "ND",
    "MOSAIC",
    "PHASE"
],
  "ImagingFrequency": 123.259,
  "InPlanePhaseEncodingDirectionDICOM": "COL",
  "InstitutionAddress": "Chemin Queen-Mary 4565,Montreal,District,CA,H3W 1W5",
  "InstitutionName": "IUGM",
  "InstitutionalDepartmentName": "Department",
  "MRAcquisitionType": "2D",
  "MagneticFieldStrength": 3,
  "Manufacturer": "Siemens",
  "ManufacturersModelName": "Prisma_fit",
  "MatrixCoilMode": "SENSE",
  "Modality": "MR",
  "MultibandAccelerationFactor": 4,
  "PartialFourier": 1,
  "PatientPosition": "HFS",
  "PercentPhaseFOV": 100,
  "PercentSampling": 100,
  "PhaseEncodingDirection": "j",
  "PhaseEncodingSteps": 104,
  "PhaseResolution": 1,
  "PixelBandwidth": 2290,
  "ProcedureStepDescription": "games^mario3",
  "ProtocolName": "func_task-mario3_run-03",
  "PulseSequenceDetails": "%CustomerSeq%\\cmrr_mbep2d_bold",
  "ReceiveCoilActiveElements": "HC1-7;NC1,2",
  "ReceiveCoilName": "HeadNeck_64",
  "ReconMatrixPE": 104,
  "RepetitionTime": 1.49,
  "SAR": 0.0403265,
  "ScanOptions": "FS",
  "ScanningSequence": "EP",
  "SequenceName": "epfid2d1_104",
  "SequenceVariant": "SK\\SS",
  "SeriesDescription": "func_task-mario3_run-03",
  "SeriesNumber": 18,
  "ShimSetting": [626, -7258, -8822, 528, 9, -209, -89, 0],
  "SliceThickness": 2,
  "SliceTiming": [0, 0.785, 0.0975, 0.8825, 0.1975, 0.98, 0.295, 1.0775, 0.3925, 1.1775, 0.49, 1.275, 0.5875, 1.3725, 0.6875, 0, 0.785, 0.0975, 0.8825, 0.1975, 0.98, 0.295, 1.0775, 0.3925, 1.1775, 0.49, 1.275, 0.5875, 1.3725, 0.6875, 0, 0.785, 0.0975, 0.8825, 0.1975, 0.98, 0.295, 1.0775, 0.3925, 1.1775, 0.49, 1.275, 0.5875, 1.3725, 0.6875, 0, 0.785, 0.0975, 0.8825, 0.1975, 0.98, 0.295, 1.0775, 0.3925, 1.1775, 0.49, 1.275, 0.5875, 1.3725, 0.6875],
  "SoftwareVersions": "syngo MR E11",
  "SpacingBetweenSlices": 2,
  "StationName": "MRC35049",
  "TaskName": "mario3",
  "TotalReadoutTime": 0.0576811,
  "TxRefAmp": 230.117,
  "WipMemBlock": "bd073f7e-e88f-44fc-aed2-8de6dfa5b973||Sequence: R017 ve11c/master r/75a17815+; Jun 28 2022 16:32:11 by eja",
  "dcmmeta_affine": [
    [-1.9984707832336426, 0.07817082852125168, 0.002018504776060581, 102.85575103759766],
    [0.07124060392379761, 1.841369390487671, -0.7773569226264954, -65.21741485595703],
    [0.03224172070622444, 0.7766906023025513, 1.8427459001541138, -70.47220611572266],
    [0.0, 0.0, 0.0, 1.0]
],
  "dcmmeta_reorient_transform": [
    [0.0, -1.0, 0.0, 103.0],
    [1.0, 0.0, 0.0, 0.0],
    [0.0, 0.0, 1.0, 0.0],
    [0.0, 0.0, 0.0, 1.0]
],
  "dcmmeta_shape": [104, 104, 60, 421],
  "dcmmeta_slice_dim": 2,
  "dcmmeta_version": 0.6,
  "global": {
    "const": {
      "AcquisitionMatrix": [104, 0, 0, 104],
      "AngioFlag": "N",
      "BitsAllocated": 16,
      "BitsStored": 16,
      "BodyPartExamined": "BRAIN",
      "Columns": 832,
      "EchoNumbers": 1,
      "EchoTime": 37.0,
      "EchoTrainLength": 104,
      "FlipAngle": 52.0,
      "HighBit": 15,
      "ImageOrientationPatient": [0.99923536363111, -0.0356203019993, 0.01612086084824, 0.0390854126061, 0.9206846668406, -0.38834530352],
      "ImagePositionPatient": [-866.80487193241, -768.77048605721, 280.50632048563],
      "ImageType": [
        "ORIGINAL",
        "PRIMARY",
        "P",
        "MB",
        "ND",
        "MOSAIC"
],
      "ImagedNucleus": "1H",
      "ImagingFrequency": 123.258816,
      "InPlanePhaseEncodingDirection": "COL",
      "LargestImagePixelValue": 4095,
      "MRAcquisitionType": "2D",
      "MagneticFieldStrength": 3.0,
      "Manufacturer": "SIEMENS",
      "ManufacturerModelName": "Prisma_fit",
      "Modality": "MR",
      "NumberOfAverages": 1.0,
      "NumberOfPhaseEncodingSteps": 104,
      "PercentPhaseFieldOfView": 100.0,
      "PercentSampling": 100.0,
      "PerformedProcedureStepStartTime": "154315.971000",
      "PhotometricInterpretation": "MONOCHROME2",
      "PixelBandwidth": 2290.0,
      "PixelRepresentation": 0,
      "PixelSpacing": [2.0, 2.0],
      "ProtocolName": "func_task-mario3_run-03",
      "RepetitionTime": 1490.0,
      "RescaleIntercept": -4096.0,
      "RescaleSlope": 2.0,
      "RescaleType": "US",
      "Rows": 832,
      "SAR": 0.04032652388858,
      "SamplesPerPixel": 1,
      "ScanOptions": "FS",
      "ScanningSequence": "EP",
      "SequenceName": "epfid2d1_104",
      "SequenceVariant": [
        "SK",
        "SS"
],
      "SeriesDescription": "func_task-mario3_run-03",
      "SeriesNumber": 18,
      "SeriesTime": "160842.345000",
      "SliceLocation": -39.478771491479,
      "SliceThickness": 2.0,
      "SmallestImagePixelValue": 0,
      "SoftwareVersions": "syngo MR E11",
      "SpacingBetweenSlices": 2.0000000241781,
      "SpecificCharacterSet": "ISO_IR 100",
      "StudyID": "1",
      "StudyTime": "154315.897000",
      "TransmitCoilName": "Body",
      "VariableFlipAngleFlag": "N",
      "WindowCenterWidthExplanation": "Algo1",
      "dBdt": 0.0},
    "slices": {}
  },
  "time": {
    "samples": {
      "AcquisitionNumber": [1, 2, 3, 4, 5, 6, 7, 8, 9, 10, 11, 12, 13, 14, 15, 16, 17, 18, 19, 20, 21, 22, 23, 24, 25, 26, 27, 28, 29, 30, 31, 32, 33, 34, 35, 36, 37, 38, 39, 40, 41, 42, 43, 44, 45, 46, 47, 48, 49, 50, 51, 52, 53, 54, 55, 56, 57, 58, 59, 60, 61, 62, 63, 64, 65, 66, 67, 68, 69, 70, 71, 72, 73, 74, 75, 76, 77, 78, 79, 80, 81, 82, 83, 84, 85, 86, 87, 88, 89, 90, 91, 92, 93, 94, 95, 96, 97, 98, 99, 100, 101, 102, 103, 104, 105, 106, 107, 108, 109, 110, 111, 112, 113, 114, 115, 116, 117, 118, 119, 120, 121, 122, 123, 124, 125, 126, 127, 128, 129, 130, 131, 132, 133, 134, 135, 136, 137, 138, 139, 140, 141, 142, 143, 144, 145, 146, 147, 148, 149, 150, 151, 152, 153, 154, 155, 156, 157, 158, 159, 160, 161, 162, 163, 164, 165, 166, 167, 168, 169, 170, 171, 172, 173, 174, 175, 176, 177, 178, 179, 180, 181, 182, 183, 184, 185, 186, 187, 188, 189, 190, 191, 192, 193, 194, 195, 196, 197, 198, 199, 200, 201, 202, 203, 204, 205, 206, 207, 208, 209, 210, 211, 212, 213, 214, 215, 216, 217, 218, 219, 220, 221, 222, 223, 224, 225, 226, 227, 228, 229, 230, 231, 232, 233, 234, 235, 236, 237, 238, 239, 240, 241, 242, 243, 244, 245, 246, 247, 248, 249, 250, 251, 252, 253, 254, 255, 256, 257, 258, 259, 260, 261, 262, 263, 264, 265, 266, 267, 268, 269, 270, 271, 272, 273, 274, 275, 276, 277, 278, 279, 280, 281, 282, 283, 284, 285, 286, 287, 288, 289, 290, 291, 292, 293, 294, 295, 296, 297, 298, 299, 300, 301, 302, 303, 304, 305, 306, 307, 308, 309, 310, 311, 312, 313, 314, 315, 316, 317, 318, 319, 320, 321, 322, 323, 324, 325, 326, 327, 328, 329, 330, 331, 332, 333, 334, 335, 336, 337, 338, 339, 340, 341, 342, 343, 344, 345, 346, 347, 348, 349, 350, 351, 352, 353, 354, 355, 356, 357, 358, 359, 360, 361, 362, 363, 364, 365, 366, 367, 368, 369, 370, 371, 372, 373, 374, 375, 376, 377, 378, 379, 380, 381, 382, 383, 384, 385, 386, 387, 388, 389, 390, 391, 392, 393, 394, 395, 396, 397, 398, 399, 400, 401, 402, 403, 404, 405, 406, 407, 408, 409, 410, 411, 412, 413, 414, 415, 416, 417, 418, 419, 420, 421],
      "AcquisitionTime": ["160747.850000", "160749.340000", "160750.830000", "160752.320000", "160753.810000", "160755.300000", "160756.790000", "160758.280000", "160759.770000", "160801.260000", "160802.750000", "160804.240000", "160805.730000", "160807.220000", "160808.710000", "160810.200000", "160811.690000", "160813.180000", "160814.670000", "160816.160000", "160817.650000", "160819.140000", "160820.630000", "160822.120000", "160823.610000", "160825.100000", "160826.590000", "160828.080000", "160829.570000", "160831.060000", "160832.550000", "160834.040000", "160835.530000", "160837.020000", "160838.510000", "160840.000000", "160841.490000", "160842.980000", "160844.470000", "160845.960000", "160847.450000", "160848.940000", "160850.430000", "160851.920000", "160853.410000", "160854.900000", "160856.390000", "160857.880000", "160859.370000", "160900.860000", "160902.350000", "160903.840000", "160905.330000", "160906.820000", "160908.310000", "160909.800000", "160911.290000", "160912.780000", "160914.270000", "160915.760000", "160917.250000", "160918.740000", "160920.230000", "160921.720000", "160923.210000", "160924.700000", "160926.190000", "160927.680000", "160929.170000", "160930.660000", "160932.150000", "160933.640000", "160935.130000", "160936.620000", "160938.110000", "160939.600000", "160941.090000", "160942.580000", "160944.070000", "160945.560000", "160947.050000", "160948.540000", "160950.030000", "160951.520000", "160953.010000", "160954.500000", "160955.990000", "160957.480000", "160958.970000", "161000.460000", "161001.950000", "161003.440000", "161004.930000", "161006.420000", "161007.910000", "161009.400000", "161010.890000", "161012.380000", "161013.870000", "161015.360000", "161016.850000", "161018.340000", "161019.830000", "161021.320000", "161022.810000", "161024.300000", "161025.790000", "161027.280000", "161028.770000", "161030.260000", "161031.750000", "161033.240000", "161034.730000", "161036.220000", "161037.710000", "161039.200000", "161040.690000", "161042.180000", "161043.670000", "161045.160000", "161046.650000", "161048.140000", "161049.630000", "161051.120000", "161052.610000", "161054.100000", "161055.590000", "161057.080000", "161058.570000", "161100.060000", "161101.550000", "161103.040000", "161104.530000", "161106.020000", "161107.510000", "161109.000000", "161110.490000", "161111.980000", "161113.470000", "161114.960000", "161116.450000", "161117.940000", "161119.430000", "161120.920000", "161122.410000", "161123.900000", "161125.390000", "161126.880000", "161128.370000", "161129.860000", "161131.350000", "161132.840000", "161134.330000", "161135.820000", "161137.310000", "161138.800000", "161140.290000", "161141.780000", "161143.270000", "161144.760000", "161146.250000", "161147.740000", "161149.230000", "161150.720000", "161152.210000", "161153.700000", "161155.190000", "161156.680000", "161158.170000", "161159.660000", "161201.150000", "161202.640000", "161204.130000", "161205.620000", "161207.110000", "161208.600000", "161210.090000", "161211.580000", "161213.070000", "161214.560000", "161216.050000", "161217.540000", "161219.030000", "161220.520000", "161222.010000", "161223.500000", "161224.990000", "161226.480000", "161227.970000", "161229.460000", "161230.950000", "161232.440000", "161233.930000", "161235.420000", "161236.910000", "161238.400000", "161239.890000", "161241.380000", "161242.870000", "161244.360000", "161245.850000", "161247.340000", "161248.830000", "161250.320000", "161251.810000", "161253.300000", "161254.790000", "161256.280000", "161257.770000", "161259.260000", "161300.750000", "161302.240000", "161303.730000", "161305.220000", "161306.710000", "161308.200000", "161309.690000", "161311.180000", "161312.670000", "161314.160000", "161315.650000", "161317.140000", "161318.630000", "161320.120000", "161321.610000", "161323.100000", "161324.590000", "161326.080000", "161327.570000", "161329.060000", "161330.550000", "161332.040000", "161333.530000", "161335.020000", "161336.510000", "161338.000000", "161339.490000", "161340.980000", "161342.470000", "161343.960000", "161345.450000", "161346.940000", "161348.430000", "161349.920000", "161351.410000", "161352.900000", "161354.390000", "161355.880000", "161357.370000", "161358.860000", "161400.350000", "161401.840000", "161403.330000", "161404.820000", "161406.310000", "161407.800000", "161409.290000", "161410.780000", "161412.270000", "161413.760000", "161415.250000", "161416.740000", "161418.230000", "161419.720000", "161421.210000", "161422.700000", "161424.190000", "161425.680000", "161427.170000", "161428.660000", "161430.150000", "161431.640000", "161433.130000", "161434.620000", "161436.110000", "161437.600000", "161439.090000", "161440.580000", "161442.070000", "161443.560000", "161445.050000", "161446.540000", "161448.030000", "161449.520000", "161451.010000", "161452.500000", "161453.990000", "161455.480000", "161456.970000", "161458.460000", "161459.950000", "161501.440000", "161502.930000", "161504.420000", "161505.910000", "161507.400000", "161508.890000", "161510.380000", "161511.870000", "161513.360000", "161514.850000", "161516.340000", "161517.830000", "161519.320000", "161520.810000", "161522.300000", "161523.790000", "161525.280000", "161526.770000", "161528.260000", "161529.750000", "161531.240000", "161532.730000", "161534.220000", "161535.710000", "161537.200000", "161538.690000", "161540.180000", "161541.670000", "161543.160000", "161544.650000", "161546.140000", "161547.630000", "161549.120000", "161550.610000", "161552.100000", "161553.590000", "161555.080000", "161556.570000", "161558.060000", "161559.550000", "161601.040000", "161602.530000", "161604.020000", "161605.510000", "161607.000000", "161608.490000", "161609.980000", "161611.470000", "161612.960000", "161614.450000", "161615.940000", "161617.430000", "161618.920000", "161620.410000", "161621.900000", "161623.390000", "161624.880000", "161626.370000", "161627.860000", "161629.350000", "161630.840000", "161632.330000", "161633.820000", "161635.310000", "161636.800000", "161638.290000", "161639.780000", "161641.270000", "161642.760000", "161644.250000", "161645.740000", "161647.230000", "161648.720000", "161650.210000", "161651.700000", "161653.190000", "161654.680000", "161656.170000", "161657.660000", "161659.150000", "161700.640000", "161702.130000", "161703.620000", "161705.110000", "161706.600000", "161708.090000", "161709.580000", "161711.070000", "161712.560000", "161714.050000", "161715.540000", "161717.030000", "161718.520000", "161720.010000", "161721.500000", "161722.990000", "161724.480000", "161725.970000", "161727.460000", "161728.950000", "161730.440000", "161731.930000", "161733.420000", "161734.910000", "161736.400000", "161737.890000", "161739.380000", "161740.870000", "161742.360000", "161743.850000", "161745.340000", "161746.830000", "161748.320000", "161749.810000", "161751.300000", "161752.790000", "161754.280000", "161755.770000", "161757.260000", "161758.750000", "161800.240000", "161801.730000", "161803.220000", "161804.710000", "161806.200000", "161807.690000", "161809.180000", "161810.670000", "161812.160000", "161813.650000"],
      "ContentTime": ["160842.347000", "160842.350000", "160842.352000", "160842.355000", "160842.357000", "160902.374000", "160902.376000", "160902.379000", "160902.381000", "160902.390000", "160902.393000", "160902.395000", "160902.398000", "160902.400000", "160902.403000", "160902.405000", "160902.408000", "160902.410000", "160902.413000", "160902.415000", "160902.418000", "160902.420000", "160902.423000", "160902.425000", "160902.428000", "160922.390000", "160922.392000", "160922.395000", "160922.397000", "160922.400000", "160922.415000", "160922.418000", "160922.420000", "160922.422000", "160922.425000", "160922.427000", "160922.430000", "160922.432000", "160922.435000", "160922.437000", "160922.440000", "160922.442000", "160922.445000", "160922.447000", "160922.450000", "160942.371000", "160942.374000", "160942.376000", "160942.379000", "160942.381000", "160942.384000", "160942.386000", "160942.389000", "160942.391000", "160942.394000", "160942.396000", "160942.399000", "160942.401000", "160942.404000", "160942.406000", "160942.409000", "160942.411000", "160942.414000", "160942.416000", "160942.419000", "160942.421000", "161002.371000", "161002.373000", "161002.376000", "161002.378000", "161002.381000", "161002.383000", "161002.386000", "161002.388000", "161002.390000", "161002.393000", "161002.395000", "161002.398000", "161002.400000", "161002.403000", "161002.406000", "161002.408000", "161002.418000", "161002.421000", "161002.423000", "161002.426000", "161042.408000", "161042.411000", "161042.413000", "161042.416000", "161042.418000", "161042.421000", "161042.423000", "161042.426000", "161042.428000", "161042.431000", "161042.433000", "161042.436000", "161042.438000", "161042.441000", "161042.443000", "161042.446000", "161042.448000", "161042.451000", "161042.453000", "161042.456000", "161042.458000", "161042.461000", "161042.463000", "161042.466000", "161042.468000", "161042.470000", "161042.473000", "161042.477000", "161042.479000", "161042.482000", "161122.392000", "161122.395000", "161122.398000", "161122.400000", "161122.403000", "161122.405000", "161122.408000", "161122.410000", "161122.413000", "161122.415000", "161122.418000", "161122.420000", "161122.423000", "161122.425000", "161122.428000", "161122.430000", "161122.433000", "161122.435000", "161122.439000", "161122.441000", "161122.444000", "161122.447000", "161122.449000", "161122.451000", "161122.454000", "161122.456000", "161122.459000", "161202.394000", "161202.397000", "161202.400000", "161202.402000", "161202.405000", "161202.407000", "161202.410000", "161202.412000", "161202.415000", "161202.417000", "161202.419000", "161202.422000", "161202.425000", "161202.427000", "161202.430000", "161202.432000", "161202.434000", "161202.437000", "161202.439000", "161202.442000", "161202.444000", "161202.447000", "161202.449000", "161202.452000", "161202.454000", "161202.457000", "161202.459000", "161242.386000", "161242.389000", "161242.391000", "161242.394000", "161242.396000", "161242.399000", "161242.401000", "161242.404000", "161242.407000", "161242.409000", "161242.412000", "161242.414000", "161242.417000", "161242.419000", "161242.421000", "161242.424000", "161242.426000", "161242.429000", "161242.431000", "161242.434000", "161242.436000", "161242.439000", "161242.441000", "161242.444000", "161242.447000", "161242.449000", "161242.458000", "161322.399000", "161322.402000", "161322.405000", "161322.407000", "161322.410000", "161322.412000", "161322.414000", "161322.417000", "161322.419000", "161322.422000", "161322.424000", "161322.427000", "161322.429000", "161322.432000", "161322.434000", "161322.437000", "161322.439000", "161322.442000", "161322.444000", "161322.447000", "161322.449000", "161322.452000", "161322.454000", "161322.457000", "161322.459000", "161322.462000", "161322.468000", "161402.424000", "161402.427000", "161402.429000", "161402.432000", "161402.434000", "161402.437000", "161402.439000", "161402.442000", "161402.444000", "161402.447000", "161402.449000", "161402.452000", "161402.454000", "161402.456000", "161402.459000", "161402.461000", "161402.464000", "161402.466000", "161402.469000", "161402.471000", "161402.474000", "161402.476000", "161402.479000", "161402.481000", "161402.484000", "161402.486000", "161442.409000", "161442.412000", "161442.414000", "161442.417000", "161442.419000", "161442.422000", "161442.425000", "161442.427000", "161442.430000", "161442.432000", "161442.435000", "161442.437000", "161442.444000", "161442.446000", "161442.448000", "161442.451000", "161442.454000", "161442.456000", "161442.459000", "161442.461000", "161442.464000", "161442.466000", "161442.469000", "161442.471000", "161442.474000", "161442.476000", "161442.479000", "161522.401000", "161522.403000", "161522.406000", "161522.408000", "161522.411000", "161522.413000", "161522.416000", "161522.418000", "161522.421000", "161522.423000", "161522.426000", "161522.428000", "161522.431000", "161522.433000", "161522.436000", "161522.438000", "161522.441000", "161522.443000", "161522.446000", "161522.448000", "161522.451000", "161522.453000", "161522.456000", "161522.458000", "161522.461000", "161522.463000", "161522.466000", "161602.398000", "161602.401000", "161602.403000", "161602.406000", "161602.408000", "161602.411000", "161602.413000", "161602.416000", "161602.418000", "161602.421000", "161602.423000", "161602.426000", "161602.428000", "161602.430000", "161602.433000", "161602.436000", "161602.438000", "161602.441000", "161602.443000", "161602.446000", "161602.448000", "161602.451000", "161602.453000", "161602.456000", "161602.458000", "161602.460000", "161602.481000", "161642.394000", "161642.397000", "161642.399000", "161642.402000", "161642.404000", "161642.407000", "161642.409000", "161642.412000", "161642.414000", "161642.417000", "161642.419000", "161642.422000", "161642.424000", "161642.427000", "161642.429000", "161642.432000", "161642.434000", "161642.437000", "161642.439000", "161642.442000", "161642.444000", "161642.447000", "161642.449000", "161642.452000", "161642.454000", "161642.457000", "161642.459000", "161722.409000", "161722.412000", "161722.414000", "161722.417000", "161722.419000", "161722.422000", "161722.424000", "161722.427000", "161722.429000", "161722.432000", "161722.434000", "161722.437000", "161722.439000", "161722.442000", "161722.444000", "161722.447000", "161722.449000", "161722.452000", "161722.454000", "161722.457000", "161722.459000", "161722.462000", "161722.464000", "161722.467000", "161722.469000", "161722.472000", "161722.474000", "161802.856000", "161802.859000", "161802.861000", "161802.864000", "161802.867000", "161802.869000", "161802.871000", "161802.874000", "161802.877000", "161802.879000", "161802.881000", "161802.884000", "161802.887000", "161802.889000", "161802.892000", "161802.894000", "161802.896000", "161802.899000", "161802.901000", "161802.904000", "161802.906000", "161802.909000", "161802.911000", "161802.914000", "161802.916000", "161802.919000", "161802.921000", "161816.171000", "161816.173000", "161816.176000", "161816.178000", "161816.181000", "161816.184000", "161816.186000", "161816.189000", "161816.192000"],
      "InstanceCreationTime": ["160842.347000", "160842.350000", "160842.352000", "160842.355000", "160842.357000", "160902.374000", "160902.376000", "160902.379000", "160902.381000", "160902.390000", "160902.393000", "160902.395000", "160902.398000", "160902.400000", "160902.403000", "160902.405000", "160902.408000", "160902.410000", "160902.413000", "160902.415000", "160902.418000", "160902.420000", "160902.423000", "160902.425000", "160902.428000", "160922.390000", "160922.392000", "160922.395000", "160922.397000", "160922.400000", "160922.415000", "160922.418000", "160922.420000", "160922.422000", "160922.425000", "160922.427000", "160922.430000", "160922.432000", "160922.435000", "160922.437000", "160922.440000", "160922.442000", "160922.445000", "160922.447000", "160922.450000", "160942.371000", "160942.374000", "160942.376000", "160942.379000", "160942.381000", "160942.384000", "160942.386000", "160942.389000", "160942.391000", "160942.394000", "160942.396000", "160942.399000", "160942.401000", "160942.404000", "160942.406000", "160942.409000", "160942.411000", "160942.414000", "160942.416000", "160942.419000", "160942.421000", "161002.371000", "161002.373000", "161002.376000", "161002.378000", "161002.381000", "161002.383000", "161002.386000", "161002.388000", "161002.390000", "161002.393000", "161002.395000", "161002.398000", "161002.400000", "161002.403000", "161002.406000", "161002.408000", "161002.418000", "161002.421000", "161002.423000", "161002.426000", "161042.408000", "161042.411000", "161042.413000", "161042.416000", "161042.418000", "161042.421000", "161042.423000", "161042.426000", "161042.428000", "161042.431000", "161042.433000", "161042.436000", "161042.438000", "161042.441000", "161042.443000", "161042.446000", "161042.448000", "161042.451000", "161042.453000", "161042.456000", "161042.458000", "161042.461000", "161042.463000", "161042.466000", "161042.468000", "161042.470000", "161042.473000", "161042.477000", "161042.479000", "161042.482000", "161122.392000", "161122.395000", "161122.398000", "161122.400000", "161122.403000", "161122.405000", "161122.408000", "161122.410000", "161122.413000", "161122.415000", "161122.418000", "161122.420000", "161122.423000", "161122.425000", "161122.428000", "161122.430000", "161122.433000", "161122.435000", "161122.439000", "161122.441000", "161122.444000", "161122.447000", "161122.449000", "161122.451000", "161122.454000", "161122.456000", "161122.459000", "161202.394000", "161202.397000", "161202.400000", "161202.402000", "161202.405000", "161202.407000", "161202.410000", "161202.412000", "161202.415000", "161202.417000", "161202.419000", "161202.422000", "161202.425000", "161202.427000", "161202.430000", "161202.432000", "161202.434000", "161202.437000", "161202.439000", "161202.442000", "161202.444000", "161202.447000", "161202.449000", "161202.452000", "161202.454000", "161202.457000", "161202.459000", "161242.386000", "161242.389000", "161242.391000", "161242.394000", "161242.396000", "161242.399000", "161242.401000", "161242.404000", "161242.407000", "161242.409000", "161242.412000", "161242.414000", "161242.417000", "161242.419000", "161242.421000", "161242.424000", "161242.426000", "161242.429000", "161242.431000", "161242.434000", "161242.436000", "161242.439000", "161242.441000", "161242.444000", "161242.447000", "161242.449000", "161242.458000", "161322.399000", "161322.402000", "161322.405000", "161322.407000", "161322.410000", "161322.412000", "161322.414000", "161322.417000", "161322.419000", "161322.422000", "161322.424000", "161322.427000", "161322.429000", "161322.432000", "161322.434000", "161322.437000", "161322.439000", "161322.442000", "161322.444000", "161322.447000", "161322.449000", "161322.452000", "161322.454000", "161322.457000", "161322.459000", "161322.462000", "161322.468000", "161402.424000", "161402.427000", "161402.429000", "161402.432000", "161402.434000", "161402.437000", "161402.439000", "161402.442000", "161402.444000", "161402.447000", "161402.449000", "161402.452000", "161402.454000", "161402.456000", "161402.459000", "161402.461000", "161402.464000", "161402.466000", "161402.469000", "161402.471000", "161402.474000", "161402.476000", "161402.479000", "161402.481000", "161402.484000", "161402.486000", "161442.409000", "161442.412000", "161442.414000", "161442.417000", "161442.419000", "161442.422000", "161442.425000", "161442.427000", "161442.430000", "161442.432000", "161442.435000", "161442.437000", "161442.444000", "161442.446000", "161442.448000", "161442.451000", "161442.454000", "161442.456000", "161442.459000", "161442.461000", "161442.464000", "161442.466000", "161442.469000", "161442.471000", "161442.474000", "161442.476000", "161442.479000", "161522.401000", "161522.403000", "161522.406000", "161522.408000", "161522.411000", "161522.413000", "161522.416000", "161522.418000", "161522.421000", "161522.423000", "161522.426000", "161522.428000", "161522.431000", "161522.433000", "161522.436000", "161522.438000", "161522.441000", "161522.443000", "161522.446000", "161522.448000", "161522.451000", "161522.453000", "161522.456000", "161522.458000", "161522.461000", "161522.463000", "161522.466000", "161602.398000", "161602.401000", "161602.403000", "161602.406000", "161602.408000", "161602.411000", "161602.413000", "161602.416000", "161602.418000", "161602.421000", "161602.423000", "161602.426000", "161602.428000", "161602.430000", "161602.433000", "161602.436000", "161602.438000", "161602.441000", "161602.443000", "161602.446000", "161602.448000", "161602.451000", "161602.453000", "161602.456000", "161602.458000", "161602.460000", "161602.481000", "161642.394000", "161642.397000", "161642.399000", "161642.402000", "161642.404000", "161642.407000", "161642.409000", "161642.412000", "161642.414000", "161642.417000", "161642.419000", "161642.422000", "161642.424000", "161642.427000", "161642.429000", "161642.432000", "161642.434000", "161642.437000", "161642.439000", "161642.442000", "161642.444000", "161642.447000", "161642.449000", "161642.452000", "161642.454000", "161642.457000", "161642.459000", "161722.409000", "161722.412000", "161722.414000", "161722.417000", "161722.419000", "161722.422000", "161722.424000", "161722.427000", "161722.429000", "161722.432000", "161722.434000", "161722.437000", "161722.439000", "161722.442000", "161722.444000", "161722.447000", "161722.449000", "161722.452000", "161722.454000", "161722.457000", "161722.459000", "161722.462000", "161722.464000", "161722.467000", "161722.469000", "161722.472000", "161722.474000", "161802.856000", "161802.859000", "161802.861000", "161802.864000", "161802.867000", "161802.869000", "161802.871000", "161802.874000", "161802.877000", "161802.879000", "161802.881000", "161802.884000", "161802.887000", "161802.889000", "161802.892000", "161802.894000", "161802.896000", "161802.899000", "161802.901000", "161802.904000", "161802.906000", "161802.909000", "161802.911000", "161802.914000", "161802.916000", "161802.919000", "161802.921000", "161816.171000", "161816.173000", "161816.176000", "161816.178000", "161816.181000", "161816.184000", "161816.186000", "161816.189000", "161816.192000"],
