{
  "AcquisitionMatrixPE": 104,
  "AcquisitionNumber": 1,
  "AcquisitionTime": "15:46:47.820000",
  "BandwidthPerPixelPhaseEncode": 17.17,
  "BaseResolution": 104,
  "BodyPartExamined": "BRAIN",
  "CoilCombinationMethod": "Sum of Squares",
  "ConsistencyInfo": "N4_VE11C_LATEST_20160120",
  "ConversionSoftware": "dcm2niix",
  "ConversionSoftwareVersion": "v1.0.20220505",
  "DerivedVendorReportedEchoSpacing": 0.000560011,
  "DeviceSerialNumber": "167006",
  "DwellTime": 2.1e-06,
  "EchoTime": 0.037,
  "EchoTime1": 0.037,
  "EchoTime2": 0.001,
  "EchoTrainLength": 104,
  "EffectiveEchoSpacing": 0.000560011,
  "FlipAngle": 52,
  "HeudiconvVersion": "0.5.3.post811+g6206e14",
  "ImageComments": "Unaliased MB4/PE3/LB",
  "ImageOrientationPatientDICOM": [0.999235, -0.0356203, 0.0161209, 0.0390854, 0.920685, -0.388345],
  "ImageOrientationText": "Tra>Cor(-22.9)>Sag(0.1)",
  "ImageType": [
    "ORIGINAL",
    "PRIMARY",
    "P",
    "MB",
    "ND",
    "MOSAIC",
    "PHASE"
],
  "ImagingFrequency": 123.259,
  "InPlanePhaseEncodingDirectionDICOM": "COL",
  "InstitutionAddress": "Chemin Queen-Mary 4565,Montreal,District,CA,H3W 1W5",
  "InstitutionName": "IUGM",
  "InstitutionalDepartmentName": "Department",
  "MRAcquisitionType": "2D",
  "MagneticFieldStrength": 3,
  "Manufacturer": "Siemens",
  "ManufacturersModelName": "Prisma_fit",
  "MatrixCoilMode": "SENSE",
  "Modality": "MR",
  "MultibandAccelerationFactor": 4,
  "PartialFourier": 1,
  "PatientPosition": "HFS",
  "PercentPhaseFOV": 100,
  "PercentSampling": 100,
  "PhaseEncodingDirection": "j",
  "PhaseEncodingSteps": 104,
  "PhaseResolution": 1,
  "PixelBandwidth": 2290,
  "ProcedureStepDescription": "games^mario3",
  "ProtocolName": "func_task-mario3_run-01",
  "PulseSequenceDetails": "%CustomerSeq%\\cmrr_mbep2d_bold",
  "ReceiveCoilActiveElements": "HC1-7;NC1,2",
  "ReceiveCoilName": "HeadNeck_64",
  "ReconMatrixPE": 104,
  "RepetitionTime": 1.49,
  "SAR": 0.0403265,
  "ScanOptions": "FS",
  "ScanningSequence": "EP",
  "SequenceName": "epfid2d1_104",
  "SequenceVariant": "SK\\SS",
  "SeriesDescription": "func_task-mario3_run-01",
  "SeriesNumber": 11,
  "ShimSetting": [626, -7258, -8822, 528, 9, -209, -89, 0],
  "SliceThickness": 2,
  "SliceTiming": [0, 0.7825, 0.0975, 0.88, 0.195, 0.98, 0.2925, 1.0775, 0.3925, 1.175, 0.49, 1.2725, 0.5875, 1.37, 0.685, 0, 0.7825, 0.0975, 0.88, 0.195, 0.98, 0.2925, 1.0775, 0.3925, 1.175, 0.49, 1.2725, 0.5875, 1.37, 0.685, 0, 0.7825, 0.0975, 0.88, 0.195, 0.98, 0.2925, 1.0775, 0.3925, 1.175, 0.49, 1.2725, 0.5875, 1.37, 0.685, 0, 0.7825, 0.0975, 0.88, 0.195, 0.98, 0.2925, 1.0775, 0.3925, 1.175, 0.49, 1.2725, 0.5875, 1.37, 0.685],
  "SoftwareVersions": "syngo MR E11",
  "SpacingBetweenSlices": 2,
  "StationName": "MRC35049",
  "TaskName": "mario3",
  "TotalReadoutTime": 0.0576811,
  "TxRefAmp": 230.117,
  "WipMemBlock": "2761a447-c5e8-48bf-aa75-43fa669e7bc6||Sequence: R017 ve11c/master r/75a17815+; Jun 28 2022 16:32:11 by eja",
  "dcmmeta_affine": [
    [-1.9984707832336426, 0.07817082852125168, 0.002018504776060581, 102.85575103759766],
    [0.07124060392379761, 1.841369390487671, -0.7773569226264954, -65.21741485595703],
    [0.03224172070622444, 0.7766906023025513, 1.8427459001541138, -70.47220611572266],
    [0.0, 0.0, 0.0, 1.0]
],
  "dcmmeta_reorient_transform": [
    [0.0, -1.0, 0.0, 103.0],
    [1.0, 0.0, 0.0, 0.0],
    [0.0, 0.0, 1.0, 0.0],
    [0.0, 0.0, 0.0, 1.0]
],
  "dcmmeta_shape": [104, 104, 60, 292],
  "dcmmeta_slice_dim": 2,
  "dcmmeta_version": 0.6,
  "global": {
    "const": {
      "AcquisitionMatrix": [104, 0, 0, 104],
      "AngioFlag": "N",
      "BitsAllocated": 16,
      "BitsStored": 16,
      "BodyPartExamined": "BRAIN",
      "Columns": 832,
      "EchoNumbers": 1,
      "EchoTime": 37.0,
      "EchoTrainLength": 104,
      "FlipAngle": 52.0,
      "HighBit": 15,
      "ImageOrientationPatient": [0.99923536363111, -0.0356203019993, 0.01612086084824, 0.0390854126061, 0.9206846668406, -0.38834530352],
      "ImagePositionPatient": [-866.80487193241, -768.77048605721, 280.50632048563],
      "ImageType": [
        "ORIGINAL",
        "PRIMARY",
        "P",
        "MB",
        "ND",
        "MOSAIC"
],
      "ImagedNucleus": "1H",
      "ImagingFrequency": 123.25881,
      "InPlanePhaseEncodingDirection": "COL",
      "LargestImagePixelValue": 4095,
      "MRAcquisitionType": "2D",
      "MagneticFieldStrength": 3.0,
      "Manufacturer": "SIEMENS",
      "ManufacturerModelName": "Prisma_fit",
      "Modality": "MR",
      "NumberOfAverages": 1.0,
      "NumberOfPhaseEncodingSteps": 104,
      "PercentPhaseFieldOfView": 100.0,
      "PercentSampling": 100.0,
      "PerformedProcedureStepStartTime": "154315.971000",
      "PhotometricInterpretation": "MONOCHROME2",
      "PixelBandwidth": 2290.0,
      "PixelRepresentation": 0,
      "PixelSpacing": [2.0, 2.0],
      "ProtocolName": "func_task-mario3_run-01",
      "RepetitionTime": 1490.0,
      "RescaleIntercept": -4096.0,
      "RescaleSlope": 2.0,
      "RescaleType": "US",
      "Rows": 832,
      "SAR": 0.04032652388858,
      "SamplesPerPixel": 1,
      "ScanOptions": "FS",
      "ScanningSequence": "EP",
      "SequenceName": "epfid2d1_104",
      "SequenceVariant": [
        "SK",
        "SS"
],
      "SeriesDescription": "func_task-mario3_run-01",
      "SeriesNumber": 11,
      "SeriesTime": "154742.353000",
      "SliceLocation": -39.478771491479,
      "SliceThickness": 2.0,
      "SmallestImagePixelValue": 0,
      "SoftwareVersions": "syngo MR E11",
      "SpacingBetweenSlices": 2.0000000241781,
      "SpecificCharacterSet": "ISO_IR 100",
      "StudyID": "1",
      "StudyTime": "154315.897000",
      "TransmitCoilName": "Body",
      "VariableFlipAngleFlag": "N",
      "WindowCenterWidthExplanation": "Algo1",
      "dBdt": 0.0},
    "slices": {}
  },
  "time": {
    "samples": {
      "AcquisitionNumber": [1, 2, 3, 4, 5, 6, 7, 8, 9, 10, 11, 12, 13, 14, 15, 16, 17, 18, 19, 20, 21, 22, 23, 24, 25, 26, 27, 28, 29, 30, 31, 32, 33, 34, 35, 36, 37, 38, 39, 40, 41, 42, 43, 44, 45, 46, 47, 48, 49, 50, 51, 52, 53, 54, 55, 56, 57, 58, 59, 60, 61, 62, 63, 64, 65, 66, 67, 68, 69, 70, 71, 72, 73, 74, 75, 76, 77, 78, 79, 80, 81, 82, 83, 84, 85, 86, 87, 88, 89, 90, 91, 92, 93, 94, 95, 96, 97, 98, 99, 100, 101, 102, 103, 104, 105, 106, 107, 108, 109, 110, 111, 112, 113, 114, 115, 116, 117, 118, 119, 120, 121, 122, 123, 124, 125, 126, 127, 128, 129, 130, 131, 132, 133, 134, 135, 136, 137, 138, 139, 140, 141, 142, 143, 144, 145, 146, 147, 148, 149, 150, 151, 152, 153, 154, 155, 156, 157, 158, 159, 160, 161, 162, 163, 164, 165, 166, 167, 168, 169, 170, 171, 172, 173, 174, 175, 176, 177, 178, 179, 180, 181, 182, 183, 184, 185, 186, 187, 188, 189, 190, 191, 192, 193, 194, 195, 196, 197, 198, 199, 200, 201, 202, 203, 204, 205, 206, 207, 208, 209, 210, 211, 212, 213, 214, 215, 216, 217, 218, 219, 220, 221, 222, 223, 224, 225, 226, 227, 228, 229, 230, 231, 232, 233, 234, 235, 236, 237, 238, 239, 240, 241, 242, 243, 244, 245, 246, 247, 248, 249, 250, 251, 252, 253, 254, 255, 256, 257, 258, 259, 260, 261, 262, 263, 264, 265, 266, 267, 268, 269, 270, 271, 272, 273, 274, 275, 276, 277, 278, 279, 280, 281, 282, 283, 284, 285, 286, 287, 288, 289, 290, 291, 292],
      "AcquisitionTime": ["154647.820000", "154649.310000", "154650.800000", "154652.290000", "154653.780000", "154655.270000", "154656.760000", "154658.250000", "154659.740000", "154701.230000", "154702.720000", "154704.210000", "154705.700000", "154707.190000", "154708.680000", "154710.170000", "154711.660000", "154713.150000", "154714.640000", "154716.130000", "154717.620000", "154719.110000", "154720.600000", "154722.090000", "154723.580000", "154725.070000", "154726.560000", "154728.050000", "154729.540000", "154731.030000", "154732.520000", "154734.010000", "154735.500000", "154736.990000", "154738.480000", "154739.970000", "154741.460000", "154742.950000", "154744.440000", "154745.930000", "154747.420000", "154748.910000", "154750.400000", "154751.890000", "154753.380000", "154754.870000", "154756.360000", "154757.850000", "154759.340000", "154800.830000", "154802.320000", "154803.810000", "154805.300000", "154806.790000", "154808.280000", "154809.770000", "154811.260000", "154812.750000", "154814.240000", "154815.730000", "154817.220000", "154818.710000", "154820.200000", "154821.690000", "154823.180000", "154824.670000", "154826.160000", "154827.650000", "154829.140000", "154830.630000", "154832.120000", "154833.610000", "154835.100000", "154836.590000", "154838.080000", "154839.570000", "154841.060000", "154842.550000", "154844.040000", "154845.530000", "154847.020000", "154848.510000", "154850.000000", "154851.490000", "154852.980000", "154854.470000", "154855.960000", "154857.450000", "154858.940000", "154900.430000", "154901.920000", "154903.410000", "154904.900000", "154906.390000", "154907.880000", "154909.370000", "154910.860000", "154912.350000", "154913.840000", "154915.330000", "154916.820000", "154918.310000", "154919.800000", "154921.290000", "154922.780000", "154924.270000", "154925.760000", "154927.250000", "154928.740000", "154930.230000", "154931.720000", "154933.210000", "154934.700000", "154936.190000", "154937.680000", "154939.170000", "154940.660000", "154942.150000", "154943.640000", "154945.130000", "154946.620000", "154948.110000", "154949.600000", "154951.090000", "154952.580000", "154954.070000", "154955.560000", "154957.050000", "154958.540000", "155000.030000", "155001.520000", "155003.010000", "155004.500000", "155005.990000", "155007.480000", "155008.970000", "155010.460000", "155011.950000", "155013.440000", "155014.930000", "155016.420000", "155017.910000", "155019.400000", "155020.890000", "155022.380000", "155023.870000", "155025.360000", "155026.850000", "155028.340000", "155029.830000", "155031.320000", "155032.810000", "155034.300000", "155035.790000", "155037.280000", "155038.770000", "155040.260000", "155041.750000", "155043.240000", "155044.730000", "155046.220000", "155047.710000", "155049.200000", "155050.690000", "155052.180000", "155053.670000", "155055.160000", "155056.650000", "155058.140000", "155059.630000", "155101.120000", "155102.610000", "155104.100000", "155105.590000", "155107.080000", "155108.570000", "155110.060000", "155111.550000", "155113.040000", "155114.530000", "155116.020000", "155117.510000", "155119.000000", "155120.490000", "155121.980000", "155123.470000", "155124.960000", "155126.450000", "155127.940000", "155129.430000", "155130.920000", "155132.410000", "155133.900000", "155135.390000", "155136.880000", "155138.370000", "155139.860000", "155141.350000", "155142.840000", "155144.330000", "155145.820000", "155147.310000", "155148.800000", "155150.290000", "155151.780000", "155153.270000", "155154.760000", "155156.250000", "155157.740000", "155159.230000", "155200.720000", "155202.210000", "155203.700000", "155205.190000", "155206.680000", "155208.170000", "155209.660000", "155211.150000", "155212.640000", "155214.130000", "155215.620000", "155217.110000", "155218.600000", "155220.090000", "155221.580000", "155223.070000", "155224.560000", "155226.050000", "155227.540000", "155229.030000", "155230.520000", "155232.010000", "155233.500000", "155234.990000", "155236.480000", "155237.970000", "155239.460000", "155240.950000", "155242.440000", "155243.930000", "155245.420000", "155246.910000", "155248.400000", "155249.890000", "155251.380000", "155252.870000", "155254.360000", "155255.850000", "155257.340000", "155258.830000", "155300.320000", "155301.810000", "155303.300000", "155304.790000", "155306.280000", "155307.770000", "155309.260000", "155310.750000", "155312.240000", "155313.730000", "155315.220000", "155316.710000", "155318.200000", "155319.690000", "155321.180000", "155322.670000", "155324.160000", "155325.650000", "155327.140000", "155328.630000", "155330.120000", "155331.610000", "155333.100000", "155334.590000", "155336.080000", "155337.570000", "155339.060000", "155340.550000", "155342.040000", "155343.530000", "155345.020000", "155346.510000", "155348.000000", "155349.490000", "155350.980000", "155352.470000", "155353.960000", "155355.450000", "155356.940000", "155358.430000", "155359.920000", "155401.410000"],
      "ContentTime": ["154742.355000", "154742.358000", "154742.368000", "154742.378000", "154742.380000", "154742.382000", "154742.385000", "154802.393000", "154802.395000", "154802.398000", "154802.400000", "154802.403000", "154802.405000", "154802.408000", "154802.410000", "154802.413000", "154802.415000", "154802.418000", "154802.421000", "154802.423000", "154802.425000", "154802.428000", "154802.431000", "154802.433000", "154802.436000", "154802.438000", "154802.441000", "154822.363000", "154822.366000", "154822.369000", "154822.371000", "154822.373000", "154822.376000", "154822.378000", "154822.381000", "154822.383000", "154822.386000", "154822.388000", "154822.391000", "154822.393000", "154822.396000", "154822.398000", "154822.401000", "154822.403000", "154822.406000", "154822.408000", "154822.411000", "154822.413000", "154842.374000", "154842.377000", "154842.379000", "154842.382000", "154842.384000", "154842.387000", "154842.389000", "154842.400000", "154842.404000", "154842.406000", "154842.409000", "154842.411000", "154842.414000", "154842.416000", "154842.419000", "154842.421000", "154842.424000", "154842.426000", "154842.429000", "154842.431000", "154902.379000", "154902.382000", "154902.384000", "154902.387000", "154902.389000", "154902.392000", "154902.394000", "154902.405000", "154902.408000", "154902.410000", "154902.413000", "154902.415000", "154902.417000", "154902.420000", "154902.422000", "154902.425000", "154902.427000", "154902.430000", "154902.432000", "154902.435000", "154942.405000", "154942.408000", "154942.410000", "154942.413000", "154942.415000", "154942.418000", "154942.420000", "154942.422000", "154942.425000", "154942.427000", "154942.430000", "154942.433000", "154942.435000", "154942.439000", "154942.441000", "154942.444000", "154942.446000", "154942.449000", "154942.451000", "154942.454000", "154942.456000", "154942.459000", "154942.461000", "154942.464000", "154942.466000", "154942.469000", "154942.471000", "154942.473000", "155022.401000", "155022.404000", "155022.406000", "155022.409000", "155022.411000", "155022.414000", "155022.416000", "155022.419000", "155022.421000", "155022.424000", "155022.426000", "155022.429000", "155022.432000", "155022.434000", "155022.437000", "155022.439000", "155022.442000", "155022.444000", "155022.447000", "155022.449000", "155022.452000", "155022.454000", "155022.457000", "155022.459000", "155022.462000", "155022.464000", "155022.467000", "155102.403000", "155102.406000", "155102.408000", "155102.411000", "155102.413000", "155102.416000", "155102.419000", "155102.421000", "155102.424000", "155102.426000", "155102.429000", "155102.439000", "155102.442000", "155102.444000", "155102.447000", "155102.449000", "155102.452000", "155102.454000", "155102.457000", "155102.459000", "155102.462000", "155102.464000", "155102.467000", "155102.469000", "155102.472000", "155102.474000", "155102.477000", "155142.395000", "155142.398000", "155142.400000", "155142.403000", "155142.405000", "155142.408000", "155142.410000", "155142.413000", "155142.415000", "155142.418000", "155142.420000", "155142.423000", "155142.425000", "155142.428000", "155142.430000", "155142.433000", "155142.435000", "155142.438000", "155142.440000", "155142.443000", "155142.445000", "155142.448000", "155142.450000", "155142.453000", "155142.455000", "155142.458000", "155142.460000", "155223.037000", "155223.040000", "155223.042000", "155223.045000", "155223.047000", "155223.049000", "155223.052000", "155223.054000", "155223.057000", "155223.059000", "155223.062000", "155223.064000", "155223.067000", "155223.069000", "155223.072000", "155223.074000", "155223.077000", "155223.079000", "155223.082000", "155223.084000", "155223.087000", "155223.089000", "155223.092000", "155223.094000", "155223.097000", "155223.099000", "155223.102000", "155302.399000", "155302.401000", "155302.404000", "155302.406000", "155302.409000", "155302.411000", "155302.414000", "155302.416000", "155302.419000", "155302.422000", "155302.424000", "155302.427000", "155302.429000", "155302.432000", "155302.435000", "155302.437000", "155302.440000", "155302.442000", "155302.445000", "155302.447000", "155302.450000", "155302.452000", "155302.455000", "155302.457000", "155302.460000", "155302.462000", "155302.465000", "155342.401000", "155342.404000", "155342.406000", "155342.409000", "155342.411000", "155342.414000", "155342.416000", "155342.419000", "155342.421000", "155342.424000", "155342.426000", "155342.429000", "155342.431000", "155342.434000", "155342.436000", "155342.439000", "155342.441000", "155342.444000", "155342.446000", "155342.449000", "155342.451000", "155342.454000", "155342.457000", "155342.459000", "155342.462000", "155342.464000", "155403.718000", "155403.721000", "155403.723000", "155403.726000", "155403.728000", "155403.731000", "155403.733000", "155403.736000", "155403.738000", "155403.740000", "155403.743000", "155403.745000", "155403.748000", "155403.750000", "155403.753000"],
      "InstanceCreationTime": ["154742.355000", "154742.358000", "154742.368000", "154742.378000", "154742.380000", "154742.382000", "154742.385000", "154802.393000", "154802.395000", "154802.398000", "154802.400000", "154802.403000", "154802.405000", "154802.408000", "154802.410000", "154802.413000", "154802.415000", "154802.418000", "154802.421000", "154802.423000", "154802.425000", "154802.428000", "154802.431000", "154802.433000", "154802.436000", "154802.438000", "154802.441000", "154822.363000", "154822.366000", "154822.369000", "154822.371000", "154822.373000", "154822.376000", "154822.378000", "154822.381000", "154822.383000", "154822.386000", "154822.388000", "154822.391000", "154822.393000", "154822.396000", "154822.398000", "154822.401000", "154822.403000", "154822.406000", "154822.408000", "154822.411000", "154822.413000", "154842.374000", "154842.377000", "154842.379000", "154842.382000", "154842.384000", "154842.387000", "154842.389000", "154842.400000", "154842.404000", "154842.406000", "154842.409000", "154842.411000", "154842.414000", "154842.416000", "154842.419000", "154842.421000", "154842.424000", "154842.426000", "154842.429000", "154842.431000", "154902.379000", "154902.382000", "154902.384000", "154902.387000", "154902.389000", "154902.392000", "154902.394000", "154902.405000", "154902.408000", "154902.410000", "154902.413000", "154902.415000", "154902.417000", "154902.420000", "154902.422000", "154902.425000", "154902.427000", "154902.430000", "154902.432000", "154902.435000", "154942.405000", "154942.408000", "154942.410000", "154942.413000", "154942.415000", "154942.418000", "154942.420000", "154942.422000", "154942.425000", "154942.427000", "154942.430000", "154942.433000", "154942.435000", "154942.439000", "154942.441000", "154942.444000", "154942.446000", "154942.449000", "154942.451000", "154942.454000", "154942.456000", "154942.459000", "154942.461000", "154942.464000", "154942.466000", "154942.469000", "154942.471000", "154942.473000", "155022.401000", "155022.404000", "155022.406000", "155022.409000", "155022.411000", "155022.414000", "155022.416000", "155022.419000", "155022.421000", "155022.424000", "155022.426000", "155022.429000", "155022.432000", "155022.434000", "155022.437000", "155022.439000", "155022.442000", "155022.444000", "155022.447000", "155022.449000", "155022.452000", "155022.454000", "155022.457000", "155022.459000", "155022.462000", "155022.464000", "155022.467000", "155102.403000", "155102.406000", "155102.408000", "155102.411000", "155102.413000", "155102.416000", "155102.419000", "155102.421000", "155102.424000", "155102.426000", "155102.429000", "155102.439000", "155102.442000", "155102.444000", "155102.447000", "155102.449000", "155102.452000", "155102.454000", "155102.457000", "155102.459000", "155102.462000", "155102.464000", "155102.467000", "155102.469000", "155102.472000", "155102.474000", "155102.477000", "155142.395000", "155142.398000", "155142.400000", "155142.403000", "155142.405000", "155142.408000", "155142.410000", "155142.413000", "155142.415000", "155142.418000", "155142.420000", "155142.423000", "155142.425000", "155142.428000", "155142.430000", "155142.433000", "155142.435000", "155142.438000", "155142.440000", "155142.443000", "155142.445000", "155142.448000", "155142.450000", "155142.453000", "155142.455000", "155142.458000", "155142.460000", "155223.037000", "155223.040000", "155223.042000", "155223.045000", "155223.047000", "155223.049000", "155223.052000", "155223.054000", "155223.057000", "155223.059000", "155223.062000", "155223.064000", "155223.067000", "155223.069000", "155223.072000", "155223.074000", "155223.077000", "155223.079000", "155223.082000", "155223.084000", "155223.087000", "155223.089000", "155223.092000", "155223.094000", "155223.097000", "155223.099000", "155223.102000", "155302.399000", "155302.401000", "155302.404000", "155302.406000", "155302.409000", "155302.411000", "155302.414000", "155302.416000", "155302.419000", "155302.422000", "155302.424000", "155302.427000", "155302.429000", "155302.432000", "155302.435000", "155302.437000", "155302.440000", "155302.442000", "155302.445000", "155302.447000", "155302.450000", "155302.452000", "155302.455000", "155302.457000", "155302.460000", "155302.462000", "155302.465000", "155342.401000", "155342.404000", "155342.406000", "155342.409000", "155342.411000", "155342.414000", "155342.416000", "155342.419000", "155342.421000", "155342.424000", "155342.426000", "155342.429000", "155342.431000", "155342.434000", "155342.436000", "155342.439000", "155342.441000", "155342.444000", "155342.446000", "155342.449000", "155342.451000", "155342.454000", "155342.457000", "155342.459000", "155342.462000", "155342.464000", "155403.718000", "155403.721000", "155403.723000", "155403.726000", "155403.728000", "155403.731000", "155403.733000", "155403.736000", "155403.738000", "155403.740000", "155403.743000", "155403.745000", "155403.748000", "155403.750000", "155403.753000"],
      "InstanceNumber": [1, 2, 3, 4, 5, 6, 7, 8, 9, 10, 11, 12, 13, 14, 15, 16, 17, 18, 19, 20, 21, 22, 23, 24, 25, 26, 27, 28, 29, 30, 31, 32, 33, 34, 35, 36, 37, 38, 39, 40, 41, 42, 43, 44, 45, 46, 47, 48, 49, 50, 51, 52, 53, 54, 55, 56, 57, 58, 59, 60, 61, 62, 63, 64, 65, 66, 67, 68, 69, 70, 71, 72, 73, 74, 75, 76, 77, 78, 79, 80, 81, 82, 83, 84, 85, 86, 87, 88, 89, 90, 91, 92, 93, 94, 95, 96, 97, 98, 99, 100, 101, 102, 103, 104, 105, 106, 107, 108, 109, 110, 111, 112, 113, 114, 115, 116, 117, 118, 119, 120, 121, 122, 123, 124, 125, 126, 127, 128, 129, 130, 131, 132, 133, 134, 135, 136, 137, 138, 139, 140, 141, 142, 143, 144, 145, 146, 147, 148, 149, 150, 151, 152, 153, 154, 155, 156, 157, 158, 159, 160, 161, 162, 163, 164, 165, 166, 167, 168, 169, 170, 171, 172, 173, 174, 175, 176, 177, 178, 179, 180, 181, 182, 183, 184, 185, 186, 187, 188, 189, 190, 191, 192, 193, 194, 195, 196, 197, 198, 199, 200, 201, 202, 203, 204, 205, 206, 207, 208, 209, 210, 211, 212, 213, 214, 215, 216, 217, 218, 219, 220, 221, 222, 223, 224, 225, 226, 227, 228, 229, 230, 231, 232, 233, 234, 235, 236, 237, 238, 239, 240, 241, 242, 243, 244, 245, 246, 247, 248, 249, 250, 251, 252, 253, 254, 255, 256, 257, 258, 259, 260, 261, 262, 263, 264, 265, 266, 267, 268, 269, 270, 271, 272, 273, 274, 275, 276, 277, 278, 279, 280, 281, 282, 283, 284, 285, 286, 287, 288, 289, 290, 291, 292],
      "WindowCenter": [4772.0, 4770.0, 4770.0, 4772.0, 4750.0, 4768.0, 4750.0, 4766.0, 4770.0, 4774.0, 4772.0, 4770.0, 4772.0, 4770.0, 4776.0, 4770.0, 4774.0, 4768.0, 4772.0, 4772.0, 4750.0, 4770.0, 4772.0, 4748.0, 4770.0, 4774.0, 4768.0, 4772.0, 4770.0, 4770.0, 4774.0, 4772.0, 4752.0, 4774.0, 4772.0, 4750.0, 4772.0, 4774.0, 4774.0, 4770.0, 4772.0, 4770.0, 4772.0, 4776.0, 4772.0, 4772.0, 4772.0, 4772.0, 4772.0, 4778.0, 4752.0, 4772.0, 4770.0, 4772.0, 4774.0, 4778.0, 4770.0, 4776.0, 4774.0, 4770.0, 4772.0, 4778.0, 4774.0, 4776.0, 4776.0, 4748.0, 4772.0, 4776.0, 4776.0, 4750.0, 4774.0, 4774.0, 4776.0, 4752.0, 4778.0, 4774.0, 4778.0, 4774.0, 4750.0, 4772.0, 4776.0, 4774.0, 4772.0, 4776.0, 4776.0, 4774.0, 4772.0, 4774.0, 4776.0, 4754.0, 4776.0, 4776.0, 4774.0, 4776.0, 4776.0, 4772.0, 4778.0, 4754.0, 4774.0, 4776.0, 4776.0, 4776.0, 4776.0, 4772.0, 4774.0, 4752.0, 4754.0, 4774.0, 4778.0, 4772.0, 4776.0, 4774.0, 4776.0, 4776.0, 4776.0, 4776.0, 4774.0, 4752.0, 4774.0, 4774.0, 4772.0, 4772.0, 4776.0, 4776.0, 4772.0, 4776.0, 4778.0, 4776.0, 4774.0, 4776.0, 4774.0, 4778.0, 4776.0, 4776.0, 4778.0, 4776.0, 4774.0, 4776.0, 4774.0, 4776.0, 4776.0, 4770.0, 4776.0, 4772.0, 4776.0, 4776.0, 4778.0, 4774.0, 4780.0, 4774.0, 4778.0, 4776.0, 4756.0, 4774.0, 4778.0, 4778.0, 4774.0, 4776.0, 4776.0, 4772.0, 4772.0, 4770.0, 4778.0, 4774.0, 4776.0, 4774.0, 4774.0, 4772.0, 4774.0, 4774.0, 4780.0, 4774.0, 4770.0, 4774.0, 4772.0, 4770.0, 4756.0, 4752.0, 4752.0, 4776.0, 4776.0, 4774.0, 4778.0, 4774.0, 4776.0, 4776.0, 4782.0, 4772.0, 4776.0, 4756.0, 4776.0, 4774.0, 4756.0, 4774.0, 4772.0, 4772.0, 4772.0, 4750.0, 4774.0, 4750.0, 4770.0, 4748.0, 4776.0, 4752.0, 4776.0, 4772.0, 4774.0, 4752.0, 4772.0, 4772.0, 4752.0, 4776.0, 4776.0, 4748.0, 4774.0, 4774.0, 4776.0, 4776.0, 4770.0, 4774.0, 4752.0, 4774.0, 4774.0, 4776.0, 4750.0, 4776.0, 4774.0, 4776.0, 4774.0, 4772.0, 4750.0, 4778.0, 4754.0, 4778.0, 4776.0, 4774.0, 4774.0, 4774.0, 4776.0, 4774.0, 4772.0, 4776.0, 4774.0, 4776.0, 4774.0, 4752.0, 4772.0, 4754.0, 4770.0, 4774.0, 4772.0, 4774.0, 4752.0, 4764.0, 4756.0, 4776.0, 4772.0, 4772.0, 4774.0, 4776.0, 4754.0, 4750.0, 4756.0, 4752.0, 4772.0, 4774.0, 4770.0, 4772.0, 4772.0, 4774.0, 4774.0, 4750.0, 4772.0, 4772.0, 4752.0, 4750.0, 4750.0, 4770.0, 4776.0, 4772.0, 4774.0, 4780.0, 4748.0, 4772.0, 4776.0, 4752.0, 4772.0, 4754.0, 4750.0, 4748.0, 4750.0, 4774.0],
      "WindowWidth": [18584.0, 18582.0, 18578.0, 18580.0, 18544.0, 18578.0, 18546.0, 18574.0, 18580.0, 18580.0, 18580.0, 18580.0, 18572.0, 18578.0, 18584.0, 18578.0, 18582.0, 18578.0, 18582.0, 18576.0, 18544.0, 18576.0, 18578.0, 18542.0, 18576.0, 18580.0, 18576.0, 18580.0, 18576.0, 18576.0, 18576.0, 18576.0, 18544.0, 18572.0, 18580.0, 18540.0, 18570.0, 18580.0, 18578.0, 18576.0, 18580.0, 18574.0, 18580.0, 18570.0, 18572.0, 18576.0, 18570.0, 18580.0, 18578.0, 18576.0, 18544.0, 18582.0, 18572.0, 18580.0, 18578.0, 18582.0, 18576.0, 18574.0, 18574.0, 18572.0, 18578.0, 18578.0, 18582.0, 18580.0, 18576.0, 18546.0, 18574.0, 18580.0, 18576.0, 18544.0, 18576.0, 18570.0, 18580.0, 18540.0, 18586.0, 18576.0, 18580.0, 18572.0, 18542.0, 18574.0, 18576.0, 18572.0, 18574.0, 18576.0, 18574.0, 18574.0, 18578.0, 18574.0, 18582.0, 18544.0, 18580.0, 18578.0, 18574.0, 18574.0, 18578.0, 18578.0, 18566.0, 18540.0, 18578.0, 18586.0, 18580.0, 18578.0, 18574.0, 18574.0, 18572.0, 18544.0, 18542.0, 18574.0, 18574.0, 18574.0, 18576.0, 18574.0, 18578.0, 18570.0, 18576.0, 18572.0, 18568.0, 18542.0, 18576.0, 18574.0, 18576.0, 18572.0, 18578.0, 18578.0, 18574.0, 18572.0, 18580.0, 18570.0, 18576.0, 18574.0, 18580.0, 18578.0, 18574.0, 18580.0, 18576.0, 18574.0, 18576.0, 18576.0, 18572.0, 18572.0, 18576.0, 18566.0, 18572.0, 18574.0, 18576.0, 18574.0, 18576.0, 18570.0, 18574.0, 18572.0, 18582.0, 18576.0, 18538.0, 18576.0, 18576.0, 18578.0, 18570.0, 18570.0, 18578.0, 18574.0, 18576.0, 18574.0, 18572.0, 18572.0, 18576.0, 18572.0, 18572.0, 18572.0, 18570.0, 18578.0, 18574.0, 18576.0, 18572.0, 18572.0, 18574.0, 18570.0, 18542.0, 18540.0, 18542.0, 18572.0, 18572.0, 18574.0, 18574.0, 18576.0, 18574.0, 18572.0, 18580.0, 18574.0, 18574.0, 18536.0, 18574.0, 18574.0, 18542.0, 18574.0, 18572.0, 18570.0, 18576.0, 18532.0, 18578.0, 18542.0, 18574.0, 18538.0, 18578.0, 18538.0, 18578.0, 18572.0, 18572.0, 18540.0, 18570.0, 18570.0, 18540.0, 18576.0, 18578.0, 18536.0, 18574.0, 18570.0, 18576.0, 18572.0, 18574.0, 18570.0, 18542.0, 18570.0, 18570.0, 18574.0, 18542.0, 18572.0, 18572.0, 18572.0, 18572.0, 18570.0, 18544.0, 18570.0, 18542.0, 18576.0, 18568.0, 18574.0, 18570.0, 18576.0, 18568.0, 18576.0, 18568.0, 18578.0, 18570.0, 18570.0, 18572.0, 18542.0, 18570.0, 18536.0, 18570.0, 18572.0, 18570.0, 18572.0, 18540.0, 18528.0, 18538.0, 18580.0, 18580.0, 18584.0, 18578.0, 18580.0, 18530.0, 18544.0, 18536.0, 18540.0, 18570.0, 18570.0, 18568.0, 18568.0, 18576.0, 18574.0, 18576.0, 18538.0, 18570.0, 18570.0, 18540.0, 18538.0, 18538.0, 18572.0, 18576.0, 18578.0, 18570.0, 18572.0, 18536.0, 18580.0, 18572.0, 18540.0, 18572.0, 18536.0, 18538.0, 18540.0, 18540.0, 18576.0]
    },
    "slices": {}
  }
}