{
  "AcquisitionMatrixPE": 104,
  "AcquisitionNumber": 1,
  "AcquisitionTime": "11:54:44.857500",
  "BandwidthPerPixelPhaseEncode": 17.17,
  "BaseResolution": 104,
  "BodyPartExamined": "BRAIN",
  "CoilCombinationMethod": "Sum of Squares",
  "ConsistencyInfo": "N4_VE11C_LATEST_20160120",
  "ConversionSoftware": "dcm2niix",
  "ConversionSoftwareVersion": "v1.0.20220505",
  "DerivedVendorReportedEchoSpacing": 0.000560011,
  "DeviceSerialNumber": "167006",
  "DwellTime": 2.1e-06,
  "EchoTime": 0.037,
  "EchoTime1": 0.037,
  "EchoTime2": 0.001,
  "EchoTrainLength": 104,
  "EffectiveEchoSpacing": 0.000560011,
  "FlipAngle": 52,
  "HeudiconvVersion": "0.5.3.post811+g6206e14",
  "ImageComments": "Unaliased MB4/PE3/LB",
  "ImageOrientationPatientDICOM": [0.993707, 0.105658, 0.0371847, -0.0839679, 0.922394, -0.377014],
  "ImageOrientationText": "Tra>Cor(-21.9)>Sag(4.3)",
  "ImageType": [
    "ORIGINAL",
    "PRIMARY",
    "P",
    "MB",
    "ND",
    "MOSAIC",
    "PHASE"
],
  "ImagingFrequency": 123.259,
  "InPlanePhaseEncodingDirectionDICOM": "COL",
  "InstitutionAddress": "Chemin Queen-Mary 4565,Montreal,District,CA,H3W 1W5",
  "InstitutionName": "IUGM",
  "InstitutionalDepartmentName": "Department",
  "MRAcquisitionType": "2D",
  "MagneticFieldStrength": 3,
  "Manufacturer": "Siemens",
  "ManufacturersModelName": "Prisma_fit",
  "MatrixCoilMode": "SENSE",
  "Modality": "MR",
  "MultibandAccelerationFactor": 4,
  "PartialFourier": 1,
  "PatientPosition": "HFS",
  "PercentPhaseFOV": 100,
  "PercentSampling": 100,
  "PhaseEncodingDirection": "j",
  "PhaseEncodingSteps": 104,
  "PhaseResolution": 1,
  "PixelBandwidth": 2290,
  "ProcedureStepDescription": "games^mario3",
  "ProtocolName": "func_task-mario3_run-02",
  "PulseSequenceDetails": "%CustomerSeq%\\cmrr_mbep2d_bold",
  "ReceiveCoilActiveElements": "HC1-7;NC1,2",
  "ReceiveCoilName": "HeadNeck_64",
  "ReconMatrixPE": 104,
  "RepetitionTime": 1.49,
  "SAR": 0.044086,
  "ScanOptions": "FS",
  "ScanningSequence": "EP",
  "SequenceName": "epfid2d1_104",
  "SequenceVariant": "SK\\SS",
  "SeriesDescription": "func_task-mario3_run-02",
  "SeriesNumber": 14,
  "ShimSetting": [623, -7233, -8805, 589, 178, -29, -117, 89],
  "SliceThickness": 2,
  "SliceTiming": [0, 0.7825, 0.0975, 0.8825, 0.195, 0.98, 0.2925, 1.0775, 0.3925, 1.175, 0.49, 1.2725, 0.5875, 1.3725, 0.685, 0, 0.7825, 0.0975, 0.8825, 0.195, 0.98, 0.2925, 1.0775, 0.3925, 1.175, 0.49, 1.2725, 0.5875, 1.3725, 0.685, 0, 0.7825, 0.0975, 0.8825, 0.195, 0.98, 0.2925, 1.0775, 0.3925, 1.175, 0.49, 1.2725, 0.5875, 1.3725, 0.685, 0, 0.7825, 0.0975, 0.8825, 0.195, 0.98, 0.2925, 1.0775, 0.3925, 1.175, 0.49, 1.2725, 0.5875, 1.3725, 0.685],
  "SoftwareVersions": "syngo MR E11",
  "SpacingBetweenSlices": 2,
  "StationName": "MRC35049",
  "TaskName": "mario3",
  "TotalReadoutTime": 0.0576811,
  "TxRefAmp": 241.933,
  "WipMemBlock": "6272fd3a-489d-420c-b09a-6a4198fc7199||Sequence: R017 ve11c/master r/75a17815+; Jun 28 2022 16:32:11 by eja",
  "dcmmeta_affine": [
    [-1.987414002418518, -0.16793577373027802, 0.1482672095298767, 109.53636932373047],
    [-0.2113168090581894, 1.8447870016098022, -0.7430384159088135, -54.176029205322266],
    [0.07436934113502502, 0.7540281414985657, 1.850921630859375, -64.9248275756836],
    [0.0, 0.0, 0.0, 1.0]
],
  "dcmmeta_reorient_transform": [
    [0.0, -1.0, 0.0, 103.0],
    [1.0, 0.0, 0.0, 0.0],
    [0.0, 0.0, 1.0, 0.0],
    [0.0, 0.0, 0.0, 1.0]
],
  "dcmmeta_shape": [104, 104, 60, 352],
  "dcmmeta_slice_dim": 2,
  "dcmmeta_version": 0.6,
  "global": {
    "const": {
      "AcquisitionMatrix": [104, 0, 0, 104],
      "AngioFlag": "N",
      "BitsAllocated": 16,
      "BitsStored": 16,
      "BodyPartExamined": "BRAIN",
      "Columns": 832,
      "EchoNumbers": 1,
      "EchoTime": 37.0,
      "EchoTrainLength": 104,
      "FlipAngle": 52.0,
      "HighBit": 15,
      "ImageOrientationPatient": [0.99370700021513, 0.10565840303667, 0.03718466876526, -0.083967890426, 0.92239350207616, -0.3770140855526],
      "ImagePositionPatient": [-754.52905657398, -884.25881891923, 260.13588856407],
      "ImageType": [
        "ORIGINAL",
        "PRIMARY",
        "P",
        "MB",
        "ND",
        "MOSAIC"
],
      "ImagedNucleus": "1H",
      "ImagingFrequency": 123.259029,
      "InPlanePhaseEncodingDirection": "COL",
      "LargestImagePixelValue": 4095,
      "MRAcquisitionType": "2D",
      "MagneticFieldStrength": 3.0,
      "Manufacturer": "SIEMENS",
      "ManufacturerModelName": "Prisma_fit",
      "Modality": "MR",
      "NumberOfAverages": 1.0,
      "NumberOfPhaseEncodingSteps": 104,
      "PercentPhaseFieldOfView": 100.0,
      "PercentSampling": 100.0,
      "PerformedProcedureStepStartTime": "113932.884000",
      "PhotometricInterpretation": "MONOCHROME2",
      "PixelBandwidth": 2290.0,
      "PixelRepresentation": 0,
      "PixelSpacing": [2.0, 2.0],
      "ProtocolName": "func_task-mario3_run-02",
      "RepetitionTime": 1490.0,
      "RescaleIntercept": -4096.0,
      "RescaleSlope": 2.0,
      "RescaleType": "US",
      "Rows": 832,
      "SAR": 0.04408599791069,
      "SamplesPerPixel": 1,
      "ScanOptions": "FS",
      "ScanningSequence": "EP",
      "SequenceName": "epfid2d1_104",
      "SequenceVariant": [
        "SK",
        "SS"
],
      "SeriesDescription": "func_task-mario3_run-02",
      "SeriesNumber": 14,
      "SeriesTime": "115548.743000",
      "SliceLocation": -31.837621406655,
      "SliceThickness": 2.0,
      "SmallestImagePixelValue": 0,
      "SoftwareVersions": "syngo MR E11",
      "SpacingBetweenSlices": 2.0000000119433,
      "SpecificCharacterSet": "ISO_IR 100",
      "StudyID": "1",
      "StudyTime": "113932.765000",
      "TransmitCoilName": "Body",
      "VariableFlipAngleFlag": "N",
      "WindowCenterWidthExplanation": "Algo1",
      "dBdt": 0.0},
    "slices": {}
  },
  "time": {
    "samples": {
      "AcquisitionNumber": [1, 2, 3, 4, 5, 6, 7, 8, 9, 10, 11, 12, 13, 14, 15, 16, 17, 18, 19, 20, 21, 22, 23, 24, 25, 26, 27, 28, 29, 30, 31, 32, 33, 34, 35, 36, 37, 38, 39, 40, 41, 42, 43, 44, 45, 46, 47, 48, 49, 50, 51, 52, 53, 54, 55, 56, 57, 58, 59, 60, 61, 62, 63, 64, 65, 66, 67, 68, 69, 70, 71, 72, 73, 74, 75, 76, 77, 78, 79, 80, 81, 82, 83, 84, 85, 86, 87, 88, 89, 90, 91, 92, 93, 94, 95, 96, 97, 98, 99, 100, 101, 102, 103, 104, 105, 106, 107, 108, 109, 110, 111, 112, 113, 114, 115, 116, 117, 118, 119, 120, 121, 122, 123, 124, 125, 126, 127, 128, 129, 130, 131, 132, 133, 134, 135, 136, 137, 138, 139, 140, 141, 142, 143, 144, 145, 146, 147, 148, 149, 150, 151, 152, 153, 154, 155, 156, 157, 158, 159, 160, 161, 162, 163, 164, 165, 166, 167, 168, 169, 170, 171, 172, 173, 174, 175, 176, 177, 178, 179, 180, 181, 182, 183, 184, 185, 186, 187, 188, 189, 190, 191, 192, 193, 194, 195, 196, 197, 198, 199, 200, 201, 202, 203, 204, 205, 206, 207, 208, 209, 210, 211, 212, 213, 214, 215, 216, 217, 218, 219, 220, 221, 222, 223, 224, 225, 226, 227, 228, 229, 230, 231, 232, 233, 234, 235, 236, 237, 238, 239, 240, 241, 242, 243, 244, 245, 246, 247, 248, 249, 250, 251, 252, 253, 254, 255, 256, 257, 258, 259, 260, 261, 262, 263, 264, 265, 266, 267, 268, 269, 270, 271, 272, 273, 274, 275, 276, 277, 278, 279, 280, 281, 282, 283, 284, 285, 286, 287, 288, 289, 290, 291, 292, 293, 294, 295, 296, 297, 298, 299, 300, 301, 302, 303, 304, 305, 306, 307, 308, 309, 310, 311, 312, 313, 314, 315, 316, 317, 318, 319, 320, 321, 322, 323, 324, 325, 326, 327, 328, 329, 330, 331, 332, 333, 334, 335, 336, 337, 338, 339, 340, 341, 342, 343, 344, 345, 346, 347, 348, 349, 350, 351, 352],
      "AcquisitionTime": ["115444.857500", "115446.347500", "115447.837500", "115449.327500", "115450.817500", "115452.307500", "115453.797500", "115455.287500", "115456.777500", "115458.267500", "115459.757500", "115501.247500", "115502.737500", "115504.227500", "115505.717500", "115507.207500", "115508.697500", "115510.187500", "115511.677500", "115513.167500", "115514.657500", "115516.147500", "115517.637500", "115519.127500", "115520.617500", "115522.107500", "115523.597500", "115525.087500", "115526.577500", "115528.067500", "115529.557500", "115531.047500", "115532.537500", "115534.027500", "115535.517500", "115537.007500", "115538.497500", "115539.987500", "115541.477500", "115542.967500", "115544.457500", "115545.947500", "115547.437500", "115548.927500", "115550.417500", "115551.907500", "115553.397500", "115554.887500", "115556.377500", "115557.867500", "115559.357500", "115600.847500", "115602.337500", "115603.827500", "115605.317500", "115606.807500", "115608.297500", "115609.787500", "115611.277500", "115612.767500", "115614.257500", "115615.747500", "115617.237500", "115618.727500", "115620.217500", "115621.707500", "115623.197500", "115624.687500", "115626.177500", "115627.667500", "115629.157500", "115630.647500", "115632.137500", "115633.627500", "115635.117500", "115636.607500", "115638.097500", "115639.587500", "115641.077500", "115642.567500", "115644.057500", "115645.547500", "115647.037500", "115648.527500", "115650.017500", "115651.507500", "115652.997500", "115654.487500", "115655.977500", "115657.467500", "115658.957500", "115700.447500", "115701.937500", "115703.427500", "115704.917500", "115706.407500", "115707.897500", "115709.387500", "115710.877500", "115712.367500", "115713.857500", "115715.347500", "115716.837500", "115718.327500", "115719.817500", "115721.307500", "115722.797500", "115724.287500", "115725.777500", "115727.267500", "115728.757500", "115730.247500", "115731.737500", "115733.227500", "115734.717500", "115736.207500", "115737.697500", "115739.187500", "115740.677500", "115742.167500", "115743.657500", "115745.147500", "115746.637500", "115748.127500", "115749.617500", "115751.107500", "115752.597500", "115754.087500", "115755.577500", "115757.067500", "115758.557500", "115800.047500", "115801.537500", "115803.027500", "115804.517500", "115806.007500", "115807.497500", "115808.987500", "115810.477500", "115811.967500", "115813.457500", "115814.947500", "115816.437500", "115817.927500", "115819.417500", "115820.907500", "115822.397500", "115823.887500", "115825.377500", "115826.867500", "115828.357500", "115829.847500", "115831.337500", "115832.827500", "115834.317500", "115835.807500", "115837.297500", "115838.787500", "115840.277500", "115841.767500", "115843.257500", "115844.747500", "115846.237500", "115847.727500", "115849.217500", "115850.707500", "115852.197500", "115853.687500", "115855.177500", "115856.667500", "115858.157500", "115859.647500", "115901.137500", "115902.627500", "115904.117500", "115905.607500", "115907.097500", "115908.587500", "115910.077500", "115911.567500", "115913.057500", "115914.547500", "115916.037500", "115917.527500", "115919.017500", "115920.507500", "115921.997500", "115923.487500", "115924.977500", "115926.467500", "115927.957500", "115929.447500", "115930.937500", "115932.427500", "115933.917500", "115935.407500", "115936.897500", "115938.387500", "115939.877500", "115941.367500", "115942.857500", "115944.347500", "115945.837500", "115947.327500", "115948.817500", "115950.307500", "115951.797500", "115953.287500", "115954.777500", "115956.267500", "115957.757500", "115959.247500", "120000.737500", "120002.227500", "120003.717500", "120005.207500", "120006.697500", "120008.187500", "120009.677500", "120011.167500", "120012.657500", "120014.147500", "120015.637500", "120017.127500", "120018.617500", "120020.107500", "120021.597500", "120023.087500", "120024.577500", "120026.067500", "120027.557500", "120029.047500", "120030.537500", "120032.027500", "120033.517500", "120035.007500", "120036.497500", "120037.987500", "120039.477500", "120040.967500", "120042.457500", "120043.947500", "120045.437500", "120046.927500", "120048.417500", "120049.907500", "120051.397500", "120052.887500", "120054.377500", "120055.867500", "120057.357500", "120058.847500", "120100.337500", "120101.827500", "120103.317500", "120104.807500", "120106.297500", "120107.787500", "120109.277500", "120110.767500", "120112.257500", "120113.747500", "120115.237500", "120116.727500", "120118.217500", "120119.707500", "120121.197500", "120122.687500", "120124.177500", "120125.667500", "120127.157500", "120128.647500", "120130.137500", "120131.627500", "120133.117500", "120134.607500", "120136.097500", "120137.587500", "120139.077500", "120140.567500", "120142.057500", "120143.547500", "120145.037500", "120146.527500", "120148.017500", "120149.507500", "120150.997500", "120152.487500", "120153.977500", "120155.467500", "120156.957500", "120158.447500", "120159.937500", "120201.427500", "120202.917500", "120204.407500", "120205.897500", "120207.387500", "120208.877500", "120210.367500", "120211.857500", "120213.347500", "120214.837500", "120216.327500", "120217.817500", "120219.307500", "120220.797500", "120222.287500", "120223.777500", "120225.267500", "120226.757500", "120228.247500", "120229.737500", "120231.227500", "120232.717500", "120234.207500", "120235.697500", "120237.187500", "120238.677500", "120240.167500", "120241.657500", "120243.147500", "120244.637500", "120246.127500", "120247.617500", "120249.107500", "120250.597500", "120252.087500", "120253.577500", "120255.067500", "120256.557500", "120258.047500", "120259.537500", "120301.027500", "120302.517500", "120304.007500", "120305.497500", "120306.987500", "120308.477500", "120309.967500", "120311.457500", "120312.947500", "120314.437500", "120315.927500", "120317.417500", "120318.907500", "120320.397500", "120321.887500", "120323.377500", "120324.867500", "120326.357500", "120327.847500"],
      "ContentTime": ["115548.745000", "115548.748000", "115548.751000", "115548.753000", "115548.756000", "115548.759000", "115548.761000", "115548.764000", "115548.771000", "115548.774000", "115548.776000", "115548.779000", "115548.782000", "115548.784000", "115608.708000", "115608.711000", "115608.714000", "115608.716000", "115608.719000", "115608.721000", "115608.724000", "115608.726000", "115608.728000", "115608.738000", "115608.740000", "115608.743000", "115608.745000", "115608.748000", "115608.750000", "115608.753000", "115608.756000", "115608.758000", "115608.761000", "115608.763000", "115628.742000", "115628.744000", "115628.747000", "115628.749000", "115628.752000", "115628.754000", "115628.757000", "115628.759000", "115628.762000", "115628.764000", "115628.767000", "115628.769000", "115628.772000", "115628.774000", "115628.777000", "115628.779000", "115628.782000", "115628.784000", "115628.787000", "115628.789000", "115648.723000", "115648.726000", "115648.729000", "115648.731000", "115648.734000", "115648.736000", "115648.739000", "115648.741000", "115648.744000", "115648.746000", "115648.749000", "115648.751000", "115648.754000", "115648.756000", "115648.759000", "115648.761000", "115648.764000", "115648.766000", "115648.769000", "115648.771000", "115708.734000", "115708.737000", "115708.739000", "115708.742000", "115708.744000", "115708.747000", "115708.749000", "115708.752000", "115708.755000", "115708.757000", "115708.760000", "115708.762000", "115708.765000", "115708.767000", "115708.770000", "115708.772000", "115708.775000", "115708.777000", "115708.780000", "115708.782000", "115708.785000", "115748.754000", "115748.757000", "115748.759000", "115748.762000", "115748.764000", "115748.767000", "115748.769000", "115748.772000", "115748.774000", "115748.777000", "115748.779000", "115748.782000", "115748.784000", "115748.787000", "115748.789000", "115748.792000", "115748.794000", "115748.797000", "115748.799000", "115748.802000", "115748.804000", "115748.807000", "115748.809000", "115748.812000", "115748.814000", "115748.817000", "115748.820000", "115828.744000", "115828.747000", "115828.750000", "115828.752000", "115828.755000", "115828.757000", "115828.760000", "115828.762000", "115828.765000", "115828.767000", "115828.770000", "115828.772000", "115828.775000", "115828.777000", "115828.780000", "115828.782000", "115828.785000", "115828.787000", "115828.790000", "115828.792000", "115828.795000", "115828.797000", "115828.800000", "115828.802000", "115828.805000", "115828.807000", "115828.811000", "115908.746000", "115908.749000", "115908.752000", "115908.754000", "115908.757000", "115908.759000", "115908.762000", "115908.764000", "115908.767000", "115908.769000", "115908.772000", "115908.774000", "115908.777000", "115908.779000", "115908.782000", "115908.784000", "115908.787000", "115908.790000", "115908.792000", "115908.795000", "115908.797000", "115908.800000", "115908.802000", "115908.805000", "115908.807000", "115908.810000", "115908.812000", "115948.748000", "115948.751000", "115948.753000", "115948.756000", "115948.758000", "115948.761000", "115948.763000", "115948.766000", "115948.769000", "115948.771000", "115948.774000", "115948.776000", "115948.779000", "115948.781000", "115948.784000", "115948.786000", "115948.789000", "115948.791000", "115948.794000", "115948.796000", "115948.799000", "115948.801000", "115948.804000", "115948.806000", "115948.809000", "115948.811000", "115948.814000", "120028.745000", "120028.748000", "120028.751000", "120028.753000", "120028.756000", "120028.758000", "120028.761000", "120028.763000", "120028.766000", "120028.768000", "120028.771000", "120028.773000", "120028.776000", "120028.778000", "120028.781000", "120028.783000", "120028.786000", "120028.788000", "120028.791000", "120028.793000", "120028.796000", "120028.798000", "120028.801000", "120028.803000", "120028.806000", "120028.809000", "120028.811000", "120108.742000", "120108.745000", "120108.747000", "120108.750000", "120108.752000", "120108.755000", "120108.757000", "120108.760000", "120108.762000", "120108.765000", "120108.767000", "120108.770000", "120108.772000", "120108.775000", "120108.777000", "120108.780000", "120108.783000", "120108.785000", "120108.788000", "120108.790000", "120108.793000", "120108.795000", "120108.799000", "120108.802000", "120108.805000", "120108.807000", "120148.744000", "120148.747000", "120148.749000", "120148.752000", "120148.754000", "120148.757000", "120148.759000", "120148.762000", "120148.764000", "120148.767000", "120148.769000", "120148.772000", "120148.774000", "120148.777000", "120148.779000", "120148.782000", "120148.784000", "120148.787000", "120148.789000", "120148.792000", "120148.794000", "120148.797000", "120148.799000", "120148.802000", "120148.804000", "120148.807000", "120148.809000", "120228.741000", "120228.744000", "120228.747000", "120228.749000", "120228.752000", "120228.754000", "120228.757000", "120228.759000", "120228.762000", "120228.765000", "120228.767000", "120228.770000", "120228.772000", "120228.775000", "120228.777000", "120228.780000", "120228.782000", "120228.785000", "120228.788000", "120228.790000", "120228.793000", "120228.795000", "120228.798000", "120228.800000", "120228.803000", "120228.805000", "120228.808000", "120308.754000", "120308.757000", "120308.760000", "120308.762000", "120308.765000", "120308.767000", "120308.770000", "120308.772000", "120308.775000", "120308.777000", "120308.780000", "120308.782000", "120308.785000", "120308.787000", "120308.790000", "120308.792000", "120308.795000", "120308.797000", "120308.800000", "120308.802000", "120308.805000", "120308.807000", "120308.810000", "120308.812000", "120308.815000", "120308.817000", "120308.820000", "120328.678000", "120328.681000", "120328.683000", "120328.686000", "120328.688000", "120328.691000", "120328.693000", "120328.696000", "120328.698000", "120328.701000", "120328.703000", "120328.706000", "120328.708000", "120330.606000", "120330.609000"],
      "InstanceCreationTime": ["115548.745000", "115548.748000", "115548.751000", "115548.753000", "115548.756000", "115548.759000", "115548.761000", "115548.764000", "115548.771000", "115548.774000", "115548.776000", "115548.779000", "115548.782000", "115548.784000", "115608.708000", "115608.711000", "115608.714000", "115608.716000", "115608.719000", "115608.721000", "115608.724000", "115608.726000", "115608.728000", "115608.738000", "115608.740000", "115608.743000", "115608.745000", "115608.748000", "115608.750000", "115608.753000", "115608.756000", "115608.758000", "115608.761000", "115608.763000", "115628.742000", "115628.744000", "115628.747000", "115628.749000", "115628.752000", "115628.754000", "115628.757000", "115628.759000", "115628.762000", "115628.764000", "115628.767000", "115628.769000", "115628.772000", "115628.774000", "115628.777000", "115628.779000", "115628.782000", "115628.784000", "115628.787000", "115628.789000", "115648.723000", "115648.726000", "115648.729000", "115648.731000", "115648.734000", "115648.736000", "115648.739000", "115648.741000", "115648.744000", "115648.746000", "115648.749000", "115648.751000", "115648.754000", "115648.756000", "115648.759000", "115648.761000", "115648.764000", "115648.766000", "115648.769000", "115648.771000", "115708.734000", "115708.737000", "115708.739000", "115708.742000", "115708.744000", "115708.747000", "115708.749000", "115708.752000", "115708.755000", "115708.757000", "115708.760000", "115708.762000", "115708.765000", "115708.767000", "115708.770000", "115708.772000", "115708.775000", "115708.777000", "115708.780000", "115708.782000", "115708.785000", "115748.754000", "115748.757000", "115748.759000", "115748.762000", "115748.764000", "115748.767000", "115748.769000", "115748.772000", "115748.774000", "115748.777000", "115748.779000", "115748.782000", "115748.784000", "115748.787000", "115748.789000", "115748.792000", "115748.794000", "115748.797000", "115748.799000", "115748.802000", "115748.804000", "115748.807000", "115748.809000", "115748.812000", "115748.814000", "115748.817000", "115748.820000", "115828.744000", "115828.747000", "115828.750000", "115828.752000", "115828.755000", "115828.757000", "115828.760000", "115828.762000", "115828.765000", "115828.767000", "115828.770000", "115828.772000", "115828.775000", "115828.777000", "115828.780000", "115828.782000", "115828.785000", "115828.787000", "115828.790000", "115828.792000", "115828.795000", "115828.797000", "115828.800000", "115828.802000", "115828.805000", "115828.807000", "115828.811000", "115908.746000", "115908.749000", "115908.752000", "115908.754000", "115908.757000", "115908.759000", "115908.762000", "115908.764000", "115908.767000", "115908.769000", "115908.772000", "115908.774000", "115908.777000", "115908.779000", "115908.782000", "115908.784000", "115908.787000", "115908.790000", "115908.792000", "115908.795000", "115908.797000", "115908.800000", "115908.802000", "115908.805000", "115908.807000", "115908.810000", "115908.812000", "115948.748000", "115948.751000", "115948.753000", "115948.756000", "115948.758000", "115948.761000", "115948.763000", "115948.766000", "115948.769000", "115948.771000", "115948.774000", "115948.776000", "115948.779000", "115948.781000", "115948.784000", "115948.786000", "115948.789000", "115948.791000", "115948.794000", "115948.796000", "115948.799000", "115948.801000", "115948.804000", "115948.806000", "115948.809000", "115948.811000", "115948.814000", "120028.745000", "120028.748000", "120028.751000", "120028.753000", "120028.756000", "120028.758000", "120028.761000", "120028.763000", "120028.766000", "120028.768000", "120028.771000", "120028.773000", "120028.776000", "120028.778000", "120028.781000", "120028.783000", "120028.786000", "120028.788000", "120028.791000", "120028.793000", "120028.796000", "120028.798000", "120028.801000", "120028.803000", "120028.806000", "120028.809000", "120028.811000", "120108.742000", "120108.745000", "120108.747000", "120108.750000", "120108.752000", "120108.755000", "120108.757000", "120108.760000", "120108.762000", "120108.765000", "120108.767000", "120108.770000", "120108.772000", "120108.775000", "120108.777000", "120108.780000", "120108.783000", "120108.785000", "120108.788000", "120108.790000", "120108.793000", "120108.795000", "120108.799000", "120108.802000", "120108.805000", "120108.807000", "120148.744000", "120148.747000", "120148.749000", "120148.752000", "120148.754000", "120148.757000", "120148.759000", "120148.762000", "120148.764000", "120148.767000", "120148.769000", "120148.772000", "120148.774000", "120148.777000", "120148.779000", "120148.782000", "120148.784000", "120148.787000", "120148.789000", "120148.792000", "120148.794000", "120148.797000", "120148.799000", "120148.802000", "120148.804000", "120148.807000", "120148.809000", "120228.741000", "120228.744000", "120228.747000", "120228.749000", "120228.752000", "120228.754000", "120228.757000", "120228.759000", "120228.762000", "120228.765000", "120228.767000", "120228.770000", "120228.772000", "120228.775000", "120228.777000", "120228.780000", "120228.782000", "120228.785000", "120228.788000", "120228.790000", "120228.793000", "120228.795000", "120228.798000", "120228.800000", "120228.803000", "120228.805000", "120228.808000", "120308.754000", "120308.757000", "120308.760000", "120308.762000", "120308.765000", "120308.767000", "120308.770000", "120308.772000", "120308.775000", "120308.777000", "120308.780000", "120308.782000", "120308.785000", "120308.787000", "120308.790000", "120308.792000", "120308.795000", "120308.797000", "120308.800000", "120308.802000", "120308.805000", "120308.807000", "120308.810000", "120308.812000", "120308.815000", "120308.817000", "120308.820000", "120328.678000", "120328.681000", "120328.683000", "120328.686000", "120328.688000", "120328.691000", "120328.693000", "120328.696000", "120328.698000", "120328.701000", "120328.703000", "120328.706000", "120328.708000", "120330.606000", "120330.609000"],
      "InstanceNumber": [1, 2, 3, 4, 5, 6, 7, 8, 9, 10, 11, 12, 13, 14, 15, 16, 17, 18, 19, 20, 21, 22, 23, 24, 25, 26, 27, 28, 29, 30, 31, 32, 33, 34, 35, 36, 37, 38, 39, 40, 41, 42, 43, 44, 45, 46, 47, 48, 49, 50, 51, 52, 53, 54, 55, 56, 57, 58, 59, 60, 61, 62, 63, 64, 65, 66, 67, 68, 69, 70, 71, 72, 73, 74, 75, 76, 77, 78, 79, 80, 81, 82, 83, 84, 85, 86, 87, 88, 89, 90, 91, 92, 93, 94, 95, 96, 97, 98, 99, 100, 101, 102, 103, 104, 105, 106, 107, 108, 109, 110, 111, 112, 113, 114, 115, 116, 117, 118, 119, 120, 121, 122, 123, 124, 125, 126, 127, 128, 129, 130, 131, 132, 133, 134, 135, 136, 137, 138, 139, 140, 141, 142, 143, 144, 145, 146, 147, 148, 149, 150, 151, 152, 153, 154, 155, 156, 157, 158, 159, 160, 161, 162, 163, 164, 165, 166, 167, 168, 169, 170, 171, 172, 173, 174, 175, 176, 177, 178, 179, 180, 181, 182, 183, 184, 185, 186, 187, 188, 189, 190, 191, 192, 193, 194, 195, 196, 197, 198, 199, 200, 201, 202, 203, 204, 205, 206, 207, 208, 209, 210, 211, 212, 213, 214, 215, 216, 217, 218, 219, 220, 221, 222, 223, 224, 225, 226, 227, 228, 229, 230, 231, 232, 233, 234, 235, 236, 237, 238, 239, 240, 241, 242, 243, 244, 245, 246, 247, 248, 249, 250, 251, 252, 253, 254, 255, 256, 257, 258, 259, 260, 261, 262, 263, 264, 265, 266, 267, 268, 269, 270, 271, 272, 273, 274, 275, 276, 277, 278, 279, 280, 281, 282, 283, 284, 285, 286, 287, 288, 289, 290, 291, 292, 293, 294, 295, 296, 297, 298, 299, 300, 301, 302, 303, 304, 305, 306, 307, 308, 309, 310, 311, 312, 313, 314, 315, 316, 317, 318, 319, 320, 321, 322, 323, 324, 325, 326, 327, 328, 329, 330, 331, 332, 333, 334, 335, 336, 337, 338, 339, 340, 341, 342, 343, 344, 345, 346, 347, 348, 349, 350, 351, 352],
