{
  "AcquisitionMatrixPE": 104,
  "AcquisitionNumber": 1,
  "AcquisitionTime": "11:54:44.857500",
  "BandwidthPerPixelPhaseEncode": 17.17,
  "BaseResolution": 104,
  "BodyPartExamined": "BRAIN",
  "CoilCombinationMethod": "Sum of Squares",
  "ConsistencyInfo": "N4_VE11C_LATEST_20160120",
  "ConversionSoftware": "dcm2niix",
  "ConversionSoftwareVersion": "v1.0.20220505",
  "DerivedVendorReportedEchoSpacing": 0.000560011,
  "DeviceSerialNumber": "167006",
  "DwellTime": 2.1e-06,
  "EchoTime": 0.037,
  "EchoTrainLength": 104,
  "EffectiveEchoSpacing": 0.000560011,
  "FlipAngle": 52,
  "HeudiconvVersion": "0.5.3.post811+g6206e14",
  "ImageComments": "Unaliased MB4/PE3/LB",
  "ImageOrientationPatientDICOM": [0.993707, 0.105658, 0.0371847, -0.0839679, 0.922394, -0.377014],
  "ImageOrientationText": "Tra>Cor(-21.9)>Sag(4.3)",
  "ImageType": [
    "ORIGINAL",
    "PRIMARY",
    "M",
    "MB",
    "ND",
    "MOSAIC"
],
  "ImagingFrequency": 123.259,
  "InPlanePhaseEncodingDirectionDICOM": "COL",
  "InstitutionAddress": "Chemin Queen-Mary 4565,Montreal,District,CA,H3W 1W5",
  "InstitutionName": "IUGM",
  "InstitutionalDepartmentName": "Department",
  "MRAcquisitionType": "2D",
  "MagneticFieldStrength": 3,
  "Manufacturer": "Siemens",
  "ManufacturersModelName": "Prisma_fit",
  "MatrixCoilMode": "SENSE",
  "Modality": "MR",
  "MultibandAccelerationFactor": 4,
  "PartialFourier": 1,
  "PatientPosition": "HFS",
  "PercentPhaseFOV": 100,
  "PercentSampling": 100,
  "PhaseEncodingDirection": "j",
  "PhaseEncodingSteps": 104,
  "PhaseResolution": 1,
  "PixelBandwidth": 2290,
  "ProcedureStepDescription": "games^mario3",
  "ProtocolName": "func_task-mario3_run-02",
  "PulseSequenceDetails": "%CustomerSeq%\\cmrr_mbep2d_bold",
  "ReceiveCoilActiveElements": "HC1-7;NC1,2",
  "ReceiveCoilName": "HeadNeck_64",
  "ReconMatrixPE": 104,
  "RepetitionTime": 1.49,
  "SAR": 0.044086,
  "ScanOptions": "FS",
  "ScanningSequence": "EP",
  "SequenceName": "epfid2d1_104",
  "SequenceVariant": "SK\\SS",
  "SeriesDescription": "func_task-mario3_run-02",
  "SeriesNumber": 13,
  "ShimSetting": [623, -7233, -8805, 589, 178, -29, -117, 89],
  "SliceThickness": 2,
  "SliceTiming": [0, 0.7825, 0.0975, 0.8825, 0.195, 0.98, 0.2925, 1.0775, 0.3925, 1.175, 0.49, 1.2725, 0.5875, 1.3725, 0.685, 0, 0.7825, 0.0975, 0.8825, 0.195, 0.98, 0.2925, 1.0775, 0.3925, 1.175, 0.49, 1.2725, 0.5875, 1.3725, 0.685, 0, 0.7825, 0.0975, 0.8825, 0.195, 0.98, 0.2925, 1.0775, 0.3925, 1.175, 0.49, 1.2725, 0.5875, 1.3725, 0.685, 0, 0.7825, 0.0975, 0.8825, 0.195, 0.98, 0.2925, 1.0775, 0.3925, 1.175, 0.49, 1.2725, 0.5875, 1.3725, 0.685],
  "SoftwareVersions": "syngo MR E11",
  "SpacingBetweenSlices": 2,
  "StationName": "MRC35049",
  "TaskName": "mario3",
  "TotalReadoutTime": 0.0576811,
  "TxRefAmp": 241.933,
  "WipMemBlock": "6272fd3a-489d-420c-b09a-6a4198fc7199||Sequence: R017 ve11c/master r/75a17815+; Jun 28 2022 16:32:11 by eja",
  "dcmmeta_affine": [
    [-1.987414002418518, -0.16793577373027802, 0.1482672095298767, 109.53636932373047],
    [-0.2113168090581894, 1.8447870016098022, -0.7430384159088135, -54.176029205322266],
    [0.07436934113502502, 0.7540281414985657, 1.850921630859375, -64.9248275756836],
    [0.0, 0.0, 0.0, 1.0]
],
  "dcmmeta_reorient_transform": [
    [0.0, -1.0, 0.0, 103.0],
    [1.0, 0.0, 0.0, 0.0],
    [0.0, 0.0, 1.0, 0.0],
    [0.0, 0.0, 0.0, 1.0]
],
  "dcmmeta_shape": [104, 104, 60, 352],
  "dcmmeta_slice_dim": 2,
  "dcmmeta_version": 0.6,
  "global": {
    "const": {
      "AcquisitionMatrix": [104, 0, 0, 104],
      "AngioFlag": "N",
      "BitsAllocated": 16,
      "BitsStored": 16,
      "BodyPartExamined": "BRAIN",
      "Columns": 832,
      "EchoNumbers": 1,
      "EchoTime": 37.0,
      "EchoTrainLength": 104,
      "FlipAngle": 52.0,
      "HighBit": 15,
      "ImageOrientationPatient": [0.99370700021513, 0.10565840303667, 0.03718466876526, -0.083967890426, 0.92239350207616, -0.3770140855526],
      "ImagePositionPatient": [-754.52905657398, -884.25881891923, 260.13588856407],
      "ImageType": [
        "ORIGINAL",
        "PRIMARY",
        "M",
        "MB",
        "ND",
        "MOSAIC"
],
      "ImagedNucleus": "1H",
      "ImagingFrequency": 123.259029,
      "InPlanePhaseEncodingDirection": "COL",
      "MRAcquisitionType": "2D",
      "MagneticFieldStrength": 3.0,
      "Manufacturer": "SIEMENS",
      "ManufacturerModelName": "Prisma_fit",
      "Modality": "MR",
      "NumberOfAverages": 1.0,
      "NumberOfPhaseEncodingSteps": 104,
      "PercentPhaseFieldOfView": 100.0,
      "PercentSampling": 100.0,
      "PerformedProcedureStepStartTime": "113932.884000",
      "PhotometricInterpretation": "MONOCHROME2",
      "PixelBandwidth": 2290.0,
      "PixelRepresentation": 0,
      "PixelSpacing": [2.0, 2.0],
      "ProtocolName": "func_task-mario3_run-02",
      "RepetitionTime": 1490.0,
      "Rows": 832,
      "SAR": 0.04408599791069,
      "SamplesPerPixel": 1,
      "ScanOptions": "FS",
      "ScanningSequence": "EP",
      "SequenceName": "epfid2d1_104",
      "SequenceVariant": [
        "SK",
        "SS"
],
      "SeriesDescription": "func_task-mario3_run-02",
      "SeriesNumber": 13,
      "SeriesTime": "115548.634000",
      "SliceLocation": -31.837621406655,
      "SliceThickness": 2.0,
      "SmallestImagePixelValue": 0,
      "SoftwareVersions": "syngo MR E11",
      "SpacingBetweenSlices": 2.0000000119433,
      "SpecificCharacterSet": "ISO_IR 100",
      "StudyID": "1",
      "StudyTime": "113932.765000",
      "TransmitCoilName": "Body",
      "VariableFlipAngleFlag": "N",
      "WindowCenterWidthExplanation": "Algo1",
      "dBdt": 0.0},
    "slices": {}
  },
  "time": {
    "samples": {
      "AcquisitionNumber": [1, 2, 3, 4, 5, 6, 7, 8, 9, 10, 11, 12, 13, 14, 15, 16, 17, 18, 19, 20, 21, 22, 23, 24, 25, 26, 27, 28, 29, 30, 31, 32, 33, 34, 35, 36, 37, 38, 39, 40, 41, 42, 43, 44, 45, 46, 47, 48, 49, 50, 51, 52, 53, 54, 55, 56, 57, 58, 59, 60, 61, 62, 63, 64, 65, 66, 67, 68, 69, 70, 71, 72, 73, 74, 75, 76, 77, 78, 79, 80, 81, 82, 83, 84, 85, 86, 87, 88, 89, 90, 91, 92, 93, 94, 95, 96, 97, 98, 99, 100, 101, 102, 103, 104, 105, 106, 107, 108, 109, 110, 111, 112, 113, 114, 115, 116, 117, 118, 119, 120, 121, 122, 123, 124, 125, 126, 127, 128, 129, 130, 131, 132, 133, 134, 135, 136, 137, 138, 139, 140, 141, 142, 143, 144, 145, 146, 147, 148, 149, 150, 151, 152, 153, 154, 155, 156, 157, 158, 159, 160, 161, 162, 163, 164, 165, 166, 167, 168, 169, 170, 171, 172, 173, 174, 175, 176, 177, 178, 179, 180, 181, 182, 183, 184, 185, 186, 187, 188, 189, 190, 191, 192, 193, 194, 195, 196, 197, 198, 199, 200, 201, 202, 203, 204, 205, 206, 207, 208, 209, 210, 211, 212, 213, 214, 215, 216, 217, 218, 219, 220, 221, 222, 223, 224, 225, 226, 227, 228, 229, 230, 231, 232, 233, 234, 235, 236, 237, 238, 239, 240, 241, 242, 243, 244, 245, 246, 247, 248, 249, 250, 251, 252, 253, 254, 255, 256, 257, 258, 259, 260, 261, 262, 263, 264, 265, 266, 267, 268, 269, 270, 271, 272, 273, 274, 275, 276, 277, 278, 279, 280, 281, 282, 283, 284, 285, 286, 287, 288, 289, 290, 291, 292, 293, 294, 295, 296, 297, 298, 299, 300, 301, 302, 303, 304, 305, 306, 307, 308, 309, 310, 311, 312, 313, 314, 315, 316, 317, 318, 319, 320, 321, 322, 323, 324, 325, 326, 327, 328, 329, 330, 331, 332, 333, 334, 335, 336, 337, 338, 339, 340, 341, 342, 343, 344, 345, 346, 347, 348, 349, 350, 351, 352],
      "AcquisitionTime": ["115444.857500", "115446.347500", "115447.837500", "115449.327500", "115450.817500", "115452.307500", "115453.797500", "115455.287500", "115456.777500", "115458.267500", "115459.757500", "115501.247500", "115502.737500", "115504.227500", "115505.717500", "115507.207500", "115508.697500", "115510.187500", "115511.677500", "115513.167500", "115514.657500", "115516.147500", "115517.637500", "115519.127500", "115520.617500", "115522.107500", "115523.597500", "115525.087500", "115526.577500", "115528.067500", "115529.557500", "115531.047500", "115532.537500", "115534.027500", "115535.517500", "115537.007500", "115538.497500", "115539.987500", "115541.477500", "115542.967500", "115544.457500", "115545.947500", "115547.437500", "115548.927500", "115550.417500", "115551.907500", "115553.397500", "115554.887500", "115556.377500", "115557.867500", "115559.357500", "115600.847500", "115602.337500", "115603.827500", "115605.317500", "115606.807500", "115608.297500", "115609.787500", "115611.277500", "115612.767500", "115614.257500", "115615.747500", "115617.237500", "115618.727500", "115620.217500", "115621.707500", "115623.197500", "115624.687500", "115626.177500", "115627.667500", "115629.157500", "115630.647500", "115632.137500", "115633.627500", "115635.117500", "115636.607500", "115638.097500", "115639.587500", "115641.077500", "115642.567500", "115644.057500", "115645.547500", "115647.037500", "115648.527500", "115650.017500", "115651.507500", "115652.997500", "115654.487500", "115655.977500", "115657.467500", "115658.957500", "115700.447500", "115701.937500", "115703.427500", "115704.917500", "115706.407500", "115707.897500", "115709.387500", "115710.877500", "115712.367500", "115713.857500", "115715.347500", "115716.837500", "115718.327500", "115719.817500", "115721.307500", "115722.797500", "115724.287500", "115725.777500", "115727.267500", "115728.757500", "115730.247500", "115731.737500", "115733.227500", "115734.717500", "115736.207500", "115737.697500", "115739.187500", "115740.677500", "115742.167500", "115743.657500", "115745.147500", "115746.637500", "115748.127500", "115749.617500", "115751.107500", "115752.597500", "115754.087500", "115755.577500", "115757.067500", "115758.557500", "115800.047500", "115801.537500", "115803.027500", "115804.517500", "115806.007500", "115807.497500", "115808.987500", "115810.477500", "115811.967500", "115813.457500", "115814.947500", "115816.437500", "115817.927500", "115819.417500", "115820.907500", "115822.397500", "115823.887500", "115825.377500", "115826.867500", "115828.357500", "115829.847500", "115831.337500", "115832.827500", "115834.317500", "115835.807500", "115837.297500", "115838.787500", "115840.277500", "115841.767500", "115843.257500", "115844.747500", "115846.237500", "115847.727500", "115849.217500", "115850.707500", "115852.197500", "115853.687500", "115855.177500", "115856.667500", "115858.157500", "115859.647500", "115901.137500", "115902.627500", "115904.117500", "115905.607500", "115907.097500", "115908.587500", "115910.077500", "115911.567500", "115913.057500", "115914.547500", "115916.037500", "115917.527500", "115919.017500", "115920.507500", "115921.997500", "115923.487500", "115924.977500", "115926.467500", "115927.957500", "115929.447500", "115930.937500", "115932.427500", "115933.917500", "115935.407500", "115936.897500", "115938.387500", "115939.877500", "115941.367500", "115942.857500", "115944.347500", "115945.837500", "115947.327500", "115948.817500", "115950.307500", "115951.797500", "115953.287500", "115954.777500", "115956.267500", "115957.757500", "115959.247500", "120000.737500", "120002.227500", "120003.717500", "120005.207500", "120006.697500", "120008.187500", "120009.677500", "120011.167500", "120012.657500", "120014.147500", "120015.637500", "120017.127500", "120018.617500", "120020.107500", "120021.597500", "120023.087500", "120024.577500", "120026.067500", "120027.557500", "120029.047500", "120030.537500", "120032.027500", "120033.517500", "120035.007500", "120036.497500", "120037.987500", "120039.477500", "120040.967500", "120042.457500", "120043.947500", "120045.437500", "120046.927500", "120048.417500", "120049.907500", "120051.397500", "120052.887500", "120054.377500", "120055.867500", "120057.357500", "120058.847500", "120100.337500", "120101.827500", "120103.317500", "120104.807500", "120106.297500", "120107.787500", "120109.277500", "120110.767500", "120112.257500", "120113.747500", "120115.237500", "120116.727500", "120118.217500", "120119.707500", "120121.197500", "120122.687500", "120124.177500", "120125.667500", "120127.157500", "120128.647500", "120130.137500", "120131.627500", "120133.117500", "120134.607500", "120136.097500", "120137.587500", "120139.077500", "120140.567500", "120142.057500", "120143.547500", "120145.037500", "120146.527500", "120148.017500", "120149.507500", "120150.997500", "120152.487500", "120153.977500", "120155.467500", "120156.957500", "120158.447500", "120159.937500", "120201.427500", "120202.917500", "120204.407500", "120205.897500", "120207.387500", "120208.877500", "120210.367500", "120211.857500", "120213.347500", "120214.837500", "120216.327500", "120217.817500", "120219.307500", "120220.797500", "120222.287500", "120223.777500", "120225.267500", "120226.757500", "120228.247500", "120229.737500", "120231.227500", "120232.717500", "120234.207500", "120235.697500", "120237.187500", "120238.677500", "120240.167500", "120241.657500", "120243.147500", "120244.637500", "120246.127500", "120247.617500", "120249.107500", "120250.597500", "120252.087500", "120253.577500", "120255.067500", "120256.557500", "120258.047500", "120259.537500", "120301.027500", "120302.517500", "120304.007500", "120305.497500", "120306.987500", "120308.477500", "120309.967500", "120311.457500", "120312.947500", "120314.437500", "120315.927500", "120317.417500", "120318.907500", "120320.397500", "120321.887500", "120323.377500", "120324.867500", "120326.357500", "120327.847500"],
      "ContentTime": ["115548.637000", "115548.642000", "115548.645000", "115548.649000", "115548.652000", "115548.655000", "115548.659000", "115548.668000", "115548.671000", "115548.674000", "115548.678000", "115548.681000", "115548.684000", "115548.688000", "115608.599000", "115608.609000", "115608.612000", "115608.615000", "115608.619000", "115608.622000", "115608.625000", "115608.629000", "115608.632000", "115608.635000", "115608.639000", "115608.642000", "115608.645000", "115608.649000", "115608.652000", "115608.655000", "115608.659000", "115608.662000", "115608.665000", "115608.669000", "115628.599000", "115628.603000", "115628.606000", "115628.609000", "115628.613000", "115628.616000", "115628.620000", "115628.623000", "115628.626000", "115628.630000", "115628.633000", "115628.637000", "115628.640000", "115628.643000", "115628.647000", "115628.651000", "115628.655000", "115628.660000", "115628.664000", "115628.667000", "115648.599000", "115648.603000", "115648.606000", "115648.609000", "115648.613000", "115648.616000", "115648.619000", "115648.623000", "115648.627000", "115648.631000", "115648.634000", "115648.638000", "115648.641000", "115648.645000", "115648.650000", "115648.653000", "115648.657000", "115648.660000", "115648.663000", "115648.667000", "115708.599000", "115708.603000", "115708.606000", "115708.610000", "115708.613000", "115708.616000", "115708.620000", "115708.623000", "115708.626000", "115708.629000", "115708.642000", "115708.645000", "115708.649000", "115708.652000", "115708.655000", "115708.659000", "115708.662000", "115708.665000", "115708.669000", "115708.673000", "115708.676000", "115748.599000", "115748.603000", "115748.606000", "115748.610000", "115748.613000", "115748.616000", "115748.620000", "115748.623000", "115748.626000", "115748.629000", "115748.633000", "115748.636000", "115748.639000", "115748.643000", "115748.646000", "115748.649000", "115748.653000", "115748.656000", "115748.659000", "115748.663000", "115748.666000", "115748.669000", "115748.673000", "115748.676000", "115748.679000", "115748.683000", "115748.686000", "115828.599000", "115828.603000", "115828.606000", "115828.610000", "115828.613000", "115828.616000", "115828.620000", "115828.623000", "115828.626000", "115828.630000", "115828.633000", "115828.636000", "115828.640000", "115828.643000", "115828.646000", "115828.650000", "115828.653000", "115828.656000", "115828.660000", "115828.663000", "115828.666000", "115828.670000", "115828.673000", "115828.676000", "115828.680000", "115828.683000", "115828.686000", "115908.599000", "115908.603000", "115908.606000", "115908.610000", "115908.613000", "115908.616000", "115908.620000", "115908.623000", "115908.626000", "115908.630000", "115908.633000", "115908.636000", "115908.640000", "115908.643000", "115908.646000", "115908.650000", "115908.653000", "115908.656000", "115908.660000", "115908.663000", "115908.666000", "115908.670000", "115908.673000", "115908.677000", "115908.680000", "115908.683000", "115908.687000", "115948.599000", "115948.603000", "115948.606000", "115948.610000", "115948.613000", "115948.632000", "115948.635000", "115948.639000", "115948.642000", "115948.645000", "115948.649000", "115948.652000", "115948.655000", "115948.659000", "115948.662000", "115948.665000", "115948.669000", "115948.672000", "115948.675000", "115948.679000", "115948.682000", "115948.685000", "115948.689000", "115948.692000", "115948.695000", "115948.699000", "115948.702000", "120028.599000", "120028.603000", "120028.606000", "120028.610000", "120028.613000", "120028.616000", "120028.620000", "120028.623000", "120028.626000", "120028.630000", "120028.633000", "120028.636000", "120028.640000", "120028.643000", "120028.646000", "120028.650000", "120028.653000", "120028.656000", "120028.660000", "120028.663000", "120028.666000", "120028.670000", "120028.673000", "120028.676000", "120028.680000", "120028.683000", "120028.686000", "120108.599000", "120108.603000", "120108.606000", "120108.610000", "120108.613000", "120108.617000", "120108.620000", "120108.623000", "120108.627000", "120108.630000", "120108.633000", "120108.636000", "120108.640000", "120108.643000", "120108.647000", "120108.650000", "120108.653000", "120108.656000", "120108.660000", "120108.663000", "120108.667000", "120108.670000", "120108.674000", "120108.678000", "120108.681000", "120108.684000", "120148.599000", "120148.603000", "120148.606000", "120148.610000", "120148.613000", "120148.616000", "120148.620000", "120148.623000", "120148.626000", "120148.630000", "120148.633000", "120148.636000", "120148.640000", "120148.643000", "120148.646000", "120148.650000", "120148.653000", "120148.656000", "120148.660000", "120148.663000", "120148.666000", "120148.670000", "120148.673000", "120148.676000", "120148.680000", "120148.683000", "120148.697000", "120228.599000", "120228.603000", "120228.606000", "120228.610000", "120228.613000", "120228.617000", "120228.620000", "120228.623000", "120228.626000", "120228.630000", "120228.633000", "120228.637000", "120228.640000", "120228.644000", "120228.647000", "120228.650000", "120228.654000", "120228.657000", "120228.661000", "120228.664000", "120228.667000", "120228.671000", "120228.674000", "120228.677000", "120228.681000", "120228.684000", "120228.688000", "120308.599000", "120308.603000", "120308.606000", "120308.610000", "120308.613000", "120308.616000", "120308.620000", "120308.623000", "120308.626000", "120308.630000", "120308.633000", "120308.636000", "120308.640000", "120308.643000", "120308.646000", "120308.650000", "120308.653000", "120308.656000", "120308.660000", "120308.663000", "120308.666000", "120308.670000", "120308.673000", "120308.676000", "120308.680000", "120308.683000", "120308.686000", "120328.599000", "120328.603000", "120328.606000", "120328.610000", "120328.613000", "120328.616000", "120328.620000", "120328.623000", "120328.627000", "120328.630000", "120328.633000", "120328.637000", "120328.640000", "120330.577000", "120330.581000"],
      "InstanceCreationTime": ["115548.637000", "115548.642000", "115548.645000", "115548.649000", "115548.652000", "115548.655000", "115548.659000", "115548.668000", "115548.671000", "115548.674000", "115548.678000", "115548.681000", "115548.684000", "115548.688000", "115608.599000", "115608.609000", "115608.612000", "115608.615000", "115608.619000", "115608.622000", "115608.625000", "115608.629000", "115608.632000", "115608.635000", "115608.639000", "115608.642000", "115608.645000", "115608.649000", "115608.652000", "115608.655000", "115608.659000", "115608.662000", "115608.665000", "115608.669000", "115628.599000", "115628.603000", "115628.606000", "115628.609000", "115628.613000", "115628.616000", "115628.620000", "115628.623000", "115628.626000", "115628.630000", "115628.633000", "115628.637000", "115628.640000", "115628.643000", "115628.647000", "115628.651000", "115628.655000", "115628.660000", "115628.664000", "115628.667000", "115648.599000", "115648.603000", "115648.606000", "115648.609000", "115648.613000", "115648.616000", "115648.619000", "115648.623000", "115648.627000", "115648.631000", "115648.634000", "115648.638000", "115648.641000", "115648.645000", "115648.650000", "115648.653000", "115648.657000", "115648.660000", "115648.663000", "115648.667000", "115708.599000", "115708.603000", "115708.606000", "115708.610000", "115708.613000", "115708.616000", "115708.620000", "115708.623000", "115708.626000", "115708.629000", "115708.642000", "115708.645000", "115708.649000", "115708.652000", "115708.655000", "115708.659000", "115708.662000", "115708.665000", "115708.669000", "115708.673000", "115708.676000", "115748.599000", "115748.603000", "115748.606000", "115748.610000", "115748.613000", "115748.616000", "115748.620000", "115748.623000", "115748.626000", "115748.629000", "115748.633000", "115748.636000", "115748.639000", "115748.643000", "115748.646000", "115748.649000", "115748.653000", "115748.656000", "115748.659000", "115748.663000", "115748.666000", "115748.669000", "115748.673000", "115748.676000", "115748.679000", "115748.683000", "115748.686000", "115828.599000", "115828.603000", "115828.606000", "115828.610000", "115828.613000", "115828.616000", "115828.620000", "115828.623000", "115828.626000", "115828.630000", "115828.633000", "115828.636000", "115828.640000", "115828.643000", "115828.646000", "115828.650000", "115828.653000", "115828.656000", "115828.660000", "115828.663000", "115828.666000", "115828.670000", "115828.673000", "115828.676000", "115828.680000", "115828.683000", "115828.686000", "115908.599000", "115908.603000", "115908.606000", "115908.610000", "115908.613000", "115908.616000", "115908.620000", "115908.623000", "115908.626000", "115908.630000", "115908.633000", "115908.636000", "115908.640000", "115908.643000", "115908.646000", "115908.650000", "115908.653000", "115908.656000", "115908.660000", "115908.663000", "115908.666000", "115908.670000", "115908.673000", "115908.677000", "115908.680000", "115908.683000", "115908.687000", "115948.599000", "115948.603000", "115948.606000", "115948.610000", "115948.613000", "115948.632000", "115948.635000", "115948.639000", "115948.642000", "115948.645000", "115948.649000", "115948.652000", "115948.655000", "115948.659000", "115948.662000", "115948.665000", "115948.669000", "115948.672000", "115948.675000", "115948.679000", "115948.682000", "115948.685000", "115948.689000", "115948.692000", "115948.695000", "115948.699000", "115948.702000", "120028.599000", "120028.603000", "120028.606000", "120028.610000", "120028.613000", "120028.616000", "120028.620000", "120028.623000", "120028.626000", "120028.630000", "120028.633000", "120028.636000", "120028.640000", "120028.643000", "120028.646000", "120028.650000", "120028.653000", "120028.656000", "120028.660000", "120028.663000", "120028.666000", "120028.670000", "120028.673000", "120028.676000", "120028.680000", "120028.683000", "120028.686000", "120108.599000", "120108.603000", "120108.606000", "120108.610000", "120108.613000", "120108.617000", "120108.620000", "120108.623000", "120108.627000", "120108.630000", "120108.633000", "120108.636000", "120108.640000", "120108.643000", "120108.647000", "120108.650000", "120108.653000", "120108.656000", "120108.660000", "120108.663000", "120108.667000", "120108.670000", "120108.674000", "120108.678000", "120108.681000", "120108.684000", "120148.599000", "120148.603000", "120148.606000", "120148.610000", "120148.613000", "120148.616000", "120148.620000", "120148.623000", "120148.626000", "120148.630000", "120148.633000", "120148.636000", "120148.640000", "120148.643000", "120148.646000", "120148.650000", "120148.653000", "120148.656000", "120148.660000", "120148.663000", "120148.666000", "120148.670000", "120148.673000", "120148.676000", "120148.680000", "120148.683000", "120148.697000", "120228.599000", "120228.603000", "120228.606000", "120228.610000", "120228.613000", "120228.617000", "120228.620000", "120228.623000", "120228.626000", "120228.630000", "120228.633000", "120228.637000", "120228.640000", "120228.644000", "120228.647000", "120228.650000", "120228.654000", "120228.657000", "120228.661000", "120228.664000", "120228.667000", "120228.671000", "120228.674000", "120228.677000", "120228.681000", "120228.684000", "120228.688000", "120308.599000", "120308.603000", "120308.606000", "120308.610000", "120308.613000", "120308.616000", "120308.620000", "120308.623000", "120308.626000", "120308.630000", "120308.633000", "120308.636000", "120308.640000", "120308.643000", "120308.646000", "120308.650000", "120308.653000", "120308.656000", "120308.660000", "120308.663000", "120308.666000", "120308.670000", "120308.673000", "120308.676000", "120308.680000", "120308.683000", "120308.686000", "120328.599000", "120328.603000", "120328.606000", "120328.610000", "120328.613000", "120328.616000", "120328.620000", "120328.623000", "120328.627000", "120328.630000", "120328.633000", "120328.637000", "120328.640000", "120330.577000", "120330.581000"],
      "InstanceNumber": [1, 2, 3, 4, 5, 6, 7, 8, 9, 10, 11, 12, 13, 14, 15, 16, 17, 18, 19, 20, 21, 22, 23, 24, 25, 26, 27, 28, 29, 30, 31, 32, 33, 34, 35, 36, 37, 38, 39, 40, 41, 42, 43, 44, 45, 46, 47, 48, 49, 50, 51, 52, 53, 54, 55, 56, 57, 58, 59, 60, 61, 62, 63, 64, 65, 66, 67, 68, 69, 70, 71, 72, 73, 74, 75, 76, 77, 78, 79, 80, 81, 82, 83, 84, 85, 86, 87, 88, 89, 90, 91, 92, 93, 94, 95, 96, 97, 98, 99, 100, 101, 102, 103, 104, 105, 106, 107, 108, 109, 110, 111, 112, 113, 114, 115, 116, 117, 118, 119, 120, 121, 122, 123, 124, 125, 126, 127, 128, 129, 130, 131, 132, 133, 134, 135, 136, 137, 138, 139, 140, 141, 142, 143, 144, 145, 146, 147, 148, 149, 150, 151, 152, 153, 154, 155, 156, 157, 158, 159, 160, 161, 162, 163, 164, 165, 166, 167, 168, 169, 170, 171, 172, 173, 174, 175, 176, 177, 178, 179, 180, 181, 182, 183, 184, 185, 186, 187, 188, 189, 190, 191, 192, 193, 194, 195, 196, 197, 198, 199, 200, 201, 202, 203, 204, 205, 206, 207, 208, 209, 210, 211, 212, 213, 214, 215, 216, 217, 218, 219, 220, 221, 222, 223, 224, 225, 226, 227, 228, 229, 230, 231, 232, 233, 234, 235, 236, 237, 238, 239, 240, 241, 242, 243, 244, 245, 246, 247, 248, 249, 250, 251, 252, 253, 254, 255, 256, 257, 258, 259, 260, 261, 262, 263, 264, 265, 266, 267, 268, 269, 270, 271, 272, 273, 274, 275, 276, 277, 278, 279, 280, 281, 282, 283, 284, 285, 286, 287, 288, 289, 290, 291, 292, 293, 294, 295, 296, 297, 298, 299, 300, 301, 302, 303, 304, 305, 306, 307, 308, 309, 310, 311, 312, 313, 314, 315, 316, 317, 318, 319, 320, 321, 322, 323, 324, 325, 326, 327, 328, 329, 330, 331, 332, 333, 334, 335, 336, 337, 338, 339, 340, 341, 342, 343, 344, 345, 346, 347, 348, 349, 350, 351, 352],
      "LargestImagePixelValue": [46291, 45013, 44312, 43673, 43395, 42879, 42932, 42802, 42820, 43072, 43192, 41740, 43132, 40759, 41581, 41571, 41554, 42804, 41585, 41352, 42590, 40850, 41898, 41100, 41995, 41884, 41139, 41870, 40260, 40153, 39761, 39985, 40825, 40013, 41214, 38544, 39289, 38862, 38634, 39042, 39039, 38460, 39086, 38526, 38353, 39201, 39403, 38841, 40085, 39248, 39459, 39119, 39021, 40518, 40786, 40845, 40003, 41534, 41572, 40034, 39733, 40838, 40482, 40019, 41012, 40049, 39657, 41450, 39786, 41734, 39664, 39616, 39597, 40691, 40167, 40454, 40372, 39619, 40026, 39017, 39665, 39426, 41106, 39320, 40607, 39670, 39373, 39267, 40297, 40800, 39511, 40378, 40843, 39773, 39748, 40377, 40602, 40956, 41380, 41097, 39963, 40147, 40101, 40291, 39792, 40694, 39776, 40701, 39918, 40496, 40052, 41642, 40884, 42235, 40015, 39894, 39659, 40958, 40031, 39919, 40679, 40862, 41629, 41106, 41606, 41944, 42371, 40512, 41431, 40970, 41084, 41103, 41106, 40925, 42040, 41372, 42428, 41056, 41090, 42190, 40248, 40065, 41675, 40957, 40608, 40825, 40282, 41391, 41456, 41026, 43330, 43043, 42540, 43344, 42164, 43912, 43478, 43473, 42469, 44186, 43633, 42560, 41966, 41970, 42824, 42828, 42991, 44439, 42878, 42660, 43212, 42869, 44253, 43291, 44098, 42622, 43777, 43456, 42362, 43417, 42466, 44939, 43568, 43589, 43182, 42839, 42709, 43719, 43530, 42373, 42569, 42364, 42061, 42315, 42480, 42173, 42615, 43754, 42632, 41921, 43404, 42194, 41424, 44014, 44008, 43648, 43161, 41979, 43515, 42185, 43469, 43699, 42644, 42207, 42915, 41687, 41876, 39828, 39884, 42343, 42180, 42488, 42159, 43569, 42729, 42268, 43755, 41880, 40923, 43210, 43255, 44460, 42699, 43856, 43238, 43037, 43097, 44955, 44735, 43497, 43245, 44514, 43802, 43522, 43026, 42189, 42238, 41445, 42155, 42109, 42892, 43765, 44224, 43761, 42958, 44636, 42999, 42685, 44746, 44107, 42911, 42771, 43135, 43251, 42386, 43074, 43128, 42726, 44222, 42966, 42353, 43741, 42563, 44678, 44367, 44151, 44588, 45007, 44476, 44999, 44285, 44615, 45306, 44355, 46371, 45112, 45546, 42125, 41260, 43001, 42129, 41635, 43198, 41553, 40192, 42695, 41590, 40783, 43506, 43659, 44203, 45042, 44974, 44981, 43927, 43181, 43099, 43024, 44282, 43715, 43324, 43489, 44327, 44347, 44967, 43609, 45298, 43005, 45121, 43949, 45177, 45266, 45219, 45342, 44573, 44993, 44402, 44086, 43920, 44512, 43776, 44605, 42796, 44626, 44152, 41669, 41584, 41590, 41321, 43133, 42239, 42538, 43331, 43290, 42933, 43136, 42160, 41931, 42127, 42776, 41783, 42348],
