{
  "AcquisitionMatrixPE": 104,
  "AcquisitionNumber": 1,
  "AcquisitionTime": "11:44:8.650000",
  "BandwidthPerPixelPhaseEncode": 17.17,
  "BaseResolution": 104,
  "BodyPartExamined": "BRAIN",
  "CoilCombinationMethod": "Sum of Squares",
  "ConsistencyInfo": "N4_VE11C_LATEST_20160120",
  "ConversionSoftware": "dcm2niix",
  "ConversionSoftwareVersion": "v1.0.20220505",
  "DerivedVendorReportedEchoSpacing": 0.000560011,
  "DeviceSerialNumber": "167006",
  "DwellTime": 2.1e-06,
  "EchoTime": 0.037,
  "EchoTime1": 0.037,
  "EchoTime2": 0.001,
  "EchoTrainLength": 104,
  "EffectiveEchoSpacing": 0.000560011,
  "FlipAngle": 52,
  "HeudiconvVersion": "0.5.3.post811+g6206e14",
  "ImageComments": "Unaliased MB4/PE3/LB",
  "ImageOrientationPatientDICOM": [0.993707, 0.105658, 0.0371847, -0.0839679, 0.922394, -0.377014],
  "ImageOrientationText": "Tra>Cor(-21.9)>Sag(4.3)",
  "ImageType": [
    "ORIGINAL",
    "PRIMARY",
    "P",
    "MB",
    "ND",
    "MOSAIC",
    "PHASE"
],
  "ImagingFrequency": 123.259,
  "InPlanePhaseEncodingDirectionDICOM": "COL",
  "InstitutionAddress": "Chemin Queen-Mary 4565,Montreal,District,CA,H3W 1W5",
  "InstitutionName": "IUGM",
  "InstitutionalDepartmentName": "Department",
  "MRAcquisitionType": "2D",
  "MagneticFieldStrength": 3,
  "Manufacturer": "Siemens",
  "ManufacturersModelName": "Prisma_fit",
  "MatrixCoilMode": "SENSE",
  "Modality": "MR",
  "MultibandAccelerationFactor": 4,
  "PartialFourier": 1,
  "PatientPosition": "HFS",
  "PercentPhaseFOV": 100,
  "PercentSampling": 100,
  "PhaseEncodingDirection": "j",
  "PhaseEncodingSteps": 104,
  "PhaseResolution": 1,
  "PixelBandwidth": 2290,
  "ProcedureStepDescription": "games^mario3",
  "ProtocolName": "func_task-mario3_run-01",
  "PulseSequenceDetails": "%CustomerSeq%\\cmrr_mbep2d_bold",
  "ReceiveCoilActiveElements": "HC1-7;NC1,2",
  "ReceiveCoilName": "HeadNeck_64",
  "ReconMatrixPE": 104,
  "RepetitionTime": 1.49,
  "SAR": 0.044086,
  "ScanOptions": "FS",
  "ScanningSequence": "EP",
  "SequenceName": "epfid2d1_104",
  "SequenceVariant": "SK\\SS",
  "SeriesDescription": "func_task-mario3_run-01",
  "SeriesNumber": 11,
  "ShimSetting": [623, -7233, -8805, 589, 178, -29, -117, 89],
  "SliceThickness": 2,
  "SliceTiming": [0, 0.7825, 0.0975, 0.8825, 0.195, 0.98, 0.2925, 1.0775, 0.3925, 1.175, 0.49, 1.2725, 0.5875, 1.3725, 0.685, 0, 0.7825, 0.0975, 0.8825, 0.195, 0.98, 0.2925, 1.0775, 0.3925, 1.175, 0.49, 1.2725, 0.5875, 1.3725, 0.685, 0, 0.7825, 0.0975, 0.8825, 0.195, 0.98, 0.2925, 1.0775, 0.3925, 1.175, 0.49, 1.2725, 0.5875, 1.3725, 0.685, 0, 0.7825, 0.0975, 0.8825, 0.195, 0.98, 0.2925, 1.0775, 0.3925, 1.175, 0.49, 1.2725, 0.5875, 1.3725, 0.685],
  "SoftwareVersions": "syngo MR E11",
  "SpacingBetweenSlices": 2,
  "StationName": "MRC35049",
  "TaskName": "mario3",
  "TotalReadoutTime": 0.0576811,
  "TxRefAmp": 241.933,
  "WipMemBlock": "08cb4485-97eb-4449-8506-e540ab79f5c2||Sequence: R017 ve11c/master r/75a17815+; Jun 28 2022 16:32:11 by eja",
  "dcmmeta_affine": [
    [-1.987414002418518, -0.16793577373027802, 0.1482672095298767, 109.53636932373047],
    [-0.2113168090581894, 1.8447870016098022, -0.7430384159088135, -54.176029205322266],
    [0.07436934113502502, 0.7540281414985657, 1.850921630859375, -64.9248275756836],
    [0.0, 0.0, 0.0, 1.0]
],
  "dcmmeta_reorient_transform": [
    [0.0, -1.0, 0.0, 103.0],
    [1.0, 0.0, 0.0, 0.0],
    [0.0, 0.0, 1.0, 0.0],
    [0.0, 0.0, 0.0, 1.0]
],
  "dcmmeta_shape": [104, 104, 60, 342],
  "dcmmeta_slice_dim": 2,
  "dcmmeta_version": 0.6,
  "global": {
    "const": {
      "AcquisitionMatrix": [104, 0, 0, 104],
      "AngioFlag": "N",
      "BitsAllocated": 16,
      "BitsStored": 16,
      "BodyPartExamined": "BRAIN",
      "Columns": 832,
      "EchoNumbers": 1,
      "EchoTime": 37.0,
      "EchoTrainLength": 104,
      "FlipAngle": 52.0,
      "HighBit": 15,
      "ImageOrientationPatient": [0.99370700021513, 0.10565840303667, 0.03718466876526, -0.083967890426, 0.92239350207616, -0.3770140855526],
      "ImagePositionPatient": [-754.52905657398, -884.25881891923, 260.13588856407],
      "ImageType": [
        "ORIGINAL",
        "PRIMARY",
        "P",
        "MB",
        "ND",
        "MOSAIC"
],
      "ImagedNucleus": "1H",
      "ImagingFrequency": 123.259021,
      "InPlanePhaseEncodingDirection": "COL",
      "LargestImagePixelValue": 4095,
      "MRAcquisitionType": "2D",
      "MagneticFieldStrength": 3.0,
      "Manufacturer": "SIEMENS",
      "ManufacturerModelName": "Prisma_fit",
      "Modality": "MR",
      "NumberOfAverages": 1.0,
      "NumberOfPhaseEncodingSteps": 104,
      "PercentPhaseFieldOfView": 100.0,
      "PercentSampling": 100.0,
      "PerformedProcedureStepStartTime": "113932.884000",
      "PhotometricInterpretation": "MONOCHROME2",
      "PixelBandwidth": 2290.0,
      "PixelRepresentation": 0,
      "PixelSpacing": [2.0, 2.0],
      "ProtocolName": "func_task-mario3_run-01",
      "RepetitionTime": 1490.0,
      "RescaleIntercept": -4096.0,
      "RescaleSlope": 2.0,
      "RescaleType": "US",
      "Rows": 832,
      "SAR": 0.04408599791069,
      "SamplesPerPixel": 1,
      "ScanOptions": "FS",
      "ScanningSequence": "EP",
      "SequenceName": "epfid2d1_104",
      "SequenceVariant": [
        "SK",
        "SS"
],
      "SeriesDescription": "func_task-mario3_run-01",
      "SeriesNumber": 11,
      "SeriesTime": "114511.818000",
      "SliceLocation": -31.837621406655,
      "SliceThickness": 2.0,
      "SmallestImagePixelValue": 0,
      "SoftwareVersions": "syngo MR E11",
      "SpacingBetweenSlices": 2.0000000119433,
      "SpecificCharacterSet": "ISO_IR 100",
      "StudyID": "1",
      "StudyTime": "113932.765000",
      "TransmitCoilName": "Body",
      "VariableFlipAngleFlag": "N",
      "WindowCenterWidthExplanation": "Algo1",
      "dBdt": 0.0},
    "slices": {}
  },
  "time": {
    "samples": {
      "AcquisitionNumber": [1, 2, 3, 4, 5, 6, 7, 8, 9, 10, 11, 12, 13, 14, 15, 16, 17, 18, 19, 20, 21, 22, 23, 24, 25, 26, 27, 28, 29, 30, 31, 32, 33, 34, 35, 36, 37, 38, 39, 40, 41, 42, 43, 44, 45, 46, 47, 48, 49, 50, 51, 52, 53, 54, 55, 56, 57, 58, 59, 60, 61, 62, 63, 64, 65, 66, 67, 68, 69, 70, 71, 72, 73, 74, 75, 76, 77, 78, 79, 80, 81, 82, 83, 84, 85, 86, 87, 88, 89, 90, 91, 92, 93, 94, 95, 96, 97, 98, 99, 100, 101, 102, 103, 104, 105, 106, 107, 108, 109, 110, 111, 112, 113, 114, 115, 116, 117, 118, 119, 120, 121, 122, 123, 124, 125, 126, 127, 128, 129, 130, 131, 132, 133, 134, 135, 136, 137, 138, 139, 140, 141, 142, 143, 144, 145, 146, 147, 148, 149, 150, 151, 152, 153, 154, 155, 156, 157, 158, 159, 160, 161, 162, 163, 164, 165, 166, 167, 168, 169, 170, 171, 172, 173, 174, 175, 176, 177, 178, 179, 180, 181, 182, 183, 184, 185, 186, 187, 188, 189, 190, 191, 192, 193, 194, 195, 196, 197, 198, 199, 200, 201, 202, 203, 204, 205, 206, 207, 208, 209, 210, 211, 212, 213, 214, 215, 216, 217, 218, 219, 220, 221, 222, 223, 224, 225, 226, 227, 228, 229, 230, 231, 232, 233, 234, 235, 236, 237, 238, 239, 240, 241, 242, 243, 244, 245, 246, 247, 248, 249, 250, 251, 252, 253, 254, 255, 256, 257, 258, 259, 260, 261, 262, 263, 264, 265, 266, 267, 268, 269, 270, 271, 272, 273, 274, 275, 276, 277, 278, 279, 280, 281, 282, 283, 284, 285, 286, 287, 288, 289, 290, 291, 292, 293, 294, 295, 296, 297, 298, 299, 300, 301, 302, 303, 304, 305, 306, 307, 308, 309, 310, 311, 312, 313, 314, 315, 316, 317, 318, 319, 320, 321, 322, 323, 324, 325, 326, 327, 328, 329, 330, 331, 332, 333, 334, 335, 336, 337, 338, 339, 340, 341, 342],
      "AcquisitionTime": ["114408.650000", "114410.140000", "114411.630000", "114413.120000", "114414.610000", "114416.100000", "114417.590000", "114419.080000", "114420.570000", "114422.060000", "114423.550000", "114425.040000", "114426.530000", "114428.020000", "114429.510000", "114431.000000", "114432.490000", "114433.980000", "114435.470000", "114436.960000", "114438.450000", "114439.940000", "114441.430000", "114442.920000", "114444.410000", "114445.900000", "114447.390000", "114448.880000", "114450.370000", "114451.860000", "114453.350000", "114454.840000", "114456.330000", "114457.820000", "114459.310000", "114500.800000", "114502.290000", "114503.780000", "114505.270000", "114506.760000", "114508.250000", "114509.740000", "114511.230000", "114512.720000", "114514.210000", "114515.700000", "114517.190000", "114518.680000", "114520.170000", "114521.660000", "114523.150000", "114524.640000", "114526.130000", "114527.620000", "114529.110000", "114530.600000", "114532.090000", "114533.580000", "114535.070000", "114536.560000", "114538.050000", "114539.540000", "114541.030000", "114542.520000", "114544.010000", "114545.500000", "114546.990000", "114548.480000", "114549.970000", "114551.460000", "114552.950000", "114554.440000", "114555.930000", "114557.420000", "114558.910000", "114600.400000", "114601.890000", "114603.380000", "114604.870000", "114606.360000", "114607.850000", "114609.340000", "114610.830000", "114612.320000", "114613.810000", "114615.300000", "114616.790000", "114618.280000", "114619.770000", "114621.260000", "114622.750000", "114624.240000", "114625.730000", "114627.220000", "114628.710000", "114630.200000", "114631.690000", "114633.180000", "114634.670000", "114636.160000", "114637.650000", "114639.140000", "114640.630000", "114642.120000", "114643.610000", "114645.100000", "114646.590000", "114648.080000", "114649.570000", "114651.060000", "114652.550000", "114654.040000", "114655.530000", "114657.020000", "114658.510000", "114700.000000", "114701.490000", "114702.980000", "114704.470000", "114705.960000", "114707.450000", "114708.940000", "114710.430000", "114711.920000", "114713.410000", "114714.900000", "114716.390000", "114717.880000", "114719.370000", "114720.860000", "114722.350000", "114723.840000", "114725.330000", "114726.820000", "114728.310000", "114729.800000", "114731.290000", "114732.780000", "114734.270000", "114735.760000", "114737.250000", "114738.740000", "114740.230000", "114741.720000", "114743.210000", "114744.700000", "114746.190000", "114747.680000", "114749.170000", "114750.660000", "114752.150000", "114753.640000", "114755.130000", "114756.620000", "114758.110000", "114759.600000", "114801.090000", "114802.580000", "114804.070000", "114805.560000", "114807.050000", "114808.540000", "114810.030000", "114811.520000", "114813.010000", "114814.500000", "114815.990000", "114817.480000", "114818.970000", "114820.460000", "114821.950000", "114823.440000", "114824.930000", "114826.420000", "114827.910000", "114829.400000", "114830.890000", "114832.380000", "114833.870000", "114835.360000", "114836.850000", "114838.340000", "114839.830000", "114841.320000", "114842.810000", "114844.300000", "114845.790000", "114847.280000", "114848.770000", "114850.260000", "114851.750000", "114853.240000", "114854.730000", "114856.220000", "114857.710000", "114859.200000", "114900.690000", "114902.180000", "114903.670000", "114905.160000", "114906.650000", "114908.140000", "114909.630000", "114911.120000", "114912.610000", "114914.100000", "114915.590000", "114917.080000", "114918.570000", "114920.060000", "114921.550000", "114923.040000", "114924.530000", "114926.020000", "114927.510000", "114929.000000", "114930.490000", "114931.980000", "114933.470000", "114934.960000", "114936.450000", "114937.940000", "114939.430000", "114940.920000", "114942.410000", "114943.900000", "114945.390000", "114946.880000", "114948.370000", "114949.860000", "114951.350000", "114952.840000", "114954.330000", "114955.820000", "114957.310000", "114958.800000", "115000.290000", "115001.780000", "115003.270000", "115004.760000", "115006.250000", "115007.740000", "115009.230000", "115010.720000", "115012.210000", "115013.700000", "115015.190000", "115016.680000", "115018.170000", "115019.660000", "115021.150000", "115022.640000", "115024.130000", "115025.620000", "115027.110000", "115028.600000", "115030.090000", "115031.580000", "115033.070000", "115034.560000", "115036.050000", "115037.540000", "115039.030000", "115040.520000", "115042.010000", "115043.500000", "115044.990000", "115046.480000", "115047.970000", "115049.460000", "115050.950000", "115052.440000", "115053.930000", "115055.420000", "115056.910000", "115058.400000", "115059.890000", "115101.380000", "115102.870000", "115104.360000", "115105.850000", "115107.340000", "115108.830000", "115110.320000", "115111.810000", "115113.300000", "115114.790000", "115116.280000", "115117.770000", "115119.260000", "115120.750000", "115122.240000", "115123.730000", "115125.220000", "115126.710000", "115128.200000", "115129.690000", "115131.180000", "115132.670000", "115134.160000", "115135.650000", "115137.140000", "115138.630000", "115140.120000", "115141.610000", "115143.100000", "115144.590000", "115146.080000", "115147.570000", "115149.060000", "115150.550000", "115152.040000", "115153.530000", "115155.020000", "115156.510000", "115158.000000", "115159.490000", "115200.980000", "115202.470000", "115203.960000", "115205.450000", "115206.940000", "115208.430000", "115209.920000", "115211.410000", "115212.900000", "115214.390000", "115215.880000", "115217.370000", "115218.860000", "115220.350000", "115221.840000", "115223.330000", "115224.820000", "115226.310000", "115227.800000", "115229.290000", "115230.780000", "115232.270000", "115233.760000", "115235.250000", "115236.740000"],
      "ContentTime": ["114511.820000", "114511.823000", "114511.825000", "114511.828000", "114511.830000", "114511.839000", "114511.842000", "114511.845000", "114511.847000", "114511.850000", "114511.852000", "114511.855000", "114511.857000", "114531.772000", "114531.775000", "114531.777000", "114531.780000", "114531.782000", "114531.785000", "114531.787000", "114531.790000", "114531.792000", "114531.795000", "114531.798000", "114531.800000", "114531.803000", "114531.805000", "114531.808000", "114531.812000", "114531.815000", "114531.817000", "114531.820000", "114531.822000", "114531.825000", "114551.778000", "114551.780000", "114551.783000", "114551.785000", "114551.788000", "114551.791000", "114551.793000", "114551.796000", "114551.798000", "114551.801000", "114551.803000", "114551.806000", "114551.808000", "114551.810000", "114551.813000", "114551.815000", "114551.818000", "114551.821000", "114551.823000", "114551.826000", "114611.754000", "114611.757000", "114611.760000", "114611.762000", "114611.765000", "114611.767000", "114611.770000", "114611.772000", "114611.775000", "114611.777000", "114611.780000", "114611.782000", "114611.785000", "114611.787000", "114611.790000", "114611.793000", "114611.796000", "114611.799000", "114611.801000", "114611.804000", "114631.759000", "114631.762000", "114631.765000", "114631.767000", "114631.770000", "114631.772000", "114631.775000", "114631.777000", "114631.780000", "114631.782000", "114631.785000", "114631.788000", "114631.790000", "114631.793000", "114631.795000", "114631.798000", "114631.800000", "114631.803000", "114631.805000", "114631.808000", "114712.072000", "114712.075000", "114712.077000", "114712.080000", "114712.082000", "114712.085000", "114712.087000", "114712.090000", "114712.092000", "114712.095000", "114712.098000", "114712.100000", "114712.103000", "114712.105000", "114712.108000", "114712.110000", "114712.113000", "114712.115000", "114712.118000", "114712.121000", "114712.123000", "114712.126000", "114712.128000", "114712.131000", "114712.133000", "114712.136000", "114712.139000", "114712.141000", "114751.799000", "114751.801000", "114751.804000", "114751.806000", "114751.809000", "114751.811000", "114751.814000", "114751.816000", "114751.819000", "114751.821000", "114751.824000", "114751.826000", "114751.829000", "114751.831000", "114751.834000", "114751.836000", "114751.839000", "114751.841000", "114751.844000", "114751.846000", "114751.849000", "114751.851000", "114751.854000", "114751.857000", "114751.859000", "114751.862000", "114751.864000", "114831.784000", "114831.831000", "114831.833000", "114831.836000", "114831.838000", "114831.841000", "114831.843000", "114831.846000", "114831.848000", "114831.851000", "114831.853000", "114831.856000", "114831.858000", "114831.861000", "114831.863000", "114831.866000", "114831.869000", "114831.871000", "114831.874000", "114831.876000", "114831.879000", "114831.881000", "114831.884000", "114831.886000", "114831.889000", "114831.891000", "114831.894000", "114911.786000", "114911.809000", "114911.811000", "114911.814000", "114911.816000", "114911.819000", "114911.821000", "114911.824000", "114911.826000", "114911.829000", "114911.832000", "114911.834000", "114911.837000", "114911.839000", "114911.842000", "114911.844000", "114911.847000", "114911.849000", "114911.852000", "114911.854000", "114911.857000", "114911.859000", "114911.862000", "114911.864000", "114911.867000", "114911.869000", "114951.794000", "114951.796000", "114951.799000", "114951.802000", "114951.804000", "114951.807000", "114951.809000", "114951.821000", "114951.824000", "114951.826000", "114951.829000", "114951.832000", "114951.834000", "114951.837000", "114951.839000", "114951.842000", "114951.845000", "114951.847000", "114951.850000", "114951.852000", "114951.855000", "114951.857000", "114951.860000", "114951.862000", "114951.865000", "114951.867000", "114951.870000", "115031.795000", "115031.798000", "115031.801000", "115031.803000", "115031.806000", "115031.808000", "115031.811000", "115031.813000", "115031.816000", "115031.818000", "115031.821000", "115031.823000", "115031.826000", "115031.828000", "115031.831000", "115031.833000", "115031.836000", "115031.838000", "115031.841000", "115031.843000", "115031.846000", "115031.848000", "115031.851000", "115031.853000", "115031.856000", "115031.858000", "115031.861000", "115111.786000", "115111.789000", "115111.791000", "115111.794000", "115111.796000", "115111.799000", "115111.801000", "115111.804000", "115111.806000", "115111.809000", "115111.812000", "115111.814000", "115111.817000", "115111.819000", "115111.822000", "115111.824000", "115111.827000", "115111.829000", "115111.832000", "115111.834000", "115111.837000", "115111.839000", "115111.842000", "115111.844000", "115111.847000", "115111.849000", "115111.852000", "115151.788000", "115151.791000", "115151.794000", "115151.796000", "115151.799000", "115151.801000", "115151.804000", "115151.806000", "115151.809000", "115151.811000", "115151.814000", "115151.816000", "115151.819000", "115151.821000", "115151.824000", "115151.826000", "115151.829000", "115151.831000", "115151.834000", "115151.836000", "115151.839000", "115151.841000", "115151.844000", "115151.847000", "115151.849000", "115151.852000", "115151.854000", "115231.797000", "115231.800000", "115231.802000", "115231.805000", "115231.808000", "115231.810000", "115231.813000", "115231.815000", "115231.818000", "115231.820000", "115231.823000", "115231.825000", "115231.828000", "115231.830000", "115231.833000", "115231.835000", "115231.838000", "115231.840000", "115231.843000", "115231.845000", "115231.848000", "115231.850000", "115231.853000", "115231.856000", "115231.858000", "115231.861000", "115231.863000", "115239.765000", "115239.768000", "115239.770000", "115239.773000", "115239.775000"],
      "InstanceCreationTime": ["114511.820000", "114511.823000", "114511.825000", "114511.828000", "114511.830000", "114511.839000", "114511.842000", "114511.845000", "114511.847000", "114511.850000", "114511.852000", "114511.855000", "114511.857000", "114531.772000", "114531.775000", "114531.777000", "114531.780000", "114531.782000", "114531.785000", "114531.787000", "114531.790000", "114531.792000", "114531.795000", "114531.798000", "114531.800000", "114531.803000", "114531.805000", "114531.808000", "114531.812000", "114531.815000", "114531.817000", "114531.820000", "114531.822000", "114531.825000", "114551.778000", "114551.780000", "114551.783000", "114551.785000", "114551.788000", "114551.791000", "114551.793000", "114551.796000", "114551.798000", "114551.801000", "114551.803000", "114551.806000", "114551.808000", "114551.810000", "114551.813000", "114551.815000", "114551.818000", "114551.821000", "114551.823000", "114551.826000", "114611.754000", "114611.757000", "114611.760000", "114611.762000", "114611.765000", "114611.767000", "114611.770000", "114611.772000", "114611.775000", "114611.777000", "114611.780000", "114611.782000", "114611.785000", "114611.787000", "114611.790000", "114611.793000", "114611.796000", "114611.799000", "114611.801000", "114611.804000", "114631.759000", "114631.762000", "114631.765000", "114631.767000", "114631.770000", "114631.772000", "114631.775000", "114631.777000", "114631.780000", "114631.782000", "114631.785000", "114631.788000", "114631.790000", "114631.793000", "114631.795000", "114631.798000", "114631.800000", "114631.803000", "114631.805000", "114631.808000", "114712.072000", "114712.075000", "114712.077000", "114712.080000", "114712.082000", "114712.085000", "114712.087000", "114712.090000", "114712.092000", "114712.095000", "114712.098000", "114712.100000", "114712.103000", "114712.105000", "114712.108000", "114712.110000", "114712.113000", "114712.115000", "114712.118000", "114712.121000", "114712.123000", "114712.126000", "114712.128000", "114712.131000", "114712.133000", "114712.136000", "114712.139000", "114712.141000", "114751.799000", "114751.801000", "114751.804000", "114751.806000", "114751.809000", "114751.811000", "114751.814000", "114751.816000", "114751.819000", "114751.821000", "114751.824000", "114751.826000", "114751.829000", "114751.831000", "114751.834000", "114751.836000", "114751.839000", "114751.841000", "114751.844000", "114751.846000", "114751.849000", "114751.851000", "114751.854000", "114751.857000", "114751.859000", "114751.862000", "114751.864000", "114831.784000", "114831.831000", "114831.833000", "114831.836000", "114831.838000", "114831.841000", "114831.843000", "114831.846000", "114831.848000", "114831.851000", "114831.853000", "114831.856000", "114831.858000", "114831.861000", "114831.863000", "114831.866000", "114831.869000", "114831.871000", "114831.874000", "114831.876000", "114831.879000", "114831.881000", "114831.884000", "114831.886000", "114831.889000", "114831.891000", "114831.894000", "114911.786000", "114911.809000", "114911.811000", "114911.814000", "114911.816000", "114911.819000", "114911.821000", "114911.824000", "114911.826000", "114911.829000", "114911.832000", "114911.834000", "114911.837000", "114911.839000", "114911.842000", "114911.844000", "114911.847000", "114911.849000", "114911.852000", "114911.854000", "114911.857000", "114911.859000", "114911.862000", "114911.864000", "114911.867000", "114911.869000", "114951.794000", "114951.796000", "114951.799000", "114951.802000", "114951.804000", "114951.807000", "114951.809000", "114951.821000", "114951.824000", "114951.826000", "114951.829000", "114951.832000", "114951.834000", "114951.837000", "114951.839000", "114951.842000", "114951.845000", "114951.847000", "114951.850000", "114951.852000", "114951.855000", "114951.857000", "114951.860000", "114951.862000", "114951.865000", "114951.867000", "114951.870000", "115031.795000", "115031.798000", "115031.801000", "115031.803000", "115031.806000", "115031.808000", "115031.811000", "115031.813000", "115031.816000", "115031.818000", "115031.821000", "115031.823000", "115031.826000", "115031.828000", "115031.831000", "115031.833000", "115031.836000", "115031.838000", "115031.841000", "115031.843000", "115031.846000", "115031.848000", "115031.851000", "115031.853000", "115031.856000", "115031.858000", "115031.861000", "115111.786000", "115111.789000", "115111.791000", "115111.794000", "115111.796000", "115111.799000", "115111.801000", "115111.804000", "115111.806000", "115111.809000", "115111.812000", "115111.814000", "115111.817000", "115111.819000", "115111.822000", "115111.824000", "115111.827000", "115111.829000", "115111.832000", "115111.834000", "115111.837000", "115111.839000", "115111.842000", "115111.844000", "115111.847000", "115111.849000", "115111.852000", "115151.788000", "115151.791000", "115151.794000", "115151.796000", "115151.799000", "115151.801000", "115151.804000", "115151.806000", "115151.809000", "115151.811000", "115151.814000", "115151.816000", "115151.819000", "115151.821000", "115151.824000", "115151.826000", "115151.829000", "115151.831000", "115151.834000", "115151.836000", "115151.839000", "115151.841000", "115151.844000", "115151.847000", "115151.849000", "115151.852000", "115151.854000", "115231.797000", "115231.800000", "115231.802000", "115231.805000", "115231.808000", "115231.810000", "115231.813000", "115231.815000", "115231.818000", "115231.820000", "115231.823000", "115231.825000", "115231.828000", "115231.830000", "115231.833000", "115231.835000", "115231.838000", "115231.840000", "115231.843000", "115231.845000", "115231.848000", "115231.850000", "115231.853000", "115231.856000", "115231.858000", "115231.861000", "115231.863000", "115239.765000", "115239.768000", "115239.770000", "115239.773000", "115239.775000"],
      "InstanceNumber": [1, 2, 3, 4, 5, 6, 7, 8, 9, 10, 11, 12, 13, 14, 15, 16, 17, 18, 19, 20, 21, 22, 23, 24, 25, 26, 27, 28, 29, 30, 31, 32, 33, 34, 35, 36, 37, 38, 39, 40, 41, 42, 43, 44, 45, 46, 47, 48, 49, 50, 51, 52, 53, 54, 55, 56, 57, 58, 59, 60, 61, 62, 63, 64, 65, 66, 67, 68, 69, 70, 71, 72, 73, 74, 75, 76, 77, 78, 79, 80, 81, 82, 83, 84, 85, 86, 87, 88, 89, 90, 91, 92, 93, 94, 95, 96, 97, 98, 99, 100, 101, 102, 103, 104, 105, 106, 107, 108, 109, 110, 111, 112, 113, 114, 115, 116, 117, 118, 119, 120, 121, 122, 123, 124, 125, 126, 127, 128, 129, 130, 131, 132, 133, 134, 135, 136, 137, 138, 139, 140, 141, 142, 143, 144, 145, 146, 147, 148, 149, 150, 151, 152, 153, 154, 155, 156, 157, 158, 159, 160, 161, 162, 163, 164, 165, 166, 167, 168, 169, 170, 171, 172, 173, 174, 175, 176, 177, 178, 179, 180, 181, 182, 183, 184, 185, 186, 187, 188, 189, 190, 191, 192, 193, 194, 195, 196, 197, 198, 199, 200, 201, 202, 203, 204, 205, 206, 207, 208, 209, 210, 211, 212, 213, 214, 215, 216, 217, 218, 219, 220, 221, 222, 223, 224, 225, 226, 227, 228, 229, 230, 231, 232, 233, 234, 235, 236, 237, 238, 239, 240, 241, 242, 243, 244, 245, 246, 247, 248, 249, 250, 251, 252, 253, 254, 255, 256, 257, 258, 259, 260, 261, 262, 263, 264, 265, 266, 267, 268, 269, 270, 271, 272, 273, 274, 275, 276, 277, 278, 279, 280, 281, 282, 283, 284, 285, 286, 287, 288, 289, 290, 291, 292, 293, 294, 295, 296, 297, 298, 299, 300, 301, 302, 303, 304, 305, 306, 307, 308, 309, 310, 311, 312, 313, 314, 315, 316, 317, 318, 319, 320, 321, 322, 323, 324, 325, 326, 327, 328, 329, 330, 331, 332, 333, 334, 335, 336, 337, 338, 339, 340, 341, 342],
      "WindowCenter": [4790.0, 4786.0, 4790.0, 4792.0, 4814.0, 4788.0, 4816.0, 4792.0, 4816.0, 4788.0, 4790.0, 4790.0, 4816.0, 4792.0, 4814.0, 4816.0, 4792.0, 4792.0, 4816.0, 4792.0, 4814.0, 4790.0, 4814.0, 4816.0, 4816.0, 4816.0, 4814.0, 4814.0, 4792.0, 4816.0, 4818.0, 4818.0, 4816.0, 4820.0, 4818.0, 4814.0, 4816.0, 4816.0, 4820.0, 4814.0, 4816.0, 4816.0, 4818.0, 4792.0, 4816.0, 4816.0, 4818.0, 4818.0, 4818.0, 4818.0, 4818.0, 4820.0, 4818.0, 4820.0, 4820.0, 4820.0, 4816.0, 4816.0, 4820.0, 4818.0, 4814.0, 4814.0, 4794.0, 4816.0, 4816.0, 4818.0, 4816.0, 4818.0, 4818.0, 4790.0, 4816.0, 4816.0, 4818.0, 4794.0, 4820.0, 4820.0, 4820.0, 4816.0, 4818.0, 4816.0, 4820.0, 4818.0, 4818.0, 4818.0, 4816.0, 4820.0, 4820.0, 4820.0, 4820.0, 4820.0, 4820.0, 4814.0, 4822.0, 4816.0, 4814.0, 4816.0, 4818.0, 4820.0, 4816.0, 4816.0, 4820.0, 4820.0, 4818.0, 4818.0, 4816.0, 4818.0, 4814.0, 4818.0, 4818.0, 4820.0, 4818.0, 4822.0, 4820.0, 4820.0, 4818.0, 4824.0, 4818.0, 4818.0, 4820.0, 4816.0, 4822.0, 4820.0, 4818.0, 4824.0, 4818.0, 4816.0, 4820.0, 4818.0, 4814.0, 4820.0, 4818.0, 4820.0, 4822.0, 4822.0, 4818.0, 4820.0, 4818.0, 4820.0, 4820.0, 4820.0, 4818.0, 4818.0, 4820.0, 4820.0, 4822.0, 4822.0, 4818.0, 4820.0, 4820.0, 4822.0, 4820.0, 4820.0, 4818.0, 4818.0, 4818.0, 4816.0, 4822.0, 4822.0, 4816.0, 4816.0, 4818.0, 4820.0, 4820.0, 4820.0, 4820.0, 4818.0, 4816.0, 4822.0, 4820.0, 4818.0, 4818.0, 4820.0, 4818.0, 4822.0, 4818.0, 4820.0, 4818.0, 4818.0, 4814.0, 4816.0, 4818.0, 4820.0, 4820.0, 4816.0, 4818.0, 4816.0, 4818.0, 4820.0, 4818.0, 4816.0, 4816.0, 4818.0, 4818.0, 4818.0, 4818.0, 4822.0, 4816.0, 4818.0, 4820.0, 4820.0, 4814.0, 4820.0, 4818.0, 4816.0, 4816.0, 4818.0, 4818.0, 4818.0, 4820.0, 4820.0, 4818.0, 4822.0, 4814.0, 4816.0, 4818.0, 4818.0, 4820.0, 4818.0, 4818.0, 4818.0, 4818.0, 4818.0, 4818.0, 4818.0, 4818.0, 4818.0, 4818.0, 4820.0, 4818.0, 4822.0, 4818.0, 4818.0, 4818.0, 4816.0, 4820.0, 4820.0, 4816.0, 4820.0, 4820.0, 4820.0, 4816.0, 4818.0, 4816.0, 4816.0, 4816.0, 4816.0, 4820.0, 4816.0, 4822.0, 4818.0, 4818.0, 4822.0, 4818.0, 4816.0, 4818.0, 4816.0, 4818.0, 4818.0, 4816.0, 4816.0, 4820.0, 4820.0, 4818.0, 4816.0, 4818.0, 4794.0, 4816.0, 4816.0, 4818.0, 4818.0, 4820.0, 4818.0, 4816.0, 4820.0, 4818.0, 4790.0, 4816.0, 4796.0, 4818.0, 4818.0, 4818.0, 4818.0, 4820.0, 4816.0, 4794.0, 4820.0, 4792.0, 4816.0, 4818.0, 4816.0, 4816.0, 4816.0, 4816.0, 4818.0, 4818.0, 4818.0, 4820.0, 4818.0, 4822.0, 4816.0, 4816.0, 4818.0, 4818.0, 4818.0, 4820.0, 4820.0, 4818.0, 4820.0, 4820.0, 4820.0, 4818.0, 4818.0, 4820.0, 4818.0, 4818.0, 4820.0, 4818.0, 4816.0, 4820.0, 4820.0, 4818.0, 4818.0, 4818.0, 4818.0, 4818.0, 4816.0, 4818.0, 4814.0, 4818.0, 4824.0, 4818.0, 4794.0, 4818.0, 4816.0, 4822.0, 4818.0, 4816.0, 4814.0, 4820.0, 4820.0, 4822.0, 4820.0],
