{
  "AcquisitionMatrixPE": 104,
  "AcquisitionNumber": 1,
  "AcquisitionTime": "12:11:28.182500",
  "BandwidthPerPixelPhaseEncode": 17.17,
  "BaseResolution": 104,
  "BodyPartExamined": "BRAIN",
  "CoilCombinationMethod": "Sum of Squares",
  "ConsistencyInfo": "N4_VE11C_LATEST_20160120",
  "ConversionSoftware": "dcm2niix",
  "ConversionSoftwareVersion": "v1.0.20220505",
  "DerivedVendorReportedEchoSpacing": 0.000560011,
  "DeviceSerialNumber": "167006",
  "DwellTime": 2.1e-06,
  "EchoTime": 0.037,
  "EchoTime1": 0.037,
  "EchoTime2": 0.001,
  "EchoTrainLength": 104,
  "EffectiveEchoSpacing": 0.000560011,
  "FlipAngle": 52,
  "HeudiconvVersion": "0.5.3.post811+g6206e14",
  "ImageComments": "Unaliased MB4/PE3/LB",
  "ImageOrientationPatientDICOM": [0.993707, 0.105658, 0.0371847, -0.0839679, 0.922394, -0.377014],
  "ImageOrientationText": "Tra>Cor(-21.9)>Sag(4.3)",
  "ImageType": [
    "ORIGINAL",
    "PRIMARY",
    "P",
    "MB",
    "ND",
    "MOSAIC",
    "PHASE"
],
  "ImagingFrequency": 123.259,
  "InPlanePhaseEncodingDirectionDICOM": "COL",
  "InstitutionAddress": "Chemin Queen-Mary 4565,Montreal,District,CA,H3W 1W5",
  "InstitutionName": "IUGM",
  "InstitutionalDepartmentName": "Department",
  "MRAcquisitionType": "2D",
  "MagneticFieldStrength": 3,
  "Manufacturer": "Siemens",
  "ManufacturersModelName": "Prisma_fit",
  "MatrixCoilMode": "SENSE",
  "Modality": "MR",
  "MultibandAccelerationFactor": 4,
  "PartialFourier": 1,
  "PatientPosition": "HFS",
  "PercentPhaseFOV": 100,
  "PercentSampling": 100,
  "PhaseEncodingDirection": "j",
  "PhaseEncodingSteps": 104,
  "PhaseResolution": 1,
  "PixelBandwidth": 2290,
  "ProcedureStepDescription": "games^mario3",
  "ProtocolName": "func_task-mario3_run-03",
  "PulseSequenceDetails": "%CustomerSeq%\\cmrr_mbep2d_bold",
  "ReceiveCoilActiveElements": "HC1-7;NC1,2",
  "ReceiveCoilName": "HeadNeck_64",
  "ReconMatrixPE": 104,
  "RepetitionTime": 1.49,
  "SAR": 0.044086,
  "ScanOptions": "FS",
  "ScanningSequence": "EP",
  "SequenceName": "epfid2d1_104",
  "SequenceVariant": "SK\\SS",
  "SeriesDescription": "func_task-mario3_run-03",
  "SeriesNumber": 20,
  "ShimSetting": [623, -7233, -8805, 589, 178, -29, -117, 89],
  "SliceThickness": 2,
  "SliceTiming": [0, 0.7825, 0.0975, 0.88, 0.195, 0.98, 0.2925, 1.0775, 0.39, 1.175, 0.49, 1.2725, 0.5875, 1.37, 0.685, 0, 0.7825, 0.0975, 0.88, 0.195, 0.98, 0.2925, 1.0775, 0.39, 1.175, 0.49, 1.2725, 0.5875, 1.37, 0.685, 0, 0.7825, 0.0975, 0.88, 0.195, 0.98, 0.2925, 1.0775, 0.39, 1.175, 0.49, 1.2725, 0.5875, 1.37, 0.685, 0, 0.7825, 0.0975, 0.88, 0.195, 0.98, 0.2925, 1.0775, 0.39, 1.175, 0.49, 1.2725, 0.5875, 1.37, 0.685],
  "SoftwareVersions": "syngo MR E11",
  "SpacingBetweenSlices": 2,
  "StationName": "MRC35049",
  "TaskName": "mario3",
  "TotalReadoutTime": 0.0576811,
  "TxRefAmp": 241.933,
  "WipMemBlock": "0398e1c7-9a8e-405f-a699-79b2041673c5||Sequence: R017 ve11c/master r/75a17815+; Jun 28 2022 16:32:11 by eja",
  "dcmmeta_affine": [
    [-1.987414002418518, -0.16793577373027802, 0.1482672095298767, 109.53636932373047],
    [-0.2113168090581894, 1.8447870016098022, -0.7430384159088135, -54.176029205322266],
    [0.07436934113502502, 0.7540281414985657, 1.850921630859375, -64.9248275756836],
    [0.0, 0.0, 0.0, 1.0]
],
  "dcmmeta_reorient_transform": [
    [0.0, -1.0, 0.0, 103.0],
    [1.0, 0.0, 0.0, 0.0],
    [0.0, 0.0, 1.0, 0.0],
    [0.0, 0.0, 0.0, 1.0]
],
  "dcmmeta_shape": [104, 104, 60, 298],
  "dcmmeta_slice_dim": 2,
  "dcmmeta_version": 0.6,
  "global": {
    "const": {
      "AcquisitionMatrix": [104, 0, 0, 104],
      "AngioFlag": "N",
      "BitsAllocated": 16,
      "BitsStored": 16,
      "BodyPartExamined": "BRAIN",
      "Columns": 832,
      "EchoNumbers": 1,
      "EchoTime": 37.0,
      "EchoTrainLength": 104,
      "FlipAngle": 52.0,
      "HighBit": 15,
      "ImageOrientationPatient": [0.99370700021513, 0.10565840303667, 0.03718466876526, -0.083967890426, 0.92239350207616, -0.3770140855526],
      "ImagePositionPatient": [-754.52905657398, -884.25881891923, 260.13588856407],
      "ImageType": [
        "ORIGINAL",
        "PRIMARY",
        "P",
        "MB",
        "ND",
        "MOSAIC"
],
      "ImagedNucleus": "1H",
      "ImagingFrequency": 123.25903,
      "InPlanePhaseEncodingDirection": "COL",
      "LargestImagePixelValue": 4095,
      "MRAcquisitionType": "2D",
      "MagneticFieldStrength": 3.0,
      "Manufacturer": "SIEMENS",
      "ManufacturerModelName": "Prisma_fit",
      "Modality": "MR",
      "NumberOfAverages": 1.0,
      "NumberOfPhaseEncodingSteps": 104,
      "PercentPhaseFieldOfView": 100.0,
      "PercentSampling": 100.0,
      "PerformedProcedureStepStartTime": "113932.884000",
      "PhotometricInterpretation": "MONOCHROME2",
      "PixelBandwidth": 2290.0,
      "PixelRepresentation": 0,
      "PixelSpacing": [2.0, 2.0],
      "ProtocolName": "func_task-mario3_run-03",
      "RepetitionTime": 1490.0,
      "RescaleIntercept": -4096.0,
      "RescaleSlope": 2.0,
      "RescaleType": "US",
      "Rows": 832,
      "SAR": 0.04408599791069,
      "SamplesPerPixel": 1,
      "ScanOptions": "FS",
      "ScanningSequence": "EP",
      "SequenceName": "epfid2d1_104",
      "SequenceVariant": [
        "SK",
        "SS"
],
      "SeriesDescription": "func_task-mario3_run-03",
      "SeriesNumber": 20,
      "SeriesTime": "121251.926000",
      "SliceLocation": -31.837621406655,
      "SliceThickness": 2.0,
      "SmallestImagePixelValue": 0,
      "SoftwareVersions": "syngo MR E11",
      "SpacingBetweenSlices": 2.0000000119433,
      "SpecificCharacterSet": "ISO_IR 100",
      "StudyID": "1",
      "StudyTime": "113932.765000",
      "TransmitCoilName": "Body",
      "VariableFlipAngleFlag": "N",
      "WindowCenterWidthExplanation": "Algo1",
      "dBdt": 0.0},
    "slices": {}
  },
  "time": {
    "samples": {
      "AcquisitionNumber": [1, 2, 3, 4, 5, 6, 7, 8, 9, 10, 11, 12, 13, 14, 15, 16, 17, 18, 19, 20, 21, 22, 23, 24, 25, 26, 27, 28, 29, 30, 31, 32, 33, 34, 35, 36, 37, 38, 39, 40, 41, 42, 43, 44, 45, 46, 47, 48, 49, 50, 51, 52, 53, 54, 55, 56, 57, 58, 59, 60, 61, 62, 63, 64, 65, 66, 67, 68, 69, 70, 71, 72, 73, 74, 75, 76, 77, 78, 79, 80, 81, 82, 83, 84, 85, 86, 87, 88, 89, 90, 91, 92, 93, 94, 95, 96, 97, 98, 99, 100, 101, 102, 103, 104, 105, 106, 107, 108, 109, 110, 111, 112, 113, 114, 115, 116, 117, 118, 119, 120, 121, 122, 123, 124, 125, 126, 127, 128, 129, 130, 131, 132, 133, 134, 135, 136, 137, 138, 139, 140, 141, 142, 143, 144, 145, 146, 147, 148, 149, 150, 151, 152, 153, 154, 155, 156, 157, 158, 159, 160, 161, 162, 163, 164, 165, 166, 167, 168, 169, 170, 171, 172, 173, 174, 175, 176, 177, 178, 179, 180, 181, 182, 183, 184, 185, 186, 187, 188, 189, 190, 191, 192, 193, 194, 195, 196, 197, 198, 199, 200, 201, 202, 203, 204, 205, 206, 207, 208, 209, 210, 211, 212, 213, 214, 215, 216, 217, 218, 219, 220, 221, 222, 223, 224, 225, 226, 227, 228, 229, 230, 231, 232, 233, 234, 235, 236, 237, 238, 239, 240, 241, 242, 243, 244, 245, 246, 247, 248, 249, 250, 251, 252, 253, 254, 255, 256, 257, 258, 259, 260, 261, 262, 263, 264, 265, 266, 267, 268, 269, 270, 271, 272, 273, 274, 275, 276, 277, 278, 279, 280, 281, 282, 283, 284, 285, 286, 287, 288, 289, 290, 291, 292, 293, 294, 295, 296, 297, 298],
      "AcquisitionTime": ["121128.182500", "121129.672500", "121131.162500", "121132.652500", "121134.142500", "121135.632500", "121137.122500", "121138.612500", "121140.102500", "121141.592500", "121143.082500", "121144.572500", "121146.062500", "121147.552500", "121149.042500", "121150.532500", "121152.022500", "121153.512500", "121155.002500", "121156.492500", "121157.982500", "121159.472500", "121200.962500", "121202.452500", "121203.942500", "121205.432500", "121206.922500", "121208.412500", "121209.902500", "121211.392500", "121212.882500", "121214.372500", "121215.862500", "121217.352500", "121218.842500", "121220.332500", "121221.822500", "121223.312500", "121224.802500", "121226.292500", "121227.782500", "121229.272500", "121230.762500", "121232.252500", "121233.742500", "121235.232500", "121236.722500", "121238.212500", "121239.702500", "121241.192500", "121242.682500", "121244.172500", "121245.662500", "121247.152500", "121248.642500", "121250.132500", "121251.622500", "121253.112500", "121254.602500", "121256.092500", "121257.582500", "121259.072500", "121300.562500", "121302.052500", "121303.542500", "121305.032500", "121306.522500", "121308.012500", "121309.502500", "121310.992500", "121312.482500", "121313.972500", "121315.462500", "121316.952500", "121318.442500", "121319.932500", "121321.422500", "121322.912500", "121324.402500", "121325.892500", "121327.382500", "121328.872500", "121330.362500", "121331.852500", "121333.342500", "121334.832500", "121336.322500", "121337.812500", "121339.302500", "121340.792500", "121342.282500", "121343.772500", "121345.262500", "121346.752500", "121348.242500", "121349.732500", "121351.222500", "121352.712500", "121354.202500", "121355.692500", "121357.182500", "121358.672500", "121400.162500", "121401.652500", "121403.142500", "121404.632500", "121406.122500", "121407.612500", "121409.102500", "121410.592500", "121412.082500", "121413.572500", "121415.062500", "121416.552500", "121418.042500", "121419.532500", "121421.022500", "121422.512500", "121424.002500", "121425.492500", "121426.982500", "121428.472500", "121429.962500", "121431.452500", "121432.942500", "121434.432500", "121435.922500", "121437.412500", "121438.902500", "121440.392500", "121441.882500", "121443.372500", "121444.862500", "121446.352500", "121447.842500", "121449.332500", "121450.822500", "121452.312500", "121453.802500", "121455.292500", "121456.782500", "121458.272500", "121459.762500", "121501.252500", "121502.742500", "121504.232500", "121505.722500", "121507.212500", "121508.702500", "121510.192500", "121511.682500", "121513.172500", "121514.662500", "121516.152500", "121517.642500", "121519.132500", "121520.622500", "121522.112500", "121523.602500", "121525.092500", "121526.582500", "121528.072500", "121529.562500", "121531.052500", "121532.542500", "121534.032500", "121535.522500", "121537.012500", "121538.502500", "121539.992500", "121541.482500", "121542.972500", "121544.462500", "121545.952500", "121547.442500", "121548.932500", "121550.422500", "121551.912500", "121553.402500", "121554.892500", "121556.382500", "121557.872500", "121559.362500", "121600.852500", "121602.342500", "121603.832500", "121605.322500", "121606.812500", "121608.302500", "121609.792500", "121611.282500", "121612.772500", "121614.262500", "121615.752500", "121617.242500", "121618.732500", "121620.222500", "121621.712500", "121623.202500", "121624.692500", "121626.182500", "121627.672500", "121629.162500", "121630.652500", "121632.142500", "121633.632500", "121635.122500", "121636.612500", "121638.102500", "121639.592500", "121641.082500", "121642.572500", "121644.062500", "121645.552500", "121647.042500", "121648.532500", "121650.022500", "121651.512500", "121653.002500", "121654.492500", "121655.982500", "121657.472500", "121658.962500", "121700.452500", "121701.942500", "121703.432500", "121704.922500", "121706.412500", "121707.902500", "121709.392500", "121710.882500", "121712.372500", "121713.862500", "121715.352500", "121716.842500", "121718.332500", "121719.822500", "121721.312500", "121722.802500", "121724.292500", "121725.782500", "121727.272500", "121728.762500", "121730.252500", "121731.742500", "121733.232500", "121734.722500", "121736.212500", "121737.702500", "121739.192500", "121740.682500", "121742.172500", "121743.662500", "121745.152500", "121746.642500", "121748.132500", "121749.622500", "121751.112500", "121752.602500", "121754.092500", "121755.582500", "121757.072500", "121758.562500", "121800.052500", "121801.542500", "121803.032500", "121804.522500", "121806.012500", "121807.502500", "121808.992500", "121810.482500", "121811.972500", "121813.462500", "121814.952500", "121816.442500", "121817.932500", "121819.422500", "121820.912500", "121822.402500", "121823.892500", "121825.382500", "121826.872500", "121828.362500", "121829.852500", "121831.342500", "121832.832500", "121834.322500", "121835.812500", "121837.302500", "121838.792500", "121840.282500", "121841.772500", "121843.262500", "121844.752500", "121846.242500", "121847.732500", "121849.222500", "121850.712500"],
      "ContentTime": ["121251.928000", "121251.931000", "121251.933000", "121251.937000", "121251.939000", "121251.942000", "121251.944000", "121251.947000", "121251.949000", "121251.952000", "121251.954000", "121251.957000", "121251.959000", "121251.962000", "121251.964000", "121251.967000", "121251.970000", "121251.972000", "121251.975000", "121251.977000", "121251.980000", "121251.982000", "121251.985000", "121251.987000", "121251.997000", "121252.000000", "121252.003000", "121252.006000", "121252.008000", "121252.011000", "121252.013000", "121311.760000", "121311.763000", "121311.765000", "121311.768000", "121311.771000", "121311.773000", "121311.776000", "121311.778000", "121311.781000", "121311.783000", "121311.786000", "121311.788000", "121311.791000", "121311.793000", "121311.796000", "121311.798000", "121311.801000", "121311.803000", "121311.806000", "121311.809000", "121331.771000", "121331.774000", "121331.776000", "121331.779000", "121331.782000", "121331.784000", "121331.787000", "121331.789000", "121331.792000", "121331.794000", "121331.797000", "121331.800000", "121331.802000", "121331.804000", "121331.807000", "121331.810000", "121331.812000", "121331.815000", "121331.817000", "121331.820000", "121351.770000", "121351.773000", "121351.776000", "121351.778000", "121351.781000", "121351.783000", "121351.831000", "121351.834000", "121351.836000", "121351.839000", "121351.841000", "121351.844000", "121351.847000", "121351.849000", "121351.851000", "121351.854000", "121351.857000", "121351.859000", "121351.862000", "121351.864000", "121431.842000", "121431.844000", "121431.847000", "121431.849000", "121431.852000", "121431.854000", "121431.857000", "121431.859000", "121431.862000", "121431.865000", "121431.867000", "121431.870000", "121431.872000", "121431.875000", "121431.877000", "121431.880000", "121431.882000", "121431.885000", "121431.887000", "121431.890000", "121431.893000", "121431.896000", "121431.899000", "121431.901000", "121431.904000", "121431.906000", "121431.909000", "121431.911000", "121431.914000", "121431.917000", "121431.919000", "121511.786000", "121511.789000", "121511.792000", "121511.794000", "121511.797000", "121511.799000", "121511.802000", "121511.804000", "121511.807000", "121511.809000", "121511.812000", "121511.814000", "121511.817000", "121511.819000", "121511.822000", "121511.824000", "121511.827000", "121511.829000", "121511.832000", "121511.834000", "121511.837000", "121511.839000", "121511.842000", "121511.845000", "121511.847000", "121511.850000", "121511.852000", "121551.812000", "121551.814000", "121551.817000", "121551.819000", "121551.822000", "121551.825000", "121551.827000", "121551.830000", "121551.832000", "121551.835000", "121551.837000", "121551.840000", "121551.842000", "121551.845000", "121551.847000", "121551.850000", "121551.866000", "121551.868000", "121551.871000", "121551.873000", "121551.876000", "121551.878000", "121551.881000", "121551.883000", "121551.886000", "121551.888000", "121551.891000", "121631.797000", "121631.799000", "121631.802000", "121631.804000", "121631.807000", "121631.809000", "121631.812000", "121631.815000", "121631.817000", "121631.820000", "121631.822000", "121631.825000", "121631.827000", "121631.830000", "121631.832000", "121631.835000", "121631.837000", "121631.840000", "121631.843000", "121631.845000", "121631.848000", "121631.850000", "121631.853000", "121631.855000", "121631.858000", "121631.861000", "121631.863000", "121711.787000", "121711.790000", "121711.792000", "121711.795000", "121711.797000", "121711.800000", "121711.803000", "121711.805000", "121711.808000", "121711.810000", "121711.813000", "121711.816000", "121711.818000", "121711.821000", "121711.823000", "121711.826000", "121711.828000", "121711.831000", "121711.833000", "121711.836000", "121711.839000", "121711.841000", "121711.844000", "121711.846000", "121711.849000", "121711.851000", "121711.854000", "121751.818000", "121751.821000", "121751.823000", "121751.826000", "121751.828000", "121751.831000", "121751.834000", "121751.836000", "121751.839000", "121751.841000", "121751.844000", "121751.846000", "121751.849000", "121751.851000", "121751.854000", "121751.856000", "121751.859000", "121751.862000", "121751.864000", "121751.867000", "121751.869000", "121751.872000", "121751.874000", "121751.877000", "121751.880000", "121751.882000", "121831.798000", "121831.801000", "121831.803000", "121831.806000", "121831.808000", "121831.811000", "121831.813000", "121831.816000", "121831.819000", "121831.821000", "121831.824000", "121831.826000", "121831.829000", "121831.831000", "121831.834000", "121831.837000", "121831.839000", "121831.842000", "121831.844000", "121831.847000", "121831.849000", "121831.852000", "121831.854000", "121831.857000", "121831.860000", "121831.862000", "121831.865000", "121853.775000", "121853.778000", "121853.781000", "121853.783000", "121853.786000", "121853.788000", "121853.791000", "121853.794000", "121853.796000", "121853.799000", "121853.801000", "121853.804000", "121853.806000", "121853.809000", "121853.811000"],
      "InstanceCreationTime": ["121251.928000", "121251.931000", "121251.933000", "121251.937000", "121251.939000", "121251.942000", "121251.944000", "121251.947000", "121251.949000", "121251.952000", "121251.954000", "121251.957000", "121251.959000", "121251.962000", "121251.964000", "121251.967000", "121251.970000", "121251.972000", "121251.975000", "121251.977000", "121251.980000", "121251.982000", "121251.985000", "121251.987000", "121251.997000", "121252.000000", "121252.003000", "121252.006000", "121252.008000", "121252.011000", "121252.013000", "121311.760000", "121311.763000", "121311.765000", "121311.768000", "121311.771000", "121311.773000", "121311.776000", "121311.778000", "121311.781000", "121311.783000", "121311.786000", "121311.788000", "121311.791000", "121311.793000", "121311.796000", "121311.798000", "121311.801000", "121311.803000", "121311.806000", "121311.809000", "121331.771000", "121331.774000", "121331.776000", "121331.779000", "121331.782000", "121331.784000", "121331.787000", "121331.789000", "121331.792000", "121331.794000", "121331.797000", "121331.800000", "121331.802000", "121331.804000", "121331.807000", "121331.810000", "121331.812000", "121331.815000", "121331.817000", "121331.820000", "121351.770000", "121351.773000", "121351.776000", "121351.778000", "121351.781000", "121351.783000", "121351.831000", "121351.834000", "121351.836000", "121351.839000", "121351.841000", "121351.844000", "121351.847000", "121351.849000", "121351.851000", "121351.854000", "121351.857000", "121351.859000", "121351.862000", "121351.864000", "121431.842000", "121431.844000", "121431.847000", "121431.849000", "121431.852000", "121431.854000", "121431.857000", "121431.859000", "121431.862000", "121431.865000", "121431.867000", "121431.870000", "121431.872000", "121431.875000", "121431.877000", "121431.880000", "121431.882000", "121431.885000", "121431.887000", "121431.890000", "121431.893000", "121431.896000", "121431.899000", "121431.901000", "121431.904000", "121431.906000", "121431.909000", "121431.911000", "121431.914000", "121431.917000", "121431.919000", "121511.786000", "121511.789000", "121511.792000", "121511.794000", "121511.797000", "121511.799000", "121511.802000", "121511.804000", "121511.807000", "121511.809000", "121511.812000", "121511.814000", "121511.817000", "121511.819000", "121511.822000", "121511.824000", "121511.827000", "121511.829000", "121511.832000", "121511.834000", "121511.837000", "121511.839000", "121511.842000", "121511.845000", "121511.847000", "121511.850000", "121511.852000", "121551.812000", "121551.814000", "121551.817000", "121551.819000", "121551.822000", "121551.825000", "121551.827000", "121551.830000", "121551.832000", "121551.835000", "121551.837000", "121551.840000", "121551.842000", "121551.845000", "121551.847000", "121551.850000", "121551.866000", "121551.868000", "121551.871000", "121551.873000", "121551.876000", "121551.878000", "121551.881000", "121551.883000", "121551.886000", "121551.888000", "121551.891000", "121631.797000", "121631.799000", "121631.802000", "121631.804000", "121631.807000", "121631.809000", "121631.812000", "121631.815000", "121631.817000", "121631.820000", "121631.822000", "121631.825000", "121631.827000", "121631.830000", "121631.832000", "121631.835000", "121631.837000", "121631.840000", "121631.843000", "121631.845000", "121631.848000", "121631.850000", "121631.853000", "121631.855000", "121631.858000", "121631.861000", "121631.863000", "121711.787000", "121711.790000", "121711.792000", "121711.795000", "121711.797000", "121711.800000", "121711.803000", "121711.805000", "121711.808000", "121711.810000", "121711.813000", "121711.816000", "121711.818000", "121711.821000", "121711.823000", "121711.826000", "121711.828000", "121711.831000", "121711.833000", "121711.836000", "121711.839000", "121711.841000", "121711.844000", "121711.846000", "121711.849000", "121711.851000", "121711.854000", "121751.818000", "121751.821000", "121751.823000", "121751.826000", "121751.828000", "121751.831000", "121751.834000", "121751.836000", "121751.839000", "121751.841000", "121751.844000", "121751.846000", "121751.849000", "121751.851000", "121751.854000", "121751.856000", "121751.859000", "121751.862000", "121751.864000", "121751.867000", "121751.869000", "121751.872000", "121751.874000", "121751.877000", "121751.880000", "121751.882000", "121831.798000", "121831.801000", "121831.803000", "121831.806000", "121831.808000", "121831.811000", "121831.813000", "121831.816000", "121831.819000", "121831.821000", "121831.824000", "121831.826000", "121831.829000", "121831.831000", "121831.834000", "121831.837000", "121831.839000", "121831.842000", "121831.844000", "121831.847000", "121831.849000", "121831.852000", "121831.854000", "121831.857000", "121831.860000", "121831.862000", "121831.865000", "121853.775000", "121853.778000", "121853.781000", "121853.783000", "121853.786000", "121853.788000", "121853.791000", "121853.794000", "121853.796000", "121853.799000", "121853.801000", "121853.804000", "121853.806000", "121853.809000", "121853.811000"],
      "InstanceNumber": [1, 2, 3, 4, 5, 6, 7, 8, 9, 10, 11, 12, 13, 14, 15, 16, 17, 18, 19, 20, 21, 22, 23, 24, 25, 26, 27, 28, 29, 30, 31, 32, 33, 34, 35, 36, 37, 38, 39, 40, 41, 42, 43, 44, 45, 46, 47, 48, 49, 50, 51, 52, 53, 54, 55, 56, 57, 58, 59, 60, 61, 62, 63, 64, 65, 66, 67, 68, 69, 70, 71, 72, 73, 74, 75, 76, 77, 78, 79, 80, 81, 82, 83, 84, 85, 86, 87, 88, 89, 90, 91, 92, 93, 94, 95, 96, 97, 98, 99, 100, 101, 102, 103, 104, 105, 106, 107, 108, 109, 110, 111, 112, 113, 114, 115, 116, 117, 118, 119, 120, 121, 122, 123, 124, 125, 126, 127, 128, 129, 130, 131, 132, 133, 134, 135, 136, 137, 138, 139, 140, 141, 142, 143, 144, 145, 146, 147, 148, 149, 150, 151, 152, 153, 154, 155, 156, 157, 158, 159, 160, 161, 162, 163, 164, 165, 166, 167, 168, 169, 170, 171, 172, 173, 174, 175, 176, 177, 178, 179, 180, 181, 182, 183, 184, 185, 186, 187, 188, 189, 190, 191, 192, 193, 194, 195, 196, 197, 198, 199, 200, 201, 202, 203, 204, 205, 206, 207, 208, 209, 210, 211, 212, 213, 214, 215, 216, 217, 218, 219, 220, 221, 222, 223, 224, 225, 226, 227, 228, 229, 230, 231, 232, 233, 234, 235, 236, 237, 238, 239, 240, 241, 242, 243, 244, 245, 246, 247, 248, 249, 250, 251, 252, 253, 254, 255, 256, 257, 258, 259, 260, 261, 262, 263, 264, 265, 266, 267, 268, 269, 270, 271, 272, 273, 274, 275, 276, 277, 278, 279, 280, 281, 282, 283, 284, 285, 286, 287, 288, 289, 290, 291, 292, 293, 294, 295, 296, 297, 298],
      "WindowCenter": [4792.0, 4788.0, 4790.0, 4790.0, 4814.0, 4818.0, 4814.0, 4818.0, 4818.0, 4816.0, 4812.0, 4818.0, 4814.0, 4814.0, 4818.0, 4814.0, 4814.0, 4816.0, 4818.0, 4816.0, 4814.0, 4814.0, 4818.0, 4820.0, 4816.0, 4818.0, 4816.0, 4812.0, 4818.0, 4818.0, 4816.0, 4818.0, 4818.0, 4820.0, 4818.0, 4816.0, 4818.0, 4818.0, 4814.0, 4816.0, 4820.0, 4812.0, 4818.0, 4814.0, 4818.0, 4818.0, 4816.0, 4818.0, 4816.0, 4814.0, 4816.0, 4820.0, 4814.0, 4820.0, 4818.0, 4818.0, 4816.0, 4816.0, 4814.0, 4816.0, 4816.0, 4818.0, 4814.0, 4818.0, 4818.0, 4818.0, 4820.0, 4814.0, 4816.0, 4816.0, 4816.0, 4816.0, 4814.0, 4816.0, 4816.0, 4822.0, 4818.0, 4816.0, 4816.0, 4816.0, 4816.0, 4814.0, 4816.0, 4820.0, 4814.0, 4816.0, 4814.0, 4814.0, 4818.0, 4816.0, 4818.0, 4816.0, 4816.0, 4818.0, 4794.0, 4818.0, 4816.0, 4812.0, 4818.0, 4820.0, 4820.0, 4814.0, 4818.0, 4822.0, 4816.0, 4814.0, 4816.0, 4818.0, 4816.0, 4820.0, 4816.0, 4820.0, 4816.0, 4818.0, 4816.0, 4816.0, 4818.0, 4818.0, 4818.0, 4816.0, 4816.0, 4818.0, 4818.0, 4816.0, 4820.0, 4822.0, 4816.0, 4818.0, 4818.0, 4820.0, 4818.0, 4816.0, 4818.0, 4824.0, 4816.0, 4816.0, 4818.0, 4816.0, 4814.0, 4816.0, 4818.0, 4814.0, 4814.0, 4820.0, 4816.0, 4818.0, 4818.0, 4818.0, 4816.0, 4818.0, 4816.0, 4818.0, 4820.0, 4822.0, 4816.0, 4814.0, 4816.0, 4816.0, 4818.0, 4816.0, 4820.0, 4818.0, 4816.0, 4814.0, 4820.0, 4818.0, 4816.0, 4818.0, 4816.0, 4816.0, 4818.0, 4814.0, 4822.0, 4818.0, 4816.0, 4816.0, 4814.0, 4818.0, 4818.0, 4818.0, 4816.0, 4792.0, 4818.0, 4816.0, 4816.0, 4816.0, 4816.0, 4818.0, 4816.0, 4816.0, 4816.0, 4816.0, 4816.0, 4818.0, 4796.0, 4816.0, 4816.0, 4794.0, 4816.0, 4818.0, 4818.0, 4818.0, 4792.0, 4794.0, 4794.0, 4792.0, 4796.0, 4794.0, 4820.0, 4796.0, 4790.0, 4794.0, 4794.0, 4792.0, 4792.0, 4792.0, 4820.0, 4792.0, 4794.0, 4818.0, 4818.0, 4798.0, 4796.0, 4792.0, 4790.0, 4792.0, 4818.0, 4794.0, 4816.0, 4814.0, 4820.0, 4818.0, 4792.0, 4796.0, 4792.0, 4816.0, 4818.0, 4790.0, 4794.0, 4794.0, 4792.0, 4794.0, 4818.0, 4816.0, 4818.0, 4820.0, 4814.0, 4794.0, 4794.0, 4816.0, 4816.0, 4796.0, 4794.0, 4818.0, 4818.0, 4820.0, 4816.0, 4818.0, 4792.0, 4820.0, 4816.0, 4816.0, 4818.0, 4820.0, 4790.0, 4816.0, 4792.0, 4816.0, 4792.0, 4816.0, 4816.0, 4794.0, 4794.0, 4794.0, 4794.0, 4816.0, 4816.0, 4792.0, 4814.0, 4816.0, 4816.0, 4814.0, 4816.0, 4794.0, 4820.0, 4792.0, 4796.0, 4794.0, 4816.0, 4794.0, 4818.0, 4794.0, 4820.0, 4818.0, 4816.0, 4794.0, 4818.0, 4820.0],
      "WindowWidth": [18562.0, 18560.0, 18558.0, 18562.0, 18592.0, 18594.0, 18590.0, 18592.0, 18596.0, 18598.0, 18592.0, 18598.0, 18588.0, 18594.0, 18596.0, 18588.0, 18588.0, 18594.0, 18600.0, 18594.0, 18594.0, 18598.0, 18596.0, 18596.0, 18600.0, 18598.0, 18592.0, 18592.0, 18596.0, 18592.0, 18596.0, 18598.0, 18592.0, 18596.0, 18596.0, 18596.0, 18600.0, 18594.0, 18586.0, 18594.0, 18598.0, 18588.0, 18594.0, 18590.0, 18590.0, 18598.0, 18594.0, 18598.0, 18592.0, 18590.0, 18592.0, 18596.0, 18594.0, 18598.0, 18592.0, 18592.0, 18594.0, 18594.0, 18594.0, 18592.0, 18594.0, 18596.0, 18590.0, 18596.0, 18590.0, 18590.0, 18594.0, 18592.0, 18594.0, 18594.0, 18592.0, 18586.0, 18594.0, 18592.0, 18590.0, 18592.0, 18594.0, 18592.0, 18592.0, 18588.0, 18590.0, 18590.0, 18596.0, 18598.0, 18592.0, 18592.0, 18594.0, 18588.0, 18596.0, 18592.0, 18590.0, 18584.0, 18588.0, 18590.0, 18556.0, 18592.0, 18590.0, 18588.0, 18594.0, 18590.0, 18596.0, 18588.0, 18590.0, 18594.0, 18586.0, 18590.0, 18592.0, 18590.0, 18590.0, 18590.0, 18592.0, 18596.0, 18586.0, 18588.0, 18590.0, 18594.0, 18596.0, 18596.0, 18590.0, 18594.0, 18590.0, 18594.0, 18596.0, 18584.0, 18594.0, 18590.0, 18588.0, 18592.0, 18590.0, 18594.0, 18592.0, 18592.0, 18594.0, 18600.0, 18588.0, 18586.0, 18592.0, 18592.0, 18590.0, 18590.0, 18592.0, 18590.0, 18592.0, 18594.0, 18592.0, 18592.0, 18592.0, 18594.0, 18588.0, 18594.0, 18590.0, 18590.0, 18594.0, 18594.0, 18590.0, 18586.0, 18590.0, 18588.0, 18588.0, 18588.0, 18592.0, 18592.0, 18594.0, 18594.0, 18590.0, 18592.0, 18596.0, 18592.0, 18594.0, 18590.0, 18592.0, 18592.0, 18596.0, 18594.0, 18592.0, 18594.0, 18586.0, 18588.0, 18592.0, 18592.0, 18590.0, 18558.0, 18594.0, 18590.0, 18592.0, 18590.0, 18592.0, 18592.0, 18592.0, 18592.0, 18592.0, 18592.0, 18592.0, 18592.0, 18560.0, 18588.0, 18590.0, 18558.0, 18590.0, 18590.0, 18590.0, 18594.0, 18554.0, 18560.0, 18560.0, 18556.0, 18558.0, 18558.0, 18596.0, 18564.0, 18556.0, 18562.0, 18556.0, 18558.0, 18552.0, 18556.0, 18588.0, 18558.0, 18560.0, 18586.0, 18588.0, 18562.0, 18562.0, 18556.0, 18556.0, 18556.0, 18592.0, 18558.0, 18586.0, 18586.0, 18594.0, 18586.0, 18556.0, 18558.0, 18560.0, 18590.0, 18588.0, 18560.0, 18558.0, 18556.0, 18558.0, 18556.0, 18588.0, 18590.0, 18592.0, 18590.0, 18590.0, 18562.0, 18560.0, 18590.0, 18586.0, 18560.0, 18560.0, 18586.0, 18588.0, 18584.0, 18586.0, 18588.0, 18556.0, 18592.0, 18592.0, 18588.0, 18588.0, 18596.0, 18558.0, 18590.0, 18560.0, 18588.0, 18558.0, 18586.0, 18590.0, 18558.0, 18562.0, 18556.0, 18554.0, 18592.0, 18590.0, 18556.0, 18592.0, 18590.0, 18594.0, 18590.0, 18592.0, 18554.0, 18590.0, 18560.0, 18560.0, 18558.0, 18590.0, 18558.0, 18586.0, 18562.0, 18586.0, 18590.0, 18592.0, 18560.0, 18590.0, 18588.0]
    },
    "slices": {}
  }
}