{
  "AcquisitionMatrixPE": 104,
  "AcquisitionNumber": 1,
  "AcquisitionTime": "12:05:44.595000",
  "BandwidthPerPixelPhaseEncode": 17.17,
  "BaseResolution": 104,
  "BodyPartExamined": "BRAIN",
  "CoilCombinationMethod": "Sum of Squares",
  "ConsistencyInfo": "N4_VE11C_LATEST_20160120",
  "ConversionSoftware": "dcm2niix",
  "ConversionSoftwareVersion": "v1.0.20220505",
  "DerivedVendorReportedEchoSpacing": 0.000560011,
  "DeviceSerialNumber": "167006",
  "DwellTime": 2.1e-06,
  "EchoTime": 0.037,
  "EchoTrainLength": 104,
  "EffectiveEchoSpacing": 0.000560011,
  "FlipAngle": 52,
  "HeudiconvVersion": "0.5.3.post811+g6206e14",
  "ImageComments": "Unaliased MB4/PE3/LB",
  "ImageOrientationPatientDICOM": [0.993707, 0.105658, 0.0371847, -0.0839679, 0.922394, -0.377014],
  "ImageOrientationText": "Tra>Cor(-21.9)>Sag(4.3)",
  "ImageType": [
    "ORIGINAL",
    "PRIMARY",
    "M",
    "MB",
    "ND",
    "MOSAIC"
],
  "ImagingFrequency": 123.259,
  "InPlanePhaseEncodingDirectionDICOM": "COL",
  "InstitutionAddress": "Chemin Queen-Mary 4565,Montreal,District,CA,H3W 1W5",
  "InstitutionName": "IUGM",
  "InstitutionalDepartmentName": "Department",
  "MRAcquisitionType": "2D",
  "MagneticFieldStrength": 3,
  "Manufacturer": "Siemens",
  "ManufacturersModelName": "Prisma_fit",
  "MatrixCoilMode": "SENSE",
  "Modality": "MR",
  "MultibandAccelerationFactor": 4,
  "PartialFourier": 1,
  "PatientPosition": "HFS",
  "PercentPhaseFOV": 100,
  "PercentSampling": 100,
  "PhaseEncodingDirection": "j",
  "PhaseEncodingSteps": 104,
  "PhaseResolution": 1,
  "PixelBandwidth": 2290,
  "ProcedureStepDescription": "games^mario3",
  "ProtocolName": "func_task-mario3_run-03",
  "PulseSequenceDetails": "%CustomerSeq%\\cmrr_mbep2d_bold",
  "ReceiveCoilActiveElements": "HC1-7;NC1,2",
  "ReceiveCoilName": "HeadNeck_64",
  "ReconMatrixPE": 104,
  "RepetitionTime": 1.49,
  "SAR": 0.044086,
  "ScanOptions": "FS",
  "ScanningSequence": "EP",
  "SequenceName": "epfid2d1_104",
  "SequenceVariant": "SK\\SS",
  "SeriesDescription": "func_task-mario3_run-03",
  "SeriesNumber": 16,
  "ShimSetting": [623, -7233, -8805, 589, 178, -29, -117, 89],
  "SliceThickness": 2,
  "SliceTiming": [0, 0.7825, 0.0975, 0.8825, 0.195, 0.98, 0.2925, 1.0775, 0.3925, 1.175, 0.49, 1.2725, 0.5875, 1.3725, 0.685, 0, 0.7825, 0.0975, 0.8825, 0.195, 0.98, 0.2925, 1.0775, 0.3925, 1.175, 0.49, 1.2725, 0.5875, 1.3725, 0.685, 0, 0.7825, 0.0975, 0.8825, 0.195, 0.98, 0.2925, 1.0775, 0.3925, 1.175, 0.49, 1.2725, 0.5875, 1.3725, 0.685, 0, 0.7825, 0.0975, 0.8825, 0.195, 0.98, 0.2925, 1.0775, 0.3925, 1.175, 0.49, 1.2725, 0.5875, 1.3725, 0.685],
  "SoftwareVersions": "syngo MR E11",
  "SpacingBetweenSlices": 2,
  "StationName": "MRC35049",
  "TaskName": "mario3",
  "TotalReadoutTime": 0.0576811,
  "TxRefAmp": 241.933,
  "WipMemBlock": "48df2a1d-df5c-4c86-a068-cdb4c9edf424||Sequence: R017 ve11c/master r/75a17815+; Jun 28 2022 16:32:11 by eja",
  "dcmmeta_affine": [
    [-1.987414002418518, -0.16793577373027802, 0.1482672095298767, 109.53636932373047],
    [-0.2113168090581894, 1.8447870016098022, -0.7430384159088135, -54.176029205322266],
    [0.07436934113502502, 0.7540281414985657, 1.850921630859375, -64.9248275756836],
    [0.0, 0.0, 0.0, 1.0]
],
  "dcmmeta_reorient_transform": [
    [0.0, -1.0, 0.0, 103.0],
    [1.0, 0.0, 0.0, 0.0],
    [0.0, 0.0, 1.0, 0.0],
    [0.0, 0.0, 0.0, 1.0]
],
  "dcmmeta_shape": [104, 104, 60, 112],
  "dcmmeta_slice_dim": 2,
  "dcmmeta_version": 0.6,
  "global": {
    "const": {
      "AcquisitionMatrix": [104, 0, 0, 104],
      "AngioFlag": "N",
      "BitsAllocated": 16,
      "BitsStored": 16,
      "BodyPartExamined": "BRAIN",
      "Columns": 832,
      "EchoNumbers": 1,
      "EchoTime": 37.0,
      "EchoTrainLength": 104,
      "FlipAngle": 52.0,
      "HighBit": 15,
      "ImageOrientationPatient": [0.99370700021513, 0.10565840303667, 0.03718466876526, -0.083967890426, 0.92239350207616, -0.3770140855526],
      "ImagePositionPatient": [-754.52905657398, -884.25881891923, 260.13588856407],
      "ImageType": [
        "ORIGINAL",
        "PRIMARY",
        "M",
        "MB",
        "ND",
        "MOSAIC"
],
      "ImagedNucleus": "1H",
      "ImagingFrequency": 123.259033,
      "InPlanePhaseEncodingDirection": "COL",
      "MRAcquisitionType": "2D",
      "MagneticFieldStrength": 3.0,
      "Manufacturer": "SIEMENS",
      "ManufacturerModelName": "Prisma_fit",
      "Modality": "MR",
      "NumberOfAverages": 1.0,
      "NumberOfPhaseEncodingSteps": 104,
      "PercentPhaseFieldOfView": 100.0,
      "PercentSampling": 100.0,
      "PerformedProcedureStepStartTime": "113932.884000",
      "PhotometricInterpretation": "MONOCHROME2",
      "PixelBandwidth": 2290.0,
      "PixelRepresentation": 0,
      "PixelSpacing": [2.0, 2.0],
      "ProtocolName": "func_task-mario3_run-03",
      "RepetitionTime": 1490.0,
      "Rows": 832,
      "SAR": 0.04408599791069,
      "SamplesPerPixel": 1,
      "ScanOptions": "FS",
      "ScanningSequence": "EP",
      "SequenceName": "epfid2d1_104",
      "SequenceVariant": [
        "SK",
        "SS"
],
      "SeriesDescription": "func_task-mario3_run-03",
      "SeriesNumber": 16,
      "SeriesTime": "120701.746000",
      "SliceLocation": -31.837621406655,
      "SliceThickness": 2.0,
      "SmallestImagePixelValue": 0,
      "SoftwareVersions": "syngo MR E11",
      "SpacingBetweenSlices": 2.0000000119433,
      "SpecificCharacterSet": "ISO_IR 100",
      "StudyID": "1",
      "StudyTime": "113932.765000",
      "TransmitCoilName": "Body",
      "VariableFlipAngleFlag": "N",
      "WindowCenterWidthExplanation": "Algo1",
      "dBdt": 0.0},
    "slices": {}
  },
  "time": {
    "samples": {
      "AcquisitionNumber": [1, 2, 3, 4, 5, 6, 7, 8, 9, 10, 11, 12, 13, 14, 15, 16, 17, 18, 19, 20, 21, 22, 23, 24, 25, 26, 27, 28, 29, 30, 31, 32, 33, 34, 35, 36, 37, 38, 39, 40, 41, 42, 43, 44, 45, 46, 47, 48, 49, 50, 51, 52, 53, 54, 55, 56, 57, 58, 59, 60, 61, 62, 63, 64, 65, 66, 67, 68, 69, 70, 71, 72, 73, 74, 75, 76, 77, 78, 79, 80, 81, 82, 83, 84, 85, 86, 87, 88, 89, 90, 91, 92, 93, 94, 95, 96, 97, 98, 99, 100, 101, 102, 103, 104, 105, 106, 107, 108, 109, 110, 111, 112],
      "AcquisitionTime": ["120544.595000", "120546.085000", "120547.575000", "120549.065000", "120550.555000", "120552.045000", "120553.535000", "120555.025000", "120556.515000", "120558.005000", "120559.495000", "120600.985000", "120602.475000", "120603.965000", "120605.455000", "120606.945000", "120608.435000", "120609.925000", "120611.415000", "120612.905000", "120614.395000", "120615.885000", "120617.375000", "120618.865000", "120620.355000", "120621.845000", "120623.335000", "120624.825000", "120626.315000", "120627.805000", "120629.295000", "120630.785000", "120632.275000", "120633.765000", "120635.255000", "120636.745000", "120638.235000", "120639.725000", "120641.215000", "120642.705000", "120644.195000", "120645.685000", "120647.175000", "120648.665000", "120650.155000", "120651.645000", "120653.135000", "120654.625000", "120656.115000", "120657.605000", "120659.095000", "120700.585000", "120702.075000", "120703.565000", "120705.055000", "120706.545000", "120708.035000", "120709.525000", "120711.015000", "120712.505000", "120713.995000", "120715.485000", "120716.975000", "120718.465000", "120719.955000", "120721.445000", "120722.935000", "120724.425000", "120725.915000", "120727.405000", "120728.895000", "120730.385000", "120731.875000", "120733.365000", "120734.855000", "120736.345000", "120737.835000", "120739.325000", "120740.815000", "120742.305000", "120743.795000", "120745.285000", "120746.775000", "120748.265000", "120749.755000", "120751.245000", "120752.735000", "120754.225000", "120755.715000", "120757.205000", "120758.695000", "120800.185000", "120801.675000", "120803.165000", "120804.655000", "120806.145000", "120807.635000", "120809.125000", "120810.615000", "120812.105000", "120813.595000", "120815.085000", "120816.575000", "120818.065000", "120819.555000", "120821.045000", "120822.535000", "120824.025000", "120825.515000", "120827.005000", "120828.495000", "120829.985000"],
      "ContentTime": ["120701.749000", "120701.753000", "120701.757000", "120701.760000", "120701.763000", "120701.767000", "120701.770000", "120701.773000", "120701.777000", "120701.780000", "120701.783000", "120701.787000", "120701.790000", "120701.794000", "120701.797000", "120701.800000", "120701.803000", "120701.807000", "120701.810000", "120701.813000", "120701.817000", "120701.820000", "120701.823000", "120701.827000", "120701.830000", "120701.833000", "120701.837000", "120701.840000", "120701.843000", "120721.703000", "120721.707000", "120721.710000", "120721.713000", "120721.717000", "120721.720000", "120721.723000", "120721.727000", "120721.730000", "120721.733000", "120721.736000", "120721.740000", "120721.743000", "120721.746000", "120721.750000", "120721.753000", "120721.756000", "120721.760000", "120721.763000", "120721.766000", "120741.704000", "120741.708000", "120741.711000", "120741.715000", "120741.718000", "120741.721000", "120741.724000", "120741.728000", "120741.731000", "120741.735000", "120741.739000", "120741.742000", "120741.746000", "120741.749000", "120741.752000", "120741.756000", "120741.759000", "120741.762000", "120741.766000", "120741.776000", "120801.704000", "120801.708000", "120801.711000", "120801.715000", "120801.718000", "120801.722000", "120801.725000", "120801.729000", "120801.732000", "120801.735000", "120801.739000", "120801.742000", "120801.745000", "120801.749000", "120801.752000", "120801.755000", "120801.759000", "120801.762000", "120801.766000", "120801.769000", "120833.164000", "120833.178000", "120833.181000", "120833.185000", "120833.188000", "120833.191000", "120833.195000", "120833.198000", "120833.201000", "120833.205000", "120833.208000", "120833.212000", "120833.215000", "120833.218000", "120833.222000", "120833.225000", "120833.228000", "120833.232000", "120833.235000", "120833.238000", "120833.242000", "120833.253000", "120833.256000"],
      "InstanceCreationTime": ["120701.749000", "120701.753000", "120701.757000", "120701.760000", "120701.763000", "120701.767000", "120701.770000", "120701.773000", "120701.777000", "120701.780000", "120701.783000", "120701.787000", "120701.790000", "120701.794000", "120701.797000", "120701.800000", "120701.803000", "120701.807000", "120701.810000", "120701.813000", "120701.817000", "120701.820000", "120701.823000", "120701.827000", "120701.830000", "120701.833000", "120701.837000", "120701.840000", "120701.843000", "120721.703000", "120721.707000", "120721.710000", "120721.713000", "120721.717000", "120721.720000", "120721.723000", "120721.727000", "120721.730000", "120721.733000", "120721.736000", "120721.740000", "120721.743000", "120721.746000", "120721.750000", "120721.753000", "120721.756000", "120721.760000", "120721.763000", "120721.766000", "120741.704000", "120741.708000", "120741.711000", "120741.715000", "120741.718000", "120741.721000", "120741.724000", "120741.728000", "120741.731000", "120741.735000", "120741.739000", "120741.742000", "120741.746000", "120741.749000", "120741.752000", "120741.756000", "120741.759000", "120741.762000", "120741.766000", "120741.776000", "120801.704000", "120801.708000", "120801.711000", "120801.715000", "120801.718000", "120801.722000", "120801.725000", "120801.729000", "120801.732000", "120801.735000", "120801.739000", "120801.742000", "120801.745000", "120801.749000", "120801.752000", "120801.755000", "120801.759000", "120801.762000", "120801.766000", "120801.769000", "120833.164000", "120833.178000", "120833.181000", "120833.185000", "120833.188000", "120833.191000", "120833.195000", "120833.198000", "120833.201000", "120833.205000", "120833.208000", "120833.212000", "120833.215000", "120833.218000", "120833.222000", "120833.225000", "120833.228000", "120833.232000", "120833.235000", "120833.238000", "120833.242000", "120833.253000", "120833.256000"],
      "InstanceNumber": [1, 2, 3, 4, 5, 6, 7, 8, 9, 10, 11, 12, 13, 14, 15, 16, 17, 18, 19, 20, 21, 22, 23, 24, 25, 26, 27, 28, 29, 30, 31, 32, 33, 34, 35, 36, 37, 38, 39, 40, 41, 42, 43, 44, 45, 46, 47, 48, 49, 50, 51, 52, 53, 54, 55, 56, 57, 58, 59, 60, 61, 62, 63, 64, 65, 66, 67, 68, 69, 70, 71, 72, 73, 74, 75, 76, 77, 78, 79, 80, 81, 82, 83, 84, 85, 86, 87, 88, 89, 90, 91, 92, 93, 94, 95, 96, 97, 98, 99, 100, 101, 102, 103, 104, 105, 106, 107, 108, 109, 110, 111, 112],
      "LargestImagePixelValue": [44382, 44245, 43153, 41521, 42362, 39779, 40395, 39834, 40521, 40560, 40281, 39304, 39642, 40535, 41061, 40224, 40404, 40070, 40357, 40154, 40164, 40013, 40440, 39677, 39383, 39994, 40071, 40181, 39542, 39082, 39095, 39150, 38990, 40522, 39810, 39602, 39504, 39415, 40021, 39526, 40084, 40430, 39720, 41658, 41666, 40406, 40901, 41136, 39237, 38397, 38507, 38077, 38421, 39417, 38358, 38442, 39075, 38774, 38716, 38727, 38149, 40561, 39009, 39448, 39936, 39141, 39708, 38252, 38626, 38475, 38458, 38451, 38098, 38635, 39211, 38653, 38997, 38440, 38460, 38951, 38902, 40242, 39372, 40071, 39008, 40959, 39576, 38943, 39365, 38298, 38673, 38667, 40276, 40133, 41492, 39315, 39096, 40345, 38648, 39771, 39000, 40203, 39627, 39188, 39265, 39076, 39442, 39371, 38763, 39735, 38429, 39390],
      "WindowCenter": [10626.0, 10589.0, 10543.0, 10519.0, 10516.0, 10481.0, 10492.0, 10493.0, 10505.0, 10510.0, 10517.0, 10514.0, 10525.0, 10535.0, 10516.0, 10498.0, 10489.0, 10473.0, 10479.0, 10481.0, 10487.0, 10490.0, 10480.0, 10467.0, 10492.0, 10516.0, 10507.0, 10495.0, 10473.0, 10469.0, 10483.0, 10488.0, 10488.0, 10496.0, 10480.0, 10482.0, 10475.0, 10474.0, 10484.0, 10481.0, 10510.0, 10523.0, 10520.0, 10536.0, 10517.0, 10508.0, 10512.0, 10498.0, 10472.0, 10466.0, 10467.0, 10471.0, 10481.0, 10489.0, 10488.0, 10496.0, 10494.0, 10478.0, 10475.0, 10471.0, 10478.0, 10504.0, 10495.0, 10507.0, 10497.0, 10482.0, 10486.0, 10468.0, 10490.0, 10480.0, 10485.0, 10486.0, 10480.0, 10495.0, 10500.0, 10480.0, 10482.0, 10462.0, 10469.0, 10489.0, 10515.0, 10537.0, 10531.0, 10515.0, 10501.0, 10522.0, 10498.0, 10492.0, 10469.0, 10451.0, 10447.0, 10455.0, 10505.0, 10530.0, 10538.0, 10486.0, 10461.0, 10448.0, 10439.0, 10484.0, 10504.0, 10534.0, 10521.0, 10509.0, 10497.0, 10506.0, 10508.0, 10509.0, 10495.0, 10465.0, 10467.0, 10458.0],
      "WindowWidth": [22637.0, 22531.0, 22414.0, 22356.0, 22348.0, 22275.0, 22300.0, 22302.0, 22325.0, 22336.0, 22358.0, 22354.0, 22383.0, 22403.0, 22356.0, 22313.0, 22293.0, 22254.0, 22269.0, 22273.0, 22286.0, 22296.0, 22273.0, 22242.0, 22305.0, 22362.0, 22337.0, 22308.0, 22261.0, 22257.0, 22286.0, 22297.0, 22296.0, 22305.0, 22275.0, 22280.0, 22266.0, 22261.0, 22282.0, 22278.0, 22344.0, 22376.0, 22374.0, 22402.0, 22357.0, 22344.0, 22350.0, 22312.0, 22261.0, 22254.0, 22257.0, 22270.0, 22292.0, 22302.0, 22305.0, 22325.0, 22316.0, 22279.0, 22270.0, 22260.0, 22282.0, 22325.0, 22317.0, 22344.0, 22317.0, 22285.0, 22291.0, 22255.0, 22307.0, 22284.0, 22293.0, 22298.0, 22285.0, 22319.0, 22327.0, 22284.0, 22283.0, 22244.0, 22260.0, 22301.0, 22365.0, 22411.0, 22400.0, 22358.0, 22329.0, 22369.0, 22319.0, 22309.0, 22253.0, 22214.0, 22204.0, 22223.0, 22332.0, 22394.0, 22405.0, 22294.0, 22238.0, 22199.0, 22187.0, 22289.0, 22339.0, 22404.0, 22375.0, 22351.0, 22321.0, 22341.0, 22344.0, 22344.0, 22314.0, 22240.0, 22254.0, 22227.0]
    },
    "slices": {}
  }
}