{
  "AcquisitionMatrixPE": 104,
  "AcquisitionNumber": 1,
  "AcquisitionTime": "16:01:16.985000",
  "BandwidthPerPixelPhaseEncode": 17.17,
  "BaseResolution": 104,
  "BodyPartExamined": "BRAIN",
  "CoilCombinationMethod": "Sum of Squares",
  "ConsistencyInfo": "N4_VE11C_LATEST_20160120",
  "ConversionSoftware": "dcm2niix",
  "ConversionSoftwareVersion": "v1.0.20220505",
  "DerivedVendorReportedEchoSpacing": 0.000560011,
  "DeviceSerialNumber": "167006",
  "DwellTime": 2.1e-06,
  "EchoTime": 0.037,
  "EchoTrainLength": 104,
  "EffectiveEchoSpacing": 0.000560011,
  "FlipAngle": 52,
  "HeudiconvVersion": "0.5.3.post811+g6206e14",
  "ImageComments": "Unaliased MB4/PE3/LB",
  "ImageOrientationPatientDICOM": [0.998976, 0.00436785, 0.0450351, 0.018658, 0.866997, -0.497963],
  "ImageOrientationText": "Tra>Cor(-29.9)>Sag(2.4)",
  "ImageType": [
    "ORIGINAL",
    "PRIMARY",
    "M",
    "MB",
    "ND",
    "MOSAIC"
],
  "ImagingFrequency": 123.26,
  "InPlanePhaseEncodingDirectionDICOM": "COL",
  "InstitutionAddress": "Chemin Queen-Mary 4565,Montreal,District,CA,H3W 1W5",
  "InstitutionName": "IUGM",
  "InstitutionalDepartmentName": "Department",
  "MRAcquisitionType": "2D",
  "MagneticFieldStrength": 3,
  "Manufacturer": "Siemens",
  "ManufacturersModelName": "Prisma_fit",
  "MatrixCoilMode": "SENSE",
  "Modality": "MR",
  "MultibandAccelerationFactor": 4,
  "PartialFourier": 1,
  "PatientPosition": "HFS",
  "PercentPhaseFOV": 100,
  "PercentSampling": 100,
  "PhaseEncodingDirection": "j",
  "PhaseEncodingSteps": 104,
  "PhaseResolution": 1,
  "PixelBandwidth": 2290,
  "ProcedureStepDescription": "games^mario3",
  "ProtocolName": "func_task-mario3_run-03",
  "PulseSequenceDetails": "%CustomerSeq%\\cmrr_mbep2d_bold",
  "ReceiveCoilActiveElements": "HC1-7;NC1,2",
  "ReceiveCoilName": "HeadNeck_64",
  "ReconMatrixPE": 104,
  "RepetitionTime": 1.49,
  "SAR": 0.0476098,
  "ScanOptions": "FS",
  "ScanningSequence": "EP",
  "SequenceName": "epfid2d1_104",
  "SequenceVariant": "SK\\SS",
  "SeriesDescription": "func_task-mario3_run-03",
  "SeriesNumber": 16,
  "ShimSetting": [609, -7197, -8842, 267, 17, -136, -37, 47],
  "SliceThickness": 2,
  "SliceTiming": [0, 0.7825, 0.0975, 0.8825, 0.195, 0.98, 0.2925, 1.0775, 0.3925, 1.175, 0.49, 1.2725, 0.5875, 1.3725, 0.685, 0, 0.7825, 0.0975, 0.8825, 0.195, 0.98, 0.2925, 1.0775, 0.3925, 1.175, 0.49, 1.2725, 0.5875, 1.3725, 0.685, 0, 0.7825, 0.0975, 0.8825, 0.195, 0.98, 0.2925, 1.0775, 0.3925, 1.175, 0.49, 1.2725, 0.5875, 1.3725, 0.685, 0, 0.7825, 0.0975, 0.8825, 0.195, 0.98, 0.2925, 1.0775, 0.3925, 1.175, 0.49, 1.2725, 0.5875, 1.3725, 0.685],
  "SoftwareVersions": "syngo MR E11",
  "SpacingBetweenSlices": 2,
  "StationName": "MRC35049",
  "TaskName": "mario3",
  "TotalReadoutTime": 0.0576811,
  "TxRefAmp": 255.929,
  "WipMemBlock": "9660d98f-3571-40a3-bc33-db014eba0886||Sequence: R017 ve11c/master r/75a17815+; Jun 28 2022 16:32:11 by eja",
  "dcmmeta_affine": [
    [-1.9979517459869385, 0.03731606900691986, 0.08244072645902634, 103.4779052734375],
    [-0.008735701441764832, 1.7339946031570435, -0.9965872764587402, -51.00688171386719],
    [0.09007024765014648, 0.9959267377853394, 1.7320557832717896, -81.2717514038086],
    [0.0, 0.0, 0.0, 1.0]
],
  "dcmmeta_reorient_transform": [
    [0.0, -1.0, 0.0, 103.0],
    [1.0, 0.0, 0.0, 0.0],
    [0.0, 0.0, 1.0, 0.0],
    [0.0, 0.0, 0.0, 1.0]
],
  "dcmmeta_shape": [104, 104, 60, 298],
  "dcmmeta_slice_dim": 2,
  "dcmmeta_version": 0.6,
  "global": {
    "const": {
      "AcquisitionMatrix": [104, 0, 0, 104],
      "AngioFlag": "N",
      "BitsAllocated": 16,
      "BitsStored": 16,
      "BodyPartExamined": "BRAIN",
      "Columns": 832,
      "EchoNumbers": 1,
      "EchoTime": 37.0,
      "EchoTrainLength": 104,
      "FlipAngle": 52.0,
      "HighBit": 15,
      "ImageOrientationPatient": [0.99897585531251, 0.00436785049315, 0.04503512390017, 0.01865803532478, 0.86699733101836, -0.4979633578135],
      "ImagePositionPatient": [-848.15893522872, -761.94842241773, 351.04045321352],
      "ImageType": [
        "ORIGINAL",
        "PRIMARY",
        "M",
        "MB",
        "ND",
        "MOSAIC"
],
      "ImagedNucleus": "1H",
      "ImagingFrequency": 123.260199,
      "InPlanePhaseEncodingDirection": "COL",
      "MRAcquisitionType": "2D",
      "MagneticFieldStrength": 3.0,
      "Manufacturer": "SIEMENS",
      "ManufacturerModelName": "Prisma_fit",
      "Modality": "MR",
      "NumberOfAverages": 1.0,
      "NumberOfPhaseEncodingSteps": 104,
      "PercentPhaseFieldOfView": 100.0,
      "PercentSampling": 100.0,
      "PerformedProcedureStepStartTime": "151911.717000",
      "PhotometricInterpretation": "MONOCHROME2",
      "PixelBandwidth": 2290.0,
      "PixelRepresentation": 0,
      "PixelSpacing": [2.0, 2.0],
      "ProtocolName": "func_task-mario3_run-03",
      "RepetitionTime": 1490.0,
      "Rows": 832,
      "SAR": 0.04760983928548,
      "SamplesPerPixel": 1,
      "ScanOptions": "FS",
      "ScanningSequence": "EP",
      "SequenceName": "epfid2d1_104",
      "SequenceVariant": [
        "SK",
        "SS"
],
      "SeriesDescription": "func_task-mario3_run-03",
      "SeriesNumber": 16,
      "SeriesTime": "160230.728000",
      "SliceLocation": -40.701805237793,
      "SliceThickness": 2.0,
      "SmallestImagePixelValue": 0,
      "SoftwareVersions": "syngo MR E11",
      "SpacingBetweenSlices": 1.9999999971411,
      "SpecificCharacterSet": "ISO_IR 100",
      "StudyID": "1",
      "StudyTime": "151911.639000",
      "TransmitCoilName": "Body",
      "VariableFlipAngleFlag": "N",
      "WindowCenterWidthExplanation": "Algo1",
      "dBdt": 0.0},
    "slices": {}
  },
  "time": {
    "samples": {
      "AcquisitionNumber": [1, 2, 3, 4, 5, 6, 7, 8, 9, 10, 11, 12, 13, 14, 15, 16, 17, 18, 19, 20, 21, 22, 23, 24, 25, 26, 27, 28, 29, 30, 31, 32, 33, 34, 35, 36, 37, 38, 39, 40, 41, 42, 43, 44, 45, 46, 47, 48, 49, 50, 51, 52, 53, 54, 55, 56, 57, 58, 59, 60, 61, 62, 63, 64, 65, 66, 67, 68, 69, 70, 71, 72, 73, 74, 75, 76, 77, 78, 79, 80, 81, 82, 83, 84, 85, 86, 87, 88, 89, 90, 91, 92, 93, 94, 95, 96, 97, 98, 99, 100, 101, 102, 103, 104, 105, 106, 107, 108, 109, 110, 111, 112, 113, 114, 115, 116, 117, 118, 119, 120, 121, 122, 123, 124, 125, 126, 127, 128, 129, 130, 131, 132, 133, 134, 135, 136, 137, 138, 139, 140, 141, 142, 143, 144, 145, 146, 147, 148, 149, 150, 151, 152, 153, 154, 155, 156, 157, 158, 159, 160, 161, 162, 163, 164, 165, 166, 167, 168, 169, 170, 171, 172, 173, 174, 175, 176, 177, 178, 179, 180, 181, 182, 183, 184, 185, 186, 187, 188, 189, 190, 191, 192, 193, 194, 195, 196, 197, 198, 199, 200, 201, 202, 203, 204, 205, 206, 207, 208, 209, 210, 211, 212, 213, 214, 215, 216, 217, 218, 219, 220, 221, 222, 223, 224, 225, 226, 227, 228, 229, 230, 231, 232, 233, 234, 235, 236, 237, 238, 239, 240, 241, 242, 243, 244, 245, 246, 247, 248, 249, 250, 251, 252, 253, 254, 255, 256, 257, 258, 259, 260, 261, 262, 263, 264, 265, 266, 267, 268, 269, 270, 271, 272, 273, 274, 275, 276, 277, 278, 279, 280, 281, 282, 283, 284, 285, 286, 287, 288, 289, 290, 291, 292, 293, 294, 295, 296, 297, 298],
      "AcquisitionTime": ["160116.985000", "160118.475000", "160119.965000", "160121.455000", "160122.945000", "160124.435000", "160125.925000", "160127.415000", "160128.905000", "160130.395000", "160131.885000", "160133.375000", "160134.865000", "160136.355000", "160137.845000", "160139.335000", "160140.825000", "160142.315000", "160143.805000", "160145.295000", "160146.785000", "160148.275000", "160149.765000", "160151.255000", "160152.745000", "160154.235000", "160155.725000", "160157.215000", "160158.705000", "160200.195000", "160201.685000", "160203.175000", "160204.665000", "160206.155000", "160207.645000", "160209.135000", "160210.625000", "160212.115000", "160213.605000", "160215.095000", "160216.585000", "160218.075000", "160219.565000", "160221.055000", "160222.545000", "160224.035000", "160225.525000", "160227.015000", "160228.505000", "160229.995000", "160231.485000", "160232.975000", "160234.465000", "160235.955000", "160237.445000", "160238.935000", "160240.425000", "160241.915000", "160243.405000", "160244.895000", "160246.385000", "160247.875000", "160249.365000", "160250.855000", "160252.345000", "160253.835000", "160255.325000", "160256.815000", "160258.305000", "160259.795000", "160301.285000", "160302.775000", "160304.265000", "160305.755000", "160307.245000", "160308.735000", "160310.225000", "160311.715000", "160313.205000", "160314.695000", "160316.185000", "160317.675000", "160319.165000", "160320.655000", "160322.145000", "160323.635000", "160325.125000", "160326.615000", "160328.105000", "160329.595000", "160331.085000", "160332.575000", "160334.065000", "160335.555000", "160337.045000", "160338.535000", "160340.025000", "160341.515000", "160343.005000", "160344.495000", "160345.985000", "160347.475000", "160348.965000", "160350.455000", "160351.945000", "160353.435000", "160354.925000", "160356.415000", "160357.905000", "160359.395000", "160400.885000", "160402.375000", "160403.865000", "160405.355000", "160406.845000", "160408.335000", "160409.825000", "160411.315000", "160412.805000", "160414.295000", "160415.785000", "160417.275000", "160418.765000", "160420.255000", "160421.745000", "160423.235000", "160424.725000", "160426.215000", "160427.705000", "160429.195000", "160430.685000", "160432.175000", "160433.665000", "160435.155000", "160436.645000", "160438.135000", "160439.625000", "160441.115000", "160442.605000", "160444.095000", "160445.585000", "160447.075000", "160448.565000", "160450.055000", "160451.545000", "160453.035000", "160454.525000", "160456.015000", "160457.505000", "160458.995000", "160500.485000", "160501.975000", "160503.465000", "160504.955000", "160506.445000", "160507.935000", "160509.425000", "160510.915000", "160512.405000", "160513.895000", "160515.385000", "160516.875000", "160518.365000", "160519.855000", "160521.345000", "160522.835000", "160524.325000", "160525.815000", "160527.305000", "160528.795000", "160530.285000", "160531.775000", "160533.265000", "160534.755000", "160536.245000", "160537.735000", "160539.225000", "160540.715000", "160542.205000", "160543.695000", "160545.185000", "160546.675000", "160548.165000", "160549.655000", "160551.145000", "160552.635000", "160554.125000", "160555.615000", "160557.105000", "160558.595000", "160600.085000", "160601.575000", "160603.065000", "160604.555000", "160606.045000", "160607.535000", "160609.025000", "160610.515000", "160612.005000", "160613.495000", "160614.985000", "160616.475000", "160617.965000", "160619.455000", "160620.945000", "160622.435000", "160623.925000", "160625.415000", "160626.905000", "160628.395000", "160629.885000", "160631.375000", "160632.865000", "160634.355000", "160635.845000", "160637.335000", "160638.825000", "160640.315000", "160641.805000", "160643.295000", "160644.785000", "160646.275000", "160647.765000", "160649.255000", "160650.745000", "160652.235000", "160653.725000", "160655.215000", "160656.705000", "160658.195000", "160659.685000", "160701.175000", "160702.665000", "160704.155000", "160705.645000", "160707.135000", "160708.625000", "160710.115000", "160711.605000", "160713.095000", "160714.585000", "160716.075000", "160717.565000", "160719.055000", "160720.545000", "160722.035000", "160723.525000", "160725.015000", "160726.505000", "160727.995000", "160729.485000", "160730.975000", "160732.465000", "160733.955000", "160735.445000", "160736.935000", "160738.425000", "160739.915000", "160741.405000", "160742.895000", "160744.385000", "160745.875000", "160747.365000", "160748.855000", "160750.345000", "160751.835000", "160753.325000", "160754.815000", "160756.305000", "160757.795000", "160759.285000", "160800.775000", "160802.265000", "160803.755000", "160805.245000", "160806.735000", "160808.225000", "160809.715000", "160811.205000", "160812.695000", "160814.185000", "160815.675000", "160817.165000", "160818.655000", "160820.145000", "160821.635000", "160823.125000", "160824.615000", "160826.105000", "160827.595000", "160829.085000", "160830.575000", "160832.065000", "160833.555000", "160835.045000", "160836.535000", "160838.025000", "160839.515000"],
      "ContentTime": ["160230.732000", "160230.735000", "160230.746000", "160230.749000", "160230.752000", "160230.756000", "160230.759000", "160230.762000", "160230.765000", "160230.769000", "160230.772000", "160230.775000", "160230.779000", "160230.789000", "160230.792000", "160230.796000", "160230.799000", "160230.802000", "160230.806000", "160230.809000", "160230.812000", "160230.816000", "160230.819000", "160250.702000", "160250.706000", "160250.709000", "160250.712000", "160250.716000", "160250.719000", "160250.722000", "160250.726000", "160250.729000", "160250.732000", "160250.736000", "160250.739000", "160250.742000", "160250.745000", "160250.749000", "160250.752000", "160250.755000", "160250.759000", "160250.762000", "160250.765000", "160310.702000", "160310.706000", "160310.709000", "160310.713000", "160310.716000", "160310.719000", "160310.723000", "160310.726000", "160310.729000", "160310.733000", "160310.736000", "160310.739000", "160310.742000", "160310.746000", "160310.749000", "160310.752000", "160310.756000", "160310.759000", "160310.762000", "160310.766000", "160330.701000", "160330.705000", "160330.708000", "160330.712000", "160330.715000", "160330.718000", "160330.721000", "160330.725000", "160330.728000", "160330.732000", "160330.735000", "160330.738000", "160330.741000", "160330.745000", "160330.748000", "160330.752000", "160330.755000", "160330.758000", "160330.761000", "160330.765000", "160410.701000", "160410.705000", "160410.708000", "160410.712000", "160410.715000", "160410.718000", "160410.739000", "160410.742000", "160410.746000", "160410.764000", "160410.768000", "160410.771000", "160410.774000", "160410.778000", "160410.781000", "160410.784000", "160410.788000", "160410.791000", "160410.794000", "160410.798000", "160410.801000", "160410.804000", "160410.808000", "160410.811000", "160410.814000", "160410.818000", "160410.821000", "160410.824000", "160410.828000", "160410.831000", "160410.835000", "160410.838000", "160410.841000", "160450.702000", "160450.706000", "160450.709000", "160450.713000", "160450.716000", "160450.719000", "160450.723000", "160450.726000", "160450.730000", "160450.733000", "160450.736000", "160450.740000", "160450.743000", "160450.746000", "160450.750000", "160450.753000", "160450.756000", "160450.760000", "160450.763000", "160450.767000", "160450.770000", "160450.773000", "160450.777000", "160450.780000", "160450.783000", "160450.787000", "160450.790000", "160530.702000", "160530.706000", "160530.709000", "160530.713000", "160530.716000", "160530.719000", "160530.723000", "160530.726000", "160530.729000", "160530.733000", "160530.736000", "160530.739000", "160530.743000", "160530.746000", "160530.750000", "160530.753000", "160530.756000", "160530.760000", "160530.763000", "160530.766000", "160530.770000", "160530.786000", "160530.789000", "160530.793000", "160530.796000", "160530.799000", "160530.803000", "160610.701000", "160610.705000", "160610.708000", "160610.712000", "160610.715000", "160610.718000", "160610.722000", "160610.725000", "160610.730000", "160610.733000", "160610.736000", "160610.740000", "160610.743000", "160610.747000", "160610.750000", "160610.753000", "160610.757000", "160610.760000", "160610.763000", "160610.767000", "160610.770000", "160610.773000", "160610.777000", "160610.780000", "160610.784000", "160610.787000", "160650.702000", "160650.706000", "160650.709000", "160650.713000", "160650.716000", "160650.719000", "160650.723000", "160650.726000", "160650.729000", "160650.733000", "160650.736000", "160650.739000", "160650.743000", "160650.746000", "160650.750000", "160650.753000", "160650.756000", "160650.760000", "160650.763000", "160650.766000", "160650.770000", "160650.773000", "160650.776000", "160650.780000", "160650.783000", "160650.786000", "160650.790000", "160730.702000", "160730.706000", "160730.709000", "160730.713000", "160730.716000", "160730.720000", "160730.723000", "160730.726000", "160730.730000", "160730.733000", "160730.736000", "160730.740000", "160730.743000", "160730.746000", "160730.750000", "160730.754000", "160730.757000", "160730.760000", "160730.764000", "160730.767000", "160730.771000", "160730.774000", "160730.778000", "160730.781000", "160730.784000", "160730.788000", "160730.791000", "160810.701000", "160810.705000", "160810.708000", "160810.725000", "160810.728000", "160810.732000", "160810.735000", "160810.738000", "160810.742000", "160810.745000", "160810.749000", "160810.752000", "160810.755000", "160810.759000", "160810.762000", "160810.765000", "160810.769000", "160810.772000", "160810.775000", "160810.779000", "160810.782000", "160810.786000", "160810.789000", "160810.792000", "160810.796000", "160810.799000", "160810.802000", "160842.752000", "160842.756000", "160842.760000", "160842.763000", "160842.767000", "160842.771000", "160842.775000", "160842.778000", "160842.781000", "160842.785000", "160842.788000", "160842.792000", "160842.795000", "160842.798000", "160842.802000", "160842.805000", "160842.808000", "160842.812000", "160842.815000", "160842.819000", "160842.822000"],
      "InstanceCreationTime": ["160230.732000", "160230.735000", "160230.746000", "160230.749000", "160230.752000", "160230.756000", "160230.759000", "160230.762000", "160230.765000", "160230.769000", "160230.772000", "160230.775000", "160230.779000", "160230.789000", "160230.792000", "160230.796000", "160230.799000", "160230.802000", "160230.806000", "160230.809000", "160230.812000", "160230.816000", "160230.819000", "160250.702000", "160250.706000", "160250.709000", "160250.712000", "160250.716000", "160250.719000", "160250.722000", "160250.726000", "160250.729000", "160250.732000", "160250.736000", "160250.739000", "160250.742000", "160250.745000", "160250.749000", "160250.752000", "160250.755000", "160250.759000", "160250.762000", "160250.765000", "160310.702000", "160310.706000", "160310.709000", "160310.713000", "160310.716000", "160310.719000", "160310.723000", "160310.726000", "160310.729000", "160310.733000", "160310.736000", "160310.739000", "160310.742000", "160310.746000", "160310.749000", "160310.752000", "160310.756000", "160310.759000", "160310.762000", "160310.766000", "160330.701000", "160330.705000", "160330.708000", "160330.712000", "160330.715000", "160330.718000", "160330.721000", "160330.725000", "160330.728000", "160330.732000", "160330.735000", "160330.738000", "160330.741000", "160330.745000", "160330.748000", "160330.752000", "160330.755000", "160330.758000", "160330.761000", "160330.765000", "160410.701000", "160410.705000", "160410.708000", "160410.712000", "160410.715000", "160410.718000", "160410.739000", "160410.742000", "160410.746000", "160410.764000", "160410.768000", "160410.771000", "160410.774000", "160410.778000", "160410.781000", "160410.784000", "160410.788000", "160410.791000", "160410.794000", "160410.798000", "160410.801000", "160410.804000", "160410.808000", "160410.811000", "160410.814000", "160410.818000", "160410.821000", "160410.824000", "160410.828000", "160410.831000", "160410.835000", "160410.838000", "160410.841000", "160450.702000", "160450.706000", "160450.709000", "160450.713000", "160450.716000", "160450.719000", "160450.723000", "160450.726000", "160450.730000", "160450.733000", "160450.736000", "160450.740000", "160450.743000", "160450.746000", "160450.750000", "160450.753000", "160450.756000", "160450.760000", "160450.763000", "160450.767000", "160450.770000", "160450.773000", "160450.777000", "160450.780000", "160450.783000", "160450.787000", "160450.790000", "160530.702000", "160530.706000", "160530.709000", "160530.713000", "160530.716000", "160530.719000", "160530.723000", "160530.726000", "160530.729000", "160530.733000", "160530.736000", "160530.739000", "160530.743000", "160530.746000", "160530.750000", "160530.753000", "160530.756000", "160530.760000", "160530.763000", "160530.766000", "160530.770000", "160530.786000", "160530.789000", "160530.793000", "160530.796000", "160530.799000", "160530.803000", "160610.701000", "160610.705000", "160610.708000", "160610.712000", "160610.715000", "160610.718000", "160610.722000", "160610.725000", "160610.730000", "160610.733000", "160610.736000", "160610.740000", "160610.743000", "160610.747000", "160610.750000", "160610.753000", "160610.757000", "160610.760000", "160610.763000", "160610.767000", "160610.770000", "160610.773000", "160610.777000", "160610.780000", "160610.784000", "160610.787000", "160650.702000", "160650.706000", "160650.709000", "160650.713000", "160650.716000", "160650.719000", "160650.723000", "160650.726000", "160650.729000", "160650.733000", "160650.736000", "160650.739000", "160650.743000", "160650.746000", "160650.750000", "160650.753000", "160650.756000", "160650.760000", "160650.763000", "160650.766000", "160650.770000", "160650.773000", "160650.776000", "160650.780000", "160650.783000", "160650.786000", "160650.790000", "160730.702000", "160730.706000", "160730.709000", "160730.713000", "160730.716000", "160730.720000", "160730.723000", "160730.726000", "160730.730000", "160730.733000", "160730.736000", "160730.740000", "160730.743000", "160730.746000", "160730.750000", "160730.754000", "160730.757000", "160730.760000", "160730.764000", "160730.767000", "160730.771000", "160730.774000", "160730.778000", "160730.781000", "160730.784000", "160730.788000", "160730.791000", "160810.701000", "160810.705000", "160810.708000", "160810.725000", "160810.728000", "160810.732000", "160810.735000", "160810.738000", "160810.742000", "160810.745000", "160810.749000", "160810.752000", "160810.755000", "160810.759000", "160810.762000", "160810.765000", "160810.769000", "160810.772000", "160810.775000", "160810.779000", "160810.782000", "160810.786000", "160810.789000", "160810.792000", "160810.796000", "160810.799000", "160810.802000", "160842.752000", "160842.756000", "160842.760000", "160842.763000", "160842.767000", "160842.771000", "160842.775000", "160842.778000", "160842.781000", "160842.785000", "160842.788000", "160842.792000", "160842.795000", "160842.798000", "160842.802000", "160842.805000", "160842.808000", "160842.812000", "160842.815000", "160842.819000", "160842.822000"],
      "InstanceNumber": [1, 2, 3, 4, 5, 6, 7, 8, 9, 10, 11, 12, 13, 14, 15, 16, 17, 18, 19, 20, 21, 22, 23, 24, 25, 26, 27, 28, 29, 30, 31, 32, 33, 34, 35, 36, 37, 38, 39, 40, 41, 42, 43, 44, 45, 46, 47, 48, 49, 50, 51, 52, 53, 54, 55, 56, 57, 58, 59, 60, 61, 62, 63, 64, 65, 66, 67, 68, 69, 70, 71, 72, 73, 74, 75, 76, 77, 78, 79, 80, 81, 82, 83, 84, 85, 86, 87, 88, 89, 90, 91, 92, 93, 94, 95, 96, 97, 98, 99, 100, 101, 102, 103, 104, 105, 106, 107, 108, 109, 110, 111, 112, 113, 114, 115, 116, 117, 118, 119, 120, 121, 122, 123, 124, 125, 126, 127, 128, 129, 130, 131, 132, 133, 134, 135, 136, 137, 138, 139, 140, 141, 142, 143, 144, 145, 146, 147, 148, 149, 150, 151, 152, 153, 154, 155, 156, 157, 158, 159, 160, 161, 162, 163, 164, 165, 166, 167, 168, 169, 170, 171, 172, 173, 174, 175, 176, 177, 178, 179, 180, 181, 182, 183, 184, 185, 186, 187, 188, 189, 190, 191, 192, 193, 194, 195, 196, 197, 198, 199, 200, 201, 202, 203, 204, 205, 206, 207, 208, 209, 210, 211, 212, 213, 214, 215, 216, 217, 218, 219, 220, 221, 222, 223, 224, 225, 226, 227, 228, 229, 230, 231, 232, 233, 234, 235, 236, 237, 238, 239, 240, 241, 242, 243, 244, 245, 246, 247, 248, 249, 250, 251, 252, 253, 254, 255, 256, 257, 258, 259, 260, 261, 262, 263, 264, 265, 266, 267, 268, 269, 270, 271, 272, 273, 274, 275, 276, 277, 278, 279, 280, 281, 282, 283, 284, 285, 286, 287, 288, 289, 290, 291, 292, 293, 294, 295, 296, 297, 298],
      "LargestImagePixelValue": [45170, 44852, 42997, 45813, 45342, 43968, 45048, 43178, 43129, 42070, 44589, 43728, 41712, 43718, 44801, 42028, 42675, 45062, 44623, 45727, 45670, 45563, 43914, 44310, 44737, 43680, 44542, 43047, 44267, 43212, 43405, 42453, 44419, 42444, 44721, 42286, 43530, 44696, 42826, 44073, 43549, 46232, 45289, 44380, 44125, 45099, 46023, 45568, 46856, 46508, 47034, 47228, 44655, 47234, 46712, 45808, 46481, 43732, 43355, 46684, 41695, 42339, 43098, 46237, 47051, 46105, 45480, 42967, 42578, 43760, 45528, 44249, 43585, 41207, 41179, 43210, 45388, 46488, 44779, 44449, 44054, 42316, 42398, 40869, 40984, 43300, 41554, 41292, 41575, 40867, 41545, 43350, 44516, 42755, 41765, 41403, 41564, 42349, 41622, 42980, 42131, 44331, 42556, 43126, 42959, 41835, 42788, 41773, 44930, 41504, 42616, 42002, 42288, 45102, 44817, 44320, 43572, 44255, 46045, 42542, 41883, 42768, 41853, 42113, 42885, 45240, 42533, 43625, 42310, 42075, 42539, 42059, 42501, 42790, 41961, 43883, 41896, 42632, 42301, 42370, 42486, 41844, 42153, 42290, 42610, 42289, 42428, 41762, 42007, 43050, 41524, 41575, 41513, 41511, 42186, 42017, 41693, 42167, 41494, 42828, 41763, 41968, 41723, 41543, 43975, 42757, 44265, 42864, 44509, 43510, 41647, 41361, 44631, 40922, 41468, 41482, 41760, 41999, 41942, 42151, 41889, 41613, 41272, 41239, 41220, 41773, 43111, 45851, 44538, 41971, 43274, 41410, 41753, 41367, 42387, 41754, 41701, 43582, 45320, 43069, 41076, 41379, 41988, 41852, 42174, 43512, 43694, 42736, 43109, 43215, 44636, 44968, 45744, 45586, 44562, 46034, 45279, 41936, 43586, 44316, 44546, 44494, 44166, 44386, 44827, 45947, 45781, 43996, 43176, 43304, 43340, 44014, 43418, 43405, 46104, 45338, 44948, 43656, 42711, 43020, 42563, 41869, 41555, 42096, 42016, 42302, 45052, 45340, 43423, 44126, 43885, 43858, 42977, 44700, 44095, 44290, 45065, 42823, 43990, 43891, 45476, 44401, 44448, 44396, 43252, 44498, 44879, 44340, 44304, 44305, 43781, 43095, 42697, 41278, 42600, 41287, 42016, 41322, 42690, 42803, 42337, 41943, 41872, 42453, 42089, 41899, 41674, 42002, 41784, 41547, 42515, 41534, 41633, 42077, 41824, 42795, 42138, 42479],
      "WindowCenter": [10998.0, 10956.0, 10920.0, 10934.0, 10925.0, 10920.0, 10921.0, 10916.0, 10954.0, 10950.0, 10948.0, 11001.0, 10943.0, 10937.0, 10925.0, 10844.0, 10842.0, 10944.0, 10922.0, 10933.0, 10939.0, 10954.0, 10943.0, 10945.0, 10925.0, 10904.0, 10893.0, 10880.0, 10906.0, 10927.0, 10959.0, 10959.0, 10981.0, 10944.0, 10939.0, 10921.0, 10921.0, 10953.0, 10951.0, 10959.0, 10931.0, 10944.0, 10895.0, 10921.0, 10901.0, 10865.0, 10874.0, 10854.0, 10888.0, 10879.0, 10889.0, 10927.0, 10922.0, 11001.0, 11022.0, 10978.0, 11016.0, 10887.0, 10831.0, 10965.0, 10938.0, 10934.0, 10938.0, 10975.0, 11018.0, 11013.0, 10991.0, 10950.0, 10881.0, 10852.0, 10915.0, 10912.0, 10971.0, 10924.0, 10887.0, 10875.0, 10908.0, 10918.0, 10930.0, 10922.0, 10901.0, 10861.0, 10864.0, 10853.0, 10877.0, 10912.0, 10917.0, 10941.0, 10911.0, 10888.0, 10889.0, 10931.0, 10925.0, 10946.0, 10933.0, 10892.0, 10873.0, 10892.0, 10883.0, 10894.0, 10853.0, 10879.0, 10861.0, 10873.0, 10896.0, 10917.0, 10934.0, 10915.0, 10896.0, 10870.0, 10955.0, 10950.0, 10926.0, 10960.0, 10949.0, 10934.0, 10903.0, 10898.0, 10861.0, 10872.0, 10867.0, 10882.0, 10893.0, 10918.0, 10925.0, 10932.0, 10920.0, 10924.0, 10887.0, 10854.0, 10871.0, 10849.0, 10899.0, 10958.0, 10947.0, 10949.0, 10919.0, 10909.0, 10876.0, 10871.0, 10885.0, 10890.0, 10896.0, 10879.0, 10882.0, 10879.0, 10892.0, 10901.0, 10906.0, 10951.0, 10970.0, 10980.0, 10955.0, 10954.0, 10958.0, 10959.0, 10965.0, 10967.0, 10957.0, 10962.0, 10946.0, 10935.0, 10909.0, 10891.0, 10905.0, 10893.0, 10917.0, 10895.0, 10926.0, 10930.0, 10889.0, 10858.0, 10879.0, 10890.0, 10969.0, 10988.0, 10981.0, 10956.0, 10901.0, 10865.0, 10863.0, 10881.0, 10898.0, 10907.0, 10908.0, 10912.0, 10927.0, 10920.0, 10909.0, 10840.0, 10833.0, 10851.0, 10885.0, 10907.0, 10936.0, 10919.0, 10897.0, 10886.0, 10862.0, 10894.0, 10901.0, 10901.0, 10898.0, 10907.0, 10901.0, 10904.0, 10844.0, 10886.0, 10867.0, 10869.0, 10907.0, 10904.0, 10911.0, 10919.0, 10944.0, 10958.0, 10992.0, 11003.0, 11020.0, 11000.0, 11013.0, 11030.0, 10968.0, 10930.0, 10902.0, 10909.0, 10890.0, 10875.0, 10901.0, 10874.0, 10854.0, 10866.0, 10852.0, 10870.0, 10920.0, 10939.0, 10926.0, 10958.0, 10989.0, 10978.0, 10966.0, 10943.0, 10914.0, 10939.0, 10945.0, 10967.0, 11017.0, 10987.0, 10960.0, 10943.0, 10930.0, 10938.0, 10929.0, 10912.0, 10878.0, 10876.0, 10899.0, 10880.0, 10898.0, 10898.0, 10910.0, 10910.0, 10932.0, 10938.0, 10923.0, 10928.0, 10912.0, 10897.0, 10854.0, 10841.0, 10879.0, 10912.0, 10926.0, 10949.0, 10947.0, 10919.0, 10915.0, 10900.0, 10884.0, 10904.0, 10899.0, 10883.0, 10871.0, 10886.0, 10898.0, 10882.0, 10872.0, 10864.0, 10881.0, 10919.0, 10914.0, 10909.0, 10897.0, 10891.0, 10875.0, 10884.0, 10869.0, 10874.0],
