{
  "AcquisitionMatrixPE": 104,
  "AcquisitionNumber": 1,
  "AcquisitionTime": "16:30:29.805000",
  "BandwidthPerPixelPhaseEncode": 17.17,
  "BaseResolution": 104,
  "BodyPartExamined": "BRAIN",
  "CoilCombinationMethod": "Sum of Squares",
  "ConsistencyInfo": "N4_VE11C_LATEST_20160120",
  "ConversionSoftware": "dcm2niix",
  "ConversionSoftwareVersion": "v1.0.20220505",
  "DerivedVendorReportedEchoSpacing": 0.000560011,
  "DeviceSerialNumber": "167006",
  "DwellTime": 2.1e-06,
  "EchoTime": 0.037,
  "EchoTime1": 0.037,
  "EchoTime2": 0.001,
  "EchoTrainLength": 104,
  "EffectiveEchoSpacing": 0.000560011,
  "FlipAngle": 52,
  "HeudiconvVersion": "0.5.3.post811+g6206e14",
  "ImageComments": "Unaliased MB4/PE3/LB",
  "ImageOrientationPatientDICOM": [0.998976, 0.00436785, 0.0450351, 0.018658, 0.866997, -0.497963],
  "ImageOrientationText": "Tra>Cor(-29.9)>Sag(2.4)",
  "ImageType": [
    "ORIGINAL",
    "PRIMARY",
    "P",
    "MB",
    "ND",
    "MOSAIC",
    "PHASE"
],
  "ImagingFrequency": 123.26,
  "InPlanePhaseEncodingDirectionDICOM": "COL",
  "InstitutionAddress": "Chemin Queen-Mary 4565,Montreal,District,CA,H3W 1W5",
  "InstitutionName": "IUGM",
  "InstitutionalDepartmentName": "Department",
  "MRAcquisitionType": "2D",
  "MagneticFieldStrength": 3,
  "Manufacturer": "Siemens",
  "ManufacturersModelName": "Prisma_fit",
  "MatrixCoilMode": "SENSE",
  "Modality": "MR",
  "MultibandAccelerationFactor": 4,
  "PartialFourier": 1,
  "PatientPosition": "HFS",
  "PercentPhaseFOV": 100,
  "PercentSampling": 100,
  "PhaseEncodingDirection": "j",
  "PhaseEncodingSteps": 104,
  "PhaseResolution": 1,
  "PixelBandwidth": 2290,
  "ProcedureStepDescription": "games^mario3",
  "ProtocolName": "func_task-mario3_run-06",
  "PulseSequenceDetails": "%CustomerSeq%\\cmrr_mbep2d_bold",
  "ReceiveCoilActiveElements": "HC1-7;NC1,2",
  "ReceiveCoilName": "HeadNeck_64",
  "ReconMatrixPE": 104,
  "RepetitionTime": 1.49,
  "SAR": 0.0476098,
  "ScanOptions": "FS",
  "ScanningSequence": "EP",
  "SequenceName": "epfid2d1_104",
  "SequenceVariant": "SK\\SS",
  "SeriesDescription": "func_task-mario3_run-06",
  "SeriesNumber": 26,
  "ShimSetting": [609, -7197, -8842, 267, 17, -136, -37, 47],
  "SliceThickness": 2,
  "SliceTiming": [0, 0.785, 0.0975, 0.8825, 0.1975, 0.98, 0.295, 1.0775, 0.3925, 1.1775, 0.49, 1.275, 0.5875, 1.3725, 0.6875, 0, 0.785, 0.0975, 0.8825, 0.1975, 0.98, 0.295, 1.0775, 0.3925, 1.1775, 0.49, 1.275, 0.5875, 1.3725, 0.6875, 0, 0.785, 0.0975, 0.8825, 0.1975, 0.98, 0.295, 1.0775, 0.3925, 1.1775, 0.49, 1.275, 0.5875, 1.3725, 0.6875, 0, 0.785, 0.0975, 0.8825, 0.1975, 0.98, 0.295, 1.0775, 0.3925, 1.1775, 0.49, 1.275, 0.5875, 1.3725, 0.6875],
  "SoftwareVersions": "syngo MR E11",
  "SpacingBetweenSlices": 2,
  "StationName": "MRC35049",
  "TaskName": "mario3",
  "TotalReadoutTime": 0.0576811,
  "TxRefAmp": 255.929,
  "WipMemBlock": "47ffd644-189e-4b69-973b-f962c9018d72||Sequence: R017 ve11c/master r/75a17815+; Jun 28 2022 16:32:11 by eja",
  "dcmmeta_affine": [
    [-1.9979517459869385, 0.03731606900691986, 0.08244072645902634, 103.4779052734375],
    [-0.008735701441764832, 1.7339946031570435, -0.9965872764587402, -51.00688171386719],
    [0.09007024765014648, 0.9959267377853394, 1.7320557832717896, -81.2717514038086],
    [0.0, 0.0, 0.0, 1.0]
],
  "dcmmeta_reorient_transform": [
    [0.0, -1.0, 0.0, 103.0],
    [1.0, 0.0, 0.0, 0.0],
    [0.0, 0.0, 1.0, 0.0],
    [0.0, 0.0, 0.0, 1.0]
],
  "dcmmeta_shape": [104, 104, 60, 356],
  "dcmmeta_slice_dim": 2,
  "dcmmeta_version": 0.6,
  "global": {
    "const": {
      "AcquisitionMatrix": [104, 0, 0, 104],
      "AngioFlag": "N",
      "BitsAllocated": 16,
      "BitsStored": 16,
      "BodyPartExamined": "BRAIN",
      "Columns": 832,
      "EchoNumbers": 1,
      "EchoTime": 37.0,
      "EchoTrainLength": 104,
      "FlipAngle": 52.0,
      "HighBit": 15,
      "ImageOrientationPatient": [0.99897585531251, 0.00436785049315, 0.04503512390017, 0.01865803532478, 0.86699733101836, -0.4979633578135],
      "ImagePositionPatient": [-848.15893522872, -761.94842241773, 351.04045321352],
      "ImageType": [
        "ORIGINAL",
        "PRIMARY",
        "P",
        "MB",
        "ND",
        "MOSAIC"
],
      "ImagedNucleus": "1H",
      "ImagingFrequency": 123.260207,
      "InPlanePhaseEncodingDirection": "COL",
      "LargestImagePixelValue": 4095,
      "MRAcquisitionType": "2D",
      "MagneticFieldStrength": 3.0,
      "Manufacturer": "SIEMENS",
      "ManufacturerModelName": "Prisma_fit",
      "Modality": "MR",
      "NumberOfAverages": 1.0,
      "NumberOfPhaseEncodingSteps": 104,
      "PercentPhaseFieldOfView": 100.0,
      "PercentSampling": 100.0,
      "PerformedProcedureStepStartTime": "151911.717000",
      "PhotometricInterpretation": "MONOCHROME2",
      "PixelBandwidth": 2290.0,
      "PixelRepresentation": 0,
      "PixelSpacing": [2.0, 2.0],
      "ProtocolName": "func_task-mario3_run-06",
      "RepetitionTime": 1490.0,
      "RescaleIntercept": -4096.0,
      "RescaleSlope": 2.0,
      "RescaleType": "US",
      "Rows": 832,
      "SAR": 0.04760983928548,
      "SamplesPerPixel": 1,
      "ScanOptions": "FS",
      "ScanningSequence": "EP",
      "SequenceName": "epfid2d1_104",
      "SequenceVariant": [
        "SK",
        "SS"
],
      "SeriesDescription": "func_task-mario3_run-06",
      "SeriesNumber": 26,
      "SeriesTime": "163151.244000",
      "SliceLocation": -40.701805237793,
      "SliceThickness": 2.0,
      "SmallestImagePixelValue": 0,
      "SoftwareVersions": "syngo MR E11",
      "SpacingBetweenSlices": 1.9999999971411,
      "SpecificCharacterSet": "ISO_IR 100",
      "StudyID": "1",
      "StudyTime": "151911.639000",
      "TransmitCoilName": "Body",
      "VariableFlipAngleFlag": "N",
      "WindowCenterWidthExplanation": "Algo1",
      "dBdt": 0.0},
    "slices": {}
  },
  "time": {
    "samples": {
      "AcquisitionNumber": [1, 2, 3, 4, 5, 6, 7, 8, 9, 10, 11, 12, 13, 14, 15, 16, 17, 18, 19, 20, 21, 22, 23, 24, 25, 26, 27, 28, 29, 30, 31, 32, 33, 34, 35, 36, 37, 38, 39, 40, 41, 42, 43, 44, 45, 46, 47, 48, 49, 50, 51, 52, 53, 54, 55, 56, 57, 58, 59, 60, 61, 62, 63, 64, 65, 66, 67, 68, 69, 70, 71, 72, 73, 74, 75, 76, 77, 78, 79, 80, 81, 82, 83, 84, 85, 86, 87, 88, 89, 90, 91, 92, 93, 94, 95, 96, 97, 98, 99, 100, 101, 102, 103, 104, 105, 106, 107, 108, 109, 110, 111, 112, 113, 114, 115, 116, 117, 118, 119, 120, 121, 122, 123, 124, 125, 126, 127, 128, 129, 130, 131, 132, 133, 134, 135, 136, 137, 138, 139, 140, 141, 142, 143, 144, 145, 146, 147, 148, 149, 150, 151, 152, 153, 154, 155, 156, 157, 158, 159, 160, 161, 162, 163, 164, 165, 166, 167, 168, 169, 170, 171, 172, 173, 174, 175, 176, 177, 178, 179, 180, 181, 182, 183, 184, 185, 186, 187, 188, 189, 190, 191, 192, 193, 194, 195, 196, 197, 198, 199, 200, 201, 202, 203, 204, 205, 206, 207, 208, 209, 210, 211, 212, 213, 214, 215, 216, 217, 218, 219, 220, 221, 222, 223, 224, 225, 226, 227, 228, 229, 230, 231, 232, 233, 234, 235, 236, 237, 238, 239, 240, 241, 242, 243, 244, 245, 246, 247, 248, 249, 250, 251, 252, 253, 254, 255, 256, 257, 258, 259, 260, 261, 262, 263, 264, 265, 266, 267, 268, 269, 270, 271, 272, 273, 274, 275, 276, 277, 278, 279, 280, 281, 282, 283, 284, 285, 286, 287, 288, 289, 290, 291, 292, 293, 294, 295, 296, 297, 298, 299, 300, 301, 302, 303, 304, 305, 306, 307, 308, 309, 310, 311, 312, 313, 314, 315, 316, 317, 318, 319, 320, 321, 322, 323, 324, 325, 326, 327, 328, 329, 330, 331, 332, 333, 334, 335, 336, 337, 338, 339, 340, 341, 342, 343, 344, 345, 346, 347, 348, 349, 350, 351, 352, 353, 354, 355, 356],
      "AcquisitionTime": ["163029.805000", "163031.295000", "163032.785000", "163034.275000", "163035.765000", "163037.255000", "163038.745000", "163040.235000", "163041.725000", "163043.215000", "163044.705000", "163046.195000", "163047.685000", "163049.175000", "163050.665000", "163052.155000", "163053.645000", "163055.135000", "163056.625000", "163058.115000", "163059.605000", "163101.095000", "163102.585000", "163104.075000", "163105.565000", "163107.055000", "163108.545000", "163110.035000", "163111.525000", "163113.015000", "163114.505000", "163115.995000", "163117.485000", "163118.975000", "163120.465000", "163121.955000", "163123.445000", "163124.935000", "163126.425000", "163127.915000", "163129.405000", "163130.895000", "163132.385000", "163133.875000", "163135.365000", "163136.855000", "163138.345000", "163139.835000", "163141.325000", "163142.815000", "163144.305000", "163145.795000", "163147.285000", "163148.775000", "163150.265000", "163151.755000", "163153.245000", "163154.735000", "163156.225000", "163157.715000", "163159.205000", "163200.695000", "163202.185000", "163203.675000", "163205.165000", "163206.655000", "163208.145000", "163209.635000", "163211.125000", "163212.615000", "163214.105000", "163215.595000", "163217.085000", "163218.575000", "163220.065000", "163221.555000", "163223.045000", "163224.535000", "163226.025000", "163227.515000", "163229.005000", "163230.495000", "163231.985000", "163233.475000", "163234.965000", "163236.455000", "163237.945000", "163239.435000", "163240.925000", "163242.415000", "163243.905000", "163245.395000", "163246.885000", "163248.375000", "163249.865000", "163251.355000", "163252.845000", "163254.335000", "163255.825000", "163257.315000", "163258.805000", "163300.295000", "163301.785000", "163303.275000", "163304.765000", "163306.255000", "163307.745000", "163309.235000", "163310.725000", "163312.215000", "163313.705000", "163315.195000", "163316.685000", "163318.175000", "163319.665000", "163321.155000", "163322.645000", "163324.135000", "163325.625000", "163327.115000", "163328.605000", "163330.095000", "163331.585000", "163333.075000", "163334.565000", "163336.055000", "163337.545000", "163339.035000", "163340.525000", "163342.015000", "163343.505000", "163344.995000", "163346.485000", "163347.975000", "163349.465000", "163350.955000", "163352.445000", "163353.935000", "163355.425000", "163356.915000", "163358.405000", "163359.895000", "163401.385000", "163402.875000", "163404.365000", "163405.855000", "163407.345000", "163408.835000", "163410.325000", "163411.815000", "163413.305000", "163414.795000", "163416.285000", "163417.775000", "163419.265000", "163420.755000", "163422.245000", "163423.735000", "163425.225000", "163426.715000", "163428.205000", "163429.695000", "163431.185000", "163432.675000", "163434.165000", "163435.655000", "163437.145000", "163438.635000", "163440.125000", "163441.615000", "163443.105000", "163444.595000", "163446.085000", "163447.575000", "163449.065000", "163450.555000", "163452.045000", "163453.535000", "163455.025000", "163456.515000", "163458.005000", "163459.495000", "163500.985000", "163502.475000", "163503.965000", "163505.455000", "163506.945000", "163508.435000", "163509.925000", "163511.415000", "163512.905000", "163514.395000", "163515.885000", "163517.375000", "163518.865000", "163520.355000", "163521.845000", "163523.335000", "163524.825000", "163526.315000", "163527.805000", "163529.295000", "163530.785000", "163532.275000", "163533.765000", "163535.255000", "163536.745000", "163538.235000", "163539.725000", "163541.215000", "163542.705000", "163544.195000", "163545.685000", "163547.175000", "163548.665000", "163550.155000", "163551.645000", "163553.135000", "163554.625000", "163556.115000", "163557.605000", "163559.095000", "163600.585000", "163602.075000", "163603.565000", "163605.055000", "163606.545000", "163608.035000", "163609.525000", "163611.015000", "163612.505000", "163613.995000", "163615.485000", "163616.975000", "163618.465000", "163619.955000", "163621.445000", "163622.935000", "163624.425000", "163625.915000", "163627.405000", "163628.895000", "163630.385000", "163631.875000", "163633.365000", "163634.855000", "163636.345000", "163637.835000", "163639.325000", "163640.815000", "163642.305000", "163643.795000", "163645.285000", "163646.775000", "163648.265000", "163649.755000", "163651.245000", "163652.735000", "163654.225000", "163655.715000", "163657.205000", "163658.695000", "163700.185000", "163701.675000", "163703.165000", "163704.655000", "163706.145000", "163707.635000", "163709.125000", "163710.615000", "163712.105000", "163713.595000", "163715.085000", "163716.575000", "163718.065000", "163719.555000", "163721.045000", "163722.535000", "163724.025000", "163725.515000", "163727.005000", "163728.495000", "163729.985000", "163731.475000", "163732.965000", "163734.455000", "163735.945000", "163737.435000", "163738.925000", "163740.415000", "163741.905000", "163743.395000", "163744.885000", "163746.375000", "163747.865000", "163749.355000", "163750.845000", "163752.335000", "163753.825000", "163755.315000", "163756.805000", "163758.295000", "163759.785000", "163801.275000", "163802.765000", "163804.255000", "163805.745000", "163807.235000", "163808.725000", "163810.215000", "163811.705000", "163813.195000", "163814.685000", "163816.175000", "163817.665000", "163819.155000", "163820.645000", "163822.135000", "163823.625000", "163825.115000", "163826.605000", "163828.095000", "163829.585000", "163831.075000", "163832.565000", "163834.055000", "163835.545000", "163837.035000", "163838.525000", "163840.015000", "163841.505000", "163842.995000", "163844.485000", "163845.975000", "163847.465000", "163848.955000", "163850.445000", "163851.935000", "163853.425000", "163854.915000", "163856.405000", "163857.895000", "163859.385000", "163900.875000", "163902.365000", "163903.855000", "163905.345000", "163906.835000", "163908.325000", "163909.815000", "163911.305000", "163912.795000", "163914.285000", "163915.775000", "163917.265000", "163918.755000"],
      "ContentTime": ["163151.246000", "163151.256000", "163151.258000", "163151.261000", "163151.263000", "163151.266000", "163151.269000", "163151.271000", "163151.274000", "163151.276000", "163151.279000", "163151.281000", "163151.284000", "163151.286000", "163151.289000", "163151.291000", "163151.294000", "163151.296000", "163151.299000", "163151.301000", "163151.304000", "163151.306000", "163151.309000", "163151.311000", "163151.313000", "163151.316000", "163151.318000", "163151.321000", "163151.324000", "163151.326000", "163151.335000", "163151.338000", "163151.340000", "163210.816000", "163210.819000", "163210.821000", "163210.824000", "163210.827000", "163210.829000", "163210.831000", "163210.834000", "163210.836000", "163210.839000", "163210.841000", "163210.849000", "163210.852000", "163210.854000", "163210.857000", "163210.859000", "163210.862000", "163210.864000", "163210.867000", "163210.869000", "163230.832000", "163230.835000", "163230.838000", "163230.840000", "163230.843000", "163230.845000", "163230.848000", "163230.850000", "163230.853000", "163230.855000", "163230.858000", "163230.860000", "163230.863000", "163230.865000", "163230.868000", "163230.870000", "163230.873000", "163230.875000", "163230.878000", "163230.880000", "163250.826000", "163250.829000", "163250.833000", "163250.837000", "163250.839000", "163250.842000", "163250.845000", "163250.848000", "163250.850000", "163250.853000", "163250.856000", "163250.858000", "163250.861000", "163250.863000", "163250.866000", "163250.868000", "163250.871000", "163250.873000", "163250.876000", "163250.878000", "163330.845000", "163330.848000", "163330.850000", "163330.868000", "163330.871000", "163330.873000", "163330.876000", "163330.878000", "163330.881000", "163330.884000", "163330.886000", "163330.889000", "163330.891000", "163330.894000", "163330.896000", "163330.899000", "163330.901000", "163330.904000", "163330.906000", "163330.909000", "163330.911000", "163330.914000", "163330.916000", "163330.919000", "163330.921000", "163330.924000", "163330.927000", "163330.929000", "163410.835000", "163410.838000", "163410.840000", "163410.843000", "163410.845000", "163410.848000", "163410.851000", "163410.853000", "163410.856000", "163410.858000", "163410.861000", "163410.864000", "163410.867000", "163410.870000", "163410.873000", "163410.876000", "163410.879000", "163410.882000", "163410.884000", "163410.887000", "163410.890000", "163410.892000", "163410.895000", "163410.897000", "163410.900000", "163410.902000", "163450.859000", "163450.862000", "163450.865000", "163450.867000", "163450.870000", "163450.872000", "163450.875000", "163450.877000", "163450.880000", "163450.882000", "163450.885000", "163450.887000", "163450.890000", "163450.892000", "163450.895000", "163450.897000", "163450.900000", "163450.903000", "163450.905000", "163450.908000", "163450.910000", "163450.913000", "163450.915000", "163450.918000", "163450.920000", "163450.923000", "163450.925000", "163530.839000", "163530.841000", "163530.844000", "163530.846000", "163530.849000", "163530.851000", "163530.854000", "163530.856000", "163530.859000", "163530.861000", "163530.864000", "163530.866000", "163530.869000", "163530.871000", "163530.874000", "163530.876000", "163530.879000", "163530.882000", "163530.884000", "163530.887000", "163530.889000", "163530.892000", "163530.894000", "163530.897000", "163530.899000", "163530.902000", "163530.904000", "163610.840000", "163610.843000", "163610.846000", "163610.848000", "163610.851000", "163610.853000", "163610.856000", "163610.858000", "163610.861000", "163610.863000", "163610.866000", "163610.868000", "163610.871000", "163610.873000", "163610.876000", "163610.878000", "163610.881000", "163610.883000", "163610.886000", "163610.888000", "163610.891000", "163610.893000", "163610.896000", "163610.899000", "163610.901000", "163610.904000", "163610.906000", "163650.832000", "163650.835000", "163650.837000", "163650.840000", "163650.842000", "163650.845000", "163650.847000", "163650.850000", "163650.852000", "163650.863000", "163650.865000", "163650.868000", "163650.870000", "163650.873000", "163650.875000", "163650.878000", "163650.880000", "163650.883000", "163650.885000", "163650.888000", "163650.890000", "163650.893000", "163650.895000", "163650.898000", "163650.900000", "163650.903000", "163650.905000", "163730.846000", "163730.848000", "163730.851000", "163730.854000", "163730.856000", "163730.859000", "163730.861000", "163730.864000", "163730.866000", "163730.869000", "163730.871000", "163730.874000", "163730.876000", "163730.879000", "163730.881000", "163730.884000", "163730.886000", "163730.889000", "163730.892000", "163730.894000", "163730.897000", "163730.899000", "163730.902000", "163730.904000", "163730.907000", "163730.909000", "163730.912000", "163810.853000", "163810.856000", "163810.859000", "163810.861000", "163810.864000", "163810.866000", "163810.869000", "163810.871000", "163810.874000", "163810.876000", "163810.879000", "163810.881000", "163810.884000", "163810.887000", "163810.889000", "163810.892000", "163810.894000", "163810.897000", "163810.899000", "163810.902000", "163810.904000", "163810.907000", "163810.909000", "163810.912000", "163810.914000", "163810.917000", "163850.850000", "163850.853000", "163850.856000", "163850.858000", "163850.861000", "163850.863000", "163850.866000", "163850.868000", "163850.871000", "163850.890000", "163850.892000", "163850.895000", "163850.897000", "163850.900000", "163850.902000", "163850.905000", "163850.908000", "163850.910000", "163850.913000", "163850.915000", "163850.918000", "163850.920000", "163850.923000", "163850.925000", "163850.928000", "163850.930000", "163850.933000", "163921.122000", "163921.124000", "163921.127000", "163921.130000", "163921.132000", "163921.135000", "163921.137000", "163921.140000", "163921.142000", "163921.145000", "163921.147000", "163921.150000", "163921.154000", "163921.156000", "163921.159000", "163921.161000", "163921.164000", "163921.166000", "163921.169000", "163921.172000", "163921.174000"],
      "InstanceCreationTime": ["163151.246000", "163151.256000", "163151.258000", "163151.261000", "163151.263000", "163151.266000", "163151.269000", "163151.271000", "163151.274000", "163151.276000", "163151.279000", "163151.281000", "163151.284000", "163151.286000", "163151.289000", "163151.291000", "163151.294000", "163151.296000", "163151.299000", "163151.301000", "163151.304000", "163151.306000", "163151.309000", "163151.311000", "163151.313000", "163151.316000", "163151.318000", "163151.321000", "163151.324000", "163151.326000", "163151.335000", "163151.338000", "163151.340000", "163210.816000", "163210.819000", "163210.821000", "163210.824000", "163210.827000", "163210.829000", "163210.831000", "163210.834000", "163210.836000", "163210.839000", "163210.841000", "163210.849000", "163210.852000", "163210.854000", "163210.857000", "163210.859000", "163210.862000", "163210.864000", "163210.867000", "163210.869000", "163230.832000", "163230.835000", "163230.838000", "163230.840000", "163230.843000", "163230.845000", "163230.848000", "163230.850000", "163230.853000", "163230.855000", "163230.858000", "163230.860000", "163230.863000", "163230.865000", "163230.868000", "163230.870000", "163230.873000", "163230.875000", "163230.878000", "163230.880000", "163250.826000", "163250.829000", "163250.833000", "163250.837000", "163250.839000", "163250.842000", "163250.845000", "163250.848000", "163250.850000", "163250.853000", "163250.856000", "163250.858000", "163250.861000", "163250.863000", "163250.866000", "163250.868000", "163250.871000", "163250.873000", "163250.876000", "163250.878000", "163330.845000", "163330.848000", "163330.850000", "163330.868000", "163330.871000", "163330.873000", "163330.876000", "163330.878000", "163330.881000", "163330.884000", "163330.886000", "163330.889000", "163330.891000", "163330.894000", "163330.896000", "163330.899000", "163330.901000", "163330.904000", "163330.906000", "163330.909000", "163330.911000", "163330.914000", "163330.916000", "163330.919000", "163330.921000", "163330.924000", "163330.927000", "163330.929000", "163410.835000", "163410.838000", "163410.840000", "163410.843000", "163410.845000", "163410.848000", "163410.851000", "163410.853000", "163410.856000", "163410.858000", "163410.861000", "163410.864000", "163410.867000", "163410.870000", "163410.873000", "163410.876000", "163410.879000", "163410.882000", "163410.884000", "163410.887000", "163410.890000", "163410.892000", "163410.895000", "163410.897000", "163410.900000", "163410.902000", "163450.859000", "163450.862000", "163450.865000", "163450.867000", "163450.870000", "163450.872000", "163450.875000", "163450.877000", "163450.880000", "163450.882000", "163450.885000", "163450.887000", "163450.890000", "163450.892000", "163450.895000", "163450.897000", "163450.900000", "163450.903000", "163450.905000", "163450.908000", "163450.910000", "163450.913000", "163450.915000", "163450.918000", "163450.920000", "163450.923000", "163450.925000", "163530.839000", "163530.841000", "163530.844000", "163530.846000", "163530.849000", "163530.851000", "163530.854000", "163530.856000", "163530.859000", "163530.861000", "163530.864000", "163530.866000", "163530.869000", "163530.871000", "163530.874000", "163530.876000", "163530.879000", "163530.882000", "163530.884000", "163530.887000", "163530.889000", "163530.892000", "163530.894000", "163530.897000", "163530.899000", "163530.902000", "163530.904000", "163610.840000", "163610.843000", "163610.846000", "163610.848000", "163610.851000", "163610.853000", "163610.856000", "163610.858000", "163610.861000", "163610.863000", "163610.866000", "163610.868000", "163610.871000", "163610.873000", "163610.876000", "163610.878000", "163610.881000", "163610.883000", "163610.886000", "163610.888000", "163610.891000", "163610.893000", "163610.896000", "163610.899000", "163610.901000", "163610.904000", "163610.906000", "163650.832000", "163650.835000", "163650.837000", "163650.840000", "163650.842000", "163650.845000", "163650.847000", "163650.850000", "163650.852000", "163650.863000", "163650.865000", "163650.868000", "163650.870000", "163650.873000", "163650.875000", "163650.878000", "163650.880000", "163650.883000", "163650.885000", "163650.888000", "163650.890000", "163650.893000", "163650.895000", "163650.898000", "163650.900000", "163650.903000", "163650.905000", "163730.846000", "163730.848000", "163730.851000", "163730.854000", "163730.856000", "163730.859000", "163730.861000", "163730.864000", "163730.866000", "163730.869000", "163730.871000", "163730.874000", "163730.876000", "163730.879000", "163730.881000", "163730.884000", "163730.886000", "163730.889000", "163730.892000", "163730.894000", "163730.897000", "163730.899000", "163730.902000", "163730.904000", "163730.907000", "163730.909000", "163730.912000", "163810.853000", "163810.856000", "163810.859000", "163810.861000", "163810.864000", "163810.866000", "163810.869000", "163810.871000", "163810.874000", "163810.876000", "163810.879000", "163810.881000", "163810.884000", "163810.887000", "163810.889000", "163810.892000", "163810.894000", "163810.897000", "163810.899000", "163810.902000", "163810.904000", "163810.907000", "163810.909000", "163810.912000", "163810.914000", "163810.917000", "163850.850000", "163850.853000", "163850.856000", "163850.858000", "163850.861000", "163850.863000", "163850.866000", "163850.868000", "163850.871000", "163850.890000", "163850.892000", "163850.895000", "163850.897000", "163850.900000", "163850.902000", "163850.905000", "163850.908000", "163850.910000", "163850.913000", "163850.915000", "163850.918000", "163850.920000", "163850.923000", "163850.925000", "163850.928000", "163850.930000", "163850.933000", "163921.122000", "163921.124000", "163921.127000", "163921.130000", "163921.132000", "163921.135000", "163921.137000", "163921.140000", "163921.142000", "163921.145000", "163921.147000", "163921.150000", "163921.154000", "163921.156000", "163921.159000", "163921.161000", "163921.164000", "163921.166000", "163921.169000", "163921.172000", "163921.174000"],
      "InstanceNumber": [1, 2, 3, 4, 5, 6, 7, 8, 9, 10, 11, 12, 13, 14, 15, 16, 17, 18, 19, 20, 21, 22, 23, 24, 25, 26, 27, 28, 29, 30, 31, 32, 33, 34, 35, 36, 37, 38, 39, 40, 41, 42, 43, 44, 45, 46, 47, 48, 49, 50, 51, 52, 53, 54, 55, 56, 57, 58, 59, 60, 61, 62, 63, 64, 65, 66, 67, 68, 69, 70, 71, 72, 73, 74, 75, 76, 77, 78, 79, 80, 81, 82, 83, 84, 85, 86, 87, 88, 89, 90, 91, 92, 93, 94, 95, 96, 97, 98, 99, 100, 101, 102, 103, 104, 105, 106, 107, 108, 109, 110, 111, 112, 113, 114, 115, 116, 117, 118, 119, 120, 121, 122, 123, 124, 125, 126, 127, 128, 129, 130, 131, 132, 133, 134, 135, 136, 137, 138, 139, 140, 141, 142, 143, 144, 145, 146, 147, 148, 149, 150, 151, 152, 153, 154, 155, 156, 157, 158, 159, 160, 161, 162, 163, 164, 165, 166, 167, 168, 169, 170, 171, 172, 173, 174, 175, 176, 177, 178, 179, 180, 181, 182, 183, 184, 185, 186, 187, 188, 189, 190, 191, 192, 193, 194, 195, 196, 197, 198, 199, 200, 201, 202, 203, 204, 205, 206, 207, 208, 209, 210, 211, 212, 213, 214, 215, 216, 217, 218, 219, 220, 221, 222, 223, 224, 225, 226, 227, 228, 229, 230, 231, 232, 233, 234, 235, 236, 237, 238, 239, 240, 241, 242, 243, 244, 245, 246, 247, 248, 249, 250, 251, 252, 253, 254, 255, 256, 257, 258, 259, 260, 261, 262, 263, 264, 265, 266, 267, 268, 269, 270, 271, 272, 273, 274, 275, 276, 277, 278, 279, 280, 281, 282, 283, 284, 285, 286, 287, 288, 289, 290, 291, 292, 293, 294, 295, 296, 297, 298, 299, 300, 301, 302, 303, 304, 305, 306, 307, 308, 309, 310, 311, 312, 313, 314, 315, 316, 317, 318, 319, 320, 321, 322, 323, 324, 325, 326, 327, 328, 329, 330, 331, 332, 333, 334, 335, 336, 337, 338, 339, 340, 341, 342, 343, 344, 345, 346, 347, 348, 349, 350, 351, 352, 353, 354, 355, 356],
