{
  "AcquisitionMatrixPE": 104,
  "AcquisitionNumber": 1,
  "AcquisitionTime": "16:19:44.890000",
  "BandwidthPerPixelPhaseEncode": 17.17,
  "BaseResolution": 104,
  "BodyPartExamined": "BRAIN",
  "CoilCombinationMethod": "Sum of Squares",
  "ConsistencyInfo": "N4_VE11C_LATEST_20160120",
  "ConversionSoftware": "dcm2niix",
  "ConversionSoftwareVersion": "v1.0.20220505",
  "DerivedVendorReportedEchoSpacing": 0.000560011,
  "DeviceSerialNumber": "167006",
  "DwellTime": 2.1e-06,
  "EchoTime": 0.037,
  "EchoTrainLength": 104,
  "EffectiveEchoSpacing": 0.000560011,
  "FlipAngle": 52,
  "HeudiconvVersion": "0.5.3.post811+g6206e14",
  "ImageComments": "Unaliased MB4/PE3/LB",
  "ImageOrientationPatientDICOM": [0.998976, 0.00436785, 0.0450351, 0.018658, 0.866997, -0.497963],
  "ImageOrientationText": "Tra>Cor(-29.9)>Sag(2.4)",
  "ImageType": [
    "ORIGINAL",
    "PRIMARY",
    "M",
    "MB",
    "ND",
    "MOSAIC"
],
  "ImagingFrequency": 123.26,
  "InPlanePhaseEncodingDirectionDICOM": "COL",
  "InstitutionAddress": "Chemin Queen-Mary 4565,Montreal,District,CA,H3W 1W5",
  "InstitutionName": "IUGM",
  "InstitutionalDepartmentName": "Department",
  "MRAcquisitionType": "2D",
  "MagneticFieldStrength": 3,
  "Manufacturer": "Siemens",
  "ManufacturersModelName": "Prisma_fit",
  "MatrixCoilMode": "SENSE",
  "Modality": "MR",
  "MultibandAccelerationFactor": 4,
  "PartialFourier": 1,
  "PatientPosition": "HFS",
  "PercentPhaseFOV": 100,
  "PercentSampling": 100,
  "PhaseEncodingDirection": "j",
  "PhaseEncodingSteps": 104,
  "PhaseResolution": 1,
  "PixelBandwidth": 2290,
  "ProcedureStepDescription": "games^mario3",
  "ProtocolName": "func_task-mario3_run-05",
  "PulseSequenceDetails": "%CustomerSeq%\\cmrr_mbep2d_bold",
  "ReceiveCoilActiveElements": "HC1-7;NC1,2",
  "ReceiveCoilName": "HeadNeck_64",
  "ReconMatrixPE": 104,
  "RepetitionTime": 1.49,
  "SAR": 0.0476098,
  "ScanOptions": "FS",
  "ScanningSequence": "EP",
  "SequenceName": "epfid2d1_104",
  "SequenceVariant": "SK\\SS",
  "SeriesDescription": "func_task-mario3_run-05",
  "SeriesNumber": 22,
  "ShimSetting": [609, -7197, -8842, 267, 17, -136, -37, 47],
  "SliceThickness": 2,
  "SliceTiming": [0, 0.785, 0.0975, 0.8825, 0.195, 0.98, 0.295, 1.0775, 0.3925, 1.175, 0.49, 1.275, 0.5875, 1.3725, 0.685, 0, 0.785, 0.0975, 0.8825, 0.195, 0.98, 0.295, 1.0775, 0.3925, 1.175, 0.49, 1.275, 0.5875, 1.3725, 0.685, 0, 0.785, 0.0975, 0.8825, 0.195, 0.98, 0.295, 1.0775, 0.3925, 1.175, 0.49, 1.275, 0.5875, 1.3725, 0.685, 0, 0.785, 0.0975, 0.8825, 0.195, 0.98, 0.295, 1.0775, 0.3925, 1.175, 0.49, 1.275, 0.5875, 1.3725, 0.685],
  "SoftwareVersions": "syngo MR E11",
  "SpacingBetweenSlices": 2,
  "StationName": "MRC35049",
  "TaskName": "mario3",
  "TotalReadoutTime": 0.0576811,
  "TxRefAmp": 255.929,
  "WipMemBlock": "208314e3-0776-4429-8dcb-ffabad4632e7||Sequence: R017 ve11c/master r/75a17815+; Jun 28 2022 16:32:11 by eja",
  "dcmmeta_affine": [
    [-1.9979517459869385, 0.03731606900691986, 0.08244072645902634, 103.4779052734375],
    [-0.008735701441764832, 1.7339946031570435, -0.9965872764587402, -51.00688171386719],
    [0.09007024765014648, 0.9959267377853394, 1.7320557832717896, -81.2717514038086],
    [0.0, 0.0, 0.0, 1.0]
],
  "dcmmeta_reorient_transform": [
    [0.0, -1.0, 0.0, 103.0],
    [1.0, 0.0, 0.0, 0.0],
    [0.0, 0.0, 1.0, 0.0],
    [0.0, 0.0, 0.0, 1.0]
],
  "dcmmeta_shape": [104, 104, 60, 336],
  "dcmmeta_slice_dim": 2,
  "dcmmeta_version": 0.6,
  "global": {
    "const": {
      "AcquisitionMatrix": [104, 0, 0, 104],
      "AngioFlag": "N",
      "BitsAllocated": 16,
      "BitsStored": 16,
      "BodyPartExamined": "BRAIN",
      "Columns": 832,
      "EchoNumbers": 1,
      "EchoTime": 37.0,
      "EchoTrainLength": 104,
      "FlipAngle": 52.0,
      "HighBit": 15,
      "ImageOrientationPatient": [0.99897585531251, 0.00436785049315, 0.04503512390017, 0.01865803532478, 0.86699733101836, -0.4979633578135],
      "ImagePositionPatient": [-848.15893522872, -761.94842241773, 351.04045321352],
      "ImageType": [
        "ORIGINAL",
        "PRIMARY",
        "M",
        "MB",
        "ND",
        "MOSAIC"
],
      "ImagedNucleus": "1H",
      "ImagingFrequency": 123.260206,
      "InPlanePhaseEncodingDirection": "COL",
      "MRAcquisitionType": "2D",
      "MagneticFieldStrength": 3.0,
      "Manufacturer": "SIEMENS",
      "ManufacturerModelName": "Prisma_fit",
      "Modality": "MR",
      "NumberOfAverages": 1.0,
      "NumberOfPhaseEncodingSteps": 104,
      "PercentPhaseFieldOfView": 100.0,
      "PercentSampling": 100.0,
      "PerformedProcedureStepStartTime": "151911.717000",
      "PhotometricInterpretation": "MONOCHROME2",
      "PixelBandwidth": 2290.0,
      "PixelRepresentation": 0,
      "PixelSpacing": [2.0, 2.0],
      "ProtocolName": "func_task-mario3_run-05",
      "RepetitionTime": 1490.0,
      "Rows": 832,
      "SAR": 0.04760983928548,
      "SamplesPerPixel": 1,
      "ScanOptions": "FS",
      "ScanningSequence": "EP",
      "SequenceName": "epfid2d1_104",
      "SequenceVariant": [
        "SK",
        "SS"
],
      "SeriesDescription": "func_task-mario3_run-05",
      "SeriesNumber": 22,
      "SeriesTime": "162109.692000",
      "SliceLocation": -40.701805237793,
      "SliceThickness": 2.0,
      "SmallestImagePixelValue": 0,
      "SoftwareVersions": "syngo MR E11",
      "SpacingBetweenSlices": 1.9999999971411,
      "SpecificCharacterSet": "ISO_IR 100",
      "StudyID": "1",
      "StudyTime": "151911.639000",
      "TransmitCoilName": "Body",
      "VariableFlipAngleFlag": "N",
      "WindowCenterWidthExplanation": "Algo1",
      "dBdt": 0.0},
    "slices": {}
  },
  "time": {
    "samples": {
      "AcquisitionNumber": [1, 2, 3, 4, 5, 6, 7, 8, 9, 10, 11, 12, 13, 14, 15, 16, 17, 18, 19, 20, 21, 22, 23, 24, 25, 26, 27, 28, 29, 30, 31, 32, 33, 34, 35, 36, 37, 38, 39, 40, 41, 42, 43, 44, 45, 46, 47, 48, 49, 50, 51, 52, 53, 54, 55, 56, 57, 58, 59, 60, 61, 62, 63, 64, 65, 66, 67, 68, 69, 70, 71, 72, 73, 74, 75, 76, 77, 78, 79, 80, 81, 82, 83, 84, 85, 86, 87, 88, 89, 90, 91, 92, 93, 94, 95, 96, 97, 98, 99, 100, 101, 102, 103, 104, 105, 106, 107, 108, 109, 110, 111, 112, 113, 114, 115, 116, 117, 118, 119, 120, 121, 122, 123, 124, 125, 126, 127, 128, 129, 130, 131, 132, 133, 134, 135, 136, 137, 138, 139, 140, 141, 142, 143, 144, 145, 146, 147, 148, 149, 150, 151, 152, 153, 154, 155, 156, 157, 158, 159, 160, 161, 162, 163, 164, 165, 166, 167, 168, 169, 170, 171, 172, 173, 174, 175, 176, 177, 178, 179, 180, 181, 182, 183, 184, 185, 186, 187, 188, 189, 190, 191, 192, 193, 194, 195, 196, 197, 198, 199, 200, 201, 202, 203, 204, 205, 206, 207, 208, 209, 210, 211, 212, 213, 214, 215, 216, 217, 218, 219, 220, 221, 222, 223, 224, 225, 226, 227, 228, 229, 230, 231, 232, 233, 234, 235, 236, 237, 238, 239, 240, 241, 242, 243, 244, 245, 246, 247, 248, 249, 250, 251, 252, 253, 254, 255, 256, 257, 258, 259, 260, 261, 262, 263, 264, 265, 266, 267, 268, 269, 270, 271, 272, 273, 274, 275, 276, 277, 278, 279, 280, 281, 282, 283, 284, 285, 286, 287, 288, 289, 290, 291, 292, 293, 294, 295, 296, 297, 298, 299, 300, 301, 302, 303, 304, 305, 306, 307, 308, 309, 310, 311, 312, 313, 314, 315, 316, 317, 318, 319, 320, 321, 322, 323, 324, 325, 326, 327, 328, 329, 330, 331, 332, 333, 334, 335, 336],
      "AcquisitionTime": ["161944.890000", "161946.380000", "161947.870000", "161949.360000", "161950.850000", "161952.340000", "161953.830000", "161955.320000", "161956.810000", "161958.300000", "161959.790000", "162001.280000", "162002.770000", "162004.260000", "162005.750000", "162007.240000", "162008.730000", "162010.220000", "162011.710000", "162013.200000", "162014.690000", "162016.180000", "162017.670000", "162019.160000", "162020.650000", "162022.140000", "162023.630000", "162025.120000", "162026.610000", "162028.100000", "162029.590000", "162031.080000", "162032.570000", "162034.060000", "162035.550000", "162037.040000", "162038.530000", "162040.020000", "162041.510000", "162043.000000", "162044.490000", "162045.980000", "162047.470000", "162048.960000", "162050.450000", "162051.940000", "162053.430000", "162054.920000", "162056.410000", "162057.900000", "162059.390000", "162100.880000", "162102.370000", "162103.860000", "162105.350000", "162106.840000", "162108.330000", "162109.820000", "162111.310000", "162112.800000", "162114.290000", "162115.780000", "162117.270000", "162118.760000", "162120.250000", "162121.740000", "162123.230000", "162124.720000", "162126.210000", "162127.700000", "162129.190000", "162130.680000", "162132.170000", "162133.660000", "162135.150000", "162136.640000", "162138.130000", "162139.620000", "162141.110000", "162142.600000", "162144.090000", "162145.580000", "162147.070000", "162148.560000", "162150.050000", "162151.540000", "162153.030000", "162154.520000", "162156.010000", "162157.500000", "162158.990000", "162200.480000", "162201.970000", "162203.460000", "162204.950000", "162206.440000", "162207.930000", "162209.420000", "162210.910000", "162212.400000", "162213.890000", "162215.380000", "162216.870000", "162218.360000", "162219.850000", "162221.340000", "162222.830000", "162224.320000", "162225.810000", "162227.300000", "162228.790000", "162230.280000", "162231.770000", "162233.260000", "162234.750000", "162236.240000", "162237.730000", "162239.220000", "162240.710000", "162242.200000", "162243.690000", "162245.180000", "162246.670000", "162248.160000", "162249.650000", "162251.140000", "162252.630000", "162254.120000", "162255.610000", "162257.100000", "162258.590000", "162300.080000", "162301.570000", "162303.060000", "162304.550000", "162306.040000", "162307.530000", "162309.020000", "162310.510000", "162312.000000", "162313.490000", "162314.980000", "162316.470000", "162317.960000", "162319.450000", "162320.940000", "162322.430000", "162323.920000", "162325.410000", "162326.900000", "162328.390000", "162329.880000", "162331.370000", "162332.860000", "162334.350000", "162335.840000", "162337.330000", "162338.820000", "162340.310000", "162341.800000", "162343.290000", "162344.780000", "162346.270000", "162347.760000", "162349.250000", "162350.740000", "162352.230000", "162353.720000", "162355.210000", "162356.700000", "162358.190000", "162359.680000", "162401.170000", "162402.660000", "162404.150000", "162405.640000", "162407.130000", "162408.620000", "162410.110000", "162411.600000", "162413.090000", "162414.580000", "162416.070000", "162417.560000", "162419.050000", "162420.540000", "162422.030000", "162423.520000", "162425.010000", "162426.500000", "162427.990000", "162429.480000", "162430.970000", "162432.460000", "162433.950000", "162435.440000", "162436.930000", "162438.420000", "162439.910000", "162441.400000", "162442.890000", "162444.380000", "162445.870000", "162447.360000", "162448.850000", "162450.340000", "162451.830000", "162453.320000", "162454.810000", "162456.300000", "162457.790000", "162459.280000", "162500.770000", "162502.260000", "162503.750000", "162505.240000", "162506.730000", "162508.220000", "162509.710000", "162511.200000", "162512.690000", "162514.180000", "162515.670000", "162517.160000", "162518.650000", "162520.140000", "162521.630000", "162523.120000", "162524.610000", "162526.100000", "162527.590000", "162529.080000", "162530.570000", "162532.060000", "162533.550000", "162535.040000", "162536.530000", "162538.020000", "162539.510000", "162541.000000", "162542.490000", "162543.980000", "162545.470000", "162546.960000", "162548.450000", "162549.940000", "162551.430000", "162552.920000", "162554.410000", "162555.900000", "162557.390000", "162558.880000", "162600.370000", "162601.860000", "162603.350000", "162604.840000", "162606.330000", "162607.820000", "162609.310000", "162610.800000", "162612.290000", "162613.780000", "162615.270000", "162616.760000", "162618.250000", "162619.740000", "162621.230000", "162622.720000", "162624.210000", "162625.700000", "162627.190000", "162628.680000", "162630.170000", "162631.660000", "162633.150000", "162634.640000", "162636.130000", "162637.620000", "162639.110000", "162640.600000", "162642.090000", "162643.580000", "162645.070000", "162646.560000", "162648.050000", "162649.540000", "162651.030000", "162652.520000", "162654.010000", "162655.500000", "162656.990000", "162658.480000", "162659.970000", "162701.460000", "162702.950000", "162704.440000", "162705.930000", "162707.420000", "162708.910000", "162710.400000", "162711.890000", "162713.380000", "162714.870000", "162716.360000", "162717.850000", "162719.340000", "162720.830000", "162722.320000", "162723.810000", "162725.300000", "162726.790000", "162728.280000", "162729.770000", "162731.260000", "162732.750000", "162734.240000", "162735.730000", "162737.220000", "162738.710000", "162740.200000", "162741.690000", "162743.180000", "162744.670000", "162746.160000", "162747.650000", "162749.140000", "162750.630000", "162752.120000", "162753.610000", "162755.100000", "162756.590000", "162758.080000", "162759.570000", "162801.060000", "162802.550000", "162804.040000"],
      "ContentTime": ["162109.695000", "162109.700000", "162109.703000", "162109.707000", "162109.710000", "162109.713000", "162109.717000", "162109.720000", "162109.723000", "162109.727000", "162109.730000", "162109.733000", "162109.736000", "162109.740000", "162109.743000", "162109.746000", "162109.750000", "162109.753000", "162109.756000", "162109.760000", "162109.763000", "162109.775000", "162109.778000", "162109.782000", "162109.785000", "162109.788000", "162109.792000", "162109.795000", "162109.798000", "162109.802000", "162109.805000", "162109.808000", "162109.811000", "162109.821000", "162129.654000", "162129.658000", "162129.661000", "162129.665000", "162129.668000", "162129.671000", "162129.675000", "162129.678000", "162129.682000", "162129.685000", "162129.689000", "162129.692000", "162129.696000", "162129.699000", "162129.702000", "162129.706000", "162129.709000", "162129.712000", "162129.715000", "162129.719000", "162149.654000", "162149.658000", "162149.661000", "162149.665000", "162149.668000", "162149.672000", "162149.675000", "162149.678000", "162149.682000", "162149.685000", "162149.688000", "162149.692000", "162149.695000", "162149.698000", "162149.702000", "162149.705000", "162149.708000", "162149.711000", "162149.715000", "162149.718000", "162209.654000", "162209.658000", "162209.661000", "162209.665000", "162209.668000", "162209.671000", "162209.675000", "162209.678000", "162209.681000", "162209.685000", "162209.688000", "162209.691000", "162209.695000", "162209.698000", "162209.701000", "162209.705000", "162209.708000", "162209.711000", "162209.715000", "162209.718000", "162249.654000", "162249.658000", "162249.661000", "162249.665000", "162249.668000", "162249.672000", "162249.675000", "162249.678000", "162249.682000", "162249.685000", "162249.688000", "162249.692000", "162249.695000", "162249.698000", "162249.702000", "162249.705000", "162249.708000", "162249.712000", "162249.715000", "162249.718000", "162249.722000", "162249.725000", "162249.728000", "162249.732000", "162249.735000", "162249.751000", "162249.754000", "162249.757000", "162249.761000", "162329.654000", "162329.658000", "162329.661000", "162329.665000", "162329.668000", "162329.671000", "162329.675000", "162329.678000", "162329.681000", "162329.685000", "162329.688000", "162329.692000", "162329.695000", "162329.698000", "162329.702000", "162329.705000", "162329.708000", "162329.712000", "162329.715000", "162329.718000", "162329.722000", "162329.725000", "162329.728000", "162329.732000", "162329.735000", "162329.738000", "162329.742000", "162409.654000", "162409.658000", "162409.662000", "162409.667000", "162409.671000", "162409.675000", "162409.679000", "162409.683000", "162409.687000", "162409.690000", "162409.694000", "162409.698000", "162409.701000", "162409.705000", "162409.708000", "162409.711000", "162409.715000", "162409.718000", "162409.722000", "162409.725000", "162409.728000", "162409.732000", "162409.735000", "162409.738000", "162409.742000", "162409.745000", "162429.654000", "162429.658000", "162429.661000", "162429.665000", "162429.668000", "162429.672000", "162429.675000", "162429.678000", "162429.682000", "162429.685000", "162429.688000", "162429.692000", "162429.695000", "162429.698000", "162509.654000", "162509.658000", "162509.661000", "162509.665000", "162509.668000", "162509.671000", "162509.675000", "162509.678000", "162509.682000", "162509.685000", "162509.688000", "162509.692000", "162509.695000", "162509.698000", "162509.702000", "162509.705000", "162509.708000", "162509.711000", "162509.715000", "162509.718000", "162509.721000", "162509.725000", "162509.728000", "162509.732000", "162509.735000", "162509.738000", "162509.741000", "162549.654000", "162549.658000", "162549.662000", "162549.665000", "162549.668000", "162549.672000", "162549.675000", "162549.678000", "162549.682000", "162549.685000", "162549.689000", "162549.692000", "162549.695000", "162549.699000", "162549.702000", "162549.705000", "162549.709000", "162549.712000", "162549.715000", "162549.719000", "162549.722000", "162549.725000", "162549.729000", "162549.732000", "162549.736000", "162549.739000", "162549.742000", "162629.655000", "162629.658000", "162629.662000", "162629.665000", "162629.669000", "162629.672000", "162629.675000", "162629.679000", "162629.682000", "162629.685000", "162629.689000", "162629.692000", "162629.695000", "162629.699000", "162629.702000", "162629.705000", "162629.709000", "162629.712000", "162629.715000", "162629.719000", "162629.722000", "162629.727000", "162629.730000", "162629.734000", "162629.738000", "162629.742000", "162709.654000", "162709.658000", "162709.662000", "162709.665000", "162709.668000", "162709.672000", "162709.675000", "162709.678000", "162709.682000", "162709.685000", "162709.689000", "162709.692000", "162709.695000", "162709.699000", "162709.702000", "162709.705000", "162709.709000", "162709.712000", "162709.715000", "162709.719000", "162709.722000", "162709.725000", "162709.729000", "162709.732000", "162709.735000", "162709.739000", "162709.742000", "162749.654000", "162749.659000", "162749.662000", "162749.665000", "162749.669000", "162749.672000", "162749.675000", "162749.679000", "162749.682000", "162749.694000", "162749.698000", "162749.701000", "162749.705000", "162749.708000", "162749.711000", "162749.715000", "162749.718000", "162749.722000", "162749.725000", "162749.728000", "162749.732000", "162749.735000", "162749.739000", "162749.742000", "162749.745000", "162749.749000", "162749.752000", "162807.785000", "162807.789000", "162807.792000", "162807.795000", "162807.799000", "162807.802000", "162807.806000", "162807.809000", "162807.812000", "162807.816000", "162807.819000", "162807.826000"],
      "InstanceCreationTime": ["162109.695000", "162109.700000", "162109.703000", "162109.707000", "162109.710000", "162109.713000", "162109.717000", "162109.720000", "162109.723000", "162109.727000", "162109.730000", "162109.733000", "162109.736000", "162109.740000", "162109.743000", "162109.746000", "162109.750000", "162109.753000", "162109.756000", "162109.760000", "162109.763000", "162109.775000", "162109.778000", "162109.782000", "162109.785000", "162109.788000", "162109.792000", "162109.795000", "162109.798000", "162109.802000", "162109.805000", "162109.808000", "162109.811000", "162109.821000", "162129.654000", "162129.658000", "162129.661000", "162129.665000", "162129.668000", "162129.671000", "162129.675000", "162129.678000", "162129.682000", "162129.685000", "162129.689000", "162129.692000", "162129.696000", "162129.699000", "162129.702000", "162129.706000", "162129.709000", "162129.712000", "162129.715000", "162129.719000", "162149.654000", "162149.658000", "162149.661000", "162149.665000", "162149.668000", "162149.672000", "162149.675000", "162149.678000", "162149.682000", "162149.685000", "162149.688000", "162149.692000", "162149.695000", "162149.698000", "162149.702000", "162149.705000", "162149.708000", "162149.711000", "162149.715000", "162149.718000", "162209.654000", "162209.658000", "162209.661000", "162209.665000", "162209.668000", "162209.671000", "162209.675000", "162209.678000", "162209.681000", "162209.685000", "162209.688000", "162209.691000", "162209.695000", "162209.698000", "162209.701000", "162209.705000", "162209.708000", "162209.711000", "162209.715000", "162209.718000", "162249.654000", "162249.658000", "162249.661000", "162249.665000", "162249.668000", "162249.672000", "162249.675000", "162249.678000", "162249.682000", "162249.685000", "162249.688000", "162249.692000", "162249.695000", "162249.698000", "162249.702000", "162249.705000", "162249.708000", "162249.712000", "162249.715000", "162249.718000", "162249.722000", "162249.725000", "162249.728000", "162249.732000", "162249.735000", "162249.751000", "162249.754000", "162249.757000", "162249.761000", "162329.654000", "162329.658000", "162329.661000", "162329.665000", "162329.668000", "162329.671000", "162329.675000", "162329.678000", "162329.681000", "162329.685000", "162329.688000", "162329.692000", "162329.695000", "162329.698000", "162329.702000", "162329.705000", "162329.708000", "162329.712000", "162329.715000", "162329.718000", "162329.722000", "162329.725000", "162329.728000", "162329.732000", "162329.735000", "162329.738000", "162329.742000", "162409.654000", "162409.658000", "162409.662000", "162409.667000", "162409.671000", "162409.675000", "162409.679000", "162409.683000", "162409.687000", "162409.690000", "162409.694000", "162409.698000", "162409.701000", "162409.705000", "162409.708000", "162409.711000", "162409.715000", "162409.718000", "162409.722000", "162409.725000", "162409.728000", "162409.732000", "162409.735000", "162409.738000", "162409.742000", "162409.745000", "162429.654000", "162429.658000", "162429.661000", "162429.665000", "162429.668000", "162429.672000", "162429.675000", "162429.678000", "162429.682000", "162429.685000", "162429.688000", "162429.692000", "162429.695000", "162429.698000", "162509.654000", "162509.658000", "162509.661000", "162509.665000", "162509.668000", "162509.671000", "162509.675000", "162509.678000", "162509.682000", "162509.685000", "162509.688000", "162509.692000", "162509.695000", "162509.698000", "162509.702000", "162509.705000", "162509.708000", "162509.711000", "162509.715000", "162509.718000", "162509.721000", "162509.725000", "162509.728000", "162509.732000", "162509.735000", "162509.738000", "162509.741000", "162549.654000", "162549.658000", "162549.662000", "162549.665000", "162549.668000", "162549.672000", "162549.675000", "162549.678000", "162549.682000", "162549.685000", "162549.689000", "162549.692000", "162549.695000", "162549.699000", "162549.702000", "162549.705000", "162549.709000", "162549.712000", "162549.715000", "162549.719000", "162549.722000", "162549.725000", "162549.729000", "162549.732000", "162549.736000", "162549.739000", "162549.742000", "162629.655000", "162629.658000", "162629.662000", "162629.665000", "162629.669000", "162629.672000", "162629.675000", "162629.679000", "162629.682000", "162629.685000", "162629.689000", "162629.692000", "162629.695000", "162629.699000", "162629.702000", "162629.705000", "162629.709000", "162629.712000", "162629.715000", "162629.719000", "162629.722000", "162629.727000", "162629.730000", "162629.734000", "162629.738000", "162629.742000", "162709.654000", "162709.658000", "162709.662000", "162709.665000", "162709.668000", "162709.672000", "162709.675000", "162709.678000", "162709.682000", "162709.685000", "162709.689000", "162709.692000", "162709.695000", "162709.699000", "162709.702000", "162709.705000", "162709.709000", "162709.712000", "162709.715000", "162709.719000", "162709.722000", "162709.725000", "162709.729000", "162709.732000", "162709.735000", "162709.739000", "162709.742000", "162749.654000", "162749.659000", "162749.662000", "162749.665000", "162749.669000", "162749.672000", "162749.675000", "162749.679000", "162749.682000", "162749.694000", "162749.698000", "162749.701000", "162749.705000", "162749.708000", "162749.711000", "162749.715000", "162749.718000", "162749.722000", "162749.725000", "162749.728000", "162749.732000", "162749.735000", "162749.739000", "162749.742000", "162749.745000", "162749.749000", "162749.752000", "162807.785000", "162807.789000", "162807.792000", "162807.795000", "162807.799000", "162807.802000", "162807.806000", "162807.809000", "162807.812000", "162807.816000", "162807.819000", "162807.826000"],
      "InstanceNumber": [1, 2, 3, 4, 5, 6, 7, 8, 9, 10, 11, 12, 13, 14, 15, 16, 17, 18, 19, 20, 21, 22, 23, 24, 25, 26, 27, 28, 29, 30, 31, 32, 33, 34, 35, 36, 37, 38, 39, 40, 41, 42, 43, 44, 45, 46, 47, 48, 49, 50, 51, 52, 53, 54, 55, 56, 57, 58, 59, 60, 61, 62, 63, 64, 65, 66, 67, 68, 69, 70, 71, 72, 73, 74, 75, 76, 77, 78, 79, 80, 81, 82, 83, 84, 85, 86, 87, 88, 89, 90, 91, 92, 93, 94, 95, 96, 97, 98, 99, 100, 101, 102, 103, 104, 105, 106, 107, 108, 109, 110, 111, 112, 113, 114, 115, 116, 117, 118, 119, 120, 121, 122, 123, 124, 125, 126, 127, 128, 129, 130, 131, 132, 133, 134, 135, 136, 137, 138, 139, 140, 141, 142, 143, 144, 145, 146, 147, 148, 149, 150, 151, 152, 153, 154, 155, 156, 157, 158, 159, 160, 161, 162, 163, 164, 165, 166, 167, 168, 169, 170, 171, 172, 173, 174, 175, 176, 177, 178, 179, 180, 181, 182, 183, 184, 185, 186, 187, 188, 189, 190, 191, 192, 193, 194, 195, 196, 197, 198, 199, 200, 201, 202, 203, 204, 205, 206, 207, 208, 209, 210, 211, 212, 213, 214, 215, 216, 217, 218, 219, 220, 221, 222, 223, 224, 225, 226, 227, 228, 229, 230, 231, 232, 233, 234, 235, 236, 237, 238, 239, 240, 241, 242, 243, 244, 245, 246, 247, 248, 249, 250, 251, 252, 253, 254, 255, 256, 257, 258, 259, 260, 261, 262, 263, 264, 265, 266, 267, 268, 269, 270, 271, 272, 273, 274, 275, 276, 277, 278, 279, 280, 281, 282, 283, 284, 285, 286, 287, 288, 289, 290, 291, 292, 293, 294, 295, 296, 297, 298, 299, 300, 301, 302, 303, 304, 305, 306, 307, 308, 309, 310, 311, 312, 313, 314, 315, 316, 317, 318, 319, 320, 321, 322, 323, 324, 325, 326, 327, 328, 329, 330, 331, 332, 333, 334, 335, 336],
      "LargestImagePixelValue": [47961, 46297, 45622, 45758, 44457, 43778, 44325, 45195, 44204, 42368, 43549, 41624, 42686, 42679, 42217, 43589, 44125, 44254, 44173, 43961, 41785, 41117, 42055, 41290, 41482, 41588, 42107, 41349, 40946, 42323, 42997, 41948, 41732, 41440, 43259, 43744, 43407, 43644, 44658, 42826, 46554, 44214, 44078, 41392, 43638, 44090, 45638, 43328, 43698, 44653, 45116, 45006, 44770, 45437, 46186, 45931, 45804, 45921, 43821, 45618, 45814, 45314, 45457, 44567, 44835, 44903, 44759, 45044, 44164, 44926, 44715, 46702, 44891, 44698, 44572, 43628, 43612, 44090, 47030, 46448, 45686, 46157, 45922, 45214, 45625, 45276, 44368, 45437, 45551, 44855, 43613, 43932, 43912, 42948, 43520, 42395, 42659, 43811, 41657, 43431, 42358, 43869, 44012, 45747, 45197, 45479, 45688, 45262, 43561, 43924, 45335, 44688, 45658, 45701, 45289, 45112, 45410, 46228, 44738, 45226, 42733, 45379, 43331, 42260, 42916, 42452, 42665, 42154, 43280, 45234, 41179, 42059, 41760, 43338, 45418, 44388, 42326, 43140, 45465, 44220, 43806, 45487, 45453, 44289, 44729, 45096, 45044, 45496, 45350, 45070, 44878, 45301, 44948, 45373, 44637, 45078, 45128, 43228, 44076, 44141, 44804, 44490, 44307, 44267, 44437, 45268, 46270, 44736, 45026, 44359, 44338, 45624, 44298, 44270, 44836, 44702, 43124, 44287, 44404, 45072, 44773, 45060, 45210, 45238, 45994, 45567, 44638, 45581, 44050, 46148, 46151, 46408, 45418, 45303, 46137, 45360, 44836, 45094, 43396, 44639, 45505, 46356, 45703, 45972, 45682, 43033, 43446, 44225, 42966, 43652, 43617, 44791, 44694, 44810, 44762, 44665, 45442, 44743, 43822, 43836, 44759, 43114, 44409, 42530, 42372, 42468, 42749, 43484, 44780, 43337, 44165, 44216, 42798, 44542, 45261, 45120, 44689, 44050, 44367, 43825, 43349, 43089, 42536, 43427, 43372, 41768, 42288, 42803, 41824, 42626, 43209, 42018, 41848, 41753, 43319, 43969, 42204, 42715, 42424, 42853, 43495, 43619, 43286, 42270, 42987, 42683, 43099, 41717, 42181, 41273, 41540, 43122, 42122, 42249, 41363, 41436, 41828, 41861, 41481, 41404, 41868, 41561, 41162, 41098, 40886, 41423, 40852, 41199, 41387, 41721, 41917, 42583, 40914, 41048, 40880, 42003, 42844, 42199, 41491, 41629, 41397, 41644, 41585, 42153, 41881, 41121, 41082, 41431, 41945, 40661, 41088, 41117, 41468, 41289, 41614, 41064, 42634, 42057, 41183, 41835, 45182, 42855, 42255, 43233, 44534, 41817, 40989, 41541, 42469, 44957, 44386, 43751, 43529, 42504, 41655, 42722],
