{
  "AcquisitionMatrixPE": 104,
  "AcquisitionNumber": 1,
  "AcquisitionTime": "15:41:1.867500",
  "BandwidthPerPixelPhaseEncode": 17.17,
  "BaseResolution": 104,
  "BodyPartExamined": "BRAIN",
  "CoilCombinationMethod": "Sum of Squares",
  "ConsistencyInfo": "N4_VE11C_LATEST_20160120",
  "ConversionSoftware": "dcm2niix",
  "ConversionSoftwareVersion": "v1.0.20220505",
  "DerivedVendorReportedEchoSpacing": 0.000560011,
  "DeviceSerialNumber": "167006",
  "DwellTime": 2.1e-06,
  "EchoTime": 0.037,
  "EchoTime1": 0.037,
  "EchoTime2": 0.001,
  "EchoTrainLength": 104,
  "EffectiveEchoSpacing": 0.000560011,
  "FlipAngle": 52,
  "HeudiconvVersion": "0.5.3.post811+g6206e14",
  "ImageComments": "Unaliased MB4/PE3/LB",
  "ImageOrientationPatientDICOM": [0.998976, 0.00436785, 0.0450351, 0.018658, 0.866997, -0.497963],
  "ImageOrientationText": "Tra>Cor(-29.9)>Sag(2.4)",
  "ImageType": [
    "ORIGINAL",
    "PRIMARY",
    "P",
    "MB",
    "ND",
    "MOSAIC",
    "PHASE"
],
  "ImagingFrequency": 123.26,
  "InPlanePhaseEncodingDirectionDICOM": "COL",
  "InstitutionAddress": "Chemin Queen-Mary 4565,Montreal,District,CA,H3W 1W5",
  "InstitutionName": "IUGM",
  "InstitutionalDepartmentName": "Department",
  "MRAcquisitionType": "2D",
  "MagneticFieldStrength": 3,
  "Manufacturer": "Siemens",
  "ManufacturersModelName": "Prisma_fit",
  "MatrixCoilMode": "SENSE",
  "Modality": "MR",
  "MultibandAccelerationFactor": 4,
  "PartialFourier": 1,
  "PatientPosition": "HFS",
  "PercentPhaseFOV": 100,
  "PercentSampling": 100,
  "PhaseEncodingDirection": "j",
  "PhaseEncodingSteps": 104,
  "PhaseResolution": 1,
  "PixelBandwidth": 2290,
  "ProcedureStepDescription": "games^mario3",
  "ProtocolName": "func_task-mario3_run-01",
  "PulseSequenceDetails": "%CustomerSeq%\\cmrr_mbep2d_bold",
  "ReceiveCoilActiveElements": "HC1-7;NC1,2",
  "ReceiveCoilName": "HeadNeck_64",
  "ReconMatrixPE": 104,
  "RepetitionTime": 1.49,
  "SAR": 0.0476098,
  "ScanOptions": "FS",
  "ScanningSequence": "EP",
  "SequenceName": "epfid2d1_104",
  "SequenceVariant": "SK\\SS",
  "SeriesDescription": "func_task-mario3_run-01",
  "SeriesNumber": 11,
  "ShimSetting": [609, -7197, -8842, 267, 17, -136, -37, 47],
  "SliceThickness": 2,
  "SliceTiming": [0, 0.7825, 0.0975, 0.88, 0.195, 0.98, 0.2925, 1.0775, 0.3925, 1.175, 0.49, 1.2725, 0.5875, 1.37, 0.685, 0, 0.7825, 0.0975, 0.88, 0.195, 0.98, 0.2925, 1.0775, 0.3925, 1.175, 0.49, 1.2725, 0.5875, 1.37, 0.685, 0, 0.7825, 0.0975, 0.88, 0.195, 0.98, 0.2925, 1.0775, 0.3925, 1.175, 0.49, 1.2725, 0.5875, 1.37, 0.685, 0, 0.7825, 0.0975, 0.88, 0.195, 0.98, 0.2925, 1.0775, 0.3925, 1.175, 0.49, 1.2725, 0.5875, 1.37, 0.685],
  "SoftwareVersions": "syngo MR E11",
  "SpacingBetweenSlices": 2,
  "StationName": "MRC35049",
  "TaskName": "mario3",
  "TotalReadoutTime": 0.0576811,
  "TxRefAmp": 255.929,
  "WipMemBlock": "c4f4adcf-733d-4e59-a650-d74ba1424a54||Sequence: R017 ve11c/master r/75a17815+; Jun 28 2022 16:32:11 by eja",
  "dcmmeta_affine": [
    [-1.9979517459869385, 0.03731606900691986, 0.08244072645902634, 103.4779052734375],
    [-0.008735701441764832, 1.7339946031570435, -0.9965872764587402, -51.00688171386719],
    [0.09007024765014648, 0.9959267377853394, 1.7320557832717896, -81.2717514038086],
    [0.0, 0.0, 0.0, 1.0]
],
  "dcmmeta_reorient_transform": [
    [0.0, -1.0, 0.0, 103.0],
    [1.0, 0.0, 0.0, 0.0],
    [0.0, 0.0, 1.0, 0.0],
    [0.0, 0.0, 0.0, 1.0]
],
  "dcmmeta_shape": [104, 104, 60, 303],
  "dcmmeta_slice_dim": 2,
  "dcmmeta_version": 0.6,
  "global": {
    "const": {
      "AcquisitionMatrix": [104, 0, 0, 104],
      "AngioFlag": "N",
      "BitsAllocated": 16,
      "BitsStored": 16,
      "BodyPartExamined": "BRAIN",
      "Columns": 832,
      "EchoNumbers": 1,
      "EchoTime": 37.0,
      "EchoTrainLength": 104,
      "FlipAngle": 52.0,
      "HighBit": 15,
      "ImageOrientationPatient": [0.99897585531251, 0.00436785049315, 0.04503512390017, 0.01865803532478, 0.86699733101836, -0.4979633578135],
      "ImagePositionPatient": [-848.15893522872, -761.94842241773, 351.04045321352],
      "ImageType": [
        "ORIGINAL",
        "PRIMARY",
        "P",
        "MB",
        "ND",
        "MOSAIC"
],
      "ImagedNucleus": "1H",
      "ImagingFrequency": 123.260181,
      "InPlanePhaseEncodingDirection": "COL",
      "LargestImagePixelValue": 4095,
      "MRAcquisitionType": "2D",
      "MagneticFieldStrength": 3.0,
      "Manufacturer": "SIEMENS",
      "ManufacturerModelName": "Prisma_fit",
      "Modality": "MR",
      "NumberOfAverages": 1.0,
      "NumberOfPhaseEncodingSteps": 104,
      "PercentPhaseFieldOfView": 100.0,
      "PercentSampling": 100.0,
      "PerformedProcedureStepStartTime": "151911.717000",
      "PhotometricInterpretation": "MONOCHROME2",
      "PixelBandwidth": 2290.0,
      "PixelRepresentation": 0,
      "PixelSpacing": [2.0, 2.0],
      "ProtocolName": "func_task-mario3_run-01",
      "RepetitionTime": 1490.0,
      "RescaleIntercept": -4096.0,
      "RescaleSlope": 2.0,
      "RescaleType": "US",
      "Rows": 832,
      "SAR": 0.04760983928548,
      "SamplesPerPixel": 1,
      "ScanOptions": "FS",
      "ScanningSequence": "EP",
      "SequenceName": "epfid2d1_104",
      "SequenceVariant": [
        "SK",
        "SS"
],
      "SeriesDescription": "func_task-mario3_run-01",
      "SeriesNumber": 11,
      "SeriesTime": "154210.894000",
      "SliceLocation": -40.701805237793,
      "SliceThickness": 2.0,
      "SmallestImagePixelValue": 0,
      "SoftwareVersions": "syngo MR E11",
      "SpacingBetweenSlices": 1.9999999971411,
      "SpecificCharacterSet": "ISO_IR 100",
      "StudyID": "1",
      "StudyTime": "151911.639000",
      "TransmitCoilName": "Body",
      "VariableFlipAngleFlag": "N",
      "WindowCenterWidthExplanation": "Algo1",
      "dBdt": 0.0},
    "slices": {}
  },
  "time": {
    "samples": {
      "AcquisitionNumber": [1, 2, 3, 4, 5, 6, 7, 8, 9, 10, 11, 12, 13, 14, 15, 16, 17, 18, 19, 20, 21, 22, 23, 24, 25, 26, 27, 28, 29, 30, 31, 32, 33, 34, 35, 36, 37, 38, 39, 40, 41, 42, 43, 44, 45, 46, 47, 48, 49, 50, 51, 52, 53, 54, 55, 56, 57, 58, 59, 60, 61, 62, 63, 64, 65, 66, 67, 68, 69, 70, 71, 72, 73, 74, 75, 76, 77, 78, 79, 80, 81, 82, 83, 84, 85, 86, 87, 88, 89, 90, 91, 92, 93, 94, 95, 96, 97, 98, 99, 100, 101, 102, 103, 104, 105, 106, 107, 108, 109, 110, 111, 112, 113, 114, 115, 116, 117, 118, 119, 120, 121, 122, 123, 124, 125, 126, 127, 128, 129, 130, 131, 132, 133, 134, 135, 136, 137, 138, 139, 140, 141, 142, 143, 144, 145, 146, 147, 148, 149, 150, 151, 152, 153, 154, 155, 156, 157, 158, 159, 160, 161, 162, 163, 164, 165, 166, 167, 168, 169, 170, 171, 172, 173, 174, 175, 176, 177, 178, 179, 180, 181, 182, 183, 184, 185, 186, 187, 188, 189, 190, 191, 192, 193, 194, 195, 196, 197, 198, 199, 200, 201, 202, 203, 204, 205, 206, 207, 208, 209, 210, 211, 212, 213, 214, 215, 216, 217, 218, 219, 220, 221, 222, 223, 224, 225, 226, 227, 228, 229, 230, 231, 232, 233, 234, 235, 236, 237, 238, 239, 240, 241, 242, 243, 244, 245, 246, 247, 248, 249, 250, 251, 252, 253, 254, 255, 256, 257, 258, 259, 260, 261, 262, 263, 264, 265, 266, 267, 268, 269, 270, 271, 272, 273, 274, 275, 276, 277, 278, 279, 280, 281, 282, 283, 284, 285, 286, 287, 288, 289, 290, 291, 292, 293, 294, 295, 296, 297, 298, 299, 300, 301, 302, 303],
      "AcquisitionTime": ["154101.867500", "154103.357500", "154104.847500", "154106.337500", "154107.827500", "154109.317500", "154110.807500", "154112.297500", "154113.787500", "154115.277500", "154116.767500", "154118.257500", "154119.747500", "154121.237500", "154122.727500", "154124.217500", "154125.707500", "154127.197500", "154128.687500", "154130.177500", "154131.667500", "154133.157500", "154134.647500", "154136.137500", "154137.627500", "154139.117500", "154140.607500", "154142.097500", "154143.587500", "154145.077500", "154146.567500", "154148.057500", "154149.547500", "154151.037500", "154152.527500", "154154.017500", "154155.507500", "154156.997500", "154158.487500", "154159.977500", "154201.467500", "154202.957500", "154204.447500", "154205.937500", "154207.427500", "154208.917500", "154210.407500", "154211.897500", "154213.387500", "154214.877500", "154216.367500", "154217.857500", "154219.347500", "154220.837500", "154222.327500", "154223.817500", "154225.307500", "154226.797500", "154228.287500", "154229.777500", "154231.267500", "154232.757500", "154234.247500", "154235.737500", "154237.227500", "154238.717500", "154240.207500", "154241.697500", "154243.187500", "154244.677500", "154246.167500", "154247.657500", "154249.147500", "154250.637500", "154252.127500", "154253.617500", "154255.107500", "154256.597500", "154258.087500", "154259.577500", "154301.067500", "154302.557500", "154304.047500", "154305.537500", "154307.027500", "154308.517500", "154310.007500", "154311.497500", "154312.987500", "154314.477500", "154315.967500", "154317.457500", "154318.947500", "154320.437500", "154321.927500", "154323.417500", "154324.907500", "154326.397500", "154327.887500", "154329.377500", "154330.867500", "154332.357500", "154333.847500", "154335.337500", "154336.827500", "154338.317500", "154339.807500", "154341.297500", "154342.787500", "154344.277500", "154345.767500", "154347.257500", "154348.747500", "154350.237500", "154351.727500", "154353.217500", "154354.707500", "154356.197500", "154357.687500", "154359.177500", "154400.667500", "154402.157500", "154403.647500", "154405.137500", "154406.627500", "154408.117500", "154409.607500", "154411.097500", "154412.587500", "154414.077500", "154415.567500", "154417.057500", "154418.547500", "154420.037500", "154421.527500", "154423.017500", "154424.507500", "154425.997500", "154427.487500", "154428.977500", "154430.467500", "154431.957500", "154433.447500", "154434.937500", "154436.427500", "154437.917500", "154439.407500", "154440.897500", "154442.387500", "154443.877500", "154445.367500", "154446.857500", "154448.347500", "154449.837500", "154451.327500", "154452.817500", "154454.307500", "154455.797500", "154457.287500", "154458.777500", "154500.267500", "154501.757500", "154503.247500", "154504.737500", "154506.227500", "154507.717500", "154509.207500", "154510.697500", "154512.187500", "154513.677500", "154515.167500", "154516.657500", "154518.147500", "154519.637500", "154521.127500", "154522.617500", "154524.107500", "154525.597500", "154527.087500", "154528.577500", "154530.067500", "154531.557500", "154533.047500", "154534.537500", "154536.027500", "154537.517500", "154539.007500", "154540.497500", "154541.987500", "154543.477500", "154544.967500", "154546.457500", "154547.947500", "154549.437500", "154550.927500", "154552.417500", "154553.907500", "154555.397500", "154556.887500", "154558.377500", "154559.867500", "154601.357500", "154602.847500", "154604.337500", "154605.827500", "154607.317500", "154608.807500", "154610.297500", "154611.787500", "154613.277500", "154614.767500", "154616.257500", "154617.747500", "154619.237500", "154620.727500", "154622.217500", "154623.707500", "154625.197500", "154626.687500", "154628.177500", "154629.667500", "154631.157500", "154632.647500", "154634.137500", "154635.627500", "154637.117500", "154638.607500", "154640.097500", "154641.587500", "154643.077500", "154644.567500", "154646.057500", "154647.547500", "154649.037500", "154650.527500", "154652.017500", "154653.507500", "154654.997500", "154656.487500", "154657.977500", "154659.467500", "154700.957500", "154702.447500", "154703.937500", "154705.427500", "154706.917500", "154708.407500", "154709.897500", "154711.387500", "154712.877500", "154714.367500", "154715.857500", "154717.347500", "154718.837500", "154720.327500", "154721.817500", "154723.307500", "154724.797500", "154726.287500", "154727.777500", "154729.267500", "154730.757500", "154732.247500", "154733.737500", "154735.227500", "154736.717500", "154738.207500", "154739.697500", "154741.187500", "154742.677500", "154744.167500", "154745.657500", "154747.147500", "154748.637500", "154750.127500", "154751.617500", "154753.107500", "154754.597500", "154756.087500", "154757.577500", "154759.067500", "154800.557500", "154802.047500", "154803.537500", "154805.027500", "154806.517500", "154808.007500", "154809.497500", "154810.987500", "154812.477500", "154813.967500", "154815.457500", "154816.947500", "154818.437500", "154819.927500", "154821.417500", "154822.907500", "154824.397500", "154825.887500", "154827.377500", "154828.867500", "154830.357500", "154831.847500"],
      "ContentTime": ["154210.896000", "154210.899000", "154210.901000", "154210.904000", "154210.906000", "154210.909000", "154210.911000", "154210.914000", "154210.916000", "154210.919000", "154210.921000", "154210.924000", "154210.926000", "154210.929000", "154210.931000", "154210.934000", "154210.936000", "154210.939000", "154210.941000", "154210.944000", "154230.865000", "154230.868000", "154230.870000", "154230.873000", "154230.875000", "154230.878000", "154230.880000", "154230.883000", "154230.886000", "154230.888000", "154230.891000", "154230.893000", "154230.895000", "154230.898000", "154230.900000", "154230.903000", "154230.905000", "154230.908000", "154230.910000", "154230.913000", "154250.852000", "154250.855000", "154250.858000", "154250.860000", "154250.863000", "154250.865000", "154250.868000", "154250.870000", "154250.873000", "154250.875000", "154250.878000", "154250.881000", "154250.890000", "154250.900000", "154250.903000", "154250.905000", "154250.908000", "154250.910000", "154250.913000", "154250.915000", "154310.857000", "154310.860000", "154310.863000", "154310.865000", "154310.868000", "154310.870000", "154310.873000", "154310.875000", "154310.878000", "154310.880000", "154310.883000", "154310.885000", "154310.888000", "154310.890000", "154310.893000", "154310.895000", "154310.898000", "154310.900000", "154310.903000", "154310.905000", "154350.918000", "154350.921000", "154350.923000", "154350.926000", "154350.928000", "154350.931000", "154350.933000", "154350.936000", "154350.938000", "154350.941000", "154350.943000", "154350.946000", "154350.948000", "154350.951000", "154350.954000", "154350.964000", "154350.966000", "154350.969000", "154350.971000", "154350.974000", "154350.976000", "154350.979000", "154350.981000", "154350.984000", "154350.986000", "154350.989000", "154350.991000", "154350.994000", "154350.996000", "154351.000000", "154351.002000", "154351.005000", "154351.008000", "154410.830000", "154410.833000", "154410.835000", "154410.838000", "154410.840000", "154410.843000", "154410.846000", "154410.848000", "154410.851000", "154410.853000", "154410.856000", "154410.858000", "154410.861000", "154450.901000", "154450.904000", "154450.906000", "154450.909000", "154450.912000", "154450.914000", "154450.917000", "154450.919000", "154450.922000", "154450.924000", "154450.927000", "154450.929000", "154450.932000", "154450.934000", "154450.937000", "154450.939000", "154450.942000", "154450.945000", "154450.947000", "154450.950000", "154450.952000", "154450.955000", "154450.957000", "154450.960000", "154450.962000", "154450.965000", "154450.967000", "154530.891000", "154530.894000", "154530.896000", "154530.899000", "154530.902000", "154530.904000", "154530.907000", "154530.909000", "154530.912000", "154530.914000", "154530.917000", "154530.919000", "154530.922000", "154530.924000", "154530.927000", "154530.929000", "154530.932000", "154530.934000", "154530.937000", "154530.939000", "154530.942000", "154530.945000", "154530.947000", "154530.950000", "154530.952000", "154530.955000", "154530.957000", "154610.962000", "154610.965000", "154610.968000", "154610.970000", "154610.973000", "154610.975000", "154610.978000", "154610.980000", "154610.983000", "154610.986000", "154610.988000", "154610.991000", "154610.993000", "154610.996000", "154610.998000", "154611.002000", "154611.004000", "154611.007000", "154611.009000", "154611.012000", "154611.014000", "154611.017000", "154611.019000", "154611.022000", "154611.024000", "154611.032000", "154650.913000", "154650.916000", "154650.919000", "154650.921000", "154650.924000", "154650.926000", "154650.929000", "154650.931000", "154650.934000", "154650.936000", "154650.939000", "154650.941000", "154650.944000", "154650.947000", "154650.949000", "154650.952000", "154650.954000", "154650.957000", "154650.959000", "154650.962000", "154650.964000", "154650.967000", "154650.970000", "154650.972000", "154650.975000", "154650.977000", "154650.980000", "154730.898000", "154730.901000", "154730.903000", "154730.906000", "154730.908000", "154730.911000", "154730.913000", "154730.916000", "154730.918000", "154730.921000", "154730.923000", "154730.926000", "154730.928000", "154730.931000", "154730.934000", "154730.936000", "154730.939000", "154730.941000", "154730.944000", "154730.946000", "154730.949000", "154730.951000", "154730.954000", "154730.956000", "154730.959000", "154730.961000", "154730.964000", "154810.902000", "154810.904000", "154810.907000", "154810.909000", "154810.912000", "154810.914000", "154810.917000", "154810.919000", "154810.922000", "154810.925000", "154810.927000", "154810.930000", "154810.932000", "154810.935000", "154810.937000", "154810.940000", "154810.942000", "154810.945000", "154810.947000", "154810.950000", "154810.952000", "154810.955000", "154810.957000", "154810.960000", "154810.963000", "154810.965000", "154810.968000", "154834.744000", "154834.747000", "154834.753000", "154834.755000", "154834.759000", "154834.761000", "154834.764000", "154834.767000", "154834.770000", "154834.773000", "154834.776000", "154834.778000", "154834.781000", "154834.784000", "154834.787000", "154834.790000"],
      "InstanceCreationTime": ["154210.896000", "154210.899000", "154210.901000", "154210.904000", "154210.906000", "154210.909000", "154210.911000", "154210.914000", "154210.916000", "154210.919000", "154210.921000", "154210.924000", "154210.926000", "154210.929000", "154210.931000", "154210.934000", "154210.936000", "154210.939000", "154210.941000", "154210.944000", "154230.865000", "154230.868000", "154230.870000", "154230.873000", "154230.875000", "154230.878000", "154230.880000", "154230.883000", "154230.886000", "154230.888000", "154230.891000", "154230.893000", "154230.895000", "154230.898000", "154230.900000", "154230.903000", "154230.905000", "154230.908000", "154230.910000", "154230.913000", "154250.852000", "154250.855000", "154250.858000", "154250.860000", "154250.863000", "154250.865000", "154250.868000", "154250.870000", "154250.873000", "154250.875000", "154250.878000", "154250.881000", "154250.890000", "154250.900000", "154250.903000", "154250.905000", "154250.908000", "154250.910000", "154250.913000", "154250.915000", "154310.857000", "154310.860000", "154310.863000", "154310.865000", "154310.868000", "154310.870000", "154310.873000", "154310.875000", "154310.878000", "154310.880000", "154310.883000", "154310.885000", "154310.888000", "154310.890000", "154310.893000", "154310.895000", "154310.898000", "154310.900000", "154310.903000", "154310.905000", "154350.918000", "154350.921000", "154350.923000", "154350.926000", "154350.928000", "154350.931000", "154350.933000", "154350.936000", "154350.938000", "154350.941000", "154350.943000", "154350.946000", "154350.948000", "154350.951000", "154350.954000", "154350.964000", "154350.966000", "154350.969000", "154350.971000", "154350.974000", "154350.976000", "154350.979000", "154350.981000", "154350.984000", "154350.986000", "154350.989000", "154350.991000", "154350.994000", "154350.996000", "154351.000000", "154351.002000", "154351.005000", "154351.008000", "154410.830000", "154410.833000", "154410.835000", "154410.838000", "154410.840000", "154410.843000", "154410.846000", "154410.848000", "154410.851000", "154410.853000", "154410.856000", "154410.858000", "154410.861000", "154450.901000", "154450.904000", "154450.906000", "154450.909000", "154450.912000", "154450.914000", "154450.917000", "154450.919000", "154450.922000", "154450.924000", "154450.927000", "154450.929000", "154450.932000", "154450.934000", "154450.937000", "154450.939000", "154450.942000", "154450.945000", "154450.947000", "154450.950000", "154450.952000", "154450.955000", "154450.957000", "154450.960000", "154450.962000", "154450.965000", "154450.967000", "154530.891000", "154530.894000", "154530.896000", "154530.899000", "154530.902000", "154530.904000", "154530.907000", "154530.909000", "154530.912000", "154530.914000", "154530.917000", "154530.919000", "154530.922000", "154530.924000", "154530.927000", "154530.929000", "154530.932000", "154530.934000", "154530.937000", "154530.939000", "154530.942000", "154530.945000", "154530.947000", "154530.950000", "154530.952000", "154530.955000", "154530.957000", "154610.962000", "154610.965000", "154610.968000", "154610.970000", "154610.973000", "154610.975000", "154610.978000", "154610.980000", "154610.983000", "154610.986000", "154610.988000", "154610.991000", "154610.993000", "154610.996000", "154610.998000", "154611.002000", "154611.004000", "154611.007000", "154611.009000", "154611.012000", "154611.014000", "154611.017000", "154611.019000", "154611.022000", "154611.024000", "154611.032000", "154650.913000", "154650.916000", "154650.919000", "154650.921000", "154650.924000", "154650.926000", "154650.929000", "154650.931000", "154650.934000", "154650.936000", "154650.939000", "154650.941000", "154650.944000", "154650.947000", "154650.949000", "154650.952000", "154650.954000", "154650.957000", "154650.959000", "154650.962000", "154650.964000", "154650.967000", "154650.970000", "154650.972000", "154650.975000", "154650.977000", "154650.980000", "154730.898000", "154730.901000", "154730.903000", "154730.906000", "154730.908000", "154730.911000", "154730.913000", "154730.916000", "154730.918000", "154730.921000", "154730.923000", "154730.926000", "154730.928000", "154730.931000", "154730.934000", "154730.936000", "154730.939000", "154730.941000", "154730.944000", "154730.946000", "154730.949000", "154730.951000", "154730.954000", "154730.956000", "154730.959000", "154730.961000", "154730.964000", "154810.902000", "154810.904000", "154810.907000", "154810.909000", "154810.912000", "154810.914000", "154810.917000", "154810.919000", "154810.922000", "154810.925000", "154810.927000", "154810.930000", "154810.932000", "154810.935000", "154810.937000", "154810.940000", "154810.942000", "154810.945000", "154810.947000", "154810.950000", "154810.952000", "154810.955000", "154810.957000", "154810.960000", "154810.963000", "154810.965000", "154810.968000", "154834.744000", "154834.747000", "154834.753000", "154834.755000", "154834.759000", "154834.761000", "154834.764000", "154834.767000", "154834.770000", "154834.773000", "154834.776000", "154834.778000", "154834.781000", "154834.784000", "154834.787000", "154834.790000"],
      "InstanceNumber": [1, 2, 3, 4, 5, 6, 7, 8, 9, 10, 11, 12, 13, 14, 15, 16, 17, 18, 19, 20, 21, 22, 23, 24, 25, 26, 27, 28, 29, 30, 31, 32, 33, 34, 35, 36, 37, 38, 39, 40, 41, 42, 43, 44, 45, 46, 47, 48, 49, 50, 51, 52, 53, 54, 55, 56, 57, 58, 59, 60, 61, 62, 63, 64, 65, 66, 67, 68, 69, 70, 71, 72, 73, 74, 75, 76, 77, 78, 79, 80, 81, 82, 83, 84, 85, 86, 87, 88, 89, 90, 91, 92, 93, 94, 95, 96, 97, 98, 99, 100, 101, 102, 103, 104, 105, 106, 107, 108, 109, 110, 111, 112, 113, 114, 115, 116, 117, 118, 119, 120, 121, 122, 123, 124, 125, 126, 127, 128, 129, 130, 131, 132, 133, 134, 135, 136, 137, 138, 139, 140, 141, 142, 143, 144, 145, 146, 147, 148, 149, 150, 151, 152, 153, 154, 155, 156, 157, 158, 159, 160, 161, 162, 163, 164, 165, 166, 167, 168, 169, 170, 171, 172, 173, 174, 175, 176, 177, 178, 179, 180, 181, 182, 183, 184, 185, 186, 187, 188, 189, 190, 191, 192, 193, 194, 195, 196, 197, 198, 199, 200, 201, 202, 203, 204, 205, 206, 207, 208, 209, 210, 211, 212, 213, 214, 215, 216, 217, 218, 219, 220, 221, 222, 223, 224, 225, 226, 227, 228, 229, 230, 231, 232, 233, 234, 235, 236, 237, 238, 239, 240, 241, 242, 243, 244, 245, 246, 247, 248, 249, 250, 251, 252, 253, 254, 255, 256, 257, 258, 259, 260, 261, 262, 263, 264, 265, 266, 267, 268, 269, 270, 271, 272, 273, 274, 275, 276, 277, 278, 279, 280, 281, 282, 283, 284, 285, 286, 287, 288, 289, 290, 291, 292, 293, 294, 295, 296, 297, 298, 299, 300, 301, 302, 303],
      "WindowCenter": [4912.0, 4918.0, 4914.0, 4938.0, 4916.0, 4930.0, 4924.0, 4926.0, 4922.0, 4898.0, 4892.0, 4894.0, 4910.0, 4912.0, 4890.0, 4888.0, 4890.0, 4914.0, 4930.0, 4900.0, 4886.0, 4852.0, 4886.0, 4894.0, 4882.0, 4888.0, 4884.0, 4884.0, 4888.0, 4904.0, 4900.0, 4894.0, 4894.0, 4922.0, 4902.0, 4922.0, 4912.0, 4914.0, 4912.0, 4918.0, 4928.0, 4918.0, 4916.0, 4912.0, 4928.0, 4932.0, 4926.0, 4934.0, 4924.0, 4934.0, 4928.0, 4934.0, 4930.0, 4936.0, 4934.0, 4940.0, 4936.0, 4934.0, 4934.0, 4926.0, 4926.0, 4890.0, 4900.0, 4906.0, 4912.0, 4916.0, 4916.0, 4918.0, 4938.0, 4932.0, 4932.0, 4918.0, 4924.0, 4926.0, 4930.0, 4938.0, 4936.0, 4934.0, 4938.0, 4936.0, 4934.0, 4934.0, 4934.0, 4936.0, 4934.0, 4888.0, 4888.0, 4894.0, 4902.0, 4906.0, 4910.0, 4886.0, 4906.0, 4908.0, 4906.0, 4900.0, 4892.0, 4892.0, 4894.0, 4934.0, 4932.0, 4930.0, 4928.0, 4912.0, 4932.0, 4928.0, 4934.0, 4934.0, 4932.0, 4930.0, 4930.0, 4926.0, 4928.0, 4924.0, 4926.0, 4936.0, 4938.0, 4918.0, 4934.0, 4930.0, 4928.0, 4922.0, 4922.0, 4928.0, 4924.0, 4936.0, 4926.0, 4936.0, 4934.0, 4914.0, 4936.0, 4934.0, 4930.0, 4930.0, 4924.0, 4924.0, 4924.0, 4930.0, 4930.0, 4928.0, 4936.0, 4936.0, 4934.0, 4932.0, 4934.0, 4936.0, 4930.0, 4932.0, 4932.0, 4924.0, 4926.0, 4928.0, 4930.0, 4930.0, 4930.0, 4924.0, 4926.0, 4930.0, 4934.0, 4916.0, 4926.0, 4918.0, 4922.0, 4930.0, 4936.0, 4940.0, 4936.0, 4934.0, 4928.0, 4928.0, 4922.0, 4926.0, 4932.0, 4932.0, 4936.0, 4934.0, 4934.0, 4936.0, 4936.0, 4930.0, 4934.0, 4930.0, 4930.0, 4930.0, 4928.0, 4922.0, 4926.0, 4884.0, 4920.0, 4938.0, 4920.0, 4940.0, 4916.0, 4936.0, 4934.0, 4926.0, 4900.0, 4896.0, 4898.0, 4932.0, 4936.0, 4936.0, 4932.0, 4900.0, 4932.0, 4932.0, 4934.0, 4938.0, 4936.0, 4932.0, 4926.0, 4928.0, 4934.0, 4920.0, 4896.0, 4924.0, 4932.0, 4928.0, 4942.0, 4912.0, 4934.0, 4916.0, 4932.0, 4932.0, 4930.0, 4924.0, 4918.0, 4886.0, 4894.0, 4928.0, 4890.0, 4898.0, 4904.0, 4906.0, 4906.0, 4908.0, 4906.0, 4914.0, 4938.0, 4940.0, 4922.0, 4922.0, 4886.0, 4896.0, 4920.0, 4926.0, 4930.0, 4926.0, 4934.0, 4932.0, 4916.0, 4938.0, 4940.0, 4926.0, 4934.0, 4922.0, 4922.0, 4926.0, 4928.0, 4934.0, 4938.0, 4934.0, 4928.0, 4926.0, 4932.0, 4938.0, 4938.0, 4938.0, 4938.0, 4930.0, 4928.0, 4928.0, 4922.0, 4920.0, 4926.0, 4932.0, 4928.0, 4940.0, 4934.0, 4936.0, 4932.0, 4938.0, 4928.0, 4932.0, 4934.0, 4928.0, 4926.0, 4932.0, 4934.0, 4932.0, 4936.0, 4930.0, 4934.0, 4926.0, 4934.0, 4928.0, 4932.0, 4934.0, 4926.0, 4932.0, 4930.0, 4930.0, 4934.0],
      "WindowWidth": [18712.0, 18706.0, 18704.0, 18738.0, 18710.0, 18746.0, 18752.0, 18746.0, 18754.0, 18722.0, 18722.0, 18710.0, 18698.0, 18690.0, 18646.0, 18642.0, 18648.0, 18696.0, 18742.0, 18716.0, 18726.0, 18694.0, 18732.0, 18710.0, 18670.0, 18654.0, 18640.0, 18644.0, 18660.0, 18700.0, 18706.0, 18714.0, 18722.0, 18752.0, 18716.0, 18748.0, 18702.0, 18708.0, 18706.0, 18712.0, 18748.0, 18704.0, 18708.0, 18704.0, 18746.0, 18748.0, 18752.0, 18742.0, 18748.0, 18750.0, 18752.0, 18746.0, 18750.0, 18744.0, 18744.0, 18746.0, 18742.0, 18742.0, 18748.0, 18750.0, 18756.0, 18724.0, 18716.0, 18718.0, 18706.0, 18708.0, 18694.0, 18702.0, 18744.0, 18756.0, 18754.0, 18754.0, 18750.0, 18750.0, 18752.0, 18744.0, 18748.0, 18748.0, 18746.0, 18748.0, 18744.0, 18744.0, 18754.0, 18748.0, 18750.0, 18728.0, 18718.0, 18716.0, 18710.0, 18702.0, 18696.0, 18662.0, 18700.0, 18698.0, 18714.0, 18718.0, 18716.0, 18718.0, 18724.0, 18750.0, 18742.0, 18744.0, 18748.0, 18710.0, 18744.0, 18748.0, 18746.0, 18742.0, 18744.0, 18754.0, 18748.0, 18748.0, 18748.0, 18752.0, 18754.0, 18742.0, 18742.0, 18708.0, 18742.0, 18752.0, 18750.0, 18756.0, 18754.0, 18750.0, 18756.0, 18752.0, 18748.0, 18748.0, 18738.0, 18696.0, 18740.0, 18744.0, 18750.0, 18750.0, 18748.0, 18758.0, 18752.0, 18756.0, 18748.0, 18750.0, 18746.0, 18742.0, 18748.0, 18748.0, 18750.0, 18748.0, 18746.0, 18748.0, 18750.0, 18742.0, 18746.0, 18744.0, 18742.0, 18744.0, 18756.0, 18752.0, 18754.0, 18746.0, 18740.0, 18712.0, 18756.0, 18756.0, 18752.0, 18746.0, 18746.0, 18738.0, 18748.0, 18748.0, 18750.0, 18750.0, 18756.0, 18754.0, 18748.0, 18750.0, 18752.0, 18748.0, 18746.0, 18752.0, 18744.0, 18744.0, 18752.0, 18754.0, 18750.0, 18754.0, 18748.0, 18746.0, 18750.0, 18724.0, 18750.0, 18740.0, 18706.0, 18738.0, 18696.0, 18742.0, 18748.0, 18752.0, 18722.0, 18720.0, 18720.0, 18754.0, 18752.0, 18744.0, 18750.0, 18722.0, 18742.0, 18746.0, 18750.0, 18736.0, 18742.0, 18746.0, 18754.0, 18752.0, 18754.0, 18756.0, 18718.0, 18750.0, 18744.0, 18752.0, 18742.0, 18710.0, 18742.0, 18706.0, 18740.0, 18752.0, 18754.0, 18756.0, 18758.0, 18726.0, 18724.0, 18750.0, 18720.0, 18714.0, 18710.0, 18704.0, 18702.0, 18702.0, 18704.0, 18688.0, 18742.0, 18740.0, 18756.0, 18754.0, 18724.0, 18730.0, 18750.0, 18752.0, 18752.0, 18750.0, 18752.0, 18742.0, 18698.0, 18736.0, 18746.0, 18752.0, 18756.0, 18756.0, 18754.0, 18758.0, 18760.0, 18752.0, 18742.0, 18746.0, 18748.0, 18750.0, 18754.0, 18742.0, 18736.0, 18740.0, 18746.0, 18752.0, 18756.0, 18754.0, 18754.0, 18752.0, 18752.0, 18752.0, 18748.0, 18750.0, 18744.0, 18752.0, 18750.0, 18748.0, 18748.0, 18756.0, 18752.0, 18756.0, 18754.0, 18746.0, 18748.0, 18750.0, 18754.0, 18746.0, 18746.0, 18754.0, 18754.0, 18754.0, 18754.0, 18748.0, 18748.0, 18746.0, 18750.0, 18746.0, 18748.0]
    },
    "slices": {}
  }
}