{
  "AcquisitionMatrixPE": 104,
  "AcquisitionNumber": 1,
  "AcquisitionTime": "15:52:14.575000",
  "BandwidthPerPixelPhaseEncode": 17.17,
  "BaseResolution": 104,
  "BodyPartExamined": "BRAIN",
  "CoilCombinationMethod": "Sum of Squares",
  "ConsistencyInfo": "N4_VE11C_LATEST_20160120",
  "ConversionSoftware": "dcm2niix",
  "ConversionSoftwareVersion": "v1.0.20220505",
  "DerivedVendorReportedEchoSpacing": 0.000560011,
  "DeviceSerialNumber": "167006",
  "DwellTime": 2.1e-06,
  "EchoTime": 0.037,
  "EchoTrainLength": 104,
  "EffectiveEchoSpacing": 0.000560011,
  "FlipAngle": 52,
  "HeudiconvVersion": "0.5.3.post811+g6206e14",
  "ImageComments": "Unaliased MB4/PE3/LB",
  "ImageOrientationPatientDICOM": [0.998976, 0.00436785, 0.0450351, 0.018658, 0.866997, -0.497963],
  "ImageOrientationText": "Tra>Cor(-29.9)>Sag(2.4)",
  "ImageType": [
    "ORIGINAL",
    "PRIMARY",
    "M",
    "MB",
    "ND",
    "MOSAIC"
],
  "ImagingFrequency": 123.26,
  "InPlanePhaseEncodingDirectionDICOM": "COL",
  "InstitutionAddress": "Chemin Queen-Mary 4565,Montreal,District,CA,H3W 1W5",
  "InstitutionName": "IUGM",
  "InstitutionalDepartmentName": "Department",
  "MRAcquisitionType": "2D",
  "MagneticFieldStrength": 3,
  "Manufacturer": "Siemens",
  "ManufacturersModelName": "Prisma_fit",
  "MatrixCoilMode": "SENSE",
  "Modality": "MR",
  "MultibandAccelerationFactor": 4,
  "PartialFourier": 1,
  "PatientPosition": "HFS",
  "PercentPhaseFOV": 100,
  "PercentSampling": 100,
  "PhaseEncodingDirection": "j",
  "PhaseEncodingSteps": 104,
  "PhaseResolution": 1,
  "PixelBandwidth": 2290,
  "ProcedureStepDescription": "games^mario3",
  "ProtocolName": "func_task-mario3_run-02",
  "PulseSequenceDetails": "%CustomerSeq%\\cmrr_mbep2d_bold",
  "ReceiveCoilActiveElements": "HC1-7;NC1,2",
  "ReceiveCoilName": "HeadNeck_64",
  "ReconMatrixPE": 104,
  "RepetitionTime": 1.49,
  "SAR": 0.0476098,
  "ScanOptions": "FS",
  "ScanningSequence": "EP",
  "SequenceName": "epfid2d1_104",
  "SequenceVariant": "SK\\SS",
  "SeriesDescription": "func_task-mario3_run-02",
  "SeriesNumber": 13,
  "ShimSetting": [609, -7197, -8842, 267, 17, -136, -37, 47],
  "SliceThickness": 2,
  "SliceTiming": [0, 0.785, 0.0975, 0.8825, 0.195, 0.98, 0.295, 1.0775, 0.3925, 1.175, 0.49, 1.275, 0.5875, 1.3725, 0.685, 0, 0.785, 0.0975, 0.8825, 0.195, 0.98, 0.295, 1.0775, 0.3925, 1.175, 0.49, 1.275, 0.5875, 1.3725, 0.685, 0, 0.785, 0.0975, 0.8825, 0.195, 0.98, 0.295, 1.0775, 0.3925, 1.175, 0.49, 1.275, 0.5875, 1.3725, 0.685, 0, 0.785, 0.0975, 0.8825, 0.195, 0.98, 0.295, 1.0775, 0.3925, 1.175, 0.49, 1.275, 0.5875, 1.3725, 0.685],
  "SoftwareVersions": "syngo MR E11",
  "SpacingBetweenSlices": 2,
  "StationName": "MRC35049",
  "TaskName": "mario3",
  "TotalReadoutTime": 0.0576811,
  "TxRefAmp": 255.929,
  "WipMemBlock": "2d02dede-cccf-49c0-b052-43f2661bbbdc||Sequence: R017 ve11c/master r/75a17815+; Jun 28 2022 16:32:11 by eja",
  "dcmmeta_affine": [
    [-1.9979517459869385, 0.03731606900691986, 0.08244072645902634, 103.4779052734375],
    [-0.008735701441764832, 1.7339946031570435, -0.9965872764587402, -51.00688171386719],
    [0.09007024765014648, 0.9959267377853394, 1.7320557832717896, -81.2717514038086],
    [0.0, 0.0, 0.0, 1.0]
],
  "dcmmeta_reorient_transform": [
    [0.0, -1.0, 0.0, 103.0],
    [1.0, 0.0, 0.0, 0.0],
    [0.0, 0.0, 1.0, 0.0],
    [0.0, 0.0, 0.0, 1.0]
],
  "dcmmeta_shape": [104, 104, 60, 321],
  "dcmmeta_slice_dim": 2,
  "dcmmeta_version": 0.6,
  "global": {
    "const": {
      "AcquisitionMatrix": [104, 0, 0, 104],
      "AngioFlag": "N",
      "BitsAllocated": 16,
      "BitsStored": 16,
      "BodyPartExamined": "BRAIN",
      "Columns": 832,
      "EchoNumbers": 1,
      "EchoTime": 37.0,
      "EchoTrainLength": 104,
      "FlipAngle": 52.0,
      "HighBit": 15,
      "ImageOrientationPatient": [0.99897585531251, 0.00436785049315, 0.04503512390017, 0.01865803532478, 0.86699733101836, -0.4979633578135],
      "ImagePositionPatient": [-848.15893522872, -761.94842241773, 351.04045321352],
      "ImageType": [
        "ORIGINAL",
        "PRIMARY",
        "M",
        "MB",
        "ND",
        "MOSAIC"
],
      "ImagedNucleus": "1H",
      "ImagingFrequency": 123.260196,
      "InPlanePhaseEncodingDirection": "COL",
      "MRAcquisitionType": "2D",
      "MagneticFieldStrength": 3.0,
      "Manufacturer": "SIEMENS",
      "ManufacturerModelName": "Prisma_fit",
      "Modality": "MR",
      "NumberOfAverages": 1.0,
      "NumberOfPhaseEncodingSteps": 104,
      "PercentPhaseFieldOfView": 100.0,
      "PercentSampling": 100.0,
      "PerformedProcedureStepStartTime": "151911.717000",
      "PhotometricInterpretation": "MONOCHROME2",
      "PixelBandwidth": 2290.0,
      "PixelRepresentation": 0,
      "PixelSpacing": [2.0, 2.0],
      "ProtocolName": "func_task-mario3_run-02",
      "RepetitionTime": 1490.0,
      "Rows": 832,
      "SAR": 0.04760983928548,
      "SamplesPerPixel": 1,
      "ScanOptions": "FS",
      "ScanningSequence": "EP",
      "SequenceName": "epfid2d1_104",
      "SequenceVariant": [
        "SK",
        "SS"
],
      "SeriesDescription": "func_task-mario3_run-02",
      "SeriesNumber": 13,
      "SeriesTime": "155329.689000",
      "SliceLocation": -40.701805237793,
      "SliceThickness": 2.0,
      "SmallestImagePixelValue": 0,
      "SoftwareVersions": "syngo MR E11",
      "SpacingBetweenSlices": 1.9999999971411,
      "SpecificCharacterSet": "ISO_IR 100",
      "StudyID": "1",
      "StudyTime": "151911.639000",
      "TransmitCoilName": "Body",
      "VariableFlipAngleFlag": "N",
      "WindowCenterWidthExplanation": "Algo1",
      "dBdt": 0.0},
    "slices": {}
  },
  "time": {
    "samples": {
      "AcquisitionNumber": [1, 2, 3, 4, 5, 6, 7, 8, 9, 10, 11, 12, 13, 14, 15, 16, 17, 18, 19, 20, 21, 22, 23, 24, 25, 26, 27, 28, 29, 30, 31, 32, 33, 34, 35, 36, 37, 38, 39, 40, 41, 42, 43, 44, 45, 46, 47, 48, 49, 50, 51, 52, 53, 54, 55, 56, 57, 58, 59, 60, 61, 62, 63, 64, 65, 66, 67, 68, 69, 70, 71, 72, 73, 74, 75, 76, 77, 78, 79, 80, 81, 82, 83, 84, 85, 86, 87, 88, 89, 90, 91, 92, 93, 94, 95, 96, 97, 98, 99, 100, 101, 102, 103, 104, 105, 106, 107, 108, 109, 110, 111, 112, 113, 114, 115, 116, 117, 118, 119, 120, 121, 122, 123, 124, 125, 126, 127, 128, 129, 130, 131, 132, 133, 134, 135, 136, 137, 138, 139, 140, 141, 142, 143, 144, 145, 146, 147, 148, 149, 150, 151, 152, 153, 154, 155, 156, 157, 158, 159, 160, 161, 162, 163, 164, 165, 166, 167, 168, 169, 170, 171, 172, 173, 174, 175, 176, 177, 178, 179, 180, 181, 182, 183, 184, 185, 186, 187, 188, 189, 190, 191, 192, 193, 194, 195, 196, 197, 198, 199, 200, 201, 202, 203, 204, 205, 206, 207, 208, 209, 210, 211, 212, 213, 214, 215, 216, 217, 218, 219, 220, 221, 222, 223, 224, 225, 226, 227, 228, 229, 230, 231, 232, 233, 234, 235, 236, 237, 238, 239, 240, 241, 242, 243, 244, 245, 246, 247, 248, 249, 250, 251, 252, 253, 254, 255, 256, 257, 258, 259, 260, 261, 262, 263, 264, 265, 266, 267, 268, 269, 270, 271, 272, 273, 274, 275, 276, 277, 278, 279, 280, 281, 282, 283, 284, 285, 286, 287, 288, 289, 290, 291, 292, 293, 294, 295, 296, 297, 298, 299, 300, 301, 302, 303, 304, 305, 306, 307, 308, 309, 310, 311, 312, 313, 314, 315, 316, 317, 318, 319, 320, 321],
      "AcquisitionTime": ["155214.575000", "155216.065000", "155217.555000", "155219.045000", "155220.535000", "155222.025000", "155223.515000", "155225.005000", "155226.495000", "155227.985000", "155229.475000", "155230.965000", "155232.455000", "155233.945000", "155235.435000", "155236.925000", "155238.415000", "155239.905000", "155241.395000", "155242.885000", "155244.375000", "155245.865000", "155247.355000", "155248.845000", "155250.335000", "155251.825000", "155253.315000", "155254.805000", "155256.295000", "155257.785000", "155259.275000", "155300.765000", "155302.255000", "155303.745000", "155305.235000", "155306.725000", "155308.215000", "155309.705000", "155311.195000", "155312.685000", "155314.175000", "155315.665000", "155317.155000", "155318.645000", "155320.135000", "155321.625000", "155323.115000", "155324.605000", "155326.095000", "155327.585000", "155329.075000", "155330.565000", "155332.055000", "155333.545000", "155335.035000", "155336.525000", "155338.015000", "155339.505000", "155340.995000", "155342.485000", "155343.975000", "155345.465000", "155346.955000", "155348.445000", "155349.935000", "155351.425000", "155352.915000", "155354.405000", "155355.895000", "155357.385000", "155358.875000", "155400.365000", "155401.855000", "155403.345000", "155404.835000", "155406.325000", "155407.815000", "155409.305000", "155410.795000", "155412.285000", "155413.775000", "155415.265000", "155416.755000", "155418.245000", "155419.735000", "155421.225000", "155422.715000", "155424.205000", "155425.695000", "155427.185000", "155428.675000", "155430.165000", "155431.655000", "155433.145000", "155434.635000", "155436.125000", "155437.615000", "155439.105000", "155440.595000", "155442.085000", "155443.575000", "155445.065000", "155446.555000", "155448.045000", "155449.535000", "155451.025000", "155452.515000", "155454.005000", "155455.495000", "155456.985000", "155458.475000", "155459.965000", "155501.455000", "155502.945000", "155504.435000", "155505.925000", "155507.415000", "155508.905000", "155510.395000", "155511.885000", "155513.375000", "155514.865000", "155516.355000", "155517.845000", "155519.335000", "155520.825000", "155522.315000", "155523.805000", "155525.295000", "155526.785000", "155528.275000", "155529.765000", "155531.255000", "155532.745000", "155534.235000", "155535.725000", "155537.215000", "155538.705000", "155540.195000", "155541.685000", "155543.175000", "155544.665000", "155546.155000", "155547.645000", "155549.135000", "155550.625000", "155552.115000", "155553.605000", "155555.095000", "155556.585000", "155558.075000", "155559.565000", "155601.055000", "155602.545000", "155604.035000", "155605.525000", "155607.015000", "155608.505000", "155609.995000", "155611.485000", "155612.975000", "155614.465000", "155615.955000", "155617.445000", "155618.935000", "155620.425000", "155621.915000", "155623.405000", "155624.895000", "155626.385000", "155627.875000", "155629.365000", "155630.855000", "155632.345000", "155633.835000", "155635.325000", "155636.815000", "155638.305000", "155639.795000", "155641.285000", "155642.775000", "155644.265000", "155645.755000", "155647.245000", "155648.735000", "155650.225000", "155651.715000", "155653.205000", "155654.695000", "155656.185000", "155657.675000", "155659.165000", "155700.655000", "155702.145000", "155703.635000", "155705.125000", "155706.615000", "155708.105000", "155709.595000", "155711.085000", "155712.575000", "155714.065000", "155715.555000", "155717.045000", "155718.535000", "155720.025000", "155721.515000", "155723.005000", "155724.495000", "155725.985000", "155727.475000", "155728.965000", "155730.455000", "155731.945000", "155733.435000", "155734.925000", "155736.415000", "155737.905000", "155739.395000", "155740.885000", "155742.375000", "155743.865000", "155745.355000", "155746.845000", "155748.335000", "155749.825000", "155751.315000", "155752.805000", "155754.295000", "155755.785000", "155757.275000", "155758.765000", "155800.255000", "155801.745000", "155803.235000", "155804.725000", "155806.215000", "155807.705000", "155809.195000", "155810.685000", "155812.175000", "155813.665000", "155815.155000", "155816.645000", "155818.135000", "155819.625000", "155821.115000", "155822.605000", "155824.095000", "155825.585000", "155827.075000", "155828.565000", "155830.055000", "155831.545000", "155833.035000", "155834.525000", "155836.015000", "155837.505000", "155838.995000", "155840.485000", "155841.975000", "155843.465000", "155844.955000", "155846.445000", "155847.935000", "155849.425000", "155850.915000", "155852.405000", "155853.895000", "155855.385000", "155856.875000", "155858.365000", "155859.855000", "155901.345000", "155902.835000", "155904.325000", "155905.815000", "155907.305000", "155908.795000", "155910.285000", "155911.775000", "155913.265000", "155914.755000", "155916.245000", "155917.735000", "155919.225000", "155920.715000", "155922.205000", "155923.695000", "155925.185000", "155926.675000", "155928.165000", "155929.655000", "155931.145000", "155932.635000", "155934.125000", "155935.615000", "155937.105000", "155938.595000", "155940.085000", "155941.575000", "155943.065000", "155944.555000", "155946.045000", "155947.535000", "155949.025000", "155950.515000", "155952.005000", "155953.495000", "155954.985000", "155956.475000", "155957.965000", "155959.455000", "160000.945000", "160002.435000", "160003.925000", "160005.415000", "160006.905000", "160008.395000", "160009.885000", "160011.375000"],
      "ContentTime": ["155329.692000", "155329.696000", "155329.699000", "155329.702000", "155329.706000", "155329.709000", "155329.726000", "155329.729000", "155329.733000", "155329.736000", "155329.739000", "155329.743000", "155329.746000", "155329.749000", "155329.753000", "155329.756000", "155329.759000", "155329.762000", "155329.766000", "155329.769000", "155329.772000", "155329.776000", "155329.779000", "155329.783000", "155329.786000", "155329.789000", "155349.654000", "155349.658000", "155349.661000", "155349.665000", "155349.668000", "155349.671000", "155349.675000", "155349.678000", "155349.681000", "155349.692000", "155349.695000", "155349.699000", "155349.702000", "155349.705000", "155349.709000", "155349.712000", "155349.715000", "155349.719000", "155349.722000", "155349.725000", "155409.654000", "155409.658000", "155409.661000", "155409.664000", "155409.676000", "155409.680000", "155409.683000", "155409.686000", "155409.690000", "155409.697000", "155409.700000", "155409.704000", "155409.707000", "155409.710000", "155409.713000", "155409.717000", "155409.720000", "155409.723000", "155409.727000", "155409.730000", "155429.654000", "155429.658000", "155429.661000", "155429.665000", "155429.668000", "155429.671000", "155429.674000", "155429.678000", "155429.681000", "155429.684000", "155429.688000", "155429.691000", "155429.694000", "155429.698000", "155429.701000", "155429.704000", "155429.708000", "155429.711000", "155429.714000", "155429.718000", "155509.654000", "155509.658000", "155509.661000", "155509.664000", "155509.668000", "155509.671000", "155509.685000", "155509.689000", "155509.692000", "155509.695000", "155509.699000", "155509.702000", "155509.707000", "155509.710000", "155509.713000", "155509.717000", "155509.720000", "155509.723000", "155509.727000", "155509.737000", "155509.741000", "155509.744000", "155509.747000", "155509.751000", "155509.754000", "155509.757000", "155509.768000", "155509.771000", "155509.775000", "155509.778000", "155549.654000", "155549.658000", "155549.661000", "155549.665000", "155549.668000", "155549.671000", "155549.675000", "155549.678000", "155549.682000", "155549.685000", "155549.688000", "155549.692000", "155549.695000", "155549.698000", "155549.702000", "155549.705000", "155549.708000", "155549.712000", "155549.715000", "155549.718000", "155549.722000", "155549.725000", "155549.728000", "155549.732000", "155549.735000", "155549.738000", "155549.742000", "155629.654000", "155629.658000", "155629.661000", "155629.665000", "155629.668000", "155629.671000", "155629.675000", "155629.678000", "155629.681000", "155629.685000", "155629.688000", "155629.691000", "155629.695000", "155629.698000", "155629.701000", "155629.705000", "155629.708000", "155629.711000", "155629.715000", "155629.718000", "155629.721000", "155629.725000", "155629.728000", "155629.732000", "155629.735000", "155629.738000", "155629.742000", "155709.654000", "155709.658000", "155709.661000", "155709.665000", "155709.668000", "155709.671000", "155709.675000", "155709.678000", "155709.681000", "155709.685000", "155709.688000", "155709.691000", "155709.695000", "155709.698000", "155709.701000", "155709.705000", "155709.708000", "155709.711000", "155709.715000", "155709.718000", "155709.722000", "155709.725000", "155709.728000", "155709.732000", "155709.735000", "155709.738000", "155709.742000", "155749.654000", "155749.658000", "155749.661000", "155749.665000", "155749.668000", "155749.672000", "155749.675000", "155749.679000", "155749.682000", "155749.686000", "155749.689000", "155749.704000", "155749.708000", "155749.711000", "155749.714000", "155749.718000", "155749.721000", "155749.725000", "155749.728000", "155749.731000", "155749.735000", "155749.738000", "155749.742000", "155749.745000", "155749.748000", "155749.752000", "155749.755000", "155829.654000", "155829.658000", "155829.661000", "155829.665000", "155829.668000", "155829.671000", "155829.675000", "155829.678000", "155829.682000", "155829.685000", "155829.688000", "155829.692000", "155829.695000", "155829.706000", "155829.709000", "155829.713000", "155829.716000", "155829.720000", "155829.723000", "155829.726000", "155829.730000", "155829.733000", "155829.736000", "155829.740000", "155829.743000", "155829.746000", "155829.750000", "155909.654000", "155909.658000", "155909.661000", "155909.665000", "155909.668000", "155909.672000", "155909.675000", "155909.678000", "155909.682000", "155909.685000", "155909.688000", "155909.692000", "155909.695000", "155909.699000", "155909.702000", "155909.705000", "155909.709000", "155909.712000", "155909.716000", "155909.719000", "155909.723000", "155909.727000", "155909.733000", "155909.737000", "155909.741000", "155909.745000", "155949.654000", "155949.658000", "155949.661000", "155949.665000", "155949.668000", "155949.672000", "155949.675000", "155949.678000", "155949.682000", "155949.685000", "155949.688000", "155949.692000", "155949.695000", "155949.698000", "155949.702000", "155949.705000", "155949.708000", "155949.712000", "155949.715000", "155949.718000", "155949.722000", "155949.725000", "155949.728000", "155949.732000", "155949.750000", "155949.753000", "155949.757000", "160015.116000", "160015.120000", "160015.123000", "160015.127000", "160015.130000", "160015.133000", "160015.137000", "160015.140000", "160015.144000", "160015.147000", "160015.150000", "160015.154000", "160015.157000", "160015.160000", "160015.164000", "160015.167000", "160015.170000"],
      "InstanceCreationTime": ["155329.692000", "155329.696000", "155329.699000", "155329.702000", "155329.706000", "155329.709000", "155329.726000", "155329.729000", "155329.733000", "155329.736000", "155329.739000", "155329.743000", "155329.746000", "155329.749000", "155329.753000", "155329.756000", "155329.759000", "155329.762000", "155329.766000", "155329.769000", "155329.772000", "155329.776000", "155329.779000", "155329.783000", "155329.786000", "155329.789000", "155349.654000", "155349.658000", "155349.661000", "155349.665000", "155349.668000", "155349.671000", "155349.675000", "155349.678000", "155349.681000", "155349.692000", "155349.695000", "155349.699000", "155349.702000", "155349.705000", "155349.709000", "155349.712000", "155349.715000", "155349.719000", "155349.722000", "155349.725000", "155409.654000", "155409.658000", "155409.661000", "155409.664000", "155409.676000", "155409.680000", "155409.683000", "155409.686000", "155409.690000", "155409.697000", "155409.700000", "155409.704000", "155409.707000", "155409.710000", "155409.713000", "155409.717000", "155409.720000", "155409.723000", "155409.727000", "155409.730000", "155429.654000", "155429.658000", "155429.661000", "155429.665000", "155429.668000", "155429.671000", "155429.674000", "155429.678000", "155429.681000", "155429.684000", "155429.688000", "155429.691000", "155429.694000", "155429.698000", "155429.701000", "155429.704000", "155429.708000", "155429.711000", "155429.714000", "155429.718000", "155509.654000", "155509.658000", "155509.661000", "155509.664000", "155509.668000", "155509.671000", "155509.685000", "155509.689000", "155509.692000", "155509.695000", "155509.699000", "155509.702000", "155509.707000", "155509.710000", "155509.713000", "155509.717000", "155509.720000", "155509.723000", "155509.727000", "155509.737000", "155509.741000", "155509.744000", "155509.747000", "155509.751000", "155509.754000", "155509.757000", "155509.768000", "155509.771000", "155509.775000", "155509.778000", "155549.654000", "155549.658000", "155549.661000", "155549.665000", "155549.668000", "155549.671000", "155549.675000", "155549.678000", "155549.682000", "155549.685000", "155549.688000", "155549.692000", "155549.695000", "155549.698000", "155549.702000", "155549.705000", "155549.708000", "155549.712000", "155549.715000", "155549.718000", "155549.722000", "155549.725000", "155549.728000", "155549.732000", "155549.735000", "155549.738000", "155549.742000", "155629.654000", "155629.658000", "155629.661000", "155629.665000", "155629.668000", "155629.671000", "155629.675000", "155629.678000", "155629.681000", "155629.685000", "155629.688000", "155629.691000", "155629.695000", "155629.698000", "155629.701000", "155629.705000", "155629.708000", "155629.711000", "155629.715000", "155629.718000", "155629.721000", "155629.725000", "155629.728000", "155629.732000", "155629.735000", "155629.738000", "155629.742000", "155709.654000", "155709.658000", "155709.661000", "155709.665000", "155709.668000", "155709.671000", "155709.675000", "155709.678000", "155709.681000", "155709.685000", "155709.688000", "155709.691000", "155709.695000", "155709.698000", "155709.701000", "155709.705000", "155709.708000", "155709.711000", "155709.715000", "155709.718000", "155709.722000", "155709.725000", "155709.728000", "155709.732000", "155709.735000", "155709.738000", "155709.742000", "155749.654000", "155749.658000", "155749.661000", "155749.665000", "155749.668000", "155749.672000", "155749.675000", "155749.679000", "155749.682000", "155749.686000", "155749.689000", "155749.704000", "155749.708000", "155749.711000", "155749.714000", "155749.718000", "155749.721000", "155749.725000", "155749.728000", "155749.731000", "155749.735000", "155749.738000", "155749.742000", "155749.745000", "155749.748000", "155749.752000", "155749.755000", "155829.654000", "155829.658000", "155829.661000", "155829.665000", "155829.668000", "155829.671000", "155829.675000", "155829.678000", "155829.682000", "155829.685000", "155829.688000", "155829.692000", "155829.695000", "155829.706000", "155829.709000", "155829.713000", "155829.716000", "155829.720000", "155829.723000", "155829.726000", "155829.730000", "155829.733000", "155829.736000", "155829.740000", "155829.743000", "155829.746000", "155829.750000", "155909.654000", "155909.658000", "155909.661000", "155909.665000", "155909.668000", "155909.672000", "155909.675000", "155909.678000", "155909.682000", "155909.685000", "155909.688000", "155909.692000", "155909.695000", "155909.699000", "155909.702000", "155909.705000", "155909.709000", "155909.712000", "155909.716000", "155909.719000", "155909.723000", "155909.727000", "155909.733000", "155909.737000", "155909.741000", "155909.745000", "155949.654000", "155949.658000", "155949.661000", "155949.665000", "155949.668000", "155949.672000", "155949.675000", "155949.678000", "155949.682000", "155949.685000", "155949.688000", "155949.692000", "155949.695000", "155949.698000", "155949.702000", "155949.705000", "155949.708000", "155949.712000", "155949.715000", "155949.718000", "155949.722000", "155949.725000", "155949.728000", "155949.732000", "155949.750000", "155949.753000", "155949.757000", "160015.116000", "160015.120000", "160015.123000", "160015.127000", "160015.130000", "160015.133000", "160015.137000", "160015.140000", "160015.144000", "160015.147000", "160015.150000", "160015.154000", "160015.157000", "160015.160000", "160015.164000", "160015.167000", "160015.170000"],
      "InstanceNumber": [1, 2, 3, 4, 5, 6, 7, 8, 9, 10, 11, 12, 13, 14, 15, 16, 17, 18, 19, 20, 21, 22, 23, 24, 25, 26, 27, 28, 29, 30, 31, 32, 33, 34, 35, 36, 37, 38, 39, 40, 41, 42, 43, 44, 45, 46, 47, 48, 49, 50, 51, 52, 53, 54, 55, 56, 57, 58, 59, 60, 61, 62, 63, 64, 65, 66, 67, 68, 69, 70, 71, 72, 73, 74, 75, 76, 77, 78, 79, 80, 81, 82, 83, 84, 85, 86, 87, 88, 89, 90, 91, 92, 93, 94, 95, 96, 97, 98, 99, 100, 101, 102, 103, 104, 105, 106, 107, 108, 109, 110, 111, 112, 113, 114, 115, 116, 117, 118, 119, 120, 121, 122, 123, 124, 125, 126, 127, 128, 129, 130, 131, 132, 133, 134, 135, 136, 137, 138, 139, 140, 141, 142, 143, 144, 145, 146, 147, 148, 149, 150, 151, 152, 153, 154, 155, 156, 157, 158, 159, 160, 161, 162, 163, 164, 165, 166, 167, 168, 169, 170, 171, 172, 173, 174, 175, 176, 177, 178, 179, 180, 181, 182, 183, 184, 185, 186, 187, 188, 189, 190, 191, 192, 193, 194, 195, 196, 197, 198, 199, 200, 201, 202, 203, 204, 205, 206, 207, 208, 209, 210, 211, 212, 213, 214, 215, 216, 217, 218, 219, 220, 221, 222, 223, 224, 225, 226, 227, 228, 229, 230, 231, 232, 233, 234, 235, 236, 237, 238, 239, 240, 241, 242, 243, 244, 245, 246, 247, 248, 249, 250, 251, 252, 253, 254, 255, 256, 257, 258, 259, 260, 261, 262, 263, 264, 265, 266, 267, 268, 269, 270, 271, 272, 273, 274, 275, 276, 277, 278, 279, 280, 281, 282, 283, 284, 285, 286, 287, 288, 289, 290, 291, 292, 293, 294, 295, 296, 297, 298, 299, 300, 301, 302, 303, 304, 305, 306, 307, 308, 309, 310, 311, 312, 313, 314, 315, 316, 317, 318, 319, 320, 321],
      "LargestImagePixelValue": [44812, 43322, 43229, 42433, 42817, 41844, 44608, 43992, 42313, 42729, 42455, 44888, 43696, 42179, 43571, 43818, 44378, 43154, 44957, 44204, 41841, 42471, 43508, 42487, 42089, 41767, 42068, 45180, 43131, 41606, 41843, 43766, 42644, 43529, 41379, 42086, 41808, 45608, 42886, 42355, 41748, 43052, 42556, 41445, 42258, 44691, 42656, 42606, 41985, 44768, 42073, 44203, 46054, 43099, 41751, 41993, 41165, 41107, 41285, 46153, 43801, 41477, 42757, 42610, 43083, 41861, 44252, 45411, 46127, 45060, 44781, 41817, 42045, 44152, 44769, 43544, 42375, 43288, 41778, 43595, 42436, 44409, 42720, 42115, 42060, 43026, 43402, 41295, 43136, 46838, 43295, 41828, 43728, 44088, 43805, 42660, 41791, 41512, 41323, 42691, 44032, 44538, 46359, 45310, 43755, 41866, 42073, 43174, 44578, 41999, 42473, 41537, 42355, 41617, 42008, 41137, 41716, 41386, 41065, 41221, 41481, 41294, 41317, 41044, 42040, 41616, 41204, 40879, 40889, 41632, 41430, 41498, 41609, 41357, 41209, 41685, 41043, 41045, 43470, 42581, 41778, 41932, 40959, 41014, 40940, 41231, 41022, 41298, 41748, 41515, 41876, 41672, 41887, 40850, 40858, 42384, 42472, 41997, 41562, 42032, 41677, 41075, 41232, 41103, 40706, 41630, 42854, 41020, 42092, 41263, 41637, 41744, 41287, 41495, 41004, 40750, 42106, 41463, 41929, 43936, 43371, 42337, 42273, 41789, 42286, 41272, 43121, 43294, 42033, 42529, 41825, 44604, 41911, 43430, 44983, 41935, 44655, 42395, 40982, 41133, 41232, 41205, 41506, 42012, 41303, 41308, 43396, 42433, 42742, 42166, 40959, 40682, 40590, 43919, 43424, 41434, 41616, 41125, 41053, 41164, 41167, 41926, 41702, 41762, 41685, 40959, 43369, 42176, 42956, 41007, 41290, 41143, 40945, 41334, 41348, 41522, 41312, 41313, 41444, 42457, 41378, 41779, 40917, 43159, 41716, 41521, 41248, 41125, 41890, 41796, 42033, 41979, 42401, 42887, 41796, 43054, 42707, 43445, 44586, 42998, 42637, 42211, 41437, 41525, 41692, 42445, 43660, 41886, 42407, 41936, 42043, 41436, 41086, 41114, 41041, 41343, 41315, 41439, 41190, 41716, 41284, 41496, 41266, 41068, 41085, 41056, 41043, 41259, 41565, 41640, 44523, 41647, 40960, 41654, 41096, 41499, 41805, 40934, 41111, 40973, 43195, 41891, 41593, 41093, 41548, 41919, 41147, 40980, 41253, 41307, 41678, 41555, 41302, 40979, 41070, 41306, 41167, 41613, 41212, 41550, 40889],
