{
  "AcquisitionMatrixPE": 104,
  "AcquisitionNumber": 1,
  "AcquisitionTime": "16:09:38.507500",
  "BandwidthPerPixelPhaseEncode": 17.17,
  "BaseResolution": 104,
  "BodyPartExamined": "BRAIN",
  "CoilCombinationMethod": "Sum of Squares",
  "ConsistencyInfo": "N4_VE11C_LATEST_20160120",
  "ConversionSoftware": "dcm2niix",
  "ConversionSoftwareVersion": "v1.0.20220505",
  "DerivedVendorReportedEchoSpacing": 0.000560011,
  "DeviceSerialNumber": "167006",
  "DwellTime": 2.1e-06,
  "EchoTime": 0.037,
  "EchoTrainLength": 104,
  "EffectiveEchoSpacing": 0.000560011,
  "FlipAngle": 52,
  "HeudiconvVersion": "0.5.3.post811+g6206e14",
  "ImageComments": "Unaliased MB4/PE3/LB",
  "ImageOrientationPatientDICOM": [0.998976, 0.00436785, 0.0450351, 0.018658, 0.866997, -0.497963],
  "ImageOrientationText": "Tra>Cor(-29.9)>Sag(2.4)",
  "ImageType": [
    "ORIGINAL",
    "PRIMARY",
    "M",
    "MB",
    "ND",
    "MOSAIC"
],
  "ImagingFrequency": 123.26,
  "InPlanePhaseEncodingDirectionDICOM": "COL",
  "InstitutionAddress": "Chemin Queen-Mary 4565,Montreal,District,CA,H3W 1W5",
  "InstitutionName": "IUGM",
  "InstitutionalDepartmentName": "Department",
  "MRAcquisitionType": "2D",
  "MagneticFieldStrength": 3,
  "Manufacturer": "Siemens",
  "ManufacturersModelName": "Prisma_fit",
  "MatrixCoilMode": "SENSE",
  "Modality": "MR",
  "MultibandAccelerationFactor": 4,
  "PartialFourier": 1,
  "PatientPosition": "HFS",
  "PercentPhaseFOV": 100,
  "PercentSampling": 100,
  "PhaseEncodingDirection": "j",
  "PhaseEncodingSteps": 104,
  "PhaseResolution": 1,
  "PixelBandwidth": 2290,
  "ProcedureStepDescription": "games^mario3",
  "ProtocolName": "func_task-mario3_run-04",
  "PulseSequenceDetails": "%CustomerSeq%\\cmrr_mbep2d_bold",
  "ReceiveCoilActiveElements": "HC1-7;NC1,2",
  "ReceiveCoilName": "HeadNeck_64",
  "ReconMatrixPE": 104,
  "RepetitionTime": 1.49,
  "SAR": 0.0476098,
  "ScanOptions": "FS",
  "ScanningSequence": "EP",
  "SequenceName": "epfid2d1_104",
  "SequenceVariant": "SK\\SS",
  "SeriesDescription": "func_task-mario3_run-04",
  "SeriesNumber": 19,
  "ShimSetting": [609, -7197, -8842, 267, 17, -136, -37, 47],
  "SliceThickness": 2,
  "SliceTiming": [0, 0.7825, 0.0975, 0.8825, 0.195, 0.98, 0.2925, 1.0775, 0.3925, 1.175, 0.49, 1.2725, 0.5875, 1.3725, 0.685, 0, 0.7825, 0.0975, 0.8825, 0.195, 0.98, 0.2925, 1.0775, 0.3925, 1.175, 0.49, 1.2725, 0.5875, 1.3725, 0.685, 0, 0.7825, 0.0975, 0.8825, 0.195, 0.98, 0.2925, 1.0775, 0.3925, 1.175, 0.49, 1.2725, 0.5875, 1.3725, 0.685, 0, 0.7825, 0.0975, 0.8825, 0.195, 0.98, 0.2925, 1.0775, 0.3925, 1.175, 0.49, 1.2725, 0.5875, 1.3725, 0.685],
  "SoftwareVersions": "syngo MR E11",
  "SpacingBetweenSlices": 2,
  "StationName": "MRC35049",
  "TaskName": "mario3",
  "TotalReadoutTime": 0.0576811,
  "TxRefAmp": 255.929,
  "WipMemBlock": "75f0082c-56ad-4999-9362-b4b3685f6d5b||Sequence: R017 ve11c/master r/75a17815+; Jun 28 2022 16:32:11 by eja",
  "dcmmeta_affine": [
    [-1.9979517459869385, 0.03731606900691986, 0.08244072645902634, 103.4779052734375],
    [-0.008735701441764832, 1.7339946031570435, -0.9965872764587402, -51.00688171386719],
    [0.09007024765014648, 0.9959267377853394, 1.7320557832717896, -81.2717514038086],
    [0.0, 0.0, 0.0, 1.0]
],
  "dcmmeta_reorient_transform": [
    [0.0, -1.0, 0.0, 103.0],
    [1.0, 0.0, 0.0, 0.0],
    [0.0, 0.0, 1.0, 0.0],
    [0.0, 0.0, 0.0, 1.0]
],
  "dcmmeta_shape": [104, 104, 60, 311],
  "dcmmeta_slice_dim": 2,
  "dcmmeta_version": 0.6,
  "global": {
    "const": {
      "AcquisitionMatrix": [104, 0, 0, 104],
      "AngioFlag": "N",
      "BitsAllocated": 16,
      "BitsStored": 16,
      "BodyPartExamined": "BRAIN",
      "Columns": 832,
      "EchoNumbers": 1,
      "EchoTime": 37.0,
      "EchoTrainLength": 104,
      "FlipAngle": 52.0,
      "HighBit": 15,
      "ImageOrientationPatient": [0.99897585531251, 0.00436785049315, 0.04503512390017, 0.01865803532478, 0.86699733101836, -0.4979633578135],
      "ImagePositionPatient": [-848.15893522872, -761.94842241773, 351.04045321352],
      "ImageType": [
        "ORIGINAL",
        "PRIMARY",
        "M",
        "MB",
        "ND",
        "MOSAIC"
],
      "ImagedNucleus": "1H",
      "ImagingFrequency": 123.260202,
      "InPlanePhaseEncodingDirection": "COL",
      "MRAcquisitionType": "2D",
      "MagneticFieldStrength": 3.0,
      "Manufacturer": "SIEMENS",
      "ManufacturerModelName": "Prisma_fit",
      "Modality": "MR",
      "NumberOfAverages": 1.0,
      "NumberOfPhaseEncodingSteps": 104,
      "PercentPhaseFieldOfView": 100.0,
      "PercentSampling": 100.0,
      "PerformedProcedureStepStartTime": "151911.717000",
      "PhotometricInterpretation": "MONOCHROME2",
      "PixelBandwidth": 2290.0,
      "PixelRepresentation": 0,
      "PixelSpacing": [2.0, 2.0],
      "ProtocolName": "func_task-mario3_run-04",
      "RepetitionTime": 1490.0,
      "Rows": 832,
      "SAR": 0.04760983928548,
      "SamplesPerPixel": 1,
      "ScanOptions": "FS",
      "ScanningSequence": "EP",
      "SequenceName": "epfid2d1_104",
      "SequenceVariant": [
        "SK",
        "SS"
],
      "SeriesDescription": "func_task-mario3_run-04",
      "SeriesNumber": 19,
      "SeriesTime": "161050.785000",
      "SliceLocation": -40.701805237793,
      "SliceThickness": 2.0,
      "SmallestImagePixelValue": 0,
      "SoftwareVersions": "syngo MR E11",
      "SpacingBetweenSlices": 1.9999999971411,
      "SpecificCharacterSet": "ISO_IR 100",
      "StudyID": "1",
      "StudyTime": "151911.639000",
      "TransmitCoilName": "Body",
      "VariableFlipAngleFlag": "N",
      "WindowCenterWidthExplanation": "Algo1",
      "dBdt": 0.0},
    "slices": {}
  },
  "time": {
    "samples": {
      "AcquisitionNumber": [1, 2, 3, 4, 5, 6, 7, 8, 9, 10, 11, 12, 13, 14, 15, 16, 17, 18, 19, 20, 21, 22, 23, 24, 25, 26, 27, 28, 29, 30, 31, 32, 33, 34, 35, 36, 37, 38, 39, 40, 41, 42, 43, 44, 45, 46, 47, 48, 49, 50, 51, 52, 53, 54, 55, 56, 57, 58, 59, 60, 61, 62, 63, 64, 65, 66, 67, 68, 69, 70, 71, 72, 73, 74, 75, 76, 77, 78, 79, 80, 81, 82, 83, 84, 85, 86, 87, 88, 89, 90, 91, 92, 93, 94, 95, 96, 97, 98, 99, 100, 101, 102, 103, 104, 105, 106, 107, 108, 109, 110, 111, 112, 113, 114, 115, 116, 117, 118, 119, 120, 121, 122, 123, 124, 125, 126, 127, 128, 129, 130, 131, 132, 133, 134, 135, 136, 137, 138, 139, 140, 141, 142, 143, 144, 145, 146, 147, 148, 149, 150, 151, 152, 153, 154, 155, 156, 157, 158, 159, 160, 161, 162, 163, 164, 165, 166, 167, 168, 169, 170, 171, 172, 173, 174, 175, 176, 177, 178, 179, 180, 181, 182, 183, 184, 185, 186, 187, 188, 189, 190, 191, 192, 193, 194, 195, 196, 197, 198, 199, 200, 201, 202, 203, 204, 205, 206, 207, 208, 209, 210, 211, 212, 213, 214, 215, 216, 217, 218, 219, 220, 221, 222, 223, 224, 225, 226, 227, 228, 229, 230, 231, 232, 233, 234, 235, 236, 237, 238, 239, 240, 241, 242, 243, 244, 245, 246, 247, 248, 249, 250, 251, 252, 253, 254, 255, 256, 257, 258, 259, 260, 261, 262, 263, 264, 265, 266, 267, 268, 269, 270, 271, 272, 273, 274, 275, 276, 277, 278, 279, 280, 281, 282, 283, 284, 285, 286, 287, 288, 289, 290, 291, 292, 293, 294, 295, 296, 297, 298, 299, 300, 301, 302, 303, 304, 305, 306, 307, 308, 309, 310, 311],
      "AcquisitionTime": ["160938.507500", "160939.997500", "160941.487500", "160942.977500", "160944.467500", "160945.957500", "160947.447500", "160948.937500", "160950.427500", "160951.917500", "160953.407500", "160954.897500", "160956.387500", "160957.877500", "160959.367500", "161000.857500", "161002.347500", "161003.837500", "161005.327500", "161006.817500", "161008.307500", "161009.797500", "161011.287500", "161012.777500", "161014.267500", "161015.757500", "161017.247500", "161018.737500", "161020.227500", "161021.717500", "161023.207500", "161024.697500", "161026.187500", "161027.677500", "161029.167500", "161030.657500", "161032.147500", "161033.637500", "161035.127500", "161036.617500", "161038.107500", "161039.597500", "161041.087500", "161042.577500", "161044.067500", "161045.557500", "161047.047500", "161048.537500", "161050.027500", "161051.517500", "161053.007500", "161054.497500", "161055.987500", "161057.477500", "161058.967500", "161100.457500", "161101.947500", "161103.437500", "161104.927500", "161106.417500", "161107.907500", "161109.397500", "161110.887500", "161112.377500", "161113.867500", "161115.357500", "161116.847500", "161118.337500", "161119.827500", "161121.317500", "161122.807500", "161124.297500", "161125.787500", "161127.277500", "161128.767500", "161130.257500", "161131.747500", "161133.237500", "161134.727500", "161136.217500", "161137.707500", "161139.197500", "161140.687500", "161142.177500", "161143.667500", "161145.157500", "161146.647500", "161148.137500", "161149.627500", "161151.117500", "161152.607500", "161154.097500", "161155.587500", "161157.077500", "161158.567500", "161200.057500", "161201.547500", "161203.037500", "161204.527500", "161206.017500", "161207.507500", "161208.997500", "161210.487500", "161211.977500", "161213.467500", "161214.957500", "161216.447500", "161217.937500", "161219.427500", "161220.917500", "161222.407500", "161223.897500", "161225.387500", "161226.877500", "161228.367500", "161229.857500", "161231.347500", "161232.837500", "161234.327500", "161235.817500", "161237.307500", "161238.797500", "161240.287500", "161241.777500", "161243.267500", "161244.757500", "161246.247500", "161247.737500", "161249.227500", "161250.717500", "161252.207500", "161253.697500", "161255.187500", "161256.677500", "161258.167500", "161259.657500", "161301.147500", "161302.637500", "161304.127500", "161305.617500", "161307.107500", "161308.597500", "161310.087500", "161311.577500", "161313.067500", "161314.557500", "161316.047500", "161317.537500", "161319.027500", "161320.517500", "161322.007500", "161323.497500", "161324.987500", "161326.477500", "161327.967500", "161329.457500", "161330.947500", "161332.437500", "161333.927500", "161335.417500", "161336.907500", "161338.397500", "161339.887500", "161341.377500", "161342.867500", "161344.357500", "161345.847500", "161347.337500", "161348.827500", "161350.317500", "161351.807500", "161353.297500", "161354.787500", "161356.277500", "161357.767500", "161359.257500", "161400.747500", "161402.237500", "161403.727500", "161405.217500", "161406.707500", "161408.197500", "161409.687500", "161411.177500", "161412.667500", "161414.157500", "161415.647500", "161417.137500", "161418.627500", "161420.117500", "161421.607500", "161423.097500", "161424.587500", "161426.077500", "161427.567500", "161429.057500", "161430.547500", "161432.037500", "161433.527500", "161435.017500", "161436.507500", "161437.997500", "161439.487500", "161440.977500", "161442.467500", "161443.957500", "161445.447500", "161446.937500", "161448.427500", "161449.917500", "161451.407500", "161452.897500", "161454.387500", "161455.877500", "161457.367500", "161458.857500", "161500.347500", "161501.837500", "161503.327500", "161504.817500", "161506.307500", "161507.797500", "161509.287500", "161510.777500", "161512.267500", "161513.757500", "161515.247500", "161516.737500", "161518.227500", "161519.717500", "161521.207500", "161522.697500", "161524.187500", "161525.677500", "161527.167500", "161528.657500", "161530.147500", "161531.637500", "161533.127500", "161534.617500", "161536.107500", "161537.597500", "161539.087500", "161540.577500", "161542.067500", "161543.557500", "161545.047500", "161546.537500", "161548.027500", "161549.517500", "161551.007500", "161552.497500", "161553.987500", "161555.477500", "161556.967500", "161558.457500", "161559.947500", "161601.437500", "161602.927500", "161604.417500", "161605.907500", "161607.397500", "161608.887500", "161610.377500", "161611.867500", "161613.357500", "161614.847500", "161616.337500", "161617.827500", "161619.317500", "161620.807500", "161622.297500", "161623.787500", "161625.277500", "161626.767500", "161628.257500", "161629.747500", "161631.237500", "161632.727500", "161634.217500", "161635.707500", "161637.197500", "161638.687500", "161640.177500", "161641.667500", "161643.157500", "161644.647500", "161646.137500", "161647.627500", "161649.117500", "161650.607500", "161652.097500", "161653.587500", "161655.077500", "161656.567500", "161658.057500", "161659.547500", "161701.037500", "161702.527500", "161704.017500", "161705.507500", "161706.997500", "161708.487500", "161709.977500", "161711.467500", "161712.957500", "161714.447500", "161715.937500", "161717.427500", "161718.917500", "161720.407500"],
      "ContentTime": ["161050.788000", "161050.792000", "161050.795000", "161050.799000", "161050.802000", "161050.805000", "161050.809000", "161050.812000", "161050.815000", "161050.819000", "161050.822000", "161050.825000", "161050.828000", "161050.840000", "161050.843000", "161050.846000", "161050.850000", "161050.853000", "161050.856000", "161050.860000", "161050.863000", "161110.753000", "161110.757000", "161110.760000", "161110.764000", "161110.767000", "161110.770000", "161110.774000", "161110.777000", "161110.780000", "161110.783000", "161110.787000", "161110.790000", "161110.794000", "161110.797000", "161110.800000", "161110.803000", "161110.807000", "161110.819000", "161110.822000", "161110.826000", "161130.754000", "161130.758000", "161130.761000", "161130.764000", "161130.768000", "161130.771000", "161130.774000", "161130.778000", "161130.781000", "161130.784000", "161130.788000", "161130.803000", "161130.807000", "161130.810000", "161130.814000", "161130.817000", "161130.820000", "161130.824000", "161130.832000", "161130.836000", "161150.754000", "161150.758000", "161150.761000", "161150.765000", "161150.768000", "161150.771000", "161150.775000", "161150.778000", "161150.781000", "161150.785000", "161150.788000", "161150.791000", "161150.795000", "161150.798000", "161150.801000", "161150.805000", "161150.808000", "161150.811000", "161150.815000", "161150.818000", "161150.821000", "161230.754000", "161230.758000", "161230.762000", "161230.765000", "161230.769000", "161230.772000", "161230.776000", "161230.779000", "161230.782000", "161230.786000", "161230.789000", "161230.793000", "161230.796000", "161230.799000", "161230.803000", "161230.806000", "161230.810000", "161230.813000", "161230.817000", "161230.820000", "161230.823000", "161230.827000", "161230.830000", "161230.833000", "161230.837000", "161230.840000", "161230.843000", "161230.847000", "161230.850000", "161230.853000", "161230.857000", "161230.860000", "161230.863000", "161310.753000", "161310.757000", "161310.761000", "161310.764000", "161310.767000", "161310.771000", "161310.774000", "161310.777000", "161310.781000", "161310.784000", "161310.787000", "161310.791000", "161310.794000", "161310.797000", "161310.801000", "161310.804000", "161310.808000", "161310.811000", "161310.814000", "161310.817000", "161310.821000", "161310.824000", "161310.827000", "161310.831000", "161310.834000", "161310.837000", "161310.841000", "161350.754000", "161350.758000", "161350.761000", "161350.765000", "161350.768000", "161350.771000", "161350.775000", "161350.778000", "161350.782000", "161350.785000", "161350.788000", "161350.792000", "161350.796000", "161350.800000", "161350.803000", "161350.823000", "161350.826000", "161350.829000", "161350.833000", "161350.836000", "161350.839000", "161350.843000", "161350.846000", "161350.850000", "161350.853000", "161350.856000", "161410.755000", "161410.758000", "161410.765000", "161410.769000", "161410.772000", "161410.776000", "161410.779000", "161410.782000", "161410.786000", "161410.789000", "161410.793000", "161410.796000", "161410.800000", "161410.803000", "161450.754000", "161450.758000", "161450.761000", "161450.765000", "161450.768000", "161450.772000", "161450.775000", "161450.778000", "161450.782000", "161450.785000", "161450.788000", "161450.792000", "161450.795000", "161450.798000", "161450.802000", "161450.805000", "161450.808000", "161450.812000", "161450.815000", "161450.818000", "161450.822000", "161450.825000", "161450.828000", "161450.832000", "161450.835000", "161450.845000", "161450.848000", "161530.755000", "161530.759000", "161530.763000", "161530.767000", "161530.770000", "161530.774000", "161530.778000", "161530.782000", "161530.785000", "161530.788000", "161530.792000", "161530.795000", "161530.799000", "161530.802000", "161530.805000", "161530.809000", "161530.812000", "161530.815000", "161530.819000", "161530.822000", "161530.826000", "161530.829000", "161530.832000", "161530.836000", "161530.839000", "161530.842000", "161610.754000", "161610.758000", "161610.761000", "161610.765000", "161610.768000", "161610.771000", "161610.775000", "161610.778000", "161610.781000", "161610.785000", "161610.788000", "161610.792000", "161610.807000", "161610.811000", "161610.814000", "161610.818000", "161610.821000", "161610.824000", "161610.828000", "161610.831000", "161610.834000", "161610.838000", "161610.841000", "161610.844000", "161610.848000", "161610.852000", "161610.856000", "161650.754000", "161650.758000", "161650.761000", "161650.765000", "161650.768000", "161650.771000", "161650.775000", "161650.778000", "161650.782000", "161650.785000", "161650.788000", "161650.792000", "161650.795000", "161650.799000", "161650.802000", "161650.805000", "161650.809000", "161650.812000", "161650.815000", "161650.819000", "161650.822000", "161650.825000", "161650.833000", "161650.836000", "161650.840000", "161650.843000", "161650.846000", "161722.826000", "161722.830000", "161722.833000", "161722.837000", "161722.841000", "161722.845000", "161722.848000", "161722.852000", "161722.856000", "161722.859000", "161722.863000", "161722.866000", "161722.870000", "161722.873000", "161722.877000", "161722.880000", "161722.883000", "161722.887000", "161722.890000", "161722.894000", "161722.898000", "161722.909000"],
      "InstanceCreationTime": ["161050.788000", "161050.792000", "161050.795000", "161050.799000", "161050.802000", "161050.805000", "161050.809000", "161050.812000", "161050.815000", "161050.819000", "161050.822000", "161050.825000", "161050.828000", "161050.840000", "161050.843000", "161050.846000", "161050.850000", "161050.853000", "161050.856000", "161050.860000", "161050.863000", "161110.753000", "161110.757000", "161110.760000", "161110.764000", "161110.767000", "161110.770000", "161110.774000", "161110.777000", "161110.780000", "161110.783000", "161110.787000", "161110.790000", "161110.794000", "161110.797000", "161110.800000", "161110.803000", "161110.807000", "161110.819000", "161110.822000", "161110.826000", "161130.754000", "161130.758000", "161130.761000", "161130.764000", "161130.768000", "161130.771000", "161130.774000", "161130.778000", "161130.781000", "161130.784000", "161130.788000", "161130.803000", "161130.807000", "161130.810000", "161130.814000", "161130.817000", "161130.820000", "161130.824000", "161130.832000", "161130.836000", "161150.754000", "161150.758000", "161150.761000", "161150.765000", "161150.768000", "161150.771000", "161150.775000", "161150.778000", "161150.781000", "161150.785000", "161150.788000", "161150.791000", "161150.795000", "161150.798000", "161150.801000", "161150.805000", "161150.808000", "161150.811000", "161150.815000", "161150.818000", "161150.821000", "161230.754000", "161230.758000", "161230.762000", "161230.765000", "161230.769000", "161230.772000", "161230.776000", "161230.779000", "161230.782000", "161230.786000", "161230.789000", "161230.793000", "161230.796000", "161230.799000", "161230.803000", "161230.806000", "161230.810000", "161230.813000", "161230.817000", "161230.820000", "161230.823000", "161230.827000", "161230.830000", "161230.833000", "161230.837000", "161230.840000", "161230.843000", "161230.847000", "161230.850000", "161230.853000", "161230.857000", "161230.860000", "161230.863000", "161310.753000", "161310.757000", "161310.761000", "161310.764000", "161310.767000", "161310.771000", "161310.774000", "161310.777000", "161310.781000", "161310.784000", "161310.787000", "161310.791000", "161310.794000", "161310.797000", "161310.801000", "161310.804000", "161310.808000", "161310.811000", "161310.814000", "161310.817000", "161310.821000", "161310.824000", "161310.827000", "161310.831000", "161310.834000", "161310.837000", "161310.841000", "161350.754000", "161350.758000", "161350.761000", "161350.765000", "161350.768000", "161350.771000", "161350.775000", "161350.778000", "161350.782000", "161350.785000", "161350.788000", "161350.792000", "161350.796000", "161350.800000", "161350.803000", "161350.823000", "161350.826000", "161350.829000", "161350.833000", "161350.836000", "161350.839000", "161350.843000", "161350.846000", "161350.850000", "161350.853000", "161350.856000", "161410.755000", "161410.758000", "161410.765000", "161410.769000", "161410.772000", "161410.776000", "161410.779000", "161410.782000", "161410.786000", "161410.789000", "161410.793000", "161410.796000", "161410.800000", "161410.803000", "161450.754000", "161450.758000", "161450.761000", "161450.765000", "161450.768000", "161450.772000", "161450.775000", "161450.778000", "161450.782000", "161450.785000", "161450.788000", "161450.792000", "161450.795000", "161450.798000", "161450.802000", "161450.805000", "161450.808000", "161450.812000", "161450.815000", "161450.818000", "161450.822000", "161450.825000", "161450.828000", "161450.832000", "161450.835000", "161450.845000", "161450.848000", "161530.755000", "161530.759000", "161530.763000", "161530.767000", "161530.770000", "161530.774000", "161530.778000", "161530.782000", "161530.785000", "161530.788000", "161530.792000", "161530.795000", "161530.799000", "161530.802000", "161530.805000", "161530.809000", "161530.812000", "161530.815000", "161530.819000", "161530.822000", "161530.826000", "161530.829000", "161530.832000", "161530.836000", "161530.839000", "161530.842000", "161610.754000", "161610.758000", "161610.761000", "161610.765000", "161610.768000", "161610.771000", "161610.775000", "161610.778000", "161610.781000", "161610.785000", "161610.788000", "161610.792000", "161610.807000", "161610.811000", "161610.814000", "161610.818000", "161610.821000", "161610.824000", "161610.828000", "161610.831000", "161610.834000", "161610.838000", "161610.841000", "161610.844000", "161610.848000", "161610.852000", "161610.856000", "161650.754000", "161650.758000", "161650.761000", "161650.765000", "161650.768000", "161650.771000", "161650.775000", "161650.778000", "161650.782000", "161650.785000", "161650.788000", "161650.792000", "161650.795000", "161650.799000", "161650.802000", "161650.805000", "161650.809000", "161650.812000", "161650.815000", "161650.819000", "161650.822000", "161650.825000", "161650.833000", "161650.836000", "161650.840000", "161650.843000", "161650.846000", "161722.826000", "161722.830000", "161722.833000", "161722.837000", "161722.841000", "161722.845000", "161722.848000", "161722.852000", "161722.856000", "161722.859000", "161722.863000", "161722.866000", "161722.870000", "161722.873000", "161722.877000", "161722.880000", "161722.883000", "161722.887000", "161722.890000", "161722.894000", "161722.898000", "161722.909000"],
      "InstanceNumber": [1, 2, 3, 4, 5, 6, 7, 8, 9, 10, 11, 12, 13, 14, 15, 16, 17, 18, 19, 20, 21, 22, 23, 24, 25, 26, 27, 28, 29, 30, 31, 32, 33, 34, 35, 36, 37, 38, 39, 40, 41, 42, 43, 44, 45, 46, 47, 48, 49, 50, 51, 52, 53, 54, 55, 56, 57, 58, 59, 60, 61, 62, 63, 64, 65, 66, 67, 68, 69, 70, 71, 72, 73, 74, 75, 76, 77, 78, 79, 80, 81, 82, 83, 84, 85, 86, 87, 88, 89, 90, 91, 92, 93, 94, 95, 96, 97, 98, 99, 100, 101, 102, 103, 104, 105, 106, 107, 108, 109, 110, 111, 112, 113, 114, 115, 116, 117, 118, 119, 120, 121, 122, 123, 124, 125, 126, 127, 128, 129, 130, 131, 132, 133, 134, 135, 136, 137, 138, 139, 140, 141, 142, 143, 144, 145, 146, 147, 148, 149, 150, 151, 152, 153, 154, 155, 156, 157, 158, 159, 160, 161, 162, 163, 164, 165, 166, 167, 168, 169, 170, 171, 172, 173, 174, 175, 176, 177, 178, 179, 180, 181, 182, 183, 184, 185, 186, 187, 188, 189, 190, 191, 192, 193, 194, 195, 196, 197, 198, 199, 200, 201, 202, 203, 204, 205, 206, 207, 208, 209, 210, 211, 212, 213, 214, 215, 216, 217, 218, 219, 220, 221, 222, 223, 224, 225, 226, 227, 228, 229, 230, 231, 232, 233, 234, 235, 236, 237, 238, 239, 240, 241, 242, 243, 244, 245, 246, 247, 248, 249, 250, 251, 252, 253, 254, 255, 256, 257, 258, 259, 260, 261, 262, 263, 264, 265, 266, 267, 268, 269, 270, 271, 272, 273, 274, 275, 276, 277, 278, 279, 280, 281, 282, 283, 284, 285, 286, 287, 288, 289, 290, 291, 292, 293, 294, 295, 296, 297, 298, 299, 300, 301, 302, 303, 304, 305, 306, 307, 308, 309, 310, 311],
      "LargestImagePixelValue": [46006, 44286, 44581, 42813, 42016, 41743, 41817, 42392, 42577, 42899, 43354, 43808, 43374, 42450, 42066, 41712, 43532, 42771, 41912, 41044, 41848, 43137, 42912, 43026, 42547, 43086, 42015, 41396, 42021, 41802, 42810, 42640, 41365, 41422, 41524, 41825, 42784, 41490, 41879, 41507, 42147, 41379, 41814, 41981, 42346, 41558, 43152, 42310, 43029, 41841, 42495, 41716, 42673, 42313, 41482, 40848, 41690, 42469, 41378, 41535, 44365, 44872, 41563, 41665, 41901, 41980, 41959, 44423, 44597, 42342, 41930, 41869, 42797, 41893, 41849, 41939, 41957, 41871, 42794, 43405, 43856, 42285, 44541, 41437, 41800, 41505, 41206, 41913, 41533, 41934, 43991, 41533, 41602, 41757, 41875, 41617, 42268, 41560, 42815, 42814, 42493, 45307, 45998, 41827, 42041, 42848, 43847, 43958, 44481, 45242, 44701, 43740, 43967, 45324, 41909, 41557, 41661, 42266, 41354, 41845, 41377, 41219, 41517, 42817, 41848, 42163, 41540, 42456, 43069, 42387, 41422, 42152, 43030, 42430, 41855, 42290, 42698, 42513, 42371, 42390, 41649, 44515, 43809, 43025, 43306, 43210, 43446, 43960, 43411, 44101, 42836, 44890, 42672, 41916, 42001, 42724, 41868, 42635, 41549, 42038, 42587, 45254, 44717, 43110, 44499, 44966, 44995, 44172, 44359, 44193, 42975, 41994, 42591, 42504, 43146, 44878, 42415, 41460, 43297, 42743, 44061, 43588, 43430, 43670, 45001, 41939, 43365, 43808, 43297, 43903, 42113, 41945, 41920, 42595, 42926, 42218, 42000, 42217, 41764, 41792, 41268, 41847, 41417, 41157, 41191, 43931, 42679, 43325, 42413, 44054, 45311, 44859, 42141, 43042, 43865, 43673, 44785, 45015, 44687, 45666, 44803, 44263, 44475, 44332, 44639, 45183, 44493, 44130, 44225, 43801, 45254, 46082, 45757, 42006, 45569, 46302, 45812, 46146, 44029, 45609, 44392, 45045, 45172, 45050, 43656, 44621, 45501, 44260, 45543, 45571, 45732, 45045, 45662, 45917, 46003, 45459, 45594, 45348, 44214, 45440, 45032, 43990, 43903, 44419, 44069, 44420, 45271, 44152, 44224, 43945, 43970, 44479, 42954, 41621, 43607, 44338, 42265, 44265, 42592, 45275, 45466, 45099, 45096, 44794, 45238, 45175, 43790, 44651, 45115, 44931, 45281, 45382, 45137, 44997, 46151, 46105, 46273, 45488, 46572, 46467, 46746, 45635, 44732, 46387, 45478, 46352, 44190, 45164, 46413, 41424, 42121],
      "WindowCenter": [11022.0, 10968.0, 10961.0, 10926.0, 10904.0, 10897.0, 10896.0, 10914.0, 10914.0, 10913.0, 10940.0, 10972.0, 10951.0, 10924.0, 10875.0, 10840.0, 10853.0, 10891.0, 10910.0, 10892.0, 10891.0, 10889.0, 10875.0, 10893.0, 10902.0, 10907.0, 10886.0, 10872.0, 10856.0, 10844.0, 10834.0, 10842.0, 10883.0, 10881.0, 10871.0, 10888.0, 10891.0, 10883.0, 10870.0, 10855.0, 10871.0, 10863.0, 10881.0, 10865.0, 10880.0, 10890.0, 10889.0, 10879.0, 10918.0, 10911.0, 10915.0, 10898.0, 10909.0, 10882.0, 10859.0, 10851.0, 10937.0, 10959.0, 10914.0, 10897.0, 10908.0, 10921.0, 10934.0, 10919.0, 10878.0, 10868.0, 10882.0, 10947.0, 10917.0, 10919.0, 10907.0, 10887.0, 10861.0, 10881.0, 10941.0, 10923.0, 10894.0, 10880.0, 10893.0, 10896.0, 10910.0, 10908.0, 10931.0, 10943.0, 10965.0, 10962.0, 10952.0, 10932.0, 10906.0, 10892.0, 10899.0, 10903.0, 10908.0, 10907.0, 10905.0, 10914.0, 10915.0, 10883.0, 10862.0, 10850.0, 10849.0, 10906.0, 10914.0, 10931.0, 10953.0, 10974.0, 10982.0, 10957.0, 10940.0, 10918.0, 10891.0, 10876.0, 10907.0, 10956.0, 10945.0, 10934.0, 10895.0, 10901.0, 10893.0, 10917.0, 10911.0, 10908.0, 10906.0, 10923.0, 10906.0, 10892.0, 10849.0, 10851.0, 10851.0, 10863.0, 10852.0, 10849.0, 10845.0, 10852.0, 10867.0, 10876.0, 10888.0, 10890.0, 10932.0, 10948.0, 10958.0, 10956.0, 10965.0, 10975.0, 10993.0, 10984.0, 10974.0, 10958.0, 10945.0, 10947.0, 10921.0, 10937.0, 10904.0, 10892.0, 10862.0, 10877.0, 10883.0, 10919.0, 10923.0, 10919.0, 10920.0, 10926.0, 10932.0, 10924.0, 10923.0, 10916.0, 10900.0, 10868.0, 10865.0, 10875.0, 10880.0, 10888.0, 10906.0, 10902.0, 10908.0, 10929.0, 10940.0, 10939.0, 10942.0, 10950.0, 10963.0, 10947.0, 10932.0, 10903.0, 10878.0, 10842.0, 10879.0, 10906.0, 10878.0, 10862.0, 10882.0, 10862.0, 10834.0, 10827.0, 10834.0, 10846.0, 10847.0, 10874.0, 10864.0, 10909.0, 10916.0, 10908.0, 10891.0, 10907.0, 10931.0, 10939.0, 10885.0, 10866.0, 10851.0, 10831.0, 10938.0, 10968.0, 10941.0, 10942.0, 10938.0, 10931.0, 10968.0, 10986.0, 11003.0, 11030.0, 10982.0, 10956.0, 10945.0, 10934.0, 10932.0, 10942.0, 10946.0, 10938.0, 10929.0, 10895.0, 10891.0, 10911.0, 10917.0, 10831.0, 10852.0, 10911.0, 10908.0, 10949.0, 10929.0, 10936.0, 10896.0, 10899.0, 10898.0, 10924.0, 10916.0, 10937.0, 10947.0, 10954.0, 10985.0, 10949.0, 10909.0, 10881.0, 10875.0, 10886.0, 10897.0, 10909.0, 10960.0, 10994.0, 10986.0, 11006.0, 10978.0, 10961.0, 10937.0, 10947.0, 10946.0, 10943.0, 10940.0, 10929.0, 10938.0, 10952.0, 10965.0, 10973.0, 10932.0, 10947.0, 10989.0, 10968.0, 10972.0, 10984.0, 10981.0, 11003.0, 10986.0, 10958.0, 10922.0, 10902.0, 10876.0, 10876.0, 10869.0, 10873.0, 10865.0, 10889.0, 10915.0, 10888.0, 10866.0, 10870.0, 10923.0, 10944.0, 10938.0, 10912.0, 10928.0, 10952.0, 10971.0, 10973.0, 10953.0, 10943.0, 10929.0, 10966.0, 10968.0, 10997.0, 11010.0, 10950.0, 10930.0],
