{
  "AcquisitionMatrixPE": 104,
  "AcquisitionNumber": 1,
  "AcquisitionTime": "16:19:44.890000",
  "BandwidthPerPixelPhaseEncode": 17.17,
  "BaseResolution": 104,
  "BodyPartExamined": "BRAIN",
  "CoilCombinationMethod": "Sum of Squares",
  "ConsistencyInfo": "N4_VE11C_LATEST_20160120",
  "ConversionSoftware": "dcm2niix",
  "ConversionSoftwareVersion": "v1.0.20220505",
  "DerivedVendorReportedEchoSpacing": 0.000560011,
  "DeviceSerialNumber": "167006",
  "DwellTime": 2.1e-06,
  "EchoTime": 0.037,
  "EchoTime1": 0.037,
  "EchoTime2": 0.001,
  "EchoTrainLength": 104,
  "EffectiveEchoSpacing": 0.000560011,
  "FlipAngle": 52,
  "HeudiconvVersion": "0.5.3.post811+g6206e14",
  "ImageComments": "Unaliased MB4/PE3/LB",
  "ImageOrientationPatientDICOM": [0.998976, 0.00436785, 0.0450351, 0.018658, 0.866997, -0.497963],
  "ImageOrientationText": "Tra>Cor(-29.9)>Sag(2.4)",
  "ImageType": [
    "ORIGINAL",
    "PRIMARY",
    "P",
    "MB",
    "ND",
    "MOSAIC",
    "PHASE"
],
  "ImagingFrequency": 123.26,
  "InPlanePhaseEncodingDirectionDICOM": "COL",
  "InstitutionAddress": "Chemin Queen-Mary 4565,Montreal,District,CA,H3W 1W5",
  "InstitutionName": "IUGM",
  "InstitutionalDepartmentName": "Department",
  "MRAcquisitionType": "2D",
  "MagneticFieldStrength": 3,
  "Manufacturer": "Siemens",
  "ManufacturersModelName": "Prisma_fit",
  "MatrixCoilMode": "SENSE",
  "Modality": "MR",
  "MultibandAccelerationFactor": 4,
  "PartialFourier": 1,
  "PatientPosition": "HFS",
  "PercentPhaseFOV": 100,
  "PercentSampling": 100,
  "PhaseEncodingDirection": "j",
  "PhaseEncodingSteps": 104,
  "PhaseResolution": 1,
  "PixelBandwidth": 2290,
  "ProcedureStepDescription": "games^mario3",
  "ProtocolName": "func_task-mario3_run-05",
  "PulseSequenceDetails": "%CustomerSeq%\\cmrr_mbep2d_bold",
  "ReceiveCoilActiveElements": "HC1-7;NC1,2",
  "ReceiveCoilName": "HeadNeck_64",
  "ReconMatrixPE": 104,
  "RepetitionTime": 1.49,
  "SAR": 0.0476098,
  "ScanOptions": "FS",
  "ScanningSequence": "EP",
  "SequenceName": "epfid2d1_104",
  "SequenceVariant": "SK\\SS",
  "SeriesDescription": "func_task-mario3_run-05",
  "SeriesNumber": 23,
  "ShimSetting": [609, -7197, -8842, 267, 17, -136, -37, 47],
  "SliceThickness": 2,
  "SliceTiming": [0, 0.785, 0.0975, 0.8825, 0.195, 0.98, 0.295, 1.0775, 0.3925, 1.175, 0.49, 1.275, 0.5875, 1.3725, 0.685, 0, 0.785, 0.0975, 0.8825, 0.195, 0.98, 0.295, 1.0775, 0.3925, 1.175, 0.49, 1.275, 0.5875, 1.3725, 0.685, 0, 0.785, 0.0975, 0.8825, 0.195, 0.98, 0.295, 1.0775, 0.3925, 1.175, 0.49, 1.275, 0.5875, 1.3725, 0.685, 0, 0.785, 0.0975, 0.8825, 0.195, 0.98, 0.295, 1.0775, 0.3925, 1.175, 0.49, 1.275, 0.5875, 1.3725, 0.685],
  "SoftwareVersions": "syngo MR E11",
  "SpacingBetweenSlices": 2,
  "StationName": "MRC35049",
  "TaskName": "mario3",
  "TotalReadoutTime": 0.0576811,
  "TxRefAmp": 255.929,
  "WipMemBlock": "208314e3-0776-4429-8dcb-ffabad4632e7||Sequence: R017 ve11c/master r/75a17815+; Jun 28 2022 16:32:11 by eja",
  "dcmmeta_affine": [
    [-1.9979517459869385, 0.03731606900691986, 0.08244072645902634, 103.4779052734375],
    [-0.008735701441764832, 1.7339946031570435, -0.9965872764587402, -51.00688171386719],
    [0.09007024765014648, 0.9959267377853394, 1.7320557832717896, -81.2717514038086],
    [0.0, 0.0, 0.0, 1.0]
],
  "dcmmeta_reorient_transform": [
    [0.0, -1.0, 0.0, 103.0],
    [1.0, 0.0, 0.0, 0.0],
    [0.0, 0.0, 1.0, 0.0],
    [0.0, 0.0, 0.0, 1.0]
],
  "dcmmeta_shape": [104, 104, 60, 336],
  "dcmmeta_slice_dim": 2,
  "dcmmeta_version": 0.6,
  "global": {
    "const": {
      "AcquisitionMatrix": [104, 0, 0, 104],
      "AngioFlag": "N",
      "BitsAllocated": 16,
      "BitsStored": 16,
      "BodyPartExamined": "BRAIN",
      "Columns": 832,
      "EchoNumbers": 1,
      "EchoTime": 37.0,
      "EchoTrainLength": 104,
      "FlipAngle": 52.0,
      "HighBit": 15,
      "ImageOrientationPatient": [0.99897585531251, 0.00436785049315, 0.04503512390017, 0.01865803532478, 0.86699733101836, -0.4979633578135],
      "ImagePositionPatient": [-848.15893522872, -761.94842241773, 351.04045321352],
      "ImageType": [
        "ORIGINAL",
        "PRIMARY",
        "P",
        "MB",
        "ND",
        "MOSAIC"
],
      "ImagedNucleus": "1H",
      "ImagingFrequency": 123.260206,
      "InPlanePhaseEncodingDirection": "COL",
      "LargestImagePixelValue": 4095,
      "MRAcquisitionType": "2D",
      "MagneticFieldStrength": 3.0,
      "Manufacturer": "SIEMENS",
      "ManufacturerModelName": "Prisma_fit",
      "Modality": "MR",
      "NumberOfAverages": 1.0,
      "NumberOfPhaseEncodingSteps": 104,
      "PercentPhaseFieldOfView": 100.0,
      "PercentSampling": 100.0,
      "PerformedProcedureStepStartTime": "151911.717000",
      "PhotometricInterpretation": "MONOCHROME2",
      "PixelBandwidth": 2290.0,
      "PixelRepresentation": 0,
      "PixelSpacing": [2.0, 2.0],
      "ProtocolName": "func_task-mario3_run-05",
      "RepetitionTime": 1490.0,
      "RescaleIntercept": -4096.0,
      "RescaleSlope": 2.0,
      "RescaleType": "US",
      "Rows": 832,
      "SAR": 0.04760983928548,
      "SamplesPerPixel": 1,
      "ScanOptions": "FS",
      "ScanningSequence": "EP",
      "SequenceName": "epfid2d1_104",
      "SequenceVariant": [
        "SK",
        "SS"
],
      "SeriesDescription": "func_task-mario3_run-05",
      "SeriesNumber": 23,
      "SeriesTime": "162109.868000",
      "SliceLocation": -40.701805237793,
      "SliceThickness": 2.0,
      "SmallestImagePixelValue": 0,
      "SoftwareVersions": "syngo MR E11",
      "SpacingBetweenSlices": 1.9999999971411,
      "SpecificCharacterSet": "ISO_IR 100",
      "StudyID": "1",
      "StudyTime": "151911.639000",
      "TransmitCoilName": "Body",
      "VariableFlipAngleFlag": "N",
      "WindowCenterWidthExplanation": "Algo1",
      "dBdt": 0.0},
    "slices": {}
  },
  "time": {
    "samples": {
      "AcquisitionNumber": [1, 2, 3, 4, 5, 6, 7, 8, 9, 10, 11, 12, 13, 14, 15, 16, 17, 18, 19, 20, 21, 22, 23, 24, 25, 26, 27, 28, 29, 30, 31, 32, 33, 34, 35, 36, 37, 38, 39, 40, 41, 42, 43, 44, 45, 46, 47, 48, 49, 50, 51, 52, 53, 54, 55, 56, 57, 58, 59, 60, 61, 62, 63, 64, 65, 66, 67, 68, 69, 70, 71, 72, 73, 74, 75, 76, 77, 78, 79, 80, 81, 82, 83, 84, 85, 86, 87, 88, 89, 90, 91, 92, 93, 94, 95, 96, 97, 98, 99, 100, 101, 102, 103, 104, 105, 106, 107, 108, 109, 110, 111, 112, 113, 114, 115, 116, 117, 118, 119, 120, 121, 122, 123, 124, 125, 126, 127, 128, 129, 130, 131, 132, 133, 134, 135, 136, 137, 138, 139, 140, 141, 142, 143, 144, 145, 146, 147, 148, 149, 150, 151, 152, 153, 154, 155, 156, 157, 158, 159, 160, 161, 162, 163, 164, 165, 166, 167, 168, 169, 170, 171, 172, 173, 174, 175, 176, 177, 178, 179, 180, 181, 182, 183, 184, 185, 186, 187, 188, 189, 190, 191, 192, 193, 194, 195, 196, 197, 198, 199, 200, 201, 202, 203, 204, 205, 206, 207, 208, 209, 210, 211, 212, 213, 214, 215, 216, 217, 218, 219, 220, 221, 222, 223, 224, 225, 226, 227, 228, 229, 230, 231, 232, 233, 234, 235, 236, 237, 238, 239, 240, 241, 242, 243, 244, 245, 246, 247, 248, 249, 250, 251, 252, 253, 254, 255, 256, 257, 258, 259, 260, 261, 262, 263, 264, 265, 266, 267, 268, 269, 270, 271, 272, 273, 274, 275, 276, 277, 278, 279, 280, 281, 282, 283, 284, 285, 286, 287, 288, 289, 290, 291, 292, 293, 294, 295, 296, 297, 298, 299, 300, 301, 302, 303, 304, 305, 306, 307, 308, 309, 310, 311, 312, 313, 314, 315, 316, 317, 318, 319, 320, 321, 322, 323, 324, 325, 326, 327, 328, 329, 330, 331, 332, 333, 334, 335, 336],
      "AcquisitionTime": ["161944.890000", "161946.380000", "161947.870000", "161949.360000", "161950.850000", "161952.340000", "161953.830000", "161955.320000", "161956.810000", "161958.300000", "161959.790000", "162001.280000", "162002.770000", "162004.260000", "162005.750000", "162007.240000", "162008.730000", "162010.220000", "162011.710000", "162013.200000", "162014.690000", "162016.180000", "162017.670000", "162019.160000", "162020.650000", "162022.140000", "162023.630000", "162025.120000", "162026.610000", "162028.100000", "162029.590000", "162031.080000", "162032.570000", "162034.060000", "162035.550000", "162037.040000", "162038.530000", "162040.020000", "162041.510000", "162043.000000", "162044.490000", "162045.980000", "162047.470000", "162048.960000", "162050.450000", "162051.940000", "162053.430000", "162054.920000", "162056.410000", "162057.900000", "162059.390000", "162100.880000", "162102.370000", "162103.860000", "162105.350000", "162106.840000", "162108.330000", "162109.820000", "162111.310000", "162112.800000", "162114.290000", "162115.780000", "162117.270000", "162118.760000", "162120.250000", "162121.740000", "162123.230000", "162124.720000", "162126.210000", "162127.700000", "162129.190000", "162130.680000", "162132.170000", "162133.660000", "162135.150000", "162136.640000", "162138.130000", "162139.620000", "162141.110000", "162142.600000", "162144.090000", "162145.580000", "162147.070000", "162148.560000", "162150.050000", "162151.540000", "162153.030000", "162154.520000", "162156.010000", "162157.500000", "162158.990000", "162200.480000", "162201.970000", "162203.460000", "162204.950000", "162206.440000", "162207.930000", "162209.420000", "162210.910000", "162212.400000", "162213.890000", "162215.380000", "162216.870000", "162218.360000", "162219.850000", "162221.340000", "162222.830000", "162224.320000", "162225.810000", "162227.300000", "162228.790000", "162230.280000", "162231.770000", "162233.260000", "162234.750000", "162236.240000", "162237.730000", "162239.220000", "162240.710000", "162242.200000", "162243.690000", "162245.180000", "162246.670000", "162248.160000", "162249.650000", "162251.140000", "162252.630000", "162254.120000", "162255.610000", "162257.100000", "162258.590000", "162300.080000", "162301.570000", "162303.060000", "162304.550000", "162306.040000", "162307.530000", "162309.020000", "162310.510000", "162312.000000", "162313.490000", "162314.980000", "162316.470000", "162317.960000", "162319.450000", "162320.940000", "162322.430000", "162323.920000", "162325.410000", "162326.900000", "162328.390000", "162329.880000", "162331.370000", "162332.860000", "162334.350000", "162335.840000", "162337.330000", "162338.820000", "162340.310000", "162341.800000", "162343.290000", "162344.780000", "162346.270000", "162347.760000", "162349.250000", "162350.740000", "162352.230000", "162353.720000", "162355.210000", "162356.700000", "162358.190000", "162359.680000", "162401.170000", "162402.660000", "162404.150000", "162405.640000", "162407.130000", "162408.620000", "162410.110000", "162411.600000", "162413.090000", "162414.580000", "162416.070000", "162417.560000", "162419.050000", "162420.540000", "162422.030000", "162423.520000", "162425.010000", "162426.500000", "162427.990000", "162429.480000", "162430.970000", "162432.460000", "162433.950000", "162435.440000", "162436.930000", "162438.420000", "162439.910000", "162441.400000", "162442.890000", "162444.380000", "162445.870000", "162447.360000", "162448.850000", "162450.340000", "162451.830000", "162453.320000", "162454.810000", "162456.300000", "162457.790000", "162459.280000", "162500.770000", "162502.260000", "162503.750000", "162505.240000", "162506.730000", "162508.220000", "162509.710000", "162511.200000", "162512.690000", "162514.180000", "162515.670000", "162517.160000", "162518.650000", "162520.140000", "162521.630000", "162523.120000", "162524.610000", "162526.100000", "162527.590000", "162529.080000", "162530.570000", "162532.060000", "162533.550000", "162535.040000", "162536.530000", "162538.020000", "162539.510000", "162541.000000", "162542.490000", "162543.980000", "162545.470000", "162546.960000", "162548.450000", "162549.940000", "162551.430000", "162552.920000", "162554.410000", "162555.900000", "162557.390000", "162558.880000", "162600.370000", "162601.860000", "162603.350000", "162604.840000", "162606.330000", "162607.820000", "162609.310000", "162610.800000", "162612.290000", "162613.780000", "162615.270000", "162616.760000", "162618.250000", "162619.740000", "162621.230000", "162622.720000", "162624.210000", "162625.700000", "162627.190000", "162628.680000", "162630.170000", "162631.660000", "162633.150000", "162634.640000", "162636.130000", "162637.620000", "162639.110000", "162640.600000", "162642.090000", "162643.580000", "162645.070000", "162646.560000", "162648.050000", "162649.540000", "162651.030000", "162652.520000", "162654.010000", "162655.500000", "162656.990000", "162658.480000", "162659.970000", "162701.460000", "162702.950000", "162704.440000", "162705.930000", "162707.420000", "162708.910000", "162710.400000", "162711.890000", "162713.380000", "162714.870000", "162716.360000", "162717.850000", "162719.340000", "162720.830000", "162722.320000", "162723.810000", "162725.300000", "162726.790000", "162728.280000", "162729.770000", "162731.260000", "162732.750000", "162734.240000", "162735.730000", "162737.220000", "162738.710000", "162740.200000", "162741.690000", "162743.180000", "162744.670000", "162746.160000", "162747.650000", "162749.140000", "162750.630000", "162752.120000", "162753.610000", "162755.100000", "162756.590000", "162758.080000", "162759.570000", "162801.060000", "162802.550000", "162804.040000"],
      "ContentTime": ["162109.870000", "162109.873000", "162109.876000", "162109.878000", "162109.881000", "162109.883000", "162109.886000", "162109.888000", "162109.891000", "162109.893000", "162109.896000", "162109.898000", "162109.901000", "162109.903000", "162109.906000", "162109.908000", "162109.911000", "162109.913000", "162109.916000", "162109.918000", "162109.921000", "162109.923000", "162109.926000", "162109.928000", "162109.937000", "162109.939000", "162109.942000", "162109.944000", "162109.947000", "162109.949000", "162109.952000", "162109.954000", "162109.957000", "162109.959000", "162129.776000", "162129.779000", "162129.781000", "162129.784000", "162129.786000", "162129.789000", "162129.791000", "162129.794000", "162129.796000", "162129.799000", "162129.801000", "162129.804000", "162129.806000", "162129.808000", "162129.811000", "162129.814000", "162129.816000", "162129.819000", "162129.821000", "162129.823000", "162149.774000", "162149.777000", "162149.779000", "162149.782000", "162149.784000", "162149.787000", "162149.789000", "162149.792000", "162149.794000", "162149.797000", "162149.799000", "162149.802000", "162149.804000", "162149.807000", "162149.809000", "162149.812000", "162149.814000", "162149.817000", "162149.819000", "162149.822000", "162209.762000", "162209.764000", "162209.853000", "162209.855000", "162209.858000", "162209.860000", "162209.863000", "162209.865000", "162209.868000", "162209.870000", "162209.873000", "162209.875000", "162209.877000", "162209.880000", "162209.882000", "162209.885000", "162209.888000", "162209.890000", "162209.893000", "162209.895000", "162249.815000", "162249.818000", "162249.820000", "162249.823000", "162249.825000", "162249.828000", "162249.831000", "162249.833000", "162249.836000", "162249.838000", "162249.841000", "162249.843000", "162249.846000", "162249.848000", "162249.851000", "162249.853000", "162249.856000", "162249.858000", "162249.861000", "162249.864000", "162249.866000", "162249.869000", "162249.871000", "162249.874000", "162249.876000", "162249.879000", "162249.882000", "162249.884000", "162249.887000", "162329.802000", "162329.805000", "162329.807000", "162329.810000", "162329.813000", "162329.815000", "162329.818000", "162329.820000", "162329.823000", "162329.825000", "162329.828000", "162329.830000", "162329.833000", "162329.835000", "162329.838000", "162329.840000", "162329.843000", "162329.845000", "162329.848000", "162329.850000", "162329.853000", "162329.855000", "162329.858000", "162329.860000", "162329.863000", "162329.865000", "162329.868000", "162409.809000", "162409.811000", "162409.814000", "162409.817000", "162409.819000", "162409.822000", "162409.824000", "162409.827000", "162409.829000", "162409.832000", "162409.834000", "162409.837000", "162409.839000", "162409.842000", "162409.844000", "162409.847000", "162409.849000", "162409.852000", "162409.854000", "162409.857000", "162409.859000", "162409.862000", "162409.864000", "162409.867000", "162409.869000", "162409.872000", "162429.726000", "162429.729000", "162429.731000", "162429.734000", "162429.737000", "162429.739000", "162429.742000", "162429.744000", "162429.747000", "162429.749000", "162429.752000", "162429.754000", "162429.757000", "162429.759000", "162509.803000", "162509.818000", "162509.820000", "162509.823000", "162509.825000", "162509.828000", "162509.830000", "162509.833000", "162509.835000", "162509.838000", "162509.840000", "162509.843000", "162509.845000", "162509.848000", "162509.850000", "162509.853000", "162509.855000", "162509.858000", "162509.860000", "162509.863000", "162509.865000", "162509.868000", "162509.870000", "162509.873000", "162509.875000", "162509.878000", "162509.880000", "162549.794000", "162549.797000", "162549.800000", "162549.802000", "162549.805000", "162549.807000", "162549.810000", "162549.812000", "162549.815000", "162549.817000", "162549.820000", "162549.822000", "162549.825000", "162549.827000", "162549.830000", "162549.841000", "162549.844000", "162549.846000", "162549.849000", "162549.851000", "162549.854000", "162549.857000", "162549.859000", "162549.862000", "162549.864000", "162549.867000", "162549.869000", "162629.802000", "162629.805000", "162629.807000", "162629.810000", "162629.812000", "162629.815000", "162629.818000", "162629.820000", "162629.823000", "162629.825000", "162629.828000", "162629.830000", "162629.833000", "162629.835000", "162629.838000", "162629.840000", "162629.843000", "162629.845000", "162629.848000", "162629.850000", "162629.853000", "162629.855000", "162629.858000", "162629.860000", "162629.863000", "162629.866000", "162709.787000", "162709.790000", "162709.792000", "162709.795000", "162709.797000", "162709.800000", "162709.803000", "162709.805000", "162709.808000", "162709.810000", "162709.813000", "162709.815000", "162709.818000", "162709.820000", "162709.823000", "162709.825000", "162709.829000", "162709.832000", "162709.834000", "162709.837000", "162709.840000", "162709.842000", "162709.845000", "162709.847000", "162709.850000", "162709.853000", "162709.855000", "162749.802000", "162749.806000", "162749.809000", "162749.811000", "162749.814000", "162749.817000", "162749.820000", "162749.822000", "162749.825000", "162749.828000", "162749.831000", "162749.833000", "162749.836000", "162749.839000", "162749.841000", "162749.844000", "162749.847000", "162749.850000", "162749.852000", "162749.855000", "162749.858000", "162749.860000", "162749.863000", "162749.866000", "162749.869000", "162749.872000", "162749.874000", "162807.849000", "162807.852000", "162807.855000", "162807.857000", "162807.873000", "162807.875000", "162807.878000", "162807.880000", "162807.883000", "162807.885000", "162807.888000", "162807.890000"],
      "InstanceCreationTime": ["162109.870000", "162109.873000", "162109.876000", "162109.878000", "162109.881000", "162109.883000", "162109.886000", "162109.888000", "162109.891000", "162109.893000", "162109.896000", "162109.898000", "162109.901000", "162109.903000", "162109.906000", "162109.908000", "162109.911000", "162109.913000", "162109.916000", "162109.918000", "162109.921000", "162109.923000", "162109.926000", "162109.928000", "162109.937000", "162109.939000", "162109.942000", "162109.944000", "162109.947000", "162109.949000", "162109.952000", "162109.954000", "162109.957000", "162109.959000", "162129.776000", "162129.779000", "162129.781000", "162129.784000", "162129.786000", "162129.789000", "162129.791000", "162129.794000", "162129.796000", "162129.799000", "162129.801000", "162129.804000", "162129.806000", "162129.808000", "162129.811000", "162129.814000", "162129.816000", "162129.819000", "162129.821000", "162129.823000", "162149.774000", "162149.777000", "162149.779000", "162149.782000", "162149.784000", "162149.787000", "162149.789000", "162149.792000", "162149.794000", "162149.797000", "162149.799000", "162149.802000", "162149.804000", "162149.807000", "162149.809000", "162149.812000", "162149.814000", "162149.817000", "162149.819000", "162149.822000", "162209.762000", "162209.764000", "162209.853000", "162209.855000", "162209.858000", "162209.860000", "162209.863000", "162209.865000", "162209.868000", "162209.870000", "162209.873000", "162209.875000", "162209.877000", "162209.880000", "162209.882000", "162209.885000", "162209.888000", "162209.890000", "162209.893000", "162209.895000", "162249.815000", "162249.818000", "162249.820000", "162249.823000", "162249.825000", "162249.828000", "162249.831000", "162249.833000", "162249.836000", "162249.838000", "162249.841000", "162249.843000", "162249.846000", "162249.848000", "162249.851000", "162249.853000", "162249.856000", "162249.858000", "162249.861000", "162249.864000", "162249.866000", "162249.869000", "162249.871000", "162249.874000", "162249.876000", "162249.879000", "162249.882000", "162249.884000", "162249.887000", "162329.802000", "162329.805000", "162329.807000", "162329.810000", "162329.813000", "162329.815000", "162329.818000", "162329.820000", "162329.823000", "162329.825000", "162329.828000", "162329.830000", "162329.833000", "162329.835000", "162329.838000", "162329.840000", "162329.843000", "162329.845000", "162329.848000", "162329.850000", "162329.853000", "162329.855000", "162329.858000", "162329.860000", "162329.863000", "162329.865000", "162329.868000", "162409.809000", "162409.811000", "162409.814000", "162409.817000", "162409.819000", "162409.822000", "162409.824000", "162409.827000", "162409.829000", "162409.832000", "162409.834000", "162409.837000", "162409.839000", "162409.842000", "162409.844000", "162409.847000", "162409.849000", "162409.852000", "162409.854000", "162409.857000", "162409.859000", "162409.862000", "162409.864000", "162409.867000", "162409.869000", "162409.872000", "162429.726000", "162429.729000", "162429.731000", "162429.734000", "162429.737000", "162429.739000", "162429.742000", "162429.744000", "162429.747000", "162429.749000", "162429.752000", "162429.754000", "162429.757000", "162429.759000", "162509.803000", "162509.818000", "162509.820000", "162509.823000", "162509.825000", "162509.828000", "162509.830000", "162509.833000", "162509.835000", "162509.838000", "162509.840000", "162509.843000", "162509.845000", "162509.848000", "162509.850000", "162509.853000", "162509.855000", "162509.858000", "162509.860000", "162509.863000", "162509.865000", "162509.868000", "162509.870000", "162509.873000", "162509.875000", "162509.878000", "162509.880000", "162549.794000", "162549.797000", "162549.800000", "162549.802000", "162549.805000", "162549.807000", "162549.810000", "162549.812000", "162549.815000", "162549.817000", "162549.820000", "162549.822000", "162549.825000", "162549.827000", "162549.830000", "162549.841000", "162549.844000", "162549.846000", "162549.849000", "162549.851000", "162549.854000", "162549.857000", "162549.859000", "162549.862000", "162549.864000", "162549.867000", "162549.869000", "162629.802000", "162629.805000", "162629.807000", "162629.810000", "162629.812000", "162629.815000", "162629.818000", "162629.820000", "162629.823000", "162629.825000", "162629.828000", "162629.830000", "162629.833000", "162629.835000", "162629.838000", "162629.840000", "162629.843000", "162629.845000", "162629.848000", "162629.850000", "162629.853000", "162629.855000", "162629.858000", "162629.860000", "162629.863000", "162629.866000", "162709.787000", "162709.790000", "162709.792000", "162709.795000", "162709.797000", "162709.800000", "162709.803000", "162709.805000", "162709.808000", "162709.810000", "162709.813000", "162709.815000", "162709.818000", "162709.820000", "162709.823000", "162709.825000", "162709.829000", "162709.832000", "162709.834000", "162709.837000", "162709.840000", "162709.842000", "162709.845000", "162709.847000", "162709.850000", "162709.853000", "162709.855000", "162749.802000", "162749.806000", "162749.809000", "162749.811000", "162749.814000", "162749.817000", "162749.820000", "162749.822000", "162749.825000", "162749.828000", "162749.831000", "162749.833000", "162749.836000", "162749.839000", "162749.841000", "162749.844000", "162749.847000", "162749.850000", "162749.852000", "162749.855000", "162749.858000", "162749.860000", "162749.863000", "162749.866000", "162749.869000", "162749.872000", "162749.874000", "162807.849000", "162807.852000", "162807.855000", "162807.857000", "162807.873000", "162807.875000", "162807.878000", "162807.880000", "162807.883000", "162807.885000", "162807.888000", "162807.890000"],
      "InstanceNumber": [1, 2, 3, 4, 5, 6, 7, 8, 9, 10, 11, 12, 13, 14, 15, 16, 17, 18, 19, 20, 21, 22, 23, 24, 25, 26, 27, 28, 29, 30, 31, 32, 33, 34, 35, 36, 37, 38, 39, 40, 41, 42, 43, 44, 45, 46, 47, 48, 49, 50, 51, 52, 53, 54, 55, 56, 57, 58, 59, 60, 61, 62, 63, 64, 65, 66, 67, 68, 69, 70, 71, 72, 73, 74, 75, 76, 77, 78, 79, 80, 81, 82, 83, 84, 85, 86, 87, 88, 89, 90, 91, 92, 93, 94, 95, 96, 97, 98, 99, 100, 101, 102, 103, 104, 105, 106, 107, 108, 109, 110, 111, 112, 113, 114, 115, 116, 117, 118, 119, 120, 121, 122, 123, 124, 125, 126, 127, 128, 129, 130, 131, 132, 133, 134, 135, 136, 137, 138, 139, 140, 141, 142, 143, 144, 145, 146, 147, 148, 149, 150, 151, 152, 153, 154, 155, 156, 157, 158, 159, 160, 161, 162, 163, 164, 165, 166, 167, 168, 169, 170, 171, 172, 173, 174, 175, 176, 177, 178, 179, 180, 181, 182, 183, 184, 185, 186, 187, 188, 189, 190, 191, 192, 193, 194, 195, 196, 197, 198, 199, 200, 201, 202, 203, 204, 205, 206, 207, 208, 209, 210, 211, 212, 213, 214, 215, 216, 217, 218, 219, 220, 221, 222, 223, 224, 225, 226, 227, 228, 229, 230, 231, 232, 233, 234, 235, 236, 237, 238, 239, 240, 241, 242, 243, 244, 245, 246, 247, 248, 249, 250, 251, 252, 253, 254, 255, 256, 257, 258, 259, 260, 261, 262, 263, 264, 265, 266, 267, 268, 269, 270, 271, 272, 273, 274, 275, 276, 277, 278, 279, 280, 281, 282, 283, 284, 285, 286, 287, 288, 289, 290, 291, 292, 293, 294, 295, 296, 297, 298, 299, 300, 301, 302, 303, 304, 305, 306, 307, 308, 309, 310, 311, 312, 313, 314, 315, 316, 317, 318, 319, 320, 321, 322, 323, 324, 325, 326, 327, 328, 329, 330, 331, 332, 333, 334, 335, 336],
      "WindowCenter": [4836.0, 4834.0, 4808.0, 4836.0, 4838.0, 4836.0, 4834.0, 4836.0, 4890.0, 4858.0, 4836.0, 4832.0, 4806.0, 4830.0, 4828.0, 4834.0, 4860.0, 4838.0, 4862.0, 4866.0, 4864.0, 4862.0, 4860.0, 4832.0, 4832.0, 4828.0, 4836.0, 4834.0, 4830.0, 4836.0, 4888.0, 4888.0, 4862.0, 4834.0, 4836.0, 4830.0, 4832.0, 4834.0, 4838.0, 4808.0, 4862.0, 4884.0, 4888.0, 4860.0, 4836.0, 4808.0, 4836.0, 4836.0, 4858.0, 4856.0, 4862.0, 4860.0, 4858.0, 4858.0, 4860.0, 4834.0, 4836.0, 4888.0, 4836.0, 4838.0, 4862.0, 4860.0, 4832.0, 4834.0, 4836.0, 4836.0, 4838.0, 4860.0, 4860.0, 4838.0, 4838.0, 4858.0, 4884.0, 4860.0, 4862.0, 4860.0, 4858.0, 4856.0, 4858.0, 4858.0, 4880.0, 4882.0, 4880.0, 4882.0, 4860.0, 4860.0, 4858.0, 4858.0, 4804.0, 4836.0, 4858.0, 4862.0, 4862.0, 4862.0, 4864.0, 4838.0, 4836.0, 4888.0, 4836.0, 4858.0, 4832.0, 4834.0, 4834.0, 4864.0, 4838.0, 4862.0, 4860.0, 4860.0, 4886.0, 4864.0, 4856.0, 4858.0, 4860.0, 4858.0, 4858.0, 4858.0, 4858.0, 4862.0, 4866.0, 4884.0, 4860.0, 4888.0, 4860.0, 4858.0, 4856.0, 4858.0, 4832.0, 4832.0, 4832.0, 4886.0, 4860.0, 4838.0, 4830.0, 4834.0, 4860.0, 4888.0, 4886.0, 4862.0, 4860.0, 4836.0, 4802.0, 4860.0, 4862.0, 4882.0, 4884.0, 4860.0, 4858.0, 4860.0, 4856.0, 4856.0, 4860.0, 4858.0, 4858.0, 4858.0, 4862.0, 4860.0, 4836.0, 4862.0, 4886.0, 4860.0, 4862.0, 4862.0, 4858.0, 4858.0, 4836.0, 4858.0, 4858.0, 4860.0, 4864.0, 4862.0, 4834.0, 4836.0, 4832.0, 4838.0, 4860.0, 4888.0, 4888.0, 4888.0, 4862.0, 4860.0, 4860.0, 4858.0, 4832.0, 4828.0, 4832.0, 4860.0, 4836.0, 4864.0, 4838.0, 4860.0, 4860.0, 4836.0, 4862.0, 4862.0, 4862.0, 4888.0, 4886.0, 4860.0, 4808.0, 4804.0, 4806.0, 4832.0, 4834.0, 4862.0, 4888.0, 4912.0, 4886.0, 4866.0, 4834.0, 4834.0, 4806.0, 4834.0, 4860.0, 4860.0, 4860.0, 4862.0, 4864.0, 4860.0, 4858.0, 4860.0, 4836.0, 4808.0, 4862.0, 4838.0, 4860.0, 4838.0, 4836.0, 4860.0, 4860.0, 4888.0, 4884.0, 4886.0, 4862.0, 4858.0, 4832.0, 4838.0, 4834.0, 4836.0, 4860.0, 4862.0, 4806.0, 4834.0, 4834.0, 4836.0, 4862.0, 4866.0, 4866.0, 4864.0, 4862.0, 4838.0, 4834.0, 4838.0, 4832.0, 4836.0, 4862.0, 4888.0, 4886.0, 4862.0, 4858.0, 4858.0, 4858.0, 4834.0, 4836.0, 4832.0, 4808.0, 4830.0, 4864.0, 4860.0, 4890.0, 4860.0, 4838.0, 4840.0, 4838.0, 4864.0, 4836.0, 4834.0, 4832.0, 4834.0, 4834.0, 4836.0, 4866.0, 4862.0, 4864.0, 4864.0, 4862.0, 4862.0, 4834.0, 4836.0, 4860.0, 4836.0, 4834.0, 4862.0, 4862.0, 4836.0, 4806.0, 4832.0, 4860.0, 4892.0, 4864.0, 4862.0, 4838.0, 4832.0, 4832.0, 4838.0, 4862.0, 4860.0, 4858.0, 4862.0, 4866.0, 4890.0, 4864.0, 4860.0, 4836.0, 4834.0, 4832.0, 4832.0, 4888.0, 4884.0, 4860.0, 4862.0, 4860.0, 4836.0, 4804.0, 4886.0, 4882.0, 4864.0, 4800.0, 4800.0, 4802.0, 4834.0, 4864.0, 4890.0, 4890.0, 4864.0, 4832.0, 4832.0],
