{
  "AcquisitionMatrixPE": 104,
  "AcquisitionNumber": 1,
  "AcquisitionTime": "16:41:36.547500",
  "BandwidthPerPixelPhaseEncode": 17.17,
  "BaseResolution": 104,
  "BodyPartExamined": "BRAIN",
  "CoilCombinationMethod": "Sum of Squares",
  "ConsistencyInfo": "N4_VE11C_LATEST_20160120",
  "ConversionSoftware": "dcm2niix",
  "ConversionSoftwareVersion": "v1.0.20220505",
  "DerivedVendorReportedEchoSpacing": 0.000560011,
  "DeviceSerialNumber": "167006",
  "DwellTime": 2.1e-06,
  "EchoTime": 0.037,
  "EchoTrainLength": 104,
  "EffectiveEchoSpacing": 0.000560011,
  "FlipAngle": 52,
  "HeudiconvVersion": "0.5.3.post811+g6206e14",
  "ImageComments": "Unaliased MB4/PE3/LB",
  "ImageOrientationPatientDICOM": [0.998289, -0.0579381, 0.00792403, 0.0572113, 0.939621, -0.337401],
  "ImageOrientationText": "Tra>Cor(-19.7)>Sag(-0.7)",
  "ImageType": [
    "ORIGINAL",
    "PRIMARY",
    "M",
    "MB",
    "ND",
    "MOSAIC"
],
  "ImagingFrequency": 123.259,
  "InPlanePhaseEncodingDirectionDICOM": "COL",
  "InstitutionAddress": "Chemin Queen-Mary 4565,Montreal,District,CA,H3W 1W5",
  "InstitutionName": "IUGM",
  "InstitutionalDepartmentName": "Department",
  "MRAcquisitionType": "2D",
  "MagneticFieldStrength": 3,
  "Manufacturer": "Siemens",
  "ManufacturersModelName": "Prisma_fit",
  "MatrixCoilMode": "SENSE",
  "Modality": "MR",
  "MultibandAccelerationFactor": 4,
  "PartialFourier": 1,
  "PatientPosition": "HFS",
  "PercentPhaseFOV": 100,
  "PercentSampling": 100,
  "PhaseEncodingDirection": "j",
  "PhaseEncodingSteps": 104,
  "PhaseResolution": 1,
  "PixelBandwidth": 2290,
  "ProcedureStepDescription": "games^mario3",
  "ProtocolName": "func_task-mario3_run-03",
  "PulseSequenceDetails": "%CustomerSeq%\\cmrr_mbep2d_bold",
  "ReceiveCoilActiveElements": "HC1-7;NC1,2",
  "ReceiveCoilName": "HeadNeck_64",
  "ReconMatrixPE": 104,
  "RepetitionTime": 1.49,
  "SAR": 0.0465407,
  "ScanOptions": "FS",
  "ScanningSequence": "EP",
  "SequenceName": "epfid2d1_104",
  "SequenceVariant": "SK\\SS",
  "SeriesDescription": "func_task-mario3_run-03",
  "SeriesNumber": 16,
  "ShimSetting": [637, -7265, -8828, 512, 38, -240, -89, 3],
  "SliceThickness": 2,
  "SliceTiming": [0, 0.785, 0.0975, 0.8825, 0.1975, 0.98, 0.295, 1.0775, 0.3925, 1.175, 0.49, 1.275, 0.5875, 1.3725, 0.685, 0, 0.785, 0.0975, 0.8825, 0.1975, 0.98, 0.295, 1.0775, 0.3925, 1.175, 0.49, 1.275, 0.5875, 1.3725, 0.685, 0, 0.785, 0.0975, 0.8825, 0.1975, 0.98, 0.295, 1.0775, 0.3925, 1.175, 0.49, 1.275, 0.5875, 1.3725, 0.685, 0, 0.785, 0.0975, 0.8825, 0.1975, 0.98, 0.295, 1.0775, 0.3925, 1.175, 0.49, 1.275, 0.5875, 1.3725, 0.685],
  "SoftwareVersions": "syngo MR E11",
  "SpacingBetweenSlices": 2,
  "StationName": "MRC35049",
  "TaskName": "mario3",
  "TotalReadoutTime": 0.0576811,
  "TxRefAmp": 240.192,
  "WipMemBlock": "9dabca42-1c16-496d-9163-bb66b359e9c0||Sequence: R017 ve11c/master r/75a17815+; Jun 28 2022 16:32:11 by eja",
  "dcmmeta_affine": [
    [-1.996577501296997, 0.11442263424396515, -0.02420557662844658, 101.27952575683594],
    [0.11587617546319962, 1.879241704940796, -0.6745540499687195, -71.4219970703125],
    [0.015848061069846153, 0.6748021245002747, 1.8826552629470825, -63.40589904785156],
    [0.0, 0.0, 0.0, 1.0]
],
  "dcmmeta_reorient_transform": [
    [0.0, -1.0, 0.0, 103.0],
    [1.0, 0.0, 0.0, 0.0],
    [0.0, 0.0, 1.0, 0.0],
    [0.0, 0.0, 0.0, 1.0]
],
  "dcmmeta_shape": [104, 104, 60, 432],
  "dcmmeta_slice_dim": 2,
  "dcmmeta_version": 0.6,
  "global": {
    "const": {
      "AcquisitionMatrix": [104, 0, 0, 104],
      "AngioFlag": "N",
      "BitsAllocated": 16,
      "BitsStored": 16,
      "BodyPartExamined": "BRAIN",
      "Columns": 832,
      "EchoNumbers": 1,
      "EchoTime": 37.0,
      "EchoTrainLength": 104,
      "FlipAngle": 52.0,
      "HighBit": 15,
      "ImageOrientationPatient": [0.99828872962102, -0.057938088062, 0.00792403075265, 0.0572113173045, 0.93962087171985, -0.3374010708352],
      "ImagePositionPatient": [-881.46908956961, -764.00497270135, 245.95800625062],
      "ImageType": [
        "ORIGINAL",
        "PRIMARY",
        "M",
        "MB",
        "ND",
        "MOSAIC"
],
      "ImagedNucleus": "1H",
      "ImagingFrequency": 123.259002,
      "InPlanePhaseEncodingDirection": "COL",
      "MRAcquisitionType": "2D",
      "MagneticFieldStrength": 3.0,
      "Manufacturer": "SIEMENS",
      "ManufacturerModelName": "Prisma_fit",
      "Modality": "MR",
      "NumberOfAverages": 1.0,
      "NumberOfPhaseEncodingSteps": 104,
      "PercentPhaseFieldOfView": 100.0,
      "PercentSampling": 100.0,
      "PerformedProcedureStepStartTime": "161459.408000",
      "PhotometricInterpretation": "MONOCHROME2",
      "PixelBandwidth": 2290.0,
      "PixelRepresentation": 0,
      "PixelSpacing": [2.0, 2.0],
      "ProtocolName": "func_task-mario3_run-03",
      "RepetitionTime": 1490.0,
      "Rows": 832,
      "SAR": 0.04654069978023,
      "SamplesPerPixel": 1,
      "ScanOptions": "FS",
      "ScanningSequence": "EP",
      "SequenceName": "epfid2d1_104",
      "SequenceVariant": [
        "SK",
        "SS"
],
      "SeriesDescription": "func_task-mario3_run-03",
      "SeriesNumber": 16,
      "SeriesTime": "164252.280000",
      "SliceLocation": -36.822492591974,
      "SliceThickness": 2.0,
      "SmallestImagePixelValue": 0,
      "SoftwareVersions": "syngo MR E11",
      "SpacingBetweenSlices": 1.9999999533534,
      "SpecificCharacterSet": "ISO_IR 100",
      "StudyID": "1",
      "StudyTime": "161459.332000",
      "TransmitCoilName": "Body",
      "VariableFlipAngleFlag": "N",
      "WindowCenterWidthExplanation": "Algo1",
      "dBdt": 0.0},
    "slices": {}
  },
  "time": {
    "samples": {
      "AcquisitionNumber": [1, 2, 3, 4, 5, 6, 7, 8, 9, 10, 11, 12, 13, 14, 15, 16, 17, 18, 19, 20, 21, 22, 23, 24, 25, 26, 27, 28, 29, 30, 31, 32, 33, 34, 35, 36, 37, 38, 39, 40, 41, 42, 43, 44, 45, 46, 47, 48, 49, 50, 51, 52, 53, 54, 55, 56, 57, 58, 59, 60, 61, 62, 63, 64, 65, 66, 67, 68, 69, 70, 71, 72, 73, 74, 75, 76, 77, 78, 79, 80, 81, 82, 83, 84, 85, 86, 87, 88, 89, 90, 91, 92, 93, 94, 95, 96, 97, 98, 99, 100, 101, 102, 103, 104, 105, 106, 107, 108, 109, 110, 111, 112, 113, 114, 115, 116, 117, 118, 119, 120, 121, 122, 123, 124, 125, 126, 127, 128, 129, 130, 131, 132, 133, 134, 135, 136, 137, 138, 139, 140, 141, 142, 143, 144, 145, 146, 147, 148, 149, 150, 151, 152, 153, 154, 155, 156, 157, 158, 159, 160, 161, 162, 163, 164, 165, 166, 167, 168, 169, 170, 171, 172, 173, 174, 175, 176, 177, 178, 179, 180, 181, 182, 183, 184, 185, 186, 187, 188, 189, 190, 191, 192, 193, 194, 195, 196, 197, 198, 199, 200, 201, 202, 203, 204, 205, 206, 207, 208, 209, 210, 211, 212, 213, 214, 215, 216, 217, 218, 219, 220, 221, 222, 223, 224, 225, 226, 227, 228, 229, 230, 231, 232, 233, 234, 235, 236, 237, 238, 239, 240, 241, 242, 243, 244, 245, 246, 247, 248, 249, 250, 251, 252, 253, 254, 255, 256, 257, 258, 259, 260, 261, 262, 263, 264, 265, 266, 267, 268, 269, 270, 271, 272, 273, 274, 275, 276, 277, 278, 279, 280, 281, 282, 283, 284, 285, 286, 287, 288, 289, 290, 291, 292, 293, 294, 295, 296, 297, 298, 299, 300, 301, 302, 303, 304, 305, 306, 307, 308, 309, 310, 311, 312, 313, 314, 315, 316, 317, 318, 319, 320, 321, 322, 323, 324, 325, 326, 327, 328, 329, 330, 331, 332, 333, 334, 335, 336, 337, 338, 339, 340, 341, 342, 343, 344, 345, 346, 347, 348, 349, 350, 351, 352, 353, 354, 355, 356, 357, 358, 359, 360, 361, 362, 363, 364, 365, 366, 367, 368, 369, 370, 371, 372, 373, 374, 375, 376, 377, 378, 379, 380, 381, 382, 383, 384, 385, 386, 387, 388, 389, 390, 391, 392, 393, 394, 395, 396, 397, 398, 399, 400, 401, 402, 403, 404, 405, 406, 407, 408, 409, 410, 411, 412, 413, 414, 415, 416, 417, 418, 419, 420, 421, 422, 423, 424, 425, 426, 427, 428, 429, 430, 431, 432],
      "AcquisitionTime": ["164136.547500", "164138.037500", "164139.527500", "164141.017500", "164142.507500", "164143.997500", "164145.487500", "164146.977500", "164148.467500", "164149.957500", "164151.447500", "164152.937500", "164154.427500", "164155.917500", "164157.407500", "164158.897500", "164200.387500", "164201.877500", "164203.367500", "164204.857500", "164206.347500", "164207.837500", "164209.327500", "164210.817500", "164212.307500", "164213.797500", "164215.287500", "164216.777500", "164218.267500", "164219.757500", "164221.247500", "164222.737500", "164224.227500", "164225.717500", "164227.207500", "164228.697500", "164230.187500", "164231.677500", "164233.167500", "164234.657500", "164236.147500", "164237.637500", "164239.127500", "164240.617500", "164242.107500", "164243.597500", "164245.087500", "164246.577500", "164248.067500", "164249.557500", "164251.047500", "164252.537500", "164254.027500", "164255.517500", "164257.007500", "164258.497500", "164259.987500", "164301.477500", "164302.967500", "164304.457500", "164305.947500", "164307.437500", "164308.927500", "164310.417500", "164311.907500", "164313.397500", "164314.887500", "164316.377500", "164317.867500", "164319.357500", "164320.847500", "164322.337500", "164323.827500", "164325.317500", "164326.807500", "164328.297500", "164329.787500", "164331.277500", "164332.767500", "164334.257500", "164335.747500", "164337.237500", "164338.727500", "164340.217500", "164341.707500", "164343.197500", "164344.687500", "164346.177500", "164347.667500", "164349.157500", "164350.647500", "164352.137500", "164353.627500", "164355.117500", "164356.607500", "164358.097500", "164359.587500", "164401.077500", "164402.567500", "164404.057500", "164405.547500", "164407.037500", "164408.527500", "164410.017500", "164411.507500", "164412.997500", "164414.487500", "164415.977500", "164417.467500", "164418.957500", "164420.447500", "164421.937500", "164423.427500", "164424.917500", "164426.407500", "164427.897500", "164429.387500", "164430.877500", "164432.367500", "164433.857500", "164435.347500", "164436.837500", "164438.327500", "164439.817500", "164441.307500", "164442.797500", "164444.287500", "164445.777500", "164447.267500", "164448.757500", "164450.247500", "164451.737500", "164453.227500", "164454.717500", "164456.207500", "164457.697500", "164459.187500", "164500.677500", "164502.167500", "164503.657500", "164505.147500", "164506.637500", "164508.127500", "164509.617500", "164511.107500", "164512.597500", "164514.087500", "164515.577500", "164517.067500", "164518.557500", "164520.047500", "164521.537500", "164523.027500", "164524.517500", "164526.007500", "164527.497500", "164528.987500", "164530.477500", "164531.967500", "164533.457500", "164534.947500", "164536.437500", "164537.927500", "164539.417500", "164540.907500", "164542.397500", "164543.887500", "164545.377500", "164546.867500", "164548.357500", "164549.847500", "164551.337500", "164552.827500", "164554.317500", "164555.807500", "164557.297500", "164558.787500", "164600.277500", "164601.767500", "164603.257500", "164604.747500", "164606.237500", "164607.727500", "164609.217500", "164610.707500", "164612.197500", "164613.687500", "164615.177500", "164616.667500", "164618.157500", "164619.647500", "164621.137500", "164622.627500", "164624.117500", "164625.607500", "164627.097500", "164628.587500", "164630.077500", "164631.567500", "164633.057500", "164634.547500", "164636.037500", "164637.527500", "164639.017500", "164640.507500", "164641.997500", "164643.487500", "164644.977500", "164646.467500", "164647.957500", "164649.447500", "164650.937500", "164652.427500", "164653.917500", "164655.407500", "164656.897500", "164658.387500", "164659.877500", "164701.367500", "164702.857500", "164704.347500", "164705.837500", "164707.327500", "164708.817500", "164710.307500", "164711.797500", "164713.287500", "164714.777500", "164716.267500", "164717.757500", "164719.247500", "164720.737500", "164722.227500", "164723.717500", "164725.207500", "164726.697500", "164728.187500", "164729.677500", "164731.167500", "164732.657500", "164734.147500", "164735.637500", "164737.127500", "164738.617500", "164740.107500", "164741.597500", "164743.087500", "164744.577500", "164746.067500", "164747.557500", "164749.047500", "164750.537500", "164752.027500", "164753.517500", "164755.007500", "164756.497500", "164757.987500", "164759.477500", "164800.967500", "164802.457500", "164803.947500", "164805.437500", "164806.927500", "164808.417500", "164809.907500", "164811.397500", "164812.887500", "164814.377500", "164815.867500", "164817.357500", "164818.847500", "164820.337500", "164821.827500", "164823.317500", "164824.807500", "164826.297500", "164827.787500", "164829.277500", "164830.767500", "164832.257500", "164833.747500", "164835.237500", "164836.727500", "164838.217500", "164839.707500", "164841.197500", "164842.687500", "164844.177500", "164845.667500", "164847.157500", "164848.647500", "164850.137500", "164851.627500", "164853.117500", "164854.607500", "164856.097500", "164857.587500", "164859.077500", "164900.567500", "164902.057500", "164903.547500", "164905.037500", "164906.527500", "164908.017500", "164909.507500", "164910.997500", "164912.487500", "164913.977500", "164915.467500", "164916.957500", "164918.447500", "164919.937500", "164921.427500", "164922.917500", "164924.407500", "164925.897500", "164927.387500", "164928.877500", "164930.367500", "164931.857500", "164933.347500", "164934.837500", "164936.327500", "164937.817500", "164939.307500", "164940.797500", "164942.287500", "164943.777500", "164945.267500", "164946.757500", "164948.247500", "164949.737500", "164951.227500", "164952.717500", "164954.207500", "164955.697500", "164957.187500", "164958.677500", "165000.167500", "165001.657500", "165003.147500", "165004.637500", "165006.127500", "165007.617500", "165009.107500", "165010.597500", "165012.087500", "165013.577500", "165015.067500", "165016.557500", "165018.047500", "165019.537500", "165021.027500", "165022.517500", "165024.007500", "165025.497500", "165026.987500", "165028.477500", "165029.967500", "165031.457500", "165032.947500", "165034.437500", "165035.927500", "165037.417500", "165038.907500", "165040.397500", "165041.887500", "165043.377500", "165044.867500", "165046.357500", "165047.847500", "165049.337500", "165050.827500", "165052.317500", "165053.807500", "165055.297500", "165056.787500", "165058.277500", "165059.767500", "165101.257500", "165102.747500", "165104.237500", "165105.727500", "165107.217500", "165108.707500", "165110.197500", "165111.687500", "165113.177500", "165114.667500", "165116.157500", "165117.647500", "165119.137500", "165120.627500", "165122.117500", "165123.607500", "165125.097500", "165126.587500", "165128.077500", "165129.567500", "165131.057500", "165132.547500", "165134.037500", "165135.527500", "165137.017500", "165138.507500", "165139.997500", "165141.487500", "165142.977500", "165144.467500", "165145.957500", "165147.447500", "165148.937500", "165150.427500", "165151.917500", "165153.407500", "165154.897500", "165156.387500", "165157.877500", "165159.367500", "165200.857500", "165202.347500", "165203.837500", "165205.327500", "165206.817500", "165208.307500", "165209.797500", "165211.287500", "165212.777500", "165214.267500", "165215.757500", "165217.247500", "165218.737500"],
      "ContentTime": ["164252.284000", "164252.288000", "164252.291000", "164252.294000", "164252.298000", "164252.301000", "164252.305000", "164252.308000", "164252.311000", "164252.315000", "164252.318000", "164252.326000", "164252.330000", "164252.333000", "164252.336000", "164252.339000", "164252.343000", "164252.346000", "164252.349000", "164252.353000", "164252.356000", "164252.359000", "164252.362000", "164252.366000", "164252.369000", "164252.372000", "164252.376000", "164252.379000", "164312.248000", "164312.252000", "164312.255000", "164312.258000", "164312.262000", "164312.265000", "164312.268000", "164312.272000", "164312.275000", "164312.278000", "164312.282000", "164312.285000", "164312.288000", "164312.291000", "164312.295000", "164312.298000", "164312.301000", "164312.305000", "164312.308000", "164312.311000", "164332.248000", "164332.252000", "164332.255000", "164332.258000", "164332.262000", "164332.265000", "164332.268000", "164332.272000", "164332.275000", "164332.278000", "164332.282000", "164332.285000", "164332.288000", "164332.291000", "164332.295000", "164332.298000", "164332.301000", "164332.305000", "164332.308000", "164332.311000", "164352.248000", "164352.252000", "164352.255000", "164352.258000", "164352.261000", "164352.265000", "164352.268000", "164352.271000", "164352.274000", "164352.278000", "164352.281000", "164352.285000", "164352.288000", "164352.298000", "164352.301000", "164352.304000", "164352.307000", "164352.311000", "164352.314000", "164352.317000", "164432.249000", "164432.253000", "164432.256000", "164432.260000", "164432.263000", "164432.266000", "164432.270000", "164432.273000", "164432.276000", "164432.288000", "164432.291000", "164432.294000", "164432.298000", "164432.301000", "164432.304000", "164432.308000", "164432.311000", "164432.314000", "164432.318000", "164432.321000", "164432.324000", "164432.328000", "164432.331000", "164432.334000", "164432.337000", "164432.341000", "164432.344000", "164432.347000", "164432.350000", "164512.248000", "164512.252000", "164512.255000", "164512.259000", "164512.262000", "164512.265000", "164512.269000", "164512.272000", "164512.275000", "164512.279000", "164512.282000", "164512.285000", "164512.289000", "164512.292000", "164512.295000", "164512.299000", "164512.302000", "164512.305000", "164512.309000", "164512.312000", "164512.315000", "164512.319000", "164512.322000", "164512.325000", "164512.329000", "164512.332000", "164512.335000", "164552.248000", "164552.252000", "164552.255000", "164552.259000", "164552.262000", "164552.265000", "164552.268000", "164552.272000", "164552.275000", "164552.278000", "164552.282000", "164552.285000", "164552.288000", "164552.292000", "164552.304000", "164552.307000", "164552.311000", "164552.314000", "164552.317000", "164552.321000", "164552.324000", "164552.327000", "164552.331000", "164552.334000", "164552.337000", "164552.341000", "164552.344000", "164632.248000", "164632.252000", "164632.255000", "164632.259000", "164632.262000", "164632.265000", "164632.269000", "164632.272000", "164632.275000", "164632.279000", "164632.282000", "164632.285000", "164632.289000", "164632.292000", "164632.295000", "164632.298000", "164632.302000", "164632.305000", "164632.308000", "164632.312000", "164632.315000", "164632.319000", "164632.322000", "164632.325000", "164632.328000", "164632.332000", "164632.351000", "164712.248000", "164712.252000", "164712.256000", "164712.259000", "164712.262000", "164712.266000", "164712.269000", "164712.272000", "164712.276000", "164712.279000", "164712.283000", "164712.286000", "164712.289000", "164712.292000", "164712.296000", "164712.299000", "164712.302000", "164712.306000", "164712.309000", "164712.312000", "164712.315000", "164712.319000", "164712.322000", "164712.325000", "164712.329000", "164712.332000", "164712.335000", "164752.248000", "164752.252000", "164752.255000", "164752.258000", "164752.262000", "164752.265000", "164752.268000", "164752.272000", "164752.275000", "164752.279000", "164752.282000", "164752.285000", "164752.288000", "164752.292000", "164752.295000", "164752.298000", "164752.301000", "164752.305000", "164752.308000", "164752.311000", "164752.315000", "164752.318000", "164752.321000", "164752.324000", "164752.328000", "164752.331000", "164832.248000", "164832.252000", "164832.255000", "164832.258000", "164832.262000", "164832.265000", "164832.268000", "164832.271000", "164832.275000", "164832.278000", "164832.281000", "164832.285000", "164832.288000", "164832.291000", "164832.294000", "164832.298000", "164832.301000", "164832.304000", "164832.308000", "164832.311000", "164832.314000", "164832.317000", "164832.321000", "164832.324000", "164832.327000", "164832.331000", "164832.334000", "164912.250000", "164912.254000", "164912.257000", "164912.260000", "164912.263000", "164912.267000", "164912.270000", "164912.273000", "164912.298000", "164912.301000", "164912.305000", "164912.308000", "164912.311000", "164912.315000", "164912.318000", "164912.321000", "164912.325000", "164912.328000", "164912.331000", "164912.335000", "164912.338000", "164912.341000", "164912.344000", "164912.348000", "164912.351000", "164912.354000", "164912.358000", "164952.248000", "164952.252000", "164952.255000", "164952.258000", "164952.261000", "164952.265000", "164952.268000", "164952.271000", "164952.275000", "164952.278000", "164952.281000", "164952.285000", "164952.288000", "164952.291000", "164952.294000", "164952.298000", "164952.301000", "164952.304000", "164952.308000", "164952.311000", "164952.314000", "164952.318000", "164952.321000", "164952.324000", "164952.328000", "164952.331000", "164952.334000", "165032.248000", "165032.252000", "165032.255000", "165032.259000", "165032.262000", "165032.265000", "165032.269000", "165032.272000", "165032.276000", "165032.279000", "165032.282000", "165032.286000", "165032.289000", "165032.292000", "165032.296000", "165032.299000", "165032.302000", "165032.305000", "165032.309000", "165032.312000", "165032.315000", "165032.319000", "165032.322000", "165032.325000", "165032.328000", "165032.332000", "165032.335000", "165112.248000", "165112.252000", "165112.255000", "165112.264000", "165112.267000", "165112.271000", "165112.274000", "165112.279000", "165112.282000", "165112.286000", "165112.289000", "165112.292000", "165112.296000", "165112.299000", "165112.302000", "165112.315000", "165112.318000", "165112.322000", "165112.325000", "165112.328000", "165112.332000", "165112.335000", "165112.338000", "165112.342000", "165112.345000", "165112.348000", "165112.351000", "165152.248000", "165152.254000", "165152.258000", "165152.261000", "165152.265000", "165152.268000", "165152.271000", "165152.275000", "165152.278000", "165152.281000", "165152.284000", "165152.288000", "165152.291000", "165152.294000", "165152.297000", "165152.301000", "165152.304000", "165152.307000", "165152.311000", "165152.314000", "165152.317000", "165152.320000", "165152.324000", "165152.327000", "165152.330000", "165152.333000", "165221.088000", "165221.092000", "165221.095000", "165221.098000", "165221.116000", "165221.119000", "165221.122000", "165221.127000", "165221.132000", "165221.135000", "165221.139000", "165221.142000", "165221.145000", "165221.149000", "165221.152000", "165221.156000", "165221.159000", "165221.164000", "165221.168000", "165221.173000"],
      "InstanceCreationTime": ["164252.284000", "164252.288000", "164252.291000", "164252.294000", "164252.298000", "164252.301000", "164252.305000", "164252.308000", "164252.311000", "164252.315000", "164252.318000", "164252.326000", "164252.330000", "164252.333000", "164252.336000", "164252.339000", "164252.343000", "164252.346000", "164252.349000", "164252.353000", "164252.356000", "164252.359000", "164252.362000", "164252.366000", "164252.369000", "164252.372000", "164252.376000", "164252.379000", "164312.248000", "164312.252000", "164312.255000", "164312.258000", "164312.262000", "164312.265000", "164312.268000", "164312.272000", "164312.275000", "164312.278000", "164312.282000", "164312.285000", "164312.288000", "164312.291000", "164312.295000", "164312.298000", "164312.301000", "164312.305000", "164312.308000", "164312.311000", "164332.248000", "164332.252000", "164332.255000", "164332.258000", "164332.262000", "164332.265000", "164332.268000", "164332.272000", "164332.275000", "164332.278000", "164332.282000", "164332.285000", "164332.288000", "164332.291000", "164332.295000", "164332.298000", "164332.301000", "164332.305000", "164332.308000", "164332.311000", "164352.248000", "164352.252000", "164352.255000", "164352.258000", "164352.261000", "164352.265000", "164352.268000", "164352.271000", "164352.274000", "164352.278000", "164352.281000", "164352.285000", "164352.288000", "164352.298000", "164352.301000", "164352.304000", "164352.307000", "164352.311000", "164352.314000", "164352.317000", "164432.249000", "164432.253000", "164432.256000", "164432.260000", "164432.263000", "164432.266000", "164432.270000", "164432.273000", "164432.276000", "164432.288000", "164432.291000", "164432.294000", "164432.298000", "164432.301000", "164432.304000", "164432.308000", "164432.311000", "164432.314000", "164432.318000", "164432.321000", "164432.324000", "164432.328000", "164432.331000", "164432.334000", "164432.337000", "164432.341000", "164432.344000", "164432.347000", "164432.350000", "164512.248000", "164512.252000", "164512.255000", "164512.259000", "164512.262000", "164512.265000", "164512.269000", "164512.272000", "164512.275000", "164512.279000", "164512.282000", "164512.285000", "164512.289000", "164512.292000", "164512.295000", "164512.299000", "164512.302000", "164512.305000", "164512.309000", "164512.312000", "164512.315000", "164512.319000", "164512.322000", "164512.325000", "164512.329000", "164512.332000", "164512.335000", "164552.248000", "164552.252000", "164552.255000", "164552.259000", "164552.262000", "164552.265000", "164552.268000", "164552.272000", "164552.275000", "164552.278000", "164552.282000", "164552.285000", "164552.288000", "164552.292000", "164552.304000", "164552.307000", "164552.311000", "164552.314000", "164552.317000", "164552.321000", "164552.324000", "164552.327000", "164552.331000", "164552.334000", "164552.337000", "164552.341000", "164552.344000", "164632.248000", "164632.252000", "164632.255000", "164632.259000", "164632.262000", "164632.265000", "164632.269000", "164632.272000", "164632.275000", "164632.279000", "164632.282000", "164632.285000", "164632.289000", "164632.292000", "164632.295000", "164632.298000", "164632.302000", "164632.305000", "164632.308000", "164632.312000", "164632.315000", "164632.319000", "164632.322000", "164632.325000", "164632.328000", "164632.332000", "164632.351000", "164712.248000", "164712.252000", "164712.256000", "164712.259000", "164712.262000", "164712.266000", "164712.269000", "164712.272000", "164712.276000", "164712.279000", "164712.283000", "164712.286000", "164712.289000", "164712.292000", "164712.296000", "164712.299000", "164712.302000", "164712.306000", "164712.309000", "164712.312000", "164712.315000", "164712.319000", "164712.322000", "164712.325000", "164712.329000", "164712.332000", "164712.335000", "164752.248000", "164752.252000", "164752.255000", "164752.258000", "164752.262000", "164752.265000", "164752.268000", "164752.272000", "164752.275000", "164752.279000", "164752.282000", "164752.285000", "164752.288000", "164752.292000", "164752.295000", "164752.298000", "164752.301000", "164752.305000", "164752.308000", "164752.311000", "164752.315000", "164752.318000", "164752.321000", "164752.324000", "164752.328000", "164752.331000", "164832.248000", "164832.252000", "164832.255000", "164832.258000", "164832.262000", "164832.265000", "164832.268000", "164832.271000", "164832.275000", "164832.278000", "164832.281000", "164832.285000", "164832.288000", "164832.291000", "164832.294000", "164832.298000", "164832.301000", "164832.304000", "164832.308000", "164832.311000", "164832.314000", "164832.317000", "164832.321000", "164832.324000", "164832.327000", "164832.331000", "164832.334000", "164912.250000", "164912.254000", "164912.257000", "164912.260000", "164912.263000", "164912.267000", "164912.270000", "164912.273000", "164912.298000", "164912.301000", "164912.305000", "164912.308000", "164912.311000", "164912.315000", "164912.318000", "164912.321000", "164912.325000", "164912.328000", "164912.331000", "164912.335000", "164912.338000", "164912.341000", "164912.344000", "164912.348000", "164912.351000", "164912.354000", "164912.358000", "164952.248000", "164952.252000", "164952.255000", "164952.258000", "164952.261000", "164952.265000", "164952.268000", "164952.271000", "164952.275000", "164952.278000", "164952.281000", "164952.285000", "164952.288000", "164952.291000", "164952.294000", "164952.298000", "164952.301000", "164952.304000", "164952.308000", "164952.311000", "164952.314000", "164952.318000", "164952.321000", "164952.324000", "164952.328000", "164952.331000", "164952.334000", "165032.248000", "165032.252000", "165032.255000", "165032.259000", "165032.262000", "165032.265000", "165032.269000", "165032.272000", "165032.276000", "165032.279000", "165032.282000", "165032.286000", "165032.289000", "165032.292000", "165032.296000", "165032.299000", "165032.302000", "165032.305000", "165032.309000", "165032.312000", "165032.315000", "165032.319000", "165032.322000", "165032.325000", "165032.328000", "165032.332000", "165032.335000", "165112.248000", "165112.252000", "165112.255000", "165112.264000", "165112.267000", "165112.271000", "165112.274000", "165112.279000", "165112.282000", "165112.286000", "165112.289000", "165112.292000", "165112.296000", "165112.299000", "165112.302000", "165112.315000", "165112.318000", "165112.322000", "165112.325000", "165112.328000", "165112.332000", "165112.335000", "165112.338000", "165112.342000", "165112.345000", "165112.348000", "165112.351000", "165152.248000", "165152.254000", "165152.258000", "165152.261000", "165152.265000", "165152.268000", "165152.271000", "165152.275000", "165152.278000", "165152.281000", "165152.284000", "165152.288000", "165152.291000", "165152.294000", "165152.297000", "165152.301000", "165152.304000", "165152.307000", "165152.311000", "165152.314000", "165152.317000", "165152.320000", "165152.324000", "165152.327000", "165152.330000", "165152.333000", "165221.088000", "165221.092000", "165221.095000", "165221.098000", "165221.116000", "165221.119000", "165221.122000", "165221.127000", "165221.132000", "165221.135000", "165221.139000", "165221.142000", "165221.145000", "165221.149000", "165221.152000", "165221.156000", "165221.159000", "165221.164000", "165221.168000", "165221.173000"],
