{
  "AcquisitionMatrixPE": 104,
  "AcquisitionNumber": 1,
  "AcquisitionTime": "16:30:3.960000",
  "BandwidthPerPixelPhaseEncode": 17.17,
  "BaseResolution": 104,
  "BodyPartExamined": "BRAIN",
  "CoilCombinationMethod": "Sum of Squares",
  "ConsistencyInfo": "N4_VE11C_LATEST_20160120",
  "ConversionSoftware": "dcm2niix",
  "ConversionSoftwareVersion": "v1.0.20220505",
  "DerivedVendorReportedEchoSpacing": 0.000560011,
  "DeviceSerialNumber": "167006",
  "DwellTime": 2.1e-06,
  "EchoTime": 0.037,
  "EchoTime1": 0.037,
  "EchoTime2": 0.001,
  "EchoTrainLength": 104,
  "EffectiveEchoSpacing": 0.000560011,
  "FlipAngle": 52,
  "HeudiconvVersion": "0.5.3.post811+g6206e14",
  "ImageComments": "Unaliased MB4/PE3/LB",
  "ImageOrientationPatientDICOM": [0.998289, -0.0579381, 0.00792403, 0.0572113, 0.939621, -0.337401],
  "ImageOrientationText": "Tra>Cor(-19.7)>Sag(-0.7)",
  "ImageType": [
    "ORIGINAL",
    "PRIMARY",
    "P",
    "MB",
    "ND",
    "MOSAIC",
    "PHASE"
],
  "ImagingFrequency": 123.259,
  "InPlanePhaseEncodingDirectionDICOM": "COL",
  "InstitutionAddress": "Chemin Queen-Mary 4565,Montreal,District,CA,H3W 1W5",
  "InstitutionName": "IUGM",
  "InstitutionalDepartmentName": "Department",
  "MRAcquisitionType": "2D",
  "MagneticFieldStrength": 3,
  "Manufacturer": "Siemens",
  "ManufacturersModelName": "Prisma_fit",
  "MatrixCoilMode": "SENSE",
  "Modality": "MR",
  "MultibandAccelerationFactor": 4,
  "PartialFourier": 1,
  "PatientPosition": "HFS",
  "PercentPhaseFOV": 100,
  "PercentSampling": 100,
  "PhaseEncodingDirection": "j",
  "PhaseEncodingSteps": 104,
  "PhaseResolution": 1,
  "PixelBandwidth": 2290,
  "ProcedureStepDescription": "games^mario3",
  "ProtocolName": "func_task-mario3_run-02",
  "PulseSequenceDetails": "%CustomerSeq%\\cmrr_mbep2d_bold",
  "ReceiveCoilActiveElements": "HC1-7;NC1,2",
  "ReceiveCoilName": "HeadNeck_64",
  "ReconMatrixPE": 104,
  "RepetitionTime": 1.49,
  "SAR": 0.0465407,
  "ScanOptions": "FS",
  "ScanningSequence": "EP",
  "SequenceName": "epfid2d1_104",
  "SequenceVariant": "SK\\SS",
  "SeriesDescription": "func_task-mario3_run-02",
  "SeriesNumber": 14,
  "ShimSetting": [637, -7265, -8828, 512, 38, -240, -89, 3],
  "SliceThickness": 2,
  "SliceTiming": [0, 0.7825, 0.0975, 0.8825, 0.195, 0.98, 0.295, 1.0775, 0.3925, 1.175, 0.49, 1.2725, 0.5875, 1.3725, 0.685, 0, 0.7825, 0.0975, 0.8825, 0.195, 0.98, 0.295, 1.0775, 0.3925, 1.175, 0.49, 1.2725, 0.5875, 1.3725, 0.685, 0, 0.7825, 0.0975, 0.8825, 0.195, 0.98, 0.295, 1.0775, 0.3925, 1.175, 0.49, 1.2725, 0.5875, 1.3725, 0.685, 0, 0.7825, 0.0975, 0.8825, 0.195, 0.98, 0.295, 1.0775, 0.3925, 1.175, 0.49, 1.2725, 0.5875, 1.3725, 0.685],
  "SoftwareVersions": "syngo MR E11",
  "SpacingBetweenSlices": 2,
  "StationName": "MRC35049",
  "TaskName": "mario3",
  "TotalReadoutTime": 0.0576811,
  "TxRefAmp": 240.192,
  "WipMemBlock": "2784a290-1753-46e7-8f8a-50a90ebfd7d8||Sequence: R017 ve11c/master r/75a17815+; Jun 28 2022 16:32:11 by eja",
  "dcmmeta_affine": [
    [-1.996577501296997, 0.11442263424396515, -0.02420557662844658, 101.27952575683594],
    [0.11587617546319962, 1.879241704940796, -0.6745540499687195, -71.4219970703125],
    [0.015848061069846153, 0.6748021245002747, 1.8826552629470825, -63.40589904785156],
    [0.0, 0.0, 0.0, 1.0]
],
  "dcmmeta_reorient_transform": [
    [0.0, -1.0, 0.0, 103.0],
    [1.0, 0.0, 0.0, 0.0],
    [0.0, 0.0, 1.0, 0.0],
    [0.0, 0.0, 0.0, 1.0]
],
  "dcmmeta_shape": [104, 104, 60, 369],
  "dcmmeta_slice_dim": 2,
  "dcmmeta_version": 0.6,
  "global": {
    "const": {
      "AcquisitionMatrix": [104, 0, 0, 104],
      "AngioFlag": "N",
      "BitsAllocated": 16,
      "BitsStored": 16,
      "BodyPartExamined": "BRAIN",
      "Columns": 832,
      "EchoNumbers": 1,
      "EchoTime": 37.0,
      "EchoTrainLength": 104,
      "FlipAngle": 52.0,
      "HighBit": 15,
      "ImageOrientationPatient": [0.99828872962102, -0.057938088062, 0.00792403075265, 0.0572113173045, 0.93962087171985, -0.3374010708352],
      "ImagePositionPatient": [-881.46908956961, -764.00497270135, 245.95800625062],
      "ImageType": [
        "ORIGINAL",
        "PRIMARY",
        "P",
        "MB",
        "ND",
        "MOSAIC"
],
      "ImagedNucleus": "1H",
      "ImagingFrequency": 123.259,
      "InPlanePhaseEncodingDirection": "COL",
      "LargestImagePixelValue": 4095,
      "MRAcquisitionType": "2D",
      "MagneticFieldStrength": 3.0,
      "Manufacturer": "SIEMENS",
      "ManufacturerModelName": "Prisma_fit",
      "Modality": "MR",
      "NumberOfAverages": 1.0,
      "NumberOfPhaseEncodingSteps": 104,
      "PercentPhaseFieldOfView": 100.0,
      "PercentSampling": 100.0,
      "PerformedProcedureStepStartTime": "161459.408000",
      "PhotometricInterpretation": "MONOCHROME2",
      "PixelBandwidth": 2290.0,
      "PixelRepresentation": 0,
      "PixelSpacing": [2.0, 2.0],
      "ProtocolName": "func_task-mario3_run-02",
      "RepetitionTime": 1490.0,
      "RescaleIntercept": -4096.0,
      "RescaleSlope": 2.0,
      "RescaleType": "US",
      "Rows": 832,
      "SAR": 0.04654069978023,
      "SamplesPerPixel": 1,
      "ScanOptions": "FS",
      "ScanningSequence": "EP",
      "SequenceName": "epfid2d1_104",
      "SequenceVariant": [
        "SK",
        "SS"
],
      "SeriesDescription": "func_task-mario3_run-02",
      "SeriesNumber": 14,
      "SeriesTime": "163126.725000",
      "SliceLocation": -36.822492591974,
      "SliceThickness": 2.0,
      "SmallestImagePixelValue": 0,
      "SoftwareVersions": "syngo MR E11",
      "SpacingBetweenSlices": 1.9999999533534,
      "SpecificCharacterSet": "ISO_IR 100",
      "StudyID": "1",
      "StudyTime": "161459.332000",
      "TransmitCoilName": "Body",
      "VariableFlipAngleFlag": "N",
      "WindowCenterWidthExplanation": "Algo1",
      "dBdt": 0.0},
    "slices": {}
  },
  "time": {
    "samples": {
      "AcquisitionNumber": [1, 2, 3, 4, 5, 6, 7, 8, 9, 10, 11, 12, 13, 14, 15, 16, 17, 18, 19, 20, 21, 22, 23, 24, 25, 26, 27, 28, 29, 30, 31, 32, 33, 34, 35, 36, 37, 38, 39, 40, 41, 42, 43, 44, 45, 46, 47, 48, 49, 50, 51, 52, 53, 54, 55, 56, 57, 58, 59, 60, 61, 62, 63, 64, 65, 66, 67, 68, 69, 70, 71, 72, 73, 74, 75, 76, 77, 78, 79, 80, 81, 82, 83, 84, 85, 86, 87, 88, 89, 90, 91, 92, 93, 94, 95, 96, 97, 98, 99, 100, 101, 102, 103, 104, 105, 106, 107, 108, 109, 110, 111, 112, 113, 114, 115, 116, 117, 118, 119, 120, 121, 122, 123, 124, 125, 126, 127, 128, 129, 130, 131, 132, 133, 134, 135, 136, 137, 138, 139, 140, 141, 142, 143, 144, 145, 146, 147, 148, 149, 150, 151, 152, 153, 154, 155, 156, 157, 158, 159, 160, 161, 162, 163, 164, 165, 166, 167, 168, 169, 170, 171, 172, 173, 174, 175, 176, 177, 178, 179, 180, 181, 182, 183, 184, 185, 186, 187, 188, 189, 190, 191, 192, 193, 194, 195, 196, 197, 198, 199, 200, 201, 202, 203, 204, 205, 206, 207, 208, 209, 210, 211, 212, 213, 214, 215, 216, 217, 218, 219, 220, 221, 222, 223, 224, 225, 226, 227, 228, 229, 230, 231, 232, 233, 234, 235, 236, 237, 238, 239, 240, 241, 242, 243, 244, 245, 246, 247, 248, 249, 250, 251, 252, 253, 254, 255, 256, 257, 258, 259, 260, 261, 262, 263, 264, 265, 266, 267, 268, 269, 270, 271, 272, 273, 274, 275, 276, 277, 278, 279, 280, 281, 282, 283, 284, 285, 286, 287, 288, 289, 290, 291, 292, 293, 294, 295, 296, 297, 298, 299, 300, 301, 302, 303, 304, 305, 306, 307, 308, 309, 310, 311, 312, 313, 314, 315, 316, 317, 318, 319, 320, 321, 322, 323, 324, 325, 326, 327, 328, 329, 330, 331, 332, 333, 334, 335, 336, 337, 338, 339, 340, 341, 342, 343, 344, 345, 346, 347, 348, 349, 350, 351, 352, 353, 354, 355, 356, 357, 358, 359, 360, 361, 362, 363, 364, 365, 366, 367, 368, 369],
      "AcquisitionTime": ["163003.960000", "163005.450000", "163006.940000", "163008.430000", "163009.920000", "163011.410000", "163012.900000", "163014.390000", "163015.880000", "163017.370000", "163018.860000", "163020.350000", "163021.840000", "163023.330000", "163024.820000", "163026.310000", "163027.800000", "163029.290000", "163030.780000", "163032.270000", "163033.760000", "163035.250000", "163036.740000", "163038.230000", "163039.720000", "163041.210000", "163042.700000", "163044.190000", "163045.680000", "163047.170000", "163048.660000", "163050.150000", "163051.640000", "163053.130000", "163054.620000", "163056.110000", "163057.600000", "163059.090000", "163100.580000", "163102.070000", "163103.560000", "163105.050000", "163106.540000", "163108.030000", "163109.520000", "163111.010000", "163112.500000", "163113.990000", "163115.480000", "163116.970000", "163118.460000", "163119.950000", "163121.440000", "163122.930000", "163124.420000", "163125.910000", "163127.400000", "163128.890000", "163130.380000", "163131.870000", "163133.360000", "163134.850000", "163136.340000", "163137.830000", "163139.320000", "163140.810000", "163142.300000", "163143.790000", "163145.280000", "163146.770000", "163148.260000", "163149.750000", "163151.240000", "163152.730000", "163154.220000", "163155.710000", "163157.200000", "163158.690000", "163200.180000", "163201.670000", "163203.160000", "163204.650000", "163206.140000", "163207.630000", "163209.120000", "163210.610000", "163212.100000", "163213.590000", "163215.080000", "163216.570000", "163218.060000", "163219.550000", "163221.040000", "163222.530000", "163224.020000", "163225.510000", "163227.000000", "163228.490000", "163229.980000", "163231.470000", "163232.960000", "163234.450000", "163235.940000", "163237.430000", "163238.920000", "163240.410000", "163241.900000", "163243.390000", "163244.880000", "163246.370000", "163247.860000", "163249.350000", "163250.840000", "163252.330000", "163253.820000", "163255.310000", "163256.800000", "163258.290000", "163259.780000", "163301.270000", "163302.760000", "163304.250000", "163305.740000", "163307.230000", "163308.720000", "163310.210000", "163311.700000", "163313.190000", "163314.680000", "163316.170000", "163317.660000", "163319.150000", "163320.640000", "163322.130000", "163323.620000", "163325.110000", "163326.600000", "163328.090000", "163329.580000", "163331.070000", "163332.560000", "163334.050000", "163335.540000", "163337.030000", "163338.520000", "163340.010000", "163341.500000", "163342.990000", "163344.480000", "163345.970000", "163347.460000", "163348.950000", "163350.440000", "163351.930000", "163353.420000", "163354.910000", "163356.400000", "163357.890000", "163359.380000", "163400.870000", "163402.360000", "163403.850000", "163405.340000", "163406.830000", "163408.320000", "163409.810000", "163411.300000", "163412.790000", "163414.280000", "163415.770000", "163417.260000", "163418.750000", "163420.240000", "163421.730000", "163423.220000", "163424.710000", "163426.200000", "163427.690000", "163429.180000", "163430.670000", "163432.160000", "163433.650000", "163435.140000", "163436.630000", "163438.120000", "163439.610000", "163441.100000", "163442.590000", "163444.080000", "163445.570000", "163447.060000", "163448.550000", "163450.040000", "163451.530000", "163453.020000", "163454.510000", "163456.000000", "163457.490000", "163458.980000", "163500.470000", "163501.960000", "163503.450000", "163504.940000", "163506.430000", "163507.920000", "163509.410000", "163510.900000", "163512.390000", "163513.880000", "163515.370000", "163516.860000", "163518.350000", "163519.840000", "163521.330000", "163522.820000", "163524.310000", "163525.800000", "163527.290000", "163528.780000", "163530.270000", "163531.760000", "163533.250000", "163534.740000", "163536.230000", "163537.720000", "163539.210000", "163540.700000", "163542.190000", "163543.680000", "163545.170000", "163546.660000", "163548.150000", "163549.640000", "163551.130000", "163552.620000", "163554.110000", "163555.600000", "163557.090000", "163558.580000", "163600.070000", "163601.560000", "163603.050000", "163604.540000", "163606.030000", "163607.520000", "163609.010000", "163610.500000", "163611.990000", "163613.480000", "163614.970000", "163616.460000", "163617.950000", "163619.440000", "163620.930000", "163622.420000", "163623.910000", "163625.400000", "163626.890000", "163628.380000", "163629.870000", "163631.360000", "163632.850000", "163634.340000", "163635.830000", "163637.320000", "163638.810000", "163640.300000", "163641.790000", "163643.280000", "163644.770000", "163646.260000", "163647.750000", "163649.240000", "163650.730000", "163652.220000", "163653.710000", "163655.200000", "163656.690000", "163658.180000", "163659.670000", "163701.160000", "163702.650000", "163704.140000", "163705.630000", "163707.120000", "163708.610000", "163710.100000", "163711.590000", "163713.080000", "163714.570000", "163716.060000", "163717.550000", "163719.040000", "163720.530000", "163722.020000", "163723.510000", "163725.000000", "163726.490000", "163727.980000", "163729.470000", "163730.960000", "163732.450000", "163733.940000", "163735.430000", "163736.920000", "163738.410000", "163739.900000", "163741.390000", "163742.880000", "163744.370000", "163745.860000", "163747.350000", "163748.840000", "163750.330000", "163751.820000", "163753.310000", "163754.800000", "163756.290000", "163757.780000", "163759.270000", "163800.760000", "163802.250000", "163803.740000", "163805.230000", "163806.720000", "163808.210000", "163809.700000", "163811.190000", "163812.680000", "163814.170000", "163815.660000", "163817.150000", "163818.640000", "163820.130000", "163821.620000", "163823.110000", "163824.600000", "163826.090000", "163827.580000", "163829.070000", "163830.560000", "163832.050000", "163833.540000", "163835.030000", "163836.520000", "163838.010000", "163839.500000", "163840.990000", "163842.480000", "163843.970000", "163845.460000", "163846.950000", "163848.440000", "163849.930000", "163851.420000", "163852.910000", "163854.400000", "163855.890000", "163857.380000", "163858.870000", "163900.360000", "163901.850000", "163903.340000", "163904.830000", "163906.320000", "163907.810000", "163909.300000", "163910.790000", "163912.280000"],
      "ContentTime": ["163126.727000", "163126.730000", "163126.732000", "163126.735000", "163126.737000", "163126.740000", "163126.742000", "163126.745000", "163126.747000", "163126.750000", "163126.752000", "163126.754000", "163126.757000", "163126.760000", "163126.762000", "163126.764000", "163126.767000", "163126.769000", "163126.772000", "163126.774000", "163126.777000", "163126.779000", "163126.782000", "163126.789000", "163126.791000", "163126.794000", "163126.796000", "163126.799000", "163126.801000", "163126.804000", "163126.806000", "163126.808000", "163126.811000", "163126.813000", "163146.627000", "163146.631000", "163146.634000", "163146.637000", "163146.640000", "163146.642000", "163146.645000", "163146.648000", "163146.651000", "163146.654000", "163146.657000", "163146.660000", "163146.663000", "163146.666000", "163146.669000", "163146.679000", "163146.682000", "163146.684000", "163146.687000", "163146.690000", "163146.694000", "163206.620000", "163206.623000", "163206.625000", "163206.628000", "163206.630000", "163206.633000", "163206.635000", "163206.638000", "163206.640000", "163206.643000", "163206.645000", "163206.648000", "163206.650000", "163206.653000", "163206.655000", "163206.657000", "163206.660000", "163206.662000", "163206.665000", "163206.667000", "163226.625000", "163226.628000", "163226.631000", "163226.633000", "163226.636000", "163226.639000", "163226.641000", "163226.644000", "163226.646000", "163226.649000", "163226.651000", "163226.654000", "163226.656000", "163226.659000", "163226.661000", "163226.664000", "163226.666000", "163226.669000", "163226.671000", "163226.674000", "163246.606000", "163246.609000", "163246.611000", "163246.614000", "163246.617000", "163246.619000", "163246.622000", "163246.625000", "163246.636000", "163246.639000", "163246.641000", "163246.644000", "163246.647000", "163326.665000", "163326.667000", "163326.670000", "163326.672000", "163326.675000", "163326.677000", "163326.680000", "163326.682000", "163326.685000", "163326.687000", "163326.690000", "163326.692000", "163326.695000", "163326.697000", "163326.700000", "163326.702000", "163326.705000", "163326.707000", "163326.710000", "163326.712000", "163326.715000", "163326.717000", "163326.720000", "163326.722000", "163326.725000", "163326.727000", "163326.730000", "163406.662000", "163406.664000", "163406.667000", "163406.669000", "163406.672000", "163406.674000", "163406.677000", "163406.679000", "163406.682000", "163406.684000", "163406.687000", "163406.689000", "163406.692000", "163406.694000", "163406.697000", "163406.699000", "163406.702000", "163406.704000", "163406.707000", "163406.709000", "163406.712000", "163406.714000", "163406.716000", "163406.719000", "163406.722000", "163406.724000", "163406.727000", "163446.647000", "163446.649000", "163446.652000", "163446.654000", "163446.657000", "163446.659000", "163446.662000", "163446.664000", "163446.667000", "163446.669000", "163446.671000", "163446.674000", "163446.676000", "163446.679000", "163446.682000", "163446.684000", "163446.687000", "163446.689000", "163446.692000", "163446.694000", "163446.697000", "163446.699000", "163446.702000", "163446.704000", "163446.707000", "163446.709000", "163446.712000", "163526.654000", "163526.657000", "163526.660000", "163526.662000", "163526.665000", "163526.667000", "163526.670000", "163526.672000", "163526.675000", "163526.677000", "163526.680000", "163526.682000", "163526.685000", "163526.689000", "163526.691000", "163526.694000", "163526.697000", "163526.699000", "163526.702000", "163526.704000", "163526.707000", "163526.710000", "163526.712000", "163526.715000", "163526.717000", "163526.720000", "163606.657000", "163606.660000", "163606.662000", "163606.665000", "163606.667000", "163606.670000", "163606.672000", "163606.675000", "163606.678000", "163606.680000", "163606.683000", "163606.685000", "163606.688000", "163606.690000", "163606.693000", "163606.695000", "163606.698000", "163606.700000", "163606.703000", "163606.705000", "163606.708000", "163606.710000", "163606.713000", "163606.715000", "163606.718000", "163606.720000", "163606.723000", "163646.652000", "163646.655000", "163646.658000", "163646.660000", "163646.663000", "163646.665000", "163646.668000", "163646.670000", "163646.673000", "163646.675000", "163646.678000", "163646.680000", "163646.683000", "163646.685000", "163646.688000", "163646.690000", "163646.693000", "163646.695000", "163646.698000", "163646.700000", "163646.703000", "163646.705000", "163646.708000", "163646.710000", "163646.713000", "163646.715000", "163646.718000", "163726.643000", "163726.646000", "163726.648000", "163726.651000", "163726.653000", "163726.656000", "163726.658000", "163726.661000", "163726.663000", "163726.666000", "163726.668000", "163726.671000", "163726.673000", "163726.676000", "163726.678000", "163726.681000", "163726.683000", "163726.686000", "163726.688000", "163726.691000", "163726.693000", "163726.696000", "163726.698000", "163726.701000", "163726.704000", "163726.706000", "163726.709000", "163806.658000", "163806.661000", "163806.664000", "163806.666000", "163806.668000", "163806.671000", "163806.674000", "163806.676000", "163806.678000", "163806.681000", "163806.684000", "163806.686000", "163806.689000", "163806.691000", "163806.694000", "163806.696000", "163806.699000", "163806.701000", "163806.704000", "163806.707000", "163806.709000", "163806.712000", "163806.714000", "163806.717000", "163806.719000", "163806.722000", "163806.724000", "163846.654000", "163846.657000", "163846.660000", "163846.662000", "163846.665000", "163846.667000", "163846.670000", "163846.672000", "163846.675000", "163846.677000", "163846.680000", "163846.682000", "163846.685000", "163846.688000", "163846.690000", "163846.692000", "163846.695000", "163846.697000", "163846.700000", "163846.702000", "163846.708000", "163846.711000", "163846.713000", "163846.716000", "163846.718000", "163846.721000", "163846.723000", "163915.494000", "163915.497000", "163915.499000", "163915.502000", "163915.505000", "163915.507000", "163915.511000", "163915.514000", "163915.516000", "163915.519000", "163915.522000", "163915.524000", "163915.527000", "163915.529000", "163915.532000", "163915.535000", "163915.538000", "163915.540000", "163915.543000"],
      "InstanceCreationTime": ["163126.727000", "163126.730000", "163126.732000", "163126.735000", "163126.737000", "163126.740000", "163126.742000", "163126.745000", "163126.747000", "163126.750000", "163126.752000", "163126.754000", "163126.757000", "163126.760000", "163126.762000", "163126.764000", "163126.767000", "163126.769000", "163126.772000", "163126.774000", "163126.777000", "163126.779000", "163126.782000", "163126.789000", "163126.791000", "163126.794000", "163126.796000", "163126.799000", "163126.801000", "163126.804000", "163126.806000", "163126.808000", "163126.811000", "163126.813000", "163146.627000", "163146.631000", "163146.634000", "163146.637000", "163146.640000", "163146.642000", "163146.645000", "163146.648000", "163146.651000", "163146.654000", "163146.657000", "163146.660000", "163146.663000", "163146.666000", "163146.669000", "163146.679000", "163146.682000", "163146.684000", "163146.687000", "163146.690000", "163146.694000", "163206.620000", "163206.623000", "163206.625000", "163206.628000", "163206.630000", "163206.633000", "163206.635000", "163206.638000", "163206.640000", "163206.643000", "163206.645000", "163206.648000", "163206.650000", "163206.653000", "163206.655000", "163206.657000", "163206.660000", "163206.662000", "163206.665000", "163206.667000", "163226.625000", "163226.628000", "163226.631000", "163226.633000", "163226.636000", "163226.639000", "163226.641000", "163226.644000", "163226.646000", "163226.649000", "163226.651000", "163226.654000", "163226.656000", "163226.659000", "163226.661000", "163226.664000", "163226.666000", "163226.669000", "163226.671000", "163226.674000", "163246.606000", "163246.609000", "163246.611000", "163246.614000", "163246.617000", "163246.619000", "163246.622000", "163246.625000", "163246.636000", "163246.639000", "163246.641000", "163246.644000", "163246.647000", "163326.665000", "163326.667000", "163326.670000", "163326.672000", "163326.675000", "163326.677000", "163326.680000", "163326.682000", "163326.685000", "163326.687000", "163326.690000", "163326.692000", "163326.695000", "163326.697000", "163326.700000", "163326.702000", "163326.705000", "163326.707000", "163326.710000", "163326.712000", "163326.715000", "163326.717000", "163326.720000", "163326.722000", "163326.725000", "163326.727000", "163326.730000", "163406.662000", "163406.664000", "163406.667000", "163406.669000", "163406.672000", "163406.674000", "163406.677000", "163406.679000", "163406.682000", "163406.684000", "163406.687000", "163406.689000", "163406.692000", "163406.694000", "163406.697000", "163406.699000", "163406.702000", "163406.704000", "163406.707000", "163406.709000", "163406.712000", "163406.714000", "163406.716000", "163406.719000", "163406.722000", "163406.724000", "163406.727000", "163446.647000", "163446.649000", "163446.652000", "163446.654000", "163446.657000", "163446.659000", "163446.662000", "163446.664000", "163446.667000", "163446.669000", "163446.671000", "163446.674000", "163446.676000", "163446.679000", "163446.682000", "163446.684000", "163446.687000", "163446.689000", "163446.692000", "163446.694000", "163446.697000", "163446.699000", "163446.702000", "163446.704000", "163446.707000", "163446.709000", "163446.712000", "163526.654000", "163526.657000", "163526.660000", "163526.662000", "163526.665000", "163526.667000", "163526.670000", "163526.672000", "163526.675000", "163526.677000", "163526.680000", "163526.682000", "163526.685000", "163526.689000", "163526.691000", "163526.694000", "163526.697000", "163526.699000", "163526.702000", "163526.704000", "163526.707000", "163526.710000", "163526.712000", "163526.715000", "163526.717000", "163526.720000", "163606.657000", "163606.660000", "163606.662000", "163606.665000", "163606.667000", "163606.670000", "163606.672000", "163606.675000", "163606.678000", "163606.680000", "163606.683000", "163606.685000", "163606.688000", "163606.690000", "163606.693000", "163606.695000", "163606.698000", "163606.700000", "163606.703000", "163606.705000", "163606.708000", "163606.710000", "163606.713000", "163606.715000", "163606.718000", "163606.720000", "163606.723000", "163646.652000", "163646.655000", "163646.658000", "163646.660000", "163646.663000", "163646.665000", "163646.668000", "163646.670000", "163646.673000", "163646.675000", "163646.678000", "163646.680000", "163646.683000", "163646.685000", "163646.688000", "163646.690000", "163646.693000", "163646.695000", "163646.698000", "163646.700000", "163646.703000", "163646.705000", "163646.708000", "163646.710000", "163646.713000", "163646.715000", "163646.718000", "163726.643000", "163726.646000", "163726.648000", "163726.651000", "163726.653000", "163726.656000", "163726.658000", "163726.661000", "163726.663000", "163726.666000", "163726.668000", "163726.671000", "163726.673000", "163726.676000", "163726.678000", "163726.681000", "163726.683000", "163726.686000", "163726.688000", "163726.691000", "163726.693000", "163726.696000", "163726.698000", "163726.701000", "163726.704000", "163726.706000", "163726.709000", "163806.658000", "163806.661000", "163806.664000", "163806.666000", "163806.668000", "163806.671000", "163806.674000", "163806.676000", "163806.678000", "163806.681000", "163806.684000", "163806.686000", "163806.689000", "163806.691000", "163806.694000", "163806.696000", "163806.699000", "163806.701000", "163806.704000", "163806.707000", "163806.709000", "163806.712000", "163806.714000", "163806.717000", "163806.719000", "163806.722000", "163806.724000", "163846.654000", "163846.657000", "163846.660000", "163846.662000", "163846.665000", "163846.667000", "163846.670000", "163846.672000", "163846.675000", "163846.677000", "163846.680000", "163846.682000", "163846.685000", "163846.688000", "163846.690000", "163846.692000", "163846.695000", "163846.697000", "163846.700000", "163846.702000", "163846.708000", "163846.711000", "163846.713000", "163846.716000", "163846.718000", "163846.721000", "163846.723000", "163915.494000", "163915.497000", "163915.499000", "163915.502000", "163915.505000", "163915.507000", "163915.511000", "163915.514000", "163915.516000", "163915.519000", "163915.522000", "163915.524000", "163915.527000", "163915.529000", "163915.532000", "163915.535000", "163915.538000", "163915.540000", "163915.543000"],
      "InstanceNumber": [1, 2, 3, 4, 5, 6, 7, 8, 9, 10, 11, 12, 13, 14, 15, 16, 17, 18, 19, 20, 21, 22, 23, 24, 25, 26, 27, 28, 29, 30, 31, 32, 33, 34, 35, 36, 37, 38, 39, 40, 41, 42, 43, 44, 45, 46, 47, 48, 49, 50, 51, 52, 53, 54, 55, 56, 57, 58, 59, 60, 61, 62, 63, 64, 65, 66, 67, 68, 69, 70, 71, 72, 73, 74, 75, 76, 77, 78, 79, 80, 81, 82, 83, 84, 85, 86, 87, 88, 89, 90, 91, 92, 93, 94, 95, 96, 97, 98, 99, 100, 101, 102, 103, 104, 105, 106, 107, 108, 109, 110, 111, 112, 113, 114, 115, 116, 117, 118, 119, 120, 121, 122, 123, 124, 125, 126, 127, 128, 129, 130, 131, 132, 133, 134, 135, 136, 137, 138, 139, 140, 141, 142, 143, 144, 145, 146, 147, 148, 149, 150, 151, 152, 153, 154, 155, 156, 157, 158, 159, 160, 161, 162, 163, 164, 165, 166, 167, 168, 169, 170, 171, 172, 173, 174, 175, 176, 177, 178, 179, 180, 181, 182, 183, 184, 185, 186, 187, 188, 189, 190, 191, 192, 193, 194, 195, 196, 197, 198, 199, 200, 201, 202, 203, 204, 205, 206, 207, 208, 209, 210, 211, 212, 213, 214, 215, 216, 217, 218, 219, 220, 221, 222, 223, 224, 225, 226, 227, 228, 229, 230, 231, 232, 233, 234, 235, 236, 237, 238, 239, 240, 241, 242, 243, 244, 245, 246, 247, 248, 249, 250, 251, 252, 253, 254, 255, 256, 257, 258, 259, 260, 261, 262, 263, 264, 265, 266, 267, 268, 269, 270, 271, 272, 273, 274, 275, 276, 277, 278, 279, 280, 281, 282, 283, 284, 285, 286, 287, 288, 289, 290, 291, 292, 293, 294, 295, 296, 297, 298, 299, 300, 301, 302, 303, 304, 305, 306, 307, 308, 309, 310, 311, 312, 313, 314, 315, 316, 317, 318, 319, 320, 321, 322, 323, 324, 325, 326, 327, 328, 329, 330, 331, 332, 333, 334, 335, 336, 337, 338, 339, 340, 341, 342, 343, 344, 345, 346, 347, 348, 349, 350, 351, 352, 353, 354, 355, 356, 357, 358, 359, 360, 361, 362, 363, 364, 365, 366, 367, 368, 369],
