{
  "AcquisitionMatrixPE": 104,
  "AcquisitionNumber": 1,
  "AcquisitionTime": "16:18:32.177500",
  "BandwidthPerPixelPhaseEncode": 17.17,
  "BaseResolution": 104,
  "BodyPartExamined": "BRAIN",
  "CoilCombinationMethod": "Sum of Squares",
  "ConsistencyInfo": "N4_VE11C_LATEST_20160120",
  "ConversionSoftware": "dcm2niix",
  "ConversionSoftwareVersion": "v1.0.20220505",
  "DerivedVendorReportedEchoSpacing": 0.000560011,
  "DeviceSerialNumber": "167006",
  "DwellTime": 2.1e-06,
  "EchoTime": 0.037,
  "EchoTrainLength": 104,
  "EffectiveEchoSpacing": 0.000560011,
  "FlipAngle": 52,
  "HeudiconvVersion": "0.5.3.post811+g6206e14",
  "ImageComments": "Unaliased MB4/PE3/LB",
  "ImageOrientationPatientDICOM": [0.998289, -0.0579381, 0.00792403, 0.0572113, 0.939621, -0.337401],
  "ImageOrientationText": "Tra>Cor(-19.7)>Sag(-0.7)",
  "ImageType": [
    "ORIGINAL",
    "PRIMARY",
    "M",
    "MB",
    "ND",
    "MOSAIC"
],
  "ImagingFrequency": 123.259,
  "InPlanePhaseEncodingDirectionDICOM": "COL",
  "InstitutionAddress": "Chemin Queen-Mary 4565,Montreal,District,CA,H3W 1W5",
  "InstitutionName": "IUGM",
  "InstitutionalDepartmentName": "Department",
  "MRAcquisitionType": "2D",
  "MagneticFieldStrength": 3,
  "Manufacturer": "Siemens",
  "ManufacturersModelName": "Prisma_fit",
  "MatrixCoilMode": "SENSE",
  "Modality": "MR",
  "MultibandAccelerationFactor": 4,
  "PartialFourier": 1,
  "PatientPosition": "HFS",
  "PercentPhaseFOV": 100,
  "PercentSampling": 100,
  "PhaseEncodingDirection": "j",
  "PhaseEncodingSteps": 104,
  "PhaseResolution": 1,
  "PixelBandwidth": 2290,
  "ProcedureStepDescription": "games^mario3",
  "ProtocolName": "func_task-mario3_run-01",
  "PulseSequenceDetails": "%CustomerSeq%\\cmrr_mbep2d_bold",
  "ReceiveCoilActiveElements": "HC1-7;NC1,2",
  "ReceiveCoilName": "HeadNeck_64",
  "ReconMatrixPE": 104,
  "RepetitionTime": 1.49,
  "SAR": 0.0465407,
  "ScanOptions": "FS",
  "ScanningSequence": "EP",
  "SequenceName": "epfid2d1_104",
  "SequenceVariant": "SK\\SS",
  "SeriesDescription": "func_task-mario3_run-01",
  "SeriesNumber": 10,
  "ShimSetting": [637, -7265, -8828, 512, 38, -240, -89, 3],
  "SliceThickness": 2,
  "SliceTiming": [0, 0.7825, 0.0975, 0.8825, 0.195, 0.98, 0.2925, 1.0775, 0.3925, 1.175, 0.49, 1.2725, 0.5875, 1.3725, 0.685, 0, 0.7825, 0.0975, 0.8825, 0.195, 0.98, 0.2925, 1.0775, 0.3925, 1.175, 0.49, 1.2725, 0.5875, 1.3725, 0.685, 0, 0.7825, 0.0975, 0.8825, 0.195, 0.98, 0.2925, 1.0775, 0.3925, 1.175, 0.49, 1.2725, 0.5875, 1.3725, 0.685, 0, 0.7825, 0.0975, 0.8825, 0.195, 0.98, 0.2925, 1.0775, 0.3925, 1.175, 0.49, 1.2725, 0.5875, 1.3725, 0.685],
  "SoftwareVersions": "syngo MR E11",
  "SpacingBetweenSlices": 2,
  "StationName": "MRC35049",
  "TaskName": "mario3",
  "TotalReadoutTime": 0.0576811,
  "TxRefAmp": 240.192,
  "WipMemBlock": "30bfd655-b176-4fb8-90ca-a6e0dd51a33f||Sequence: R017 ve11c/master r/75a17815+; Jun 28 2022 16:32:11 by eja",
  "dcmmeta_affine": [
    [-1.996577501296997, 0.11442263424396515, -0.02420557662844658, 101.27952575683594],
    [0.11587617546319962, 1.879241704940796, -0.6745540499687195, -71.4219970703125],
    [0.015848061069846153, 0.6748021245002747, 1.8826552629470825, -63.40589904785156],
    [0.0, 0.0, 0.0, 1.0]
],
  "dcmmeta_reorient_transform": [
    [0.0, -1.0, 0.0, 103.0],
    [1.0, 0.0, 0.0, 0.0],
    [0.0, 0.0, 1.0, 0.0],
    [0.0, 0.0, 0.0, 1.0]
],
  "dcmmeta_shape": [104, 104, 60, 425],
  "dcmmeta_slice_dim": 2,
  "dcmmeta_version": 0.6,
  "global": {
    "const": {
      "AcquisitionMatrix": [104, 0, 0, 104],
      "AngioFlag": "N",
      "BitsAllocated": 16,
      "BitsStored": 16,
      "BodyPartExamined": "BRAIN",
      "Columns": 832,
      "EchoNumbers": 1,
      "EchoTime": 37.0,
      "EchoTrainLength": 104,
      "FlipAngle": 52.0,
      "HighBit": 15,
      "ImageOrientationPatient": [0.99828872962102, -0.057938088062, 0.00792403075265, 0.0572113173045, 0.93962087171985, -0.3374010708352],
      "ImagePositionPatient": [-881.46908956961, -764.00497270135, 245.95800625062],
      "ImageType": [
        "ORIGINAL",
        "PRIMARY",
        "M",
        "MB",
        "ND",
        "MOSAIC"
],
      "ImagedNucleus": "1H",
      "ImagingFrequency": 123.258993,
      "InPlanePhaseEncodingDirection": "COL",
      "MRAcquisitionType": "2D",
      "MagneticFieldStrength": 3.0,
      "Manufacturer": "SIEMENS",
      "ManufacturerModelName": "Prisma_fit",
      "Modality": "MR",
      "NumberOfAverages": 1.0,
      "NumberOfPhaseEncodingSteps": 104,
      "PercentPhaseFieldOfView": 100.0,
      "PercentSampling": 100.0,
      "PerformedProcedureStepStartTime": "161459.408000",
      "PhotometricInterpretation": "MONOCHROME2",
      "PixelBandwidth": 2290.0,
      "PixelRepresentation": 0,
      "PixelSpacing": [2.0, 2.0],
      "ProtocolName": "func_task-mario3_run-01",
      "RepetitionTime": 1490.0,
      "Rows": 832,
      "SAR": 0.04654069978023,
      "SamplesPerPixel": 1,
      "ScanOptions": "FS",
      "ScanningSequence": "EP",
      "SequenceName": "epfid2d1_104",
      "SequenceVariant": [
        "SK",
        "SS"
],
      "SeriesDescription": "func_task-mario3_run-01",
      "SeriesNumber": 10,
      "SeriesTime": "161950.018000",
      "SliceLocation": -36.822492591974,
      "SliceThickness": 2.0,
      "SmallestImagePixelValue": 0,
      "SoftwareVersions": "syngo MR E11",
      "SpacingBetweenSlices": 1.9999999533534,
      "SpecificCharacterSet": "ISO_IR 100",
      "StudyID": "1",
      "StudyTime": "161459.332000",
      "TransmitCoilName": "Body",
      "VariableFlipAngleFlag": "N",
      "WindowCenterWidthExplanation": "Algo1",
      "dBdt": 0.0},
    "slices": {}
  },
  "time": {
    "samples": {
      "AcquisitionNumber": [1, 2, 3, 4, 5, 6, 7, 8, 9, 10, 11, 12, 13, 14, 15, 16, 17, 18, 19, 20, 21, 22, 23, 24, 25, 26, 27, 28, 29, 30, 31, 32, 33, 34, 35, 36, 37, 38, 39, 40, 41, 42, 43, 44, 45, 46, 47, 48, 49, 50, 51, 52, 53, 54, 55, 56, 57, 58, 59, 60, 61, 62, 63, 64, 65, 66, 67, 68, 69, 70, 71, 72, 73, 74, 75, 76, 77, 78, 79, 80, 81, 82, 83, 84, 85, 86, 87, 88, 89, 90, 91, 92, 93, 94, 95, 96, 97, 98, 99, 100, 101, 102, 103, 104, 105, 106, 107, 108, 109, 110, 111, 112, 113, 114, 115, 116, 117, 118, 119, 120, 121, 122, 123, 124, 125, 126, 127, 128, 129, 130, 131, 132, 133, 134, 135, 136, 137, 138, 139, 140, 141, 142, 143, 144, 145, 146, 147, 148, 149, 150, 151, 152, 153, 154, 155, 156, 157, 158, 159, 160, 161, 162, 163, 164, 165, 166, 167, 168, 169, 170, 171, 172, 173, 174, 175, 176, 177, 178, 179, 180, 181, 182, 183, 184, 185, 186, 187, 188, 189, 190, 191, 192, 193, 194, 195, 196, 197, 198, 199, 200, 201, 202, 203, 204, 205, 206, 207, 208, 209, 210, 211, 212, 213, 214, 215, 216, 217, 218, 219, 220, 221, 222, 223, 224, 225, 226, 227, 228, 229, 230, 231, 232, 233, 234, 235, 236, 237, 238, 239, 240, 241, 242, 243, 244, 245, 246, 247, 248, 249, 250, 251, 252, 253, 254, 255, 256, 257, 258, 259, 260, 261, 262, 263, 264, 265, 266, 267, 268, 269, 270, 271, 272, 273, 274, 275, 276, 277, 278, 279, 280, 281, 282, 283, 284, 285, 286, 287, 288, 289, 290, 291, 292, 293, 294, 295, 296, 297, 298, 299, 300, 301, 302, 303, 304, 305, 306, 307, 308, 309, 310, 311, 312, 313, 314, 315, 316, 317, 318, 319, 320, 321, 322, 323, 324, 325, 326, 327, 328, 329, 330, 331, 332, 333, 334, 335, 336, 337, 338, 339, 340, 341, 342, 343, 344, 345, 346, 347, 348, 349, 350, 351, 352, 353, 354, 355, 356, 357, 358, 359, 360, 361, 362, 363, 364, 365, 366, 367, 368, 369, 370, 371, 372, 373, 374, 375, 376, 377, 378, 379, 380, 381, 382, 383, 384, 385, 386, 387, 388, 389, 390, 391, 392, 393, 394, 395, 396, 397, 398, 399, 400, 401, 402, 403, 404, 405, 406, 407, 408, 409, 410, 411, 412, 413, 414, 415, 416, 417, 418, 419, 420, 421, 422, 423, 424, 425],
      "AcquisitionTime": ["161832.177500", "161833.667500", "161835.157500", "161836.647500", "161838.137500", "161839.627500", "161841.117500", "161842.607500", "161844.097500", "161845.587500", "161847.077500", "161848.567500", "161850.057500", "161851.547500", "161853.037500", "161854.527500", "161856.017500", "161857.507500", "161858.997500", "161900.487500", "161901.977500", "161903.467500", "161904.957500", "161906.447500", "161907.937500", "161909.427500", "161910.917500", "161912.407500", "161913.897500", "161915.387500", "161916.877500", "161918.367500", "161919.857500", "161921.347500", "161922.837500", "161924.327500", "161925.817500", "161927.307500", "161928.797500", "161930.287500", "161931.777500", "161933.267500", "161934.757500", "161936.247500", "161937.737500", "161939.227500", "161940.717500", "161942.207500", "161943.697500", "161945.187500", "161946.677500", "161948.167500", "161949.657500", "161951.147500", "161952.637500", "161954.127500", "161955.617500", "161957.107500", "161958.597500", "162000.087500", "162001.577500", "162003.067500", "162004.557500", "162006.047500", "162007.537500", "162009.027500", "162010.517500", "162012.007500", "162013.497500", "162014.987500", "162016.477500", "162017.967500", "162019.457500", "162020.947500", "162022.437500", "162023.927500", "162025.417500", "162026.907500", "162028.397500", "162029.887500", "162031.377500", "162032.867500", "162034.357500", "162035.847500", "162037.337500", "162038.827500", "162040.317500", "162041.807500", "162043.297500", "162044.787500", "162046.277500", "162047.767500", "162049.257500", "162050.747500", "162052.237500", "162053.727500", "162055.217500", "162056.707500", "162058.197500", "162059.687500", "162101.177500", "162102.667500", "162104.157500", "162105.647500", "162107.137500", "162108.627500", "162110.117500", "162111.607500", "162113.097500", "162114.587500", "162116.077500", "162117.567500", "162119.057500", "162120.547500", "162122.037500", "162123.527500", "162125.017500", "162126.507500", "162127.997500", "162129.487500", "162130.977500", "162132.467500", "162133.957500", "162135.447500", "162136.937500", "162138.427500", "162139.917500", "162141.407500", "162142.897500", "162144.387500", "162145.877500", "162147.367500", "162148.857500", "162150.347500", "162151.837500", "162153.327500", "162154.817500", "162156.307500", "162157.797500", "162159.287500", "162200.777500", "162202.267500", "162203.757500", "162205.247500", "162206.737500", "162208.227500", "162209.717500", "162211.207500", "162212.697500", "162214.187500", "162215.677500", "162217.167500", "162218.657500", "162220.147500", "162221.637500", "162223.127500", "162224.617500", "162226.107500", "162227.597500", "162229.087500", "162230.577500", "162232.067500", "162233.557500", "162235.047500", "162236.537500", "162238.027500", "162239.517500", "162241.007500", "162242.497500", "162243.987500", "162245.477500", "162246.967500", "162248.457500", "162249.947500", "162251.437500", "162252.927500", "162254.417500", "162255.907500", "162257.397500", "162258.887500", "162300.377500", "162301.867500", "162303.357500", "162304.847500", "162306.337500", "162307.827500", "162309.317500", "162310.807500", "162312.297500", "162313.787500", "162315.277500", "162316.767500", "162318.257500", "162319.747500", "162321.237500", "162322.727500", "162324.217500", "162325.707500", "162327.197500", "162328.687500", "162330.177500", "162331.667500", "162333.157500", "162334.647500", "162336.137500", "162337.627500", "162339.117500", "162340.607500", "162342.097500", "162343.587500", "162345.077500", "162346.567500", "162348.057500", "162349.547500", "162351.037500", "162352.527500", "162354.017500", "162355.507500", "162356.997500", "162358.487500", "162359.977500", "162401.467500", "162402.957500", "162404.447500", "162405.937500", "162407.427500", "162408.917500", "162410.407500", "162411.897500", "162413.387500", "162414.877500", "162416.367500", "162417.857500", "162419.347500", "162420.837500", "162422.327500", "162423.817500", "162425.307500", "162426.797500", "162428.287500", "162429.777500", "162431.267500", "162432.757500", "162434.247500", "162435.737500", "162437.227500", "162438.717500", "162440.207500", "162441.697500", "162443.187500", "162444.677500", "162446.167500", "162447.657500", "162449.147500", "162450.637500", "162452.127500", "162453.617500", "162455.107500", "162456.597500", "162458.087500", "162459.577500", "162501.067500", "162502.557500", "162504.047500", "162505.537500", "162507.027500", "162508.517500", "162510.007500", "162511.497500", "162512.987500", "162514.477500", "162515.967500", "162517.457500", "162518.947500", "162520.437500", "162521.927500", "162523.417500", "162524.907500", "162526.397500", "162527.887500", "162529.377500", "162530.867500", "162532.357500", "162533.847500", "162535.337500", "162536.827500", "162538.317500", "162539.807500", "162541.297500", "162542.787500", "162544.277500", "162545.767500", "162547.257500", "162548.747500", "162550.237500", "162551.727500", "162553.217500", "162554.707500", "162556.197500", "162557.687500", "162559.177500", "162600.667500", "162602.157500", "162603.647500", "162605.137500", "162606.627500", "162608.117500", "162609.607500", "162611.097500", "162612.587500", "162614.077500", "162615.567500", "162617.057500", "162618.547500", "162620.037500", "162621.527500", "162623.017500", "162624.507500", "162625.997500", "162627.487500", "162628.977500", "162630.467500", "162631.957500", "162633.447500", "162634.937500", "162636.427500", "162637.917500", "162639.407500", "162640.897500", "162642.387500", "162643.877500", "162645.367500", "162646.857500", "162648.347500", "162649.837500", "162651.327500", "162652.817500", "162654.307500", "162655.797500", "162657.287500", "162658.777500", "162700.267500", "162701.757500", "162703.247500", "162704.737500", "162706.227500", "162707.717500", "162709.207500", "162710.697500", "162712.187500", "162713.677500", "162715.167500", "162716.657500", "162718.147500", "162719.637500", "162721.127500", "162722.617500", "162724.107500", "162725.597500", "162727.087500", "162728.577500", "162730.067500", "162731.557500", "162733.047500", "162734.537500", "162736.027500", "162737.517500", "162739.007500", "162740.497500", "162741.987500", "162743.477500", "162744.967500", "162746.457500", "162747.947500", "162749.437500", "162750.927500", "162752.417500", "162753.907500", "162755.397500", "162756.887500", "162758.377500", "162759.867500", "162801.357500", "162802.847500", "162804.337500", "162805.827500", "162807.317500", "162808.807500", "162810.297500", "162811.787500", "162813.277500", "162814.767500", "162816.257500", "162817.747500", "162819.237500", "162820.727500", "162822.217500", "162823.707500", "162825.197500", "162826.687500", "162828.177500", "162829.667500", "162831.157500", "162832.647500", "162834.137500", "162835.627500", "162837.117500", "162838.607500", "162840.097500", "162841.587500", "162843.077500", "162844.567500", "162846.057500", "162847.547500", "162849.037500", "162850.527500", "162852.017500", "162853.507500", "162854.997500", "162856.487500", "162857.977500", "162859.467500", "162900.957500", "162902.447500", "162903.937500"],
      "ContentTime": ["161950.021000", "161950.025000", "161950.028000", "161950.032000", "161950.035000", "161950.038000", "161950.042000", "161950.055000", "161950.058000", "161950.061000", "161950.064000", "161950.068000", "161950.071000", "161950.074000", "161950.077000", "161950.081000", "161950.084000", "161950.087000", "161950.090000", "161950.094000", "161950.097000", "161950.100000", "161950.103000", "161950.107000", "161950.110000", "161950.113000", "161950.116000", "161950.120000", "161950.123000", "161950.126000", "162009.982000", "162009.993000", "162009.996000", "162010.001000", "162010.004000", "162010.007000", "162010.010000", "162010.014000", "162010.017000", "162010.020000", "162010.039000", "162010.053000", "162010.056000", "162010.059000", "162010.062000", "162010.065000", "162010.069000", "162010.072000", "162010.075000", "162010.078000", "162010.081000", "162029.982000", "162029.986000", "162029.989000", "162029.992000", "162029.995000", "162029.999000", "162030.002000", "162030.005000", "162030.008000", "162030.012000", "162030.015000", "162030.018000", "162030.021000", "162030.025000", "162030.028000", "162030.031000", "162030.034000", "162030.038000", "162030.041000", "162030.044000", "162049.981000", "162049.985000", "162049.988000", "162049.991000", "162049.994000", "162050.006000", "162050.009000", "162050.013000", "162050.016000", "162050.019000", "162050.022000", "162050.026000", "162050.029000", "162050.032000", "162050.035000", "162050.038000", "162050.042000", "162050.045000", "162050.048000", "162050.052000", "162129.982000", "162129.986000", "162129.989000", "162129.992000", "162129.996000", "162129.999000", "162130.002000", "162130.005000", "162130.009000", "162130.012000", "162130.015000", "162130.018000", "162130.022000", "162130.025000", "162130.028000", "162130.032000", "162130.035000", "162130.038000", "162130.041000", "162130.045000", "162130.048000", "162130.051000", "162130.054000", "162130.057000", "162130.061000", "162130.064000", "162130.067000", "162130.071000", "162209.982000", "162209.986000", "162209.989000", "162209.992000", "162209.995000", "162209.999000", "162210.002000", "162210.005000", "162210.008000", "162210.012000", "162210.015000", "162210.018000", "162210.021000", "162210.025000", "162210.028000", "162210.031000", "162210.035000", "162210.038000", "162210.041000", "162210.044000", "162210.048000", "162210.051000", "162210.067000", "162210.070000", "162210.074000", "162210.077000", "162210.087000", "162249.982000", "162249.986000", "162249.989000", "162249.993000", "162249.996000", "162249.999000", "162250.002000", "162250.006000", "162250.009000", "162250.012000", "162250.022000", "162250.025000", "162250.029000", "162250.032000", "162250.035000", "162250.039000", "162250.042000", "162250.045000", "162250.049000", "162250.052000", "162250.055000", "162250.058000", "162250.062000", "162250.065000", "162250.068000", "162250.071000", "162329.981000", "162329.985000", "162329.988000", "162329.991000", "162329.995000", "162329.998000", "162330.001000", "162330.004000", "162330.008000", "162330.011000", "162330.014000", "162330.017000", "162330.021000", "162330.024000", "162330.027000", "162330.030000", "162330.034000", "162330.037000", "162330.040000", "162330.043000", "162330.046000", "162330.050000", "162330.053000", "162330.056000", "162330.060000", "162330.063000", "162330.066000", "162409.982000", "162409.986000", "162409.990000", "162409.993000", "162409.996000", "162410.000000", "162410.003000", "162410.006000", "162410.010000", "162410.013000", "162410.016000", "162410.019000", "162410.023000", "162410.026000", "162410.029000", "162410.032000", "162410.036000", "162410.039000", "162410.042000", "162410.045000", "162410.049000", "162410.052000", "162410.055000", "162410.058000", "162410.062000", "162410.065000", "162410.068000", "162449.982000", "162449.986000", "162449.989000", "162449.992000", "162449.996000", "162450.000000", "162450.003000", "162450.007000", "162450.010000", "162450.013000", "162450.017000", "162450.020000", "162450.023000", "162450.026000", "162450.030000", "162450.040000", "162450.044000", "162450.047000", "162450.050000", "162450.053000", "162450.057000", "162450.060000", "162450.063000", "162450.067000", "162450.070000", "162450.073000", "162450.076000", "162529.981000", "162529.985000", "162529.988000", "162529.991000", "162529.995000", "162529.998000", "162530.002000", "162530.006000", "162530.009000", "162530.012000", "162530.015000", "162530.019000", "162530.022000", "162530.025000", "162530.028000", "162530.032000", "162530.035000", "162530.038000", "162530.041000", "162530.045000", "162530.048000", "162530.051000", "162530.055000", "162530.058000", "162530.061000", "162530.064000", "162530.068000", "162609.982000", "162609.986000", "162609.989000", "162609.992000", "162609.996000", "162609.999000", "162610.002000", "162610.006000", "162610.009000", "162610.012000", "162610.015000", "162610.019000", "162610.022000", "162610.025000", "162610.029000", "162610.032000", "162610.035000", "162610.038000", "162610.042000", "162610.045000", "162610.048000", "162610.051000", "162610.055000", "162610.058000", "162610.061000", "162610.064000", "162610.068000", "162649.982000", "162649.986000", "162649.989000", "162649.994000", "162649.998000", "162650.002000", "162650.006000", "162650.009000", "162650.012000", "162650.015000", "162650.019000", "162650.022000", "162650.025000", "162650.029000", "162650.032000", "162650.035000", "162650.038000", "162650.042000", "162650.045000", "162650.048000", "162650.051000", "162650.055000", "162650.058000", "162650.061000", "162650.065000", "162650.068000", "162729.982000", "162729.986000", "162729.989000", "162729.993000", "162729.996000", "162730.000000", "162730.004000", "162730.007000", "162730.010000", "162730.014000", "162730.017000", "162730.020000", "162730.024000", "162730.027000", "162730.030000", "162730.034000", "162730.037000", "162730.040000", "162730.044000", "162730.047000", "162730.050000", "162730.053000", "162730.057000", "162730.060000", "162730.063000", "162730.067000", "162730.070000", "162809.981000", "162809.985000", "162809.988000", "162809.992000", "162809.995000", "162809.998000", "162810.001000", "162810.005000", "162810.008000", "162810.011000", "162810.015000", "162810.018000", "162810.021000", "162810.024000", "162810.028000", "162810.031000", "162810.034000", "162810.037000", "162810.041000", "162810.044000", "162810.052000", "162810.055000", "162810.058000", "162810.061000", "162810.065000", "162810.068000", "162810.071000", "162849.982000", "162849.986000", "162849.989000", "162849.992000", "162849.996000", "162849.999000", "162850.002000", "162850.006000", "162850.009000", "162850.012000", "162850.015000", "162850.019000", "162850.022000", "162850.025000", "162850.028000", "162850.032000", "162850.035000", "162850.038000", "162850.041000", "162850.045000", "162850.048000", "162850.051000", "162850.055000", "162850.058000", "162850.061000", "162850.064000", "162850.068000", "162905.998000", "162906.002000", "162906.006000", "162906.009000", "162906.012000", "162906.016000", "162906.019000", "162906.022000", "162906.026000", "162906.029000", "162906.033000"],
      "InstanceCreationTime": ["161950.021000", "161950.025000", "161950.028000", "161950.032000", "161950.035000", "161950.038000", "161950.042000", "161950.055000", "161950.058000", "161950.061000", "161950.064000", "161950.068000", "161950.071000", "161950.074000", "161950.077000", "161950.081000", "161950.084000", "161950.087000", "161950.090000", "161950.094000", "161950.097000", "161950.100000", "161950.103000", "161950.107000", "161950.110000", "161950.113000", "161950.116000", "161950.120000", "161950.123000", "161950.126000", "162009.982000", "162009.993000", "162009.996000", "162010.001000", "162010.004000", "162010.007000", "162010.010000", "162010.014000", "162010.017000", "162010.020000", "162010.039000", "162010.053000", "162010.056000", "162010.059000", "162010.062000", "162010.065000", "162010.069000", "162010.072000", "162010.075000", "162010.078000", "162010.081000", "162029.982000", "162029.986000", "162029.989000", "162029.992000", "162029.995000", "162029.999000", "162030.002000", "162030.005000", "162030.008000", "162030.012000", "162030.015000", "162030.018000", "162030.021000", "162030.025000", "162030.028000", "162030.031000", "162030.034000", "162030.038000", "162030.041000", "162030.044000", "162049.981000", "162049.985000", "162049.988000", "162049.991000", "162049.994000", "162050.006000", "162050.009000", "162050.013000", "162050.016000", "162050.019000", "162050.022000", "162050.026000", "162050.029000", "162050.032000", "162050.035000", "162050.038000", "162050.042000", "162050.045000", "162050.048000", "162050.052000", "162129.982000", "162129.986000", "162129.989000", "162129.992000", "162129.996000", "162129.999000", "162130.002000", "162130.005000", "162130.009000", "162130.012000", "162130.015000", "162130.018000", "162130.022000", "162130.025000", "162130.028000", "162130.032000", "162130.035000", "162130.038000", "162130.041000", "162130.045000", "162130.048000", "162130.051000", "162130.054000", "162130.057000", "162130.061000", "162130.064000", "162130.067000", "162130.071000", "162209.982000", "162209.986000", "162209.989000", "162209.992000", "162209.995000", "162209.999000", "162210.002000", "162210.005000", "162210.008000", "162210.012000", "162210.015000", "162210.018000", "162210.021000", "162210.025000", "162210.028000", "162210.031000", "162210.035000", "162210.038000", "162210.041000", "162210.044000", "162210.048000", "162210.051000", "162210.067000", "162210.070000", "162210.074000", "162210.077000", "162210.087000", "162249.982000", "162249.986000", "162249.989000", "162249.993000", "162249.996000", "162249.999000", "162250.002000", "162250.006000", "162250.009000", "162250.012000", "162250.022000", "162250.025000", "162250.029000", "162250.032000", "162250.035000", "162250.039000", "162250.042000", "162250.045000", "162250.049000", "162250.052000", "162250.055000", "162250.058000", "162250.062000", "162250.065000", "162250.068000", "162250.071000", "162329.981000", "162329.985000", "162329.988000", "162329.991000", "162329.995000", "162329.998000", "162330.001000", "162330.004000", "162330.008000", "162330.011000", "162330.014000", "162330.017000", "162330.021000", "162330.024000", "162330.027000", "162330.030000", "162330.034000", "162330.037000", "162330.040000", "162330.043000", "162330.046000", "162330.050000", "162330.053000", "162330.056000", "162330.060000", "162330.063000", "162330.066000", "162409.982000", "162409.986000", "162409.990000", "162409.993000", "162409.996000", "162410.000000", "162410.003000", "162410.006000", "162410.010000", "162410.013000", "162410.016000", "162410.019000", "162410.023000", "162410.026000", "162410.029000", "162410.032000", "162410.036000", "162410.039000", "162410.042000", "162410.045000", "162410.049000", "162410.052000", "162410.055000", "162410.058000", "162410.062000", "162410.065000", "162410.068000", "162449.982000", "162449.986000", "162449.989000", "162449.992000", "162449.996000", "162450.000000", "162450.003000", "162450.007000", "162450.010000", "162450.013000", "162450.017000", "162450.020000", "162450.023000", "162450.026000", "162450.030000", "162450.040000", "162450.044000", "162450.047000", "162450.050000", "162450.053000", "162450.057000", "162450.060000", "162450.063000", "162450.067000", "162450.070000", "162450.073000", "162450.076000", "162529.981000", "162529.985000", "162529.988000", "162529.991000", "162529.995000", "162529.998000", "162530.002000", "162530.006000", "162530.009000", "162530.012000", "162530.015000", "162530.019000", "162530.022000", "162530.025000", "162530.028000", "162530.032000", "162530.035000", "162530.038000", "162530.041000", "162530.045000", "162530.048000", "162530.051000", "162530.055000", "162530.058000", "162530.061000", "162530.064000", "162530.068000", "162609.982000", "162609.986000", "162609.989000", "162609.992000", "162609.996000", "162609.999000", "162610.002000", "162610.006000", "162610.009000", "162610.012000", "162610.015000", "162610.019000", "162610.022000", "162610.025000", "162610.029000", "162610.032000", "162610.035000", "162610.038000", "162610.042000", "162610.045000", "162610.048000", "162610.051000", "162610.055000", "162610.058000", "162610.061000", "162610.064000", "162610.068000", "162649.982000", "162649.986000", "162649.989000", "162649.994000", "162649.998000", "162650.002000", "162650.006000", "162650.009000", "162650.012000", "162650.015000", "162650.019000", "162650.022000", "162650.025000", "162650.029000", "162650.032000", "162650.035000", "162650.038000", "162650.042000", "162650.045000", "162650.048000", "162650.051000", "162650.055000", "162650.058000", "162650.061000", "162650.065000", "162650.068000", "162729.982000", "162729.986000", "162729.989000", "162729.993000", "162729.996000", "162730.000000", "162730.004000", "162730.007000", "162730.010000", "162730.014000", "162730.017000", "162730.020000", "162730.024000", "162730.027000", "162730.030000", "162730.034000", "162730.037000", "162730.040000", "162730.044000", "162730.047000", "162730.050000", "162730.053000", "162730.057000", "162730.060000", "162730.063000", "162730.067000", "162730.070000", "162809.981000", "162809.985000", "162809.988000", "162809.992000", "162809.995000", "162809.998000", "162810.001000", "162810.005000", "162810.008000", "162810.011000", "162810.015000", "162810.018000", "162810.021000", "162810.024000", "162810.028000", "162810.031000", "162810.034000", "162810.037000", "162810.041000", "162810.044000", "162810.052000", "162810.055000", "162810.058000", "162810.061000", "162810.065000", "162810.068000", "162810.071000", "162849.982000", "162849.986000", "162849.989000", "162849.992000", "162849.996000", "162849.999000", "162850.002000", "162850.006000", "162850.009000", "162850.012000", "162850.015000", "162850.019000", "162850.022000", "162850.025000", "162850.028000", "162850.032000", "162850.035000", "162850.038000", "162850.041000", "162850.045000", "162850.048000", "162850.051000", "162850.055000", "162850.058000", "162850.061000", "162850.064000", "162850.068000", "162905.998000", "162906.002000", "162906.006000", "162906.009000", "162906.012000", "162906.016000", "162906.019000", "162906.022000", "162906.026000", "162906.029000", "162906.033000"],
