{
  "AcquisitionMatrixPE": 104,
  "AcquisitionNumber": 1,
  "AcquisitionTime": "18:43:31.500000",
  "BandwidthPerPixelPhaseEncode": 17.17,
  "BaseResolution": 104,
  "BodyPartExamined": "BRAIN",
  "CoilCombinationMethod": "Sum of Squares",
  "ConsistencyInfo": "N4_VE11C_LATEST_20160120",
  "ConversionSoftware": "dcm2niix",
  "ConversionSoftwareVersion": "v1.0.20220505",
  "DerivedVendorReportedEchoSpacing": 0.000560011,
  "DeviceSerialNumber": "167006",
  "DwellTime": 2.1e-06,
  "EchoTime": 0.037,
  "EchoTime1": 0.037,
  "EchoTime2": 0.001,
  "EchoTrainLength": 104,
  "EffectiveEchoSpacing": 0.000560011,
  "FlipAngle": 52,
  "HeudiconvVersion": "0.5.3.post811+g6206e14",
  "ImageComments": "Unaliased MB4/PE3/LB",
  "ImageOrientationPatientDICOM": [0.995041, 0.0921747, 0.0373797, -0.0718492, 0.925962, -0.370719],
  "ImageOrientationText": "Tra>Cor(-21.5)>Sag(3.9)",
  "ImageType": [
    "ORIGINAL",
    "PRIMARY",
    "P",
    "MB",
    "ND",
    "MOSAIC",
    "PHASE"
],
  "ImagingFrequency": 123.259,
  "InPlanePhaseEncodingDirectionDICOM": "COL",
  "InstitutionAddress": "Chemin Queen-Mary 4565,Montreal,District,CA,H3W 1W5",
  "InstitutionName": "IUGM",
  "InstitutionalDepartmentName": "Department",
  "MRAcquisitionType": "2D",
  "MagneticFieldStrength": 3,
  "Manufacturer": "Siemens",
  "ManufacturersModelName": "Prisma_fit",
  "MatrixCoilMode": "SENSE",
  "Modality": "MR",
  "MultibandAccelerationFactor": 4,
  "PartialFourier": 1,
  "PatientPosition": "HFS",
  "PercentPhaseFOV": 100,
  "PercentSampling": 100,
  "PhaseEncodingDirection": "j",
  "PhaseEncodingSteps": 104,
  "PhaseResolution": 1,
  "PixelBandwidth": 2290,
  "ProcedureStepDescription": "games^mario3",
  "ProtocolName": "func_task-mario3_run-01",
  "PulseSequenceDetails": "%CustomerSeq%\\cmrr_mbep2d_bold",
  "ReceiveCoilActiveElements": "HC1-7;NC1,2",
  "ReceiveCoilName": "HeadNeck_64",
  "ReconMatrixPE": 104,
  "RepetitionTime": 1.49,
  "SAR": 0.0735859,
  "ScanOptions": "FS",
  "ScanningSequence": "EP",
  "SequenceName": "epfid2d1_104",
  "SequenceVariant": "SK\\SS",
  "SeriesDescription": "func_task-mario3_run-01",
  "SeriesNumber": 11,
  "ShimSetting": [636, -7192, -8813, 654, 108, -9, -21, 3],
  "SliceThickness": 2,
  "SliceTiming": [0, 0.7825, 0.0975, 0.8825, 0.195, 0.98, 0.295, 1.0775, 0.3925, 1.175, 0.49, 1.2725, 0.5875, 1.3725, 0.685, 0, 0.7825, 0.0975, 0.8825, 0.195, 0.98, 0.295, 1.0775, 0.3925, 1.175, 0.49, 1.2725, 0.5875, 1.3725, 0.685, 0, 0.7825, 0.0975, 0.8825, 0.195, 0.98, 0.295, 1.0775, 0.3925, 1.175, 0.49, 1.2725, 0.5875, 1.3725, 0.685, 0, 0.7825, 0.0975, 0.8825, 0.195, 0.98, 0.295, 1.0775, 0.3925, 1.175, 0.49, 1.2725, 0.5875, 1.3725, 0.685],
  "SoftwareVersions": "syngo MR E11",
  "SpacingBetweenSlices": 2,
  "StationName": "MRC35049",
  "TaskName": "mario3",
  "TotalReadoutTime": 0.0576811,
  "TxRefAmp": 288.112,
  "WipMemBlock": "d38e295b-8ec9-4c77-9249-e70ac7f72603||Sequence: R017 ve11c/master r/75a17815+; Jun 28 2022 16:32:11 by eja",
  "dcmmeta_affine": [
    [-1.990082025527954, -0.1436983048915863, 0.13756613433361053, 109.95394897460938],
    [-0.18434932827949524, 1.8519237041473389, -0.7323893308639526, -57.25645446777344],
    [0.07475943118333817, 0.741437554359436, 1.8559852838516235, -64.62992858886719],
    [0.0, 0.0, 0.0, 1.0]
],
  "dcmmeta_reorient_transform": [
    [0.0, -1.0, 0.0, 103.0],
    [1.0, 0.0, 0.0, 0.0],
    [0.0, 0.0, 1.0, 0.0],
    [0.0, 0.0, 0.0, 1.0]
],
  "dcmmeta_shape": [104, 104, 60, 315],
  "dcmmeta_slice_dim": 2,
  "dcmmeta_version": 0.6,
  "global": {
    "const": {
      "AcquisitionMatrix": [104, 0, 0, 104],
      "AngioFlag": "N",
      "BitsAllocated": 16,
      "BitsStored": 16,
      "BodyPartExamined": "BRAIN",
      "Columns": 832,
      "EchoNumbers": 1,
      "EchoTime": 37.0,
      "EchoTrainLength": 104,
      "FlipAngle": 52.0,
      "HighBit": 15,
      "ImageOrientationPatient": [0.9950409986085, 0.09217466043116, 0.03737971458705, -0.0718491549916, 0.92596182235016, -0.370718764668],
      "ImagePositionPatient": [-767.23668735463, -874.6950395902, 254.4089648352],
      "ImageType": [
        "ORIGINAL",
        "PRIMARY",
        "P",
        "MB",
        "ND",
        "MOSAIC"
],
      "ImagedNucleus": "1H",
      "ImagingFrequency": 123.258962,
      "InPlanePhaseEncodingDirection": "COL",
      "LargestImagePixelValue": 4095,
      "MRAcquisitionType": "2D",
      "MagneticFieldStrength": 3.0,
      "Manufacturer": "SIEMENS",
      "ManufacturerModelName": "Prisma_fit",
      "Modality": "MR",
      "NumberOfAverages": 1.0,
      "NumberOfPhaseEncodingSteps": 104,
      "PercentPhaseFieldOfView": 100.0,
      "PercentSampling": 100.0,
      "PerformedProcedureStepStartTime": "184012.860000",
      "PhotometricInterpretation": "MONOCHROME2",
      "PixelBandwidth": 2290.0,
      "PixelRepresentation": 0,
      "PixelSpacing": [2.0, 2.0],
      "ProtocolName": "func_task-mario3_run-01",
      "RepetitionTime": 1490.0,
      "RescaleIntercept": -4096.0,
      "RescaleSlope": 2.0,
      "RescaleType": "US",
      "Rows": 832,
      "SAR": 0.07358590214127,
      "SamplesPerPixel": 1,
      "ScanOptions": "FS",
      "ScanningSequence": "EP",
      "SequenceName": "epfid2d1_104",
      "SequenceVariant": [
        "SK",
        "SS"
],
      "SeriesDescription": "func_task-mario3_run-01",
      "SeriesNumber": 11,
      "SeriesTime": "184459.237000",
      "SliceLocation": -31.446120640041,
      "SliceThickness": 2.0,
      "SmallestImagePixelValue": 0,
      "SoftwareVersions": "syngo MR E11",
      "SpacingBetweenSlices": 1.999999964005,
      "SpecificCharacterSet": "ISO_IR 100",
      "StudyID": "1",
      "StudyTime": "184012.792000",
      "TransmitCoilName": "Body",
      "VariableFlipAngleFlag": "N",
      "WindowCenterWidthExplanation": "Algo1",
      "dBdt": 0.0},
    "slices": {}
  },
  "time": {
    "samples": {
      "AcquisitionNumber": [1, 2, 3, 4, 5, 6, 7, 8, 9, 10, 11, 12, 13, 14, 15, 16, 17, 18, 19, 20, 21, 22, 23, 24, 25, 26, 27, 28, 29, 30, 31, 32, 33, 34, 35, 36, 37, 38, 39, 40, 41, 42, 43, 44, 45, 46, 47, 48, 49, 50, 51, 52, 53, 54, 55, 56, 57, 58, 59, 60, 61, 62, 63, 64, 65, 66, 67, 68, 69, 70, 71, 72, 73, 74, 75, 76, 77, 78, 79, 80, 81, 82, 83, 84, 85, 86, 87, 88, 89, 90, 91, 92, 93, 94, 95, 96, 97, 98, 99, 100, 101, 102, 103, 104, 105, 106, 107, 108, 109, 110, 111, 112, 113, 114, 115, 116, 117, 118, 119, 120, 121, 122, 123, 124, 125, 126, 127, 128, 129, 130, 131, 132, 133, 134, 135, 136, 137, 138, 139, 140, 141, 142, 143, 144, 145, 146, 147, 148, 149, 150, 151, 152, 153, 154, 155, 156, 157, 158, 159, 160, 161, 162, 163, 164, 165, 166, 167, 168, 169, 170, 171, 172, 173, 174, 175, 176, 177, 178, 179, 180, 181, 182, 183, 184, 185, 186, 187, 188, 189, 190, 191, 192, 193, 194, 195, 196, 197, 198, 199, 200, 201, 202, 203, 204, 205, 206, 207, 208, 209, 210, 211, 212, 213, 214, 215, 216, 217, 218, 219, 220, 221, 222, 223, 224, 225, 226, 227, 228, 229, 230, 231, 232, 233, 234, 235, 236, 237, 238, 239, 240, 241, 242, 243, 244, 245, 246, 247, 248, 249, 250, 251, 252, 253, 254, 255, 256, 257, 258, 259, 260, 261, 262, 263, 264, 265, 266, 267, 268, 269, 270, 271, 272, 273, 274, 275, 276, 277, 278, 279, 280, 281, 282, 283, 284, 285, 286, 287, 288, 289, 290, 291, 292, 293, 294, 295, 296, 297, 298, 299, 300, 301, 302, 303, 304, 305, 306, 307, 308, 309, 310, 311, 312, 313, 314, 315],
      "AcquisitionTime": ["184331.500000", "184332.990000", "184334.480000", "184335.970000", "184337.460000", "184338.950000", "184340.440000", "184341.930000", "184343.420000", "184344.910000", "184346.400000", "184347.890000", "184349.380000", "184350.870000", "184352.360000", "184353.850000", "184355.340000", "184356.830000", "184358.320000", "184359.810000", "184401.300000", "184402.790000", "184404.280000", "184405.770000", "184407.260000", "184408.750000", "184410.240000", "184411.730000", "184413.220000", "184414.710000", "184416.200000", "184417.690000", "184419.180000", "184420.670000", "184422.160000", "184423.650000", "184425.140000", "184426.630000", "184428.120000", "184429.610000", "184431.100000", "184432.590000", "184434.080000", "184435.570000", "184437.060000", "184438.550000", "184440.040000", "184441.530000", "184443.020000", "184444.510000", "184446.000000", "184447.490000", "184448.980000", "184450.470000", "184451.960000", "184453.450000", "184454.940000", "184456.430000", "184457.920000", "184459.410000", "184500.900000", "184502.390000", "184503.880000", "184505.370000", "184506.860000", "184508.350000", "184509.840000", "184511.330000", "184512.820000", "184514.310000", "184515.800000", "184517.290000", "184518.780000", "184520.270000", "184521.760000", "184523.250000", "184524.740000", "184526.230000", "184527.720000", "184529.210000", "184530.700000", "184532.190000", "184533.680000", "184535.170000", "184536.660000", "184538.150000", "184539.640000", "184541.130000", "184542.620000", "184544.110000", "184545.600000", "184547.090000", "184548.580000", "184550.070000", "184551.560000", "184553.050000", "184554.540000", "184556.030000", "184557.520000", "184559.010000", "184600.500000", "184601.990000", "184603.480000", "184604.970000", "184606.460000", "184607.950000", "184609.440000", "184610.930000", "184612.420000", "184613.910000", "184615.400000", "184616.890000", "184618.380000", "184619.870000", "184621.360000", "184622.850000", "184624.340000", "184625.830000", "184627.320000", "184628.810000", "184630.300000", "184631.790000", "184633.280000", "184634.770000", "184636.260000", "184637.750000", "184639.240000", "184640.730000", "184642.220000", "184643.710000", "184645.200000", "184646.690000", "184648.180000", "184649.670000", "184651.160000", "184652.650000", "184654.140000", "184655.630000", "184657.120000", "184658.610000", "184700.100000", "184701.590000", "184703.080000", "184704.570000", "184706.060000", "184707.550000", "184709.040000", "184710.530000", "184712.020000", "184713.510000", "184715.000000", "184716.490000", "184717.980000", "184719.470000", "184720.960000", "184722.450000", "184723.940000", "184725.430000", "184726.920000", "184728.410000", "184729.900000", "184731.390000", "184732.880000", "184734.370000", "184735.860000", "184737.350000", "184738.840000", "184740.330000", "184741.820000", "184743.310000", "184744.800000", "184746.290000", "184747.780000", "184749.270000", "184750.760000", "184752.250000", "184753.740000", "184755.230000", "184756.720000", "184758.210000", "184759.700000", "184801.190000", "184802.680000", "184804.170000", "184805.660000", "184807.150000", "184808.640000", "184810.130000", "184811.620000", "184813.110000", "184814.600000", "184816.090000", "184817.580000", "184819.070000", "184820.560000", "184822.050000", "184823.540000", "184825.030000", "184826.520000", "184828.010000", "184829.500000", "184830.990000", "184832.480000", "184833.970000", "184835.460000", "184836.950000", "184838.440000", "184839.930000", "184841.420000", "184842.910000", "184844.400000", "184845.890000", "184847.380000", "184848.870000", "184850.360000", "184851.850000", "184853.340000", "184854.830000", "184856.320000", "184857.810000", "184859.300000", "184900.790000", "184902.280000", "184903.770000", "184905.260000", "184906.750000", "184908.240000", "184909.730000", "184911.220000", "184912.710000", "184914.200000", "184915.690000", "184917.180000", "184918.670000", "184920.160000", "184921.650000", "184923.140000", "184924.630000", "184926.120000", "184927.610000", "184929.100000", "184930.590000", "184932.080000", "184933.570000", "184935.060000", "184936.550000", "184938.040000", "184939.530000", "184941.020000", "184942.510000", "184944.000000", "184945.490000", "184946.980000", "184948.470000", "184949.960000", "184951.450000", "184952.940000", "184954.430000", "184955.920000", "184957.410000", "184958.900000", "185000.390000", "185001.880000", "185003.370000", "185004.860000", "185006.350000", "185007.840000", "185009.330000", "185010.820000", "185012.310000", "185013.800000", "185015.290000", "185016.780000", "185018.270000", "185019.760000", "185021.250000", "185022.740000", "185024.230000", "185025.720000", "185027.210000", "185028.700000", "185030.190000", "185031.680000", "185033.170000", "185034.660000", "185036.150000", "185037.640000", "185039.130000", "185040.620000", "185042.110000", "185043.600000", "185045.090000", "185046.580000", "185048.070000", "185049.560000", "185051.050000", "185052.540000", "185054.030000", "185055.520000", "185057.010000", "185058.500000", "185059.990000", "185101.480000", "185102.970000", "185104.460000", "185105.950000", "185107.440000", "185108.930000", "185110.420000", "185111.910000", "185113.400000", "185114.890000", "185116.380000", "185117.870000", "185119.360000"],
      "ContentTime": ["184459.239000", "184459.242000", "184459.244000", "184459.247000", "184459.250000", "184459.252000", "184459.255000", "184459.257000", "184459.260000", "184459.262000", "184459.265000", "184459.267000", "184459.270000", "184459.272000", "184459.275000", "184459.277000", "184459.280000", "184459.282000", "184459.285000", "184459.288000", "184459.290000", "184459.293000", "184459.295000", "184459.298000", "184459.300000", "184459.303000", "184459.305000", "184459.308000", "184459.310000", "184459.313000", "184459.315000", "184459.318000", "184459.320000", "184459.323000", "184459.325000", "184459.328000", "184459.330000", "184459.333000", "184519.624000", "184519.627000", "184519.629000", "184519.632000", "184519.634000", "184519.637000", "184519.640000", "184519.642000", "184519.645000", "184519.647000", "184519.650000", "184519.652000", "184519.655000", "184519.657000", "184519.660000", "184519.662000", "184519.665000", "184519.667000", "184519.670000", "184519.672000", "184539.116000", "184539.119000", "184539.121000", "184539.124000", "184539.126000", "184539.129000", "184539.131000", "184539.134000", "184539.137000", "184539.139000", "184539.142000", "184539.144000", "184539.147000", "184539.149000", "184539.152000", "184539.154000", "184539.157000", "184539.159000", "184539.162000", "184539.164000", "184559.104000", "184559.106000", "184559.109000", "184559.112000", "184559.114000", "184559.117000", "184559.119000", "184559.122000", "184559.124000", "184559.127000", "184559.129000", "184559.132000", "184559.134000", "184559.137000", "184559.140000", "184559.142000", "184559.145000", "184559.147000", "184559.150000", "184559.152000", "184639.140000", "184639.142000", "184639.145000", "184639.148000", "184639.150000", "184639.153000", "184639.155000", "184639.158000", "184639.160000", "184639.163000", "184639.165000", "184639.168000", "184639.170000", "184639.173000", "184639.175000", "184639.178000", "184639.181000", "184639.183000", "184639.186000", "184639.188000", "184639.191000", "184639.193000", "184639.196000", "184639.198000", "184639.201000", "184639.203000", "184639.206000", "184719.164000", "184719.167000", "184719.169000", "184719.172000", "184719.185000", "184719.187000", "184719.190000", "184719.192000", "184719.195000", "184719.198000", "184719.200000", "184719.203000", "184719.205000", "184719.208000", "184719.211000", "184719.213000", "184719.216000", "184719.218000", "184719.221000", "184719.224000", "184719.226000", "184719.229000", "184719.231000", "184719.234000", "184719.236000", "184719.239000", "184759.146000", "184759.149000", "184759.152000", "184759.154000", "184759.157000", "184759.160000", "184759.162000", "184759.165000", "184759.167000", "184759.170000", "184759.173000", "184759.176000", "184759.178000", "184759.181000", "184759.183000", "184759.186000", "184759.188000", "184759.191000", "184759.194000", "184759.196000", "184759.199000", "184759.201000", "184759.204000", "184759.206000", "184759.209000", "184759.211000", "184759.214000", "184839.140000", "184839.143000", "184839.145000", "184839.148000", "184839.151000", "184839.153000", "184839.156000", "184839.158000", "184839.161000", "184839.163000", "184839.166000", "184839.168000", "184839.171000", "184839.173000", "184839.176000", "184839.178000", "184839.181000", "184839.183000", "184839.186000", "184839.188000", "184839.191000", "184839.193000", "184839.196000", "184839.199000", "184839.207000", "184839.210000", "184839.212000", "184919.148000", "184919.151000", "184919.153000", "184919.156000", "184919.159000", "184919.161000", "184919.164000", "184919.166000", "184919.169000", "184919.171000", "184919.174000", "184919.176000", "184919.179000", "184919.181000", "184919.184000", "184919.187000", "184919.189000", "184919.192000", "184919.205000", "184919.208000", "184919.210000", "184919.213000", "184919.215000", "184919.218000", "184919.221000", "184919.223000", "184919.226000", "184959.150000", "184959.153000", "184959.155000", "184959.158000", "184959.161000", "184959.163000", "184959.166000", "184959.168000", "184959.171000", "184959.173000", "184959.176000", "184959.178000", "184959.181000", "184959.183000", "184959.186000", "184959.188000", "184959.191000", "184959.193000", "184959.196000", "184959.198000", "184959.201000", "184959.204000", "184959.206000", "184959.209000", "184959.211000", "184959.214000", "184959.216000", "185039.147000", "185039.150000", "185039.153000", "185039.155000", "185039.158000", "185039.160000", "185039.163000", "185039.165000", "185039.168000", "185039.171000", "185039.173000", "185039.176000", "185039.178000", "185039.181000", "185039.183000", "185039.186000", "185039.188000", "185039.191000", "185039.193000", "185039.196000", "185039.198000", "185039.201000", "185039.204000", "185039.206000", "185039.209000", "185039.211000", "185039.214000", "185119.138000", "185119.141000", "185119.143000", "185119.146000", "185119.149000", "185119.151000", "185119.154000", "185119.156000", "185119.159000", "185119.161000", "185119.164000", "185119.166000", "185119.169000", "185119.171000", "185119.174000", "185119.176000", "185119.179000", "185119.182000", "185119.184000", "185119.187000", "185119.189000", "185119.192000", "185119.194000", "185119.197000", "185119.199000", "185119.202000", "185119.204000", "185122.685000", "185122.688000"],
      "InstanceCreationTime": ["184459.239000", "184459.242000", "184459.244000", "184459.247000", "184459.250000", "184459.252000", "184459.255000", "184459.257000", "184459.260000", "184459.262000", "184459.265000", "184459.267000", "184459.270000", "184459.272000", "184459.275000", "184459.277000", "184459.280000", "184459.282000", "184459.285000", "184459.288000", "184459.290000", "184459.293000", "184459.295000", "184459.298000", "184459.300000", "184459.303000", "184459.305000", "184459.308000", "184459.310000", "184459.313000", "184459.315000", "184459.318000", "184459.320000", "184459.323000", "184459.325000", "184459.328000", "184459.330000", "184459.333000", "184519.624000", "184519.627000", "184519.629000", "184519.632000", "184519.634000", "184519.637000", "184519.640000", "184519.642000", "184519.645000", "184519.647000", "184519.650000", "184519.652000", "184519.655000", "184519.657000", "184519.660000", "184519.662000", "184519.665000", "184519.667000", "184519.670000", "184519.672000", "184539.116000", "184539.119000", "184539.121000", "184539.124000", "184539.126000", "184539.129000", "184539.131000", "184539.134000", "184539.137000", "184539.139000", "184539.142000", "184539.144000", "184539.147000", "184539.149000", "184539.152000", "184539.154000", "184539.157000", "184539.159000", "184539.162000", "184539.164000", "184559.104000", "184559.106000", "184559.109000", "184559.112000", "184559.114000", "184559.117000", "184559.119000", "184559.122000", "184559.124000", "184559.127000", "184559.129000", "184559.132000", "184559.134000", "184559.137000", "184559.140000", "184559.142000", "184559.145000", "184559.147000", "184559.150000", "184559.152000", "184639.140000", "184639.142000", "184639.145000", "184639.148000", "184639.150000", "184639.153000", "184639.155000", "184639.158000", "184639.160000", "184639.163000", "184639.165000", "184639.168000", "184639.170000", "184639.173000", "184639.175000", "184639.178000", "184639.181000", "184639.183000", "184639.186000", "184639.188000", "184639.191000", "184639.193000", "184639.196000", "184639.198000", "184639.201000", "184639.203000", "184639.206000", "184719.164000", "184719.167000", "184719.169000", "184719.172000", "184719.185000", "184719.187000", "184719.190000", "184719.192000", "184719.195000", "184719.198000", "184719.200000", "184719.203000", "184719.205000", "184719.208000", "184719.211000", "184719.213000", "184719.216000", "184719.218000", "184719.221000", "184719.224000", "184719.226000", "184719.229000", "184719.231000", "184719.234000", "184719.236000", "184719.239000", "184759.146000", "184759.149000", "184759.152000", "184759.154000", "184759.157000", "184759.160000", "184759.162000", "184759.165000", "184759.167000", "184759.170000", "184759.173000", "184759.176000", "184759.178000", "184759.181000", "184759.183000", "184759.186000", "184759.188000", "184759.191000", "184759.194000", "184759.196000", "184759.199000", "184759.201000", "184759.204000", "184759.206000", "184759.209000", "184759.211000", "184759.214000", "184839.140000", "184839.143000", "184839.145000", "184839.148000", "184839.151000", "184839.153000", "184839.156000", "184839.158000", "184839.161000", "184839.163000", "184839.166000", "184839.168000", "184839.171000", "184839.173000", "184839.176000", "184839.178000", "184839.181000", "184839.183000", "184839.186000", "184839.188000", "184839.191000", "184839.193000", "184839.196000", "184839.199000", "184839.207000", "184839.210000", "184839.212000", "184919.148000", "184919.151000", "184919.153000", "184919.156000", "184919.159000", "184919.161000", "184919.164000", "184919.166000", "184919.169000", "184919.171000", "184919.174000", "184919.176000", "184919.179000", "184919.181000", "184919.184000", "184919.187000", "184919.189000", "184919.192000", "184919.205000", "184919.208000", "184919.210000", "184919.213000", "184919.215000", "184919.218000", "184919.221000", "184919.223000", "184919.226000", "184959.150000", "184959.153000", "184959.155000", "184959.158000", "184959.161000", "184959.163000", "184959.166000", "184959.168000", "184959.171000", "184959.173000", "184959.176000", "184959.178000", "184959.181000", "184959.183000", "184959.186000", "184959.188000", "184959.191000", "184959.193000", "184959.196000", "184959.198000", "184959.201000", "184959.204000", "184959.206000", "184959.209000", "184959.211000", "184959.214000", "184959.216000", "185039.147000", "185039.150000", "185039.153000", "185039.155000", "185039.158000", "185039.160000", "185039.163000", "185039.165000", "185039.168000", "185039.171000", "185039.173000", "185039.176000", "185039.178000", "185039.181000", "185039.183000", "185039.186000", "185039.188000", "185039.191000", "185039.193000", "185039.196000", "185039.198000", "185039.201000", "185039.204000", "185039.206000", "185039.209000", "185039.211000", "185039.214000", "185119.138000", "185119.141000", "185119.143000", "185119.146000", "185119.149000", "185119.151000", "185119.154000", "185119.156000", "185119.159000", "185119.161000", "185119.164000", "185119.166000", "185119.169000", "185119.171000", "185119.174000", "185119.176000", "185119.179000", "185119.182000", "185119.184000", "185119.187000", "185119.189000", "185119.192000", "185119.194000", "185119.197000", "185119.199000", "185119.202000", "185119.204000", "185122.685000", "185122.688000"],
      "InstanceNumber": [1, 2, 3, 4, 5, 6, 7, 8, 9, 10, 11, 12, 13, 14, 15, 16, 17, 18, 19, 20, 21, 22, 23, 24, 25, 26, 27, 28, 29, 30, 31, 32, 33, 34, 35, 36, 37, 38, 39, 40, 41, 42, 43, 44, 45, 46, 47, 48, 49, 50, 51, 52, 53, 54, 55, 56, 57, 58, 59, 60, 61, 62, 63, 64, 65, 66, 67, 68, 69, 70, 71, 72, 73, 74, 75, 76, 77, 78, 79, 80, 81, 82, 83, 84, 85, 86, 87, 88, 89, 90, 91, 92, 93, 94, 95, 96, 97, 98, 99, 100, 101, 102, 103, 104, 105, 106, 107, 108, 109, 110, 111, 112, 113, 114, 115, 116, 117, 118, 119, 120, 121, 122, 123, 124, 125, 126, 127, 128, 129, 130, 131, 132, 133, 134, 135, 136, 137, 138, 139, 140, 141, 142, 143, 144, 145, 146, 147, 148, 149, 150, 151, 152, 153, 154, 155, 156, 157, 158, 159, 160, 161, 162, 163, 164, 165, 166, 167, 168, 169, 170, 171, 172, 173, 174, 175, 176, 177, 178, 179, 180, 181, 182, 183, 184, 185, 186, 187, 188, 189, 190, 191, 192, 193, 194, 195, 196, 197, 198, 199, 200, 201, 202, 203, 204, 205, 206, 207, 208, 209, 210, 211, 212, 213, 214, 215, 216, 217, 218, 219, 220, 221, 222, 223, 224, 225, 226, 227, 228, 229, 230, 231, 232, 233, 234, 235, 236, 237, 238, 239, 240, 241, 242, 243, 244, 245, 246, 247, 248, 249, 250, 251, 252, 253, 254, 255, 256, 257, 258, 259, 260, 261, 262, 263, 264, 265, 266, 267, 268, 269, 270, 271, 272, 273, 274, 275, 276, 277, 278, 279, 280, 281, 282, 283, 284, 285, 286, 287, 288, 289, 290, 291, 292, 293, 294, 295, 296, 297, 298, 299, 300, 301, 302, 303, 304, 305, 306, 307, 308, 309, 310, 311, 312, 313, 314, 315],
      "WindowCenter": [4818.0, 4814.0, 4816.0, 4818.0, 4816.0, 4816.0, 4818.0, 4816.0, 4820.0, 4822.0, 4844.0, 4846.0, 4822.0, 4820.0, 4820.0, 4842.0, 4844.0, 4844.0, 4844.0, 4822.0, 4824.0, 4820.0, 4822.0, 4822.0, 4844.0, 4844.0, 4844.0, 4846.0, 4844.0, 4824.0, 4848.0, 4844.0, 4822.0, 4842.0, 4846.0, 4844.0, 4820.0, 4846.0, 4844.0, 4846.0, 4848.0, 4850.0, 4850.0, 4850.0, 4848.0, 4852.0, 4848.0, 4848.0, 4848.0, 4848.0, 4846.0, 4850.0, 4852.0, 4852.0, 4848.0, 4848.0, 4850.0, 4852.0, 4852.0, 4850.0, 4850.0, 4846.0, 4848.0, 4850.0, 4848.0, 4848.0, 4846.0, 4850.0, 4848.0, 4850.0, 4852.0, 4850.0, 4848.0, 4850.0, 4848.0, 4850.0, 4848.0, 4848.0, 4846.0, 4848.0, 4848.0, 4850.0, 4850.0, 4846.0, 4854.0, 4848.0, 4850.0, 4848.0, 4852.0, 4850.0, 4852.0, 4848.0, 4850.0, 4850.0, 4852.0, 4850.0, 4848.0, 4848.0, 4848.0, 4848.0, 4848.0, 4854.0, 4848.0, 4850.0, 4848.0, 4854.0, 4850.0, 4850.0, 4852.0, 4852.0, 4850.0, 4852.0, 4854.0, 4846.0, 4852.0, 4854.0, 4852.0, 4852.0, 4852.0, 4852.0, 4856.0, 4854.0, 4852.0, 4852.0, 4856.0, 4852.0, 4852.0, 4854.0, 4854.0, 4850.0, 4852.0, 4852.0, 4852.0, 4850.0, 4854.0, 4850.0, 4852.0, 4856.0, 4852.0, 4854.0, 4852.0, 4852.0, 4852.0, 4854.0, 4856.0, 4854.0, 4852.0, 4854.0, 4854.0, 4852.0, 4856.0, 4854.0, 4854.0, 4852.0, 4856.0, 4852.0, 4852.0, 4856.0, 4854.0, 4856.0, 4852.0, 4856.0, 4854.0, 4858.0, 4854.0, 4850.0, 4852.0, 4850.0, 4854.0, 4854.0, 4856.0, 4852.0, 4852.0, 4852.0, 4850.0, 4854.0, 4856.0, 4854.0, 4854.0, 4854.0, 4858.0, 4856.0, 4848.0, 4854.0, 4850.0, 4854.0, 4854.0, 4852.0, 4854.0, 4854.0, 4852.0, 4854.0, 4852.0, 4856.0, 4854.0, 4854.0, 4856.0, 4854.0, 4854.0, 4854.0, 4856.0, 4856.0, 4852.0, 4856.0, 4856.0, 4852.0, 4852.0, 4850.0, 4852.0, 4854.0, 4852.0, 4850.0, 4854.0, 4854.0, 4878.0, 4858.0, 4854.0, 4876.0, 4854.0, 4854.0, 4852.0, 4850.0, 4850.0, 4856.0, 4854.0, 4850.0, 4852.0, 4854.0, 4854.0, 4856.0, 4854.0, 4856.0, 4852.0, 4856.0, 4856.0, 4856.0, 4856.0, 4848.0, 4854.0, 4878.0, 4854.0, 4878.0, 4854.0, 4852.0, 4856.0, 4854.0, 4856.0, 4854.0, 4854.0, 4856.0, 4856.0, 4858.0, 4858.0, 4854.0, 4852.0, 4854.0, 4854.0, 4852.0, 4854.0, 4876.0, 4856.0, 4854.0, 4856.0, 4856.0, 4854.0, 4858.0, 4878.0, 4856.0, 4856.0, 4858.0, 4858.0, 4856.0, 4854.0, 4856.0, 4854.0, 4878.0, 4858.0, 4880.0, 4854.0, 4882.0, 4856.0, 4856.0, 4878.0, 4878.0, 4856.0, 4858.0, 4854.0, 4880.0, 4856.0, 4856.0, 4876.0, 4854.0, 4854.0, 4854.0, 4852.0, 4854.0, 4854.0, 4854.0, 4854.0, 4854.0, 4852.0, 4852.0, 4854.0, 4854.0, 4854.0, 4852.0, 4876.0, 4854.0, 4854.0, 4854.0, 4854.0, 4850.0, 4854.0, 4852.0, 4850.0],
