{
  "AcquisitionMatrixPE": 104,
  "AcquisitionNumber": 1,
  "AcquisitionTime": "18:43:31.500000",
  "BandwidthPerPixelPhaseEncode": 17.17,
  "BaseResolution": 104,
  "BodyPartExamined": "BRAIN",
  "CoilCombinationMethod": "Sum of Squares",
  "ConsistencyInfo": "N4_VE11C_LATEST_20160120",
  "ConversionSoftware": "dcm2niix",
  "ConversionSoftwareVersion": "v1.0.20220505",
  "DerivedVendorReportedEchoSpacing": 0.000560011,
  "DeviceSerialNumber": "167006",
  "DwellTime": 2.1e-06,
  "EchoTime": 0.037,
  "EchoTrainLength": 104,
  "EffectiveEchoSpacing": 0.000560011,
  "FlipAngle": 52,
  "HeudiconvVersion": "0.5.3.post811+g6206e14",
  "ImageComments": "Unaliased MB4/PE3/LB",
  "ImageOrientationPatientDICOM": [0.995041, 0.0921747, 0.0373797, -0.0718492, 0.925962, -0.370719],
  "ImageOrientationText": "Tra>Cor(-21.5)>Sag(3.9)",
  "ImageType": [
    "ORIGINAL",
    "PRIMARY",
    "M",
    "MB",
    "ND",
    "MOSAIC"
],
  "ImagingFrequency": 123.259,
  "InPlanePhaseEncodingDirectionDICOM": "COL",
  "InstitutionAddress": "Chemin Queen-Mary 4565,Montreal,District,CA,H3W 1W5",
  "InstitutionName": "IUGM",
  "InstitutionalDepartmentName": "Department",
  "MRAcquisitionType": "2D",
  "MagneticFieldStrength": 3,
  "Manufacturer": "Siemens",
  "ManufacturersModelName": "Prisma_fit",
  "MatrixCoilMode": "SENSE",
  "Modality": "MR",
  "MultibandAccelerationFactor": 4,
  "PartialFourier": 1,
  "PatientPosition": "HFS",
  "PercentPhaseFOV": 100,
  "PercentSampling": 100,
  "PhaseEncodingDirection": "j",
  "PhaseEncodingSteps": 104,
  "PhaseResolution": 1,
  "PixelBandwidth": 2290,
  "ProcedureStepDescription": "games^mario3",
  "ProtocolName": "func_task-mario3_run-01",
  "PulseSequenceDetails": "%CustomerSeq%\\cmrr_mbep2d_bold",
  "ReceiveCoilActiveElements": "HC1-7;NC1,2",
  "ReceiveCoilName": "HeadNeck_64",
  "ReconMatrixPE": 104,
  "RepetitionTime": 1.49,
  "SAR": 0.0735859,
  "ScanOptions": "FS",
  "ScanningSequence": "EP",
  "SequenceName": "epfid2d1_104",
  "SequenceVariant": "SK\\SS",
  "SeriesDescription": "func_task-mario3_run-01",
  "SeriesNumber": 10,
  "ShimSetting": [636, -7192, -8813, 654, 108, -9, -21, 3],
  "SliceThickness": 2,
  "SliceTiming": [0, 0.7825, 0.0975, 0.8825, 0.195, 0.98, 0.295, 1.0775, 0.3925, 1.175, 0.49, 1.2725, 0.5875, 1.3725, 0.685, 0, 0.7825, 0.0975, 0.8825, 0.195, 0.98, 0.295, 1.0775, 0.3925, 1.175, 0.49, 1.2725, 0.5875, 1.3725, 0.685, 0, 0.7825, 0.0975, 0.8825, 0.195, 0.98, 0.295, 1.0775, 0.3925, 1.175, 0.49, 1.2725, 0.5875, 1.3725, 0.685, 0, 0.7825, 0.0975, 0.8825, 0.195, 0.98, 0.295, 1.0775, 0.3925, 1.175, 0.49, 1.2725, 0.5875, 1.3725, 0.685],
  "SoftwareVersions": "syngo MR E11",
  "SpacingBetweenSlices": 2,
  "StationName": "MRC35049",
  "TaskName": "mario3",
  "TotalReadoutTime": 0.0576811,
  "TxRefAmp": 288.112,
  "WipMemBlock": "d38e295b-8ec9-4c77-9249-e70ac7f72603||Sequence: R017 ve11c/master r/75a17815+; Jun 28 2022 16:32:11 by eja",
  "dcmmeta_affine": [
    [-1.990082025527954, -0.1436983048915863, 0.13756613433361053, 109.95394897460938],
    [-0.18434932827949524, 1.8519237041473389, -0.7323893308639526, -57.25645446777344],
    [0.07475943118333817, 0.741437554359436, 1.8559852838516235, -64.62992858886719],
    [0.0, 0.0, 0.0, 1.0]
],
  "dcmmeta_reorient_transform": [
    [0.0, -1.0, 0.0, 103.0],
    [1.0, 0.0, 0.0, 0.0],
    [0.0, 0.0, 1.0, 0.0],
    [0.0, 0.0, 0.0, 1.0]
],
  "dcmmeta_shape": [104, 104, 60, 315],
  "dcmmeta_slice_dim": 2,
  "dcmmeta_version": 0.6,
  "global": {
    "const": {
      "AcquisitionMatrix": [104, 0, 0, 104],
      "AngioFlag": "N",
      "BitsAllocated": 16,
      "BitsStored": 16,
      "BodyPartExamined": "BRAIN",
      "Columns": 832,
      "EchoNumbers": 1,
      "EchoTime": 37.0,
      "EchoTrainLength": 104,
      "FlipAngle": 52.0,
      "HighBit": 15,
      "ImageOrientationPatient": [0.9950409986085, 0.09217466043116, 0.03737971458705, -0.0718491549916, 0.92596182235016, -0.370718764668],
      "ImagePositionPatient": [-767.23668735463, -874.6950395902, 254.4089648352],
      "ImageType": [
        "ORIGINAL",
        "PRIMARY",
        "M",
        "MB",
        "ND",
        "MOSAIC"
],
      "ImagedNucleus": "1H",
      "ImagingFrequency": 123.258962,
      "InPlanePhaseEncodingDirection": "COL",
      "MRAcquisitionType": "2D",
      "MagneticFieldStrength": 3.0,
      "Manufacturer": "SIEMENS",
      "ManufacturerModelName": "Prisma_fit",
      "Modality": "MR",
      "NumberOfAverages": 1.0,
      "NumberOfPhaseEncodingSteps": 104,
      "PercentPhaseFieldOfView": 100.0,
      "PercentSampling": 100.0,
      "PerformedProcedureStepStartTime": "184012.860000",
      "PhotometricInterpretation": "MONOCHROME2",
      "PixelBandwidth": 2290.0,
      "PixelRepresentation": 0,
      "PixelSpacing": [2.0, 2.0],
      "ProtocolName": "func_task-mario3_run-01",
      "RepetitionTime": 1490.0,
      "Rows": 832,
      "SAR": 0.07358590214127,
      "SamplesPerPixel": 1,
      "ScanOptions": "FS",
      "ScanningSequence": "EP",
      "SequenceName": "epfid2d1_104",
      "SequenceVariant": [
        "SK",
        "SS"
],
      "SeriesDescription": "func_task-mario3_run-01",
      "SeriesNumber": 10,
      "SeriesTime": "184459.037000",
      "SliceLocation": -31.446120640041,
      "SliceThickness": 2.0,
      "SmallestImagePixelValue": 0,
      "SoftwareVersions": "syngo MR E11",
      "SpacingBetweenSlices": 1.999999964005,
      "SpecificCharacterSet": "ISO_IR 100",
      "StudyID": "1",
      "StudyTime": "184012.792000",
      "TransmitCoilName": "Body",
      "VariableFlipAngleFlag": "N",
      "WindowCenterWidthExplanation": "Algo1",
      "dBdt": 0.0},
    "slices": {}
  },
  "time": {
    "samples": {
      "AcquisitionNumber": [1, 2, 3, 4, 5, 6, 7, 8, 9, 10, 11, 12, 13, 14, 15, 16, 17, 18, 19, 20, 21, 22, 23, 24, 25, 26, 27, 28, 29, 30, 31, 32, 33, 34, 35, 36, 37, 38, 39, 40, 41, 42, 43, 44, 45, 46, 47, 48, 49, 50, 51, 52, 53, 54, 55, 56, 57, 58, 59, 60, 61, 62, 63, 64, 65, 66, 67, 68, 69, 70, 71, 72, 73, 74, 75, 76, 77, 78, 79, 80, 81, 82, 83, 84, 85, 86, 87, 88, 89, 90, 91, 92, 93, 94, 95, 96, 97, 98, 99, 100, 101, 102, 103, 104, 105, 106, 107, 108, 109, 110, 111, 112, 113, 114, 115, 116, 117, 118, 119, 120, 121, 122, 123, 124, 125, 126, 127, 128, 129, 130, 131, 132, 133, 134, 135, 136, 137, 138, 139, 140, 141, 142, 143, 144, 145, 146, 147, 148, 149, 150, 151, 152, 153, 154, 155, 156, 157, 158, 159, 160, 161, 162, 163, 164, 165, 166, 167, 168, 169, 170, 171, 172, 173, 174, 175, 176, 177, 178, 179, 180, 181, 182, 183, 184, 185, 186, 187, 188, 189, 190, 191, 192, 193, 194, 195, 196, 197, 198, 199, 200, 201, 202, 203, 204, 205, 206, 207, 208, 209, 210, 211, 212, 213, 214, 215, 216, 217, 218, 219, 220, 221, 222, 223, 224, 225, 226, 227, 228, 229, 230, 231, 232, 233, 234, 235, 236, 237, 238, 239, 240, 241, 242, 243, 244, 245, 246, 247, 248, 249, 250, 251, 252, 253, 254, 255, 256, 257, 258, 259, 260, 261, 262, 263, 264, 265, 266, 267, 268, 269, 270, 271, 272, 273, 274, 275, 276, 277, 278, 279, 280, 281, 282, 283, 284, 285, 286, 287, 288, 289, 290, 291, 292, 293, 294, 295, 296, 297, 298, 299, 300, 301, 302, 303, 304, 305, 306, 307, 308, 309, 310, 311, 312, 313, 314, 315],
      "AcquisitionTime": ["184331.500000", "184332.990000", "184334.480000", "184335.970000", "184337.460000", "184338.950000", "184340.440000", "184341.930000", "184343.420000", "184344.910000", "184346.400000", "184347.890000", "184349.380000", "184350.870000", "184352.360000", "184353.850000", "184355.340000", "184356.830000", "184358.320000", "184359.810000", "184401.300000", "184402.790000", "184404.280000", "184405.770000", "184407.260000", "184408.750000", "184410.240000", "184411.730000", "184413.220000", "184414.710000", "184416.200000", "184417.690000", "184419.180000", "184420.670000", "184422.160000", "184423.650000", "184425.140000", "184426.630000", "184428.120000", "184429.610000", "184431.100000", "184432.590000", "184434.080000", "184435.570000", "184437.060000", "184438.550000", "184440.040000", "184441.530000", "184443.020000", "184444.510000", "184446.000000", "184447.490000", "184448.980000", "184450.470000", "184451.960000", "184453.450000", "184454.940000", "184456.430000", "184457.920000", "184459.410000", "184500.900000", "184502.390000", "184503.880000", "184505.370000", "184506.860000", "184508.350000", "184509.840000", "184511.330000", "184512.820000", "184514.310000", "184515.800000", "184517.290000", "184518.780000", "184520.270000", "184521.760000", "184523.250000", "184524.740000", "184526.230000", "184527.720000", "184529.210000", "184530.700000", "184532.190000", "184533.680000", "184535.170000", "184536.660000", "184538.150000", "184539.640000", "184541.130000", "184542.620000", "184544.110000", "184545.600000", "184547.090000", "184548.580000", "184550.070000", "184551.560000", "184553.050000", "184554.540000", "184556.030000", "184557.520000", "184559.010000", "184600.500000", "184601.990000", "184603.480000", "184604.970000", "184606.460000", "184607.950000", "184609.440000", "184610.930000", "184612.420000", "184613.910000", "184615.400000", "184616.890000", "184618.380000", "184619.870000", "184621.360000", "184622.850000", "184624.340000", "184625.830000", "184627.320000", "184628.810000", "184630.300000", "184631.790000", "184633.280000", "184634.770000", "184636.260000", "184637.750000", "184639.240000", "184640.730000", "184642.220000", "184643.710000", "184645.200000", "184646.690000", "184648.180000", "184649.670000", "184651.160000", "184652.650000", "184654.140000", "184655.630000", "184657.120000", "184658.610000", "184700.100000", "184701.590000", "184703.080000", "184704.570000", "184706.060000", "184707.550000", "184709.040000", "184710.530000", "184712.020000", "184713.510000", "184715.000000", "184716.490000", "184717.980000", "184719.470000", "184720.960000", "184722.450000", "184723.940000", "184725.430000", "184726.920000", "184728.410000", "184729.900000", "184731.390000", "184732.880000", "184734.370000", "184735.860000", "184737.350000", "184738.840000", "184740.330000", "184741.820000", "184743.310000", "184744.800000", "184746.290000", "184747.780000", "184749.270000", "184750.760000", "184752.250000", "184753.740000", "184755.230000", "184756.720000", "184758.210000", "184759.700000", "184801.190000", "184802.680000", "184804.170000", "184805.660000", "184807.150000", "184808.640000", "184810.130000", "184811.620000", "184813.110000", "184814.600000", "184816.090000", "184817.580000", "184819.070000", "184820.560000", "184822.050000", "184823.540000", "184825.030000", "184826.520000", "184828.010000", "184829.500000", "184830.990000", "184832.480000", "184833.970000", "184835.460000", "184836.950000", "184838.440000", "184839.930000", "184841.420000", "184842.910000", "184844.400000", "184845.890000", "184847.380000", "184848.870000", "184850.360000", "184851.850000", "184853.340000", "184854.830000", "184856.320000", "184857.810000", "184859.300000", "184900.790000", "184902.280000", "184903.770000", "184905.260000", "184906.750000", "184908.240000", "184909.730000", "184911.220000", "184912.710000", "184914.200000", "184915.690000", "184917.180000", "184918.670000", "184920.160000", "184921.650000", "184923.140000", "184924.630000", "184926.120000", "184927.610000", "184929.100000", "184930.590000", "184932.080000", "184933.570000", "184935.060000", "184936.550000", "184938.040000", "184939.530000", "184941.020000", "184942.510000", "184944.000000", "184945.490000", "184946.980000", "184948.470000", "184949.960000", "184951.450000", "184952.940000", "184954.430000", "184955.920000", "184957.410000", "184958.900000", "185000.390000", "185001.880000", "185003.370000", "185004.860000", "185006.350000", "185007.840000", "185009.330000", "185010.820000", "185012.310000", "185013.800000", "185015.290000", "185016.780000", "185018.270000", "185019.760000", "185021.250000", "185022.740000", "185024.230000", "185025.720000", "185027.210000", "185028.700000", "185030.190000", "185031.680000", "185033.170000", "185034.660000", "185036.150000", "185037.640000", "185039.130000", "185040.620000", "185042.110000", "185043.600000", "185045.090000", "185046.580000", "185048.070000", "185049.560000", "185051.050000", "185052.540000", "185054.030000", "185055.520000", "185057.010000", "185058.500000", "185059.990000", "185101.480000", "185102.970000", "185104.460000", "185105.950000", "185107.440000", "185108.930000", "185110.420000", "185111.910000", "185113.400000", "185114.890000", "185116.380000", "185117.870000", "185119.360000"],
      "ContentTime": ["184459.040000", "184459.044000", "184459.048000", "184459.051000", "184459.054000", "184459.058000", "184459.061000", "184459.073000", "184459.076000", "184459.080000", "184459.083000", "184459.086000", "184459.090000", "184459.093000", "184459.097000", "184459.100000", "184459.103000", "184459.107000", "184459.110000", "184459.113000", "184459.117000", "184459.120000", "184459.124000", "184459.127000", "184459.130000", "184459.134000", "184459.137000", "184459.141000", "184459.144000", "184459.147000", "184459.151000", "184459.154000", "184459.157000", "184459.161000", "184459.173000", "184459.176000", "184459.180000", "184459.183000", "184519.001000", "184519.005000", "184519.008000", "184519.012000", "184519.015000", "184519.019000", "184519.022000", "184519.025000", "184519.029000", "184519.032000", "184519.036000", "184519.039000", "184519.043000", "184519.046000", "184519.049000", "184519.053000", "184519.056000", "184519.065000", "184519.068000", "184519.072000", "184539.001000", "184539.005000", "184539.008000", "184539.012000", "184539.015000", "184539.018000", "184539.022000", "184539.025000", "184539.029000", "184539.032000", "184539.035000", "184539.039000", "184539.042000", "184539.045000", "184539.059000", "184539.062000", "184539.066000", "184539.069000", "184539.072000", "184539.076000", "184559.001000", "184559.005000", "184559.008000", "184559.012000", "184559.015000", "184559.019000", "184559.022000", "184559.026000", "184559.029000", "184559.033000", "184559.036000", "184559.039000", "184559.043000", "184559.046000", "184559.050000", "184559.053000", "184559.056000", "184559.060000", "184559.063000", "184559.067000", "184639.001000", "184639.005000", "184639.008000", "184639.012000", "184639.015000", "184639.019000", "184639.022000", "184639.025000", "184639.029000", "184639.032000", "184639.036000", "184639.039000", "184639.043000", "184639.046000", "184639.050000", "184639.053000", "184639.056000", "184639.060000", "184639.063000", "184639.066000", "184639.070000", "184639.074000", "184639.077000", "184639.080000", "184639.084000", "184639.087000", "184639.090000", "184719.002000", "184719.005000", "184719.009000", "184719.012000", "184719.016000", "184719.019000", "184719.022000", "184719.026000", "184719.029000", "184719.032000", "184719.036000", "184719.039000", "184719.043000", "184719.046000", "184719.050000", "184719.053000", "184719.057000", "184719.060000", "184719.064000", "184719.067000", "184719.071000", "184719.075000", "184719.078000", "184719.081000", "184719.085000", "184719.088000", "184759.001000", "184759.005000", "184759.009000", "184759.012000", "184759.015000", "184759.019000", "184759.022000", "184759.026000", "184759.029000", "184759.033000", "184759.036000", "184759.039000", "184759.043000", "184759.046000", "184759.050000", "184759.053000", "184759.057000", "184759.060000", "184759.063000", "184759.067000", "184759.070000", "184759.074000", "184759.077000", "184759.081000", "184759.084000", "184759.088000", "184759.091000", "184839.001000", "184839.005000", "184839.008000", "184839.012000", "184839.015000", "184839.019000", "184839.022000", "184839.026000", "184839.029000", "184839.032000", "184839.036000", "184839.039000", "184839.043000", "184839.046000", "184839.049000", "184839.053000", "184839.056000", "184839.060000", "184839.063000", "184839.066000", "184839.070000", "184839.073000", "184839.076000", "184839.080000", "184839.083000", "184839.086000", "184839.090000", "184919.002000", "184919.005000", "184919.009000", "184919.012000", "184919.015000", "184919.019000", "184919.022000", "184919.026000", "184919.029000", "184919.033000", "184919.036000", "184919.039000", "184919.043000", "184919.046000", "184919.050000", "184919.053000", "184919.056000", "184919.060000", "184919.063000", "184919.067000", "184919.070000", "184919.073000", "184919.077000", "184919.080000", "184919.084000", "184919.087000", "184919.090000", "184959.001000", "184959.005000", "184959.009000", "184959.012000", "184959.015000", "184959.019000", "184959.022000", "184959.025000", "184959.029000", "184959.032000", "184959.036000", "184959.039000", "184959.042000", "184959.046000", "184959.049000", "184959.053000", "184959.056000", "184959.060000", "184959.063000", "184959.066000", "184959.071000", "184959.074000", "184959.078000", "184959.081000", "184959.084000", "184959.088000", "184959.091000", "185039.001000", "185039.005000", "185039.009000", "185039.012000", "185039.015000", "185039.019000", "185039.022000", "185039.037000", "185039.041000", "185039.044000", "185039.048000", "185039.051000", "185039.054000", "185039.058000", "185039.061000", "185039.065000", "185039.068000", "185039.071000", "185039.075000", "185039.078000", "185039.082000", "185039.085000", "185039.089000", "185039.092000", "185039.095000", "185039.099000", "185039.102000", "185119.001000", "185119.005000", "185119.008000", "185119.012000", "185119.015000", "185119.019000", "185119.022000", "185119.025000", "185119.029000", "185119.032000", "185119.036000", "185119.039000", "185119.043000", "185119.046000", "185119.049000", "185119.053000", "185119.056000", "185119.060000", "185119.063000", "185119.066000", "185119.070000", "185119.073000", "185119.076000", "185119.080000", "185119.083000", "185119.087000", "185119.090000", "185122.657000", "185122.661000"],
      "InstanceCreationTime": ["184459.040000", "184459.044000", "184459.048000", "184459.051000", "184459.054000", "184459.058000", "184459.061000", "184459.073000", "184459.076000", "184459.080000", "184459.083000", "184459.086000", "184459.090000", "184459.093000", "184459.097000", "184459.100000", "184459.103000", "184459.107000", "184459.110000", "184459.113000", "184459.117000", "184459.120000", "184459.124000", "184459.127000", "184459.130000", "184459.134000", "184459.137000", "184459.141000", "184459.144000", "184459.147000", "184459.151000", "184459.154000", "184459.157000", "184459.161000", "184459.173000", "184459.176000", "184459.180000", "184459.183000", "184519.001000", "184519.005000", "184519.008000", "184519.012000", "184519.015000", "184519.019000", "184519.022000", "184519.025000", "184519.029000", "184519.032000", "184519.036000", "184519.039000", "184519.043000", "184519.046000", "184519.049000", "184519.053000", "184519.056000", "184519.065000", "184519.068000", "184519.072000", "184539.001000", "184539.005000", "184539.008000", "184539.012000", "184539.015000", "184539.018000", "184539.022000", "184539.025000", "184539.029000", "184539.032000", "184539.035000", "184539.039000", "184539.042000", "184539.045000", "184539.059000", "184539.062000", "184539.066000", "184539.069000", "184539.072000", "184539.076000", "184559.001000", "184559.005000", "184559.008000", "184559.012000", "184559.015000", "184559.019000", "184559.022000", "184559.026000", "184559.029000", "184559.033000", "184559.036000", "184559.039000", "184559.043000", "184559.046000", "184559.050000", "184559.053000", "184559.056000", "184559.060000", "184559.063000", "184559.067000", "184639.001000", "184639.005000", "184639.008000", "184639.012000", "184639.015000", "184639.019000", "184639.022000", "184639.025000", "184639.029000", "184639.032000", "184639.036000", "184639.039000", "184639.043000", "184639.046000", "184639.050000", "184639.053000", "184639.056000", "184639.060000", "184639.063000", "184639.066000", "184639.070000", "184639.074000", "184639.077000", "184639.080000", "184639.084000", "184639.087000", "184639.090000", "184719.002000", "184719.005000", "184719.009000", "184719.012000", "184719.016000", "184719.019000", "184719.022000", "184719.026000", "184719.029000", "184719.032000", "184719.036000", "184719.039000", "184719.043000", "184719.046000", "184719.050000", "184719.053000", "184719.057000", "184719.060000", "184719.064000", "184719.067000", "184719.071000", "184719.075000", "184719.078000", "184719.081000", "184719.085000", "184719.088000", "184759.001000", "184759.005000", "184759.009000", "184759.012000", "184759.015000", "184759.019000", "184759.022000", "184759.026000", "184759.029000", "184759.033000", "184759.036000", "184759.039000", "184759.043000", "184759.046000", "184759.050000", "184759.053000", "184759.057000", "184759.060000", "184759.063000", "184759.067000", "184759.070000", "184759.074000", "184759.077000", "184759.081000", "184759.084000", "184759.088000", "184759.091000", "184839.001000", "184839.005000", "184839.008000", "184839.012000", "184839.015000", "184839.019000", "184839.022000", "184839.026000", "184839.029000", "184839.032000", "184839.036000", "184839.039000", "184839.043000", "184839.046000", "184839.049000", "184839.053000", "184839.056000", "184839.060000", "184839.063000", "184839.066000", "184839.070000", "184839.073000", "184839.076000", "184839.080000", "184839.083000", "184839.086000", "184839.090000", "184919.002000", "184919.005000", "184919.009000", "184919.012000", "184919.015000", "184919.019000", "184919.022000", "184919.026000", "184919.029000", "184919.033000", "184919.036000", "184919.039000", "184919.043000", "184919.046000", "184919.050000", "184919.053000", "184919.056000", "184919.060000", "184919.063000", "184919.067000", "184919.070000", "184919.073000", "184919.077000", "184919.080000", "184919.084000", "184919.087000", "184919.090000", "184959.001000", "184959.005000", "184959.009000", "184959.012000", "184959.015000", "184959.019000", "184959.022000", "184959.025000", "184959.029000", "184959.032000", "184959.036000", "184959.039000", "184959.042000", "184959.046000", "184959.049000", "184959.053000", "184959.056000", "184959.060000", "184959.063000", "184959.066000", "184959.071000", "184959.074000", "184959.078000", "184959.081000", "184959.084000", "184959.088000", "184959.091000", "185039.001000", "185039.005000", "185039.009000", "185039.012000", "185039.015000", "185039.019000", "185039.022000", "185039.037000", "185039.041000", "185039.044000", "185039.048000", "185039.051000", "185039.054000", "185039.058000", "185039.061000", "185039.065000", "185039.068000", "185039.071000", "185039.075000", "185039.078000", "185039.082000", "185039.085000", "185039.089000", "185039.092000", "185039.095000", "185039.099000", "185039.102000", "185119.001000", "185119.005000", "185119.008000", "185119.012000", "185119.015000", "185119.019000", "185119.022000", "185119.025000", "185119.029000", "185119.032000", "185119.036000", "185119.039000", "185119.043000", "185119.046000", "185119.049000", "185119.053000", "185119.056000", "185119.060000", "185119.063000", "185119.066000", "185119.070000", "185119.073000", "185119.076000", "185119.080000", "185119.083000", "185119.087000", "185119.090000", "185122.657000", "185122.661000"],
      "InstanceNumber": [1, 2, 3, 4, 5, 6, 7, 8, 9, 10, 11, 12, 13, 14, 15, 16, 17, 18, 19, 20, 21, 22, 23, 24, 25, 26, 27, 28, 29, 30, 31, 32, 33, 34, 35, 36, 37, 38, 39, 40, 41, 42, 43, 44, 45, 46, 47, 48, 49, 50, 51, 52, 53, 54, 55, 56, 57, 58, 59, 60, 61, 62, 63, 64, 65, 66, 67, 68, 69, 70, 71, 72, 73, 74, 75, 76, 77, 78, 79, 80, 81, 82, 83, 84, 85, 86, 87, 88, 89, 90, 91, 92, 93, 94, 95, 96, 97, 98, 99, 100, 101, 102, 103, 104, 105, 106, 107, 108, 109, 110, 111, 112, 113, 114, 115, 116, 117, 118, 119, 120, 121, 122, 123, 124, 125, 126, 127, 128, 129, 130, 131, 132, 133, 134, 135, 136, 137, 138, 139, 140, 141, 142, 143, 144, 145, 146, 147, 148, 149, 150, 151, 152, 153, 154, 155, 156, 157, 158, 159, 160, 161, 162, 163, 164, 165, 166, 167, 168, 169, 170, 171, 172, 173, 174, 175, 176, 177, 178, 179, 180, 181, 182, 183, 184, 185, 186, 187, 188, 189, 190, 191, 192, 193, 194, 195, 196, 197, 198, 199, 200, 201, 202, 203, 204, 205, 206, 207, 208, 209, 210, 211, 212, 213, 214, 215, 216, 217, 218, 219, 220, 221, 222, 223, 224, 225, 226, 227, 228, 229, 230, 231, 232, 233, 234, 235, 236, 237, 238, 239, 240, 241, 242, 243, 244, 245, 246, 247, 248, 249, 250, 251, 252, 253, 254, 255, 256, 257, 258, 259, 260, 261, 262, 263, 264, 265, 266, 267, 268, 269, 270, 271, 272, 273, 274, 275, 276, 277, 278, 279, 280, 281, 282, 283, 284, 285, 286, 287, 288, 289, 290, 291, 292, 293, 294, 295, 296, 297, 298, 299, 300, 301, 302, 303, 304, 305, 306, 307, 308, 309, 310, 311, 312, 313, 314, 315],
      "LargestImagePixelValue": [47244, 46171, 45940, 49062, 47522, 44203, 42583, 40985, 40635, 41976, 43962, 45592, 44942, 46101, 44930, 43417, 44225, 43564, 45239, 46877, 45327, 45427, 46689, 45855, 45944, 45464, 45855, 44449, 45048, 46807, 45716, 46726, 48225, 46623, 46590, 46511, 45021, 45066, 46007, 44158, 44401, 43242, 43670, 41156, 41605, 42357, 42434, 41690, 41213, 41377, 43600, 43722, 43290, 44171, 42682, 43820, 43552, 43244, 43130, 43133, 43748, 42965, 43500, 42918, 42922, 41938, 43366, 42685, 43462, 42750, 43265, 43687, 41875, 42132, 41437, 42611, 42069, 42181, 42719, 41283, 42013, 41873, 42439, 41644, 43334, 43738, 43753, 44262, 44643, 44817, 45035, 45121, 44003, 43576, 43645, 43949, 43542, 42432, 43863, 41381, 43344, 43426, 43097, 42001, 44106, 44318, 44796, 44875, 45082, 45151, 44075, 44844, 44151, 45020, 43682, 44651, 44154, 44509, 44566, 44606, 44139, 46033, 45017, 45891, 44063, 45307, 44580, 45221, 45093, 44977, 45271, 43957, 44404, 44223, 45515, 44983, 44291, 44976, 43347, 44990, 44119, 45527, 44917, 44685, 45139, 44170, 43957, 43851, 45439, 45345, 43934, 45620, 45706, 45813, 45082, 44674, 45313, 44021, 45169, 44602, 45091, 44566, 44807, 43663, 44928, 44192, 43740, 43082, 44588, 43766, 43986, 45351, 45292, 45319, 43817, 45230, 43339, 44623, 44061, 45434, 44767, 44933, 44547, 44751, 45545, 45441, 44253, 46092, 46250, 45727, 45934, 44227, 46076, 44125, 45197, 44584, 44154, 45126, 45271, 44331, 44749, 43889, 45114, 44678, 44700, 44776, 44688, 44030, 42672, 43619, 43877, 43190, 43426, 43425, 44202, 43996, 45345, 44277, 45955, 44347, 45281, 44873, 44305, 44976, 44125, 43941, 44812, 43562, 43624, 44147, 45219, 43838, 43712, 43181, 43188, 43517, 43599, 44105, 42693, 44427, 43510, 42855, 44300, 43786, 45463, 45162, 43657, 44885, 43351, 43728, 44125, 44074, 43559, 43640, 43339, 43811, 43855, 43219, 44518, 43125, 44240, 43980, 43727, 44317, 43435, 43869, 43937, 44379, 43750, 43739, 43126, 43803, 41978, 42340, 41854, 40930, 42425, 42235, 43551, 43374, 42802, 42100, 42424, 42217, 42941, 42086, 42548, 43853, 42972, 43544, 40172, 40489, 40739, 40687, 41335, 41187, 40933, 41244, 41553, 41175, 42476, 41317, 41076, 41846, 41750, 40843, 41458, 40715, 40296, 40849, 40106, 40665, 41505, 41095, 40921],
      "WindowCenter": [10564.0, 10500.0, 10476.0, 10508.0, 10496.0, 10499.0, 10486.0, 10497.0, 10500.0, 10507.0, 10526.0, 10547.0, 10547.0, 10561.0, 10538.0, 10521.0, 10520.0, 10502.0, 10512.0, 10520.0, 10519.0, 10517.0, 10534.0, 10532.0, 10527.0, 10526.0, 10531.0, 10513.0, 10524.0, 10548.0, 10541.0, 10562.0, 10553.0, 10553.0, 10549.0, 10522.0, 10510.0, 10484.0, 10495.0, 10485.0, 10499.0, 10512.0, 10520.0, 10499.0, 10502.0, 10519.0, 10515.0, 10508.0, 10478.0, 10487.0, 10523.0, 10532.0, 10516.0, 10500.0, 10474.0, 10477.0, 10470.0, 10464.0, 10477.0, 10470.0, 10483.0, 10480.0, 10493.0, 10493.0, 10494.0, 10496.0, 10499.0, 10498.0, 10497.0, 10495.0, 10492.0, 10495.0, 10484.0, 10491.0, 10488.0, 10495.0, 10504.0, 10501.0, 10502.0, 10482.0, 10484.0, 10479.0, 10472.0, 10471.0, 10468.0, 10486.0, 10503.0, 10520.0, 10525.0, 10514.0, 10513.0, 10512.0, 10511.0, 10517.0, 10519.0, 10515.0, 10504.0, 10476.0, 10456.0, 10469.0, 10467.0, 10482.0, 10479.0, 10461.0, 10470.0, 10452.0, 10443.0, 10449.0, 10476.0, 10510.0, 10505.0, 10516.0, 10503.0, 10524.0, 10533.0, 10530.0, 10525.0, 10509.0, 10478.0, 10478.0, 10454.0, 10478.0, 10488.0, 10508.0, 10497.0, 10511.0, 10509.0, 10511.0, 10522.0, 10524.0, 10520.0, 10492.0, 10467.0, 10467.0, 10461.0, 10473.0, 10475.0, 10512.0, 10511.0, 10522.0, 10502.0, 10486.0, 10486.0, 10502.0, 10520.0, 10502.0, 10521.0, 10517.0, 10513.0, 10517.0, 10492.0, 10477.0, 10483.0, 10497.0, 10514.0, 10518.0, 10524.0, 10502.0, 10505.0, 10508.0, 10509.0, 10510.0, 10510.0, 10487.0, 10517.0, 10523.0, 10523.0, 10517.0, 10500.0, 10498.0, 10468.0, 10478.0, 10495.0, 10518.0, 10515.0, 10513.0, 10504.0, 10512.0, 10521.0, 10532.0, 10538.0, 10538.0, 10532.0, 10521.0, 10514.0, 10510.0, 10475.0, 10466.0, 10495.0, 10493.0, 10510.0, 10489.0, 10503.0, 10480.0, 10474.0, 10476.0, 10465.0, 10463.0, 10482.0, 10472.0, 10490.0, 10480.0, 10494.0, 10501.0, 10491.0, 10492.0, 10484.0, 10498.0, 10516.0, 10499.0, 10509.0, 10471.0, 10461.0, 10448.0, 10458.0, 10442.0, 10456.0, 10450.0, 10465.0, 10464.0, 10467.0, 10462.0, 10458.0, 10460.0, 10468.0, 10477.0, 10498.0, 10507.0, 10508.0, 10515.0, 10525.0, 10534.0, 10543.0, 10535.0, 10524.0, 10520.0, 10512.0, 10533.0, 10522.0, 10535.0, 10532.0, 10498.0, 10485.0, 10495.0, 10500.0, 10518.0, 10511.0, 10522.0, 10507.0, 10495.0, 10515.0, 10498.0, 10512.0, 10514.0, 10516.0, 10505.0, 10528.0, 10507.0, 10520.0, 10512.0, 10485.0, 10475.0, 10482.0, 10498.0, 10496.0, 10495.0, 10503.0, 10498.0, 10503.0, 10509.0, 10500.0, 10501.0, 10477.0, 10500.0, 10510.0, 10485.0, 10481.0, 10475.0, 10464.0, 10489.0, 10482.0, 10482.0, 10484.0, 10481.0, 10483.0, 10493.0, 10478.0, 10495.0, 10496.0, 10516.0, 10488.0, 10485.0, 10471.0, 10472.0, 10463.0, 10464.0, 10476.0, 10463.0, 10486.0, 10483.0, 10477.0, 10464.0, 10469.0, 10470.0, 10457.0, 10453.0, 10444.0, 10433.0, 10442.0, 10437.0, 10435.0, 10451.0, 10452.0, 10454.0, 10465.0],
