{
  "AcquisitionMatrixPE": 104,
  "AcquisitionNumber": 1,
  "AcquisitionTime": "19:01:49.130000",
  "BandwidthPerPixelPhaseEncode": 17.17,
  "BaseResolution": 104,
  "BodyPartExamined": "BRAIN",
  "CoilCombinationMethod": "Sum of Squares",
  "ConsistencyInfo": "N4_VE11C_LATEST_20160120",
  "ConversionSoftware": "dcm2niix",
  "ConversionSoftwareVersion": "v1.0.20220505",
  "DerivedVendorReportedEchoSpacing": 0.000560011,
  "DeviceSerialNumber": "167006",
  "DwellTime": 2.1e-06,
  "EchoTime": 0.037,
  "EchoTime1": 0.037,
  "EchoTime2": 0.001,
  "EchoTrainLength": 104,
  "EffectiveEchoSpacing": 0.000560011,
  "FlipAngle": 52,
  "HeudiconvVersion": "0.5.3.post811+g6206e14",
  "ImageComments": "Unaliased MB4/PE3/LB",
  "ImageOrientationPatientDICOM": [0.995041, 0.0921747, 0.0373797, -0.0718492, 0.925962, -0.370719],
  "ImageOrientationText": "Tra>Cor(-21.5)>Sag(3.9)",
  "ImageType": [
    "ORIGINAL",
    "PRIMARY",
    "P",
    "MB",
    "ND",
    "MOSAIC",
    "PHASE"
],
  "ImagingFrequency": 123.259,
  "InPlanePhaseEncodingDirectionDICOM": "COL",
  "InstitutionAddress": "Chemin Queen-Mary 4565,Montreal,District,CA,H3W 1W5",
  "InstitutionName": "IUGM",
  "InstitutionalDepartmentName": "Department",
  "MRAcquisitionType": "2D",
  "MagneticFieldStrength": 3,
  "Manufacturer": "Siemens",
  "ManufacturersModelName": "Prisma_fit",
  "MatrixCoilMode": "SENSE",
  "Modality": "MR",
  "MultibandAccelerationFactor": 4,
  "PartialFourier": 1,
  "PatientPosition": "HFS",
  "PercentPhaseFOV": 100,
  "PercentSampling": 100,
  "PhaseEncodingDirection": "j",
  "PhaseEncodingSteps": 104,
  "PhaseResolution": 1,
  "PixelBandwidth": 2290,
  "ProcedureStepDescription": "games^mario3",
  "ProtocolName": "func_task-mario3_run-03",
  "PulseSequenceDetails": "%CustomerSeq%\\cmrr_mbep2d_bold",
  "ReceiveCoilActiveElements": "HC1-7;NC1,2",
  "ReceiveCoilName": "HeadNeck_64",
  "ReconMatrixPE": 104,
  "RepetitionTime": 1.49,
  "SAR": 0.0735859,
  "ScanOptions": "FS",
  "ScanningSequence": "EP",
  "SequenceName": "epfid2d1_104",
  "SequenceVariant": "SK\\SS",
  "SeriesDescription": "func_task-mario3_run-03",
  "SeriesNumber": 17,
  "ShimSetting": [636, -7192, -8813, 654, 108, -9, -21, 3],
  "SliceThickness": 2,
  "SliceTiming": [0, 0.7825, 0.0975, 0.8825, 0.195, 0.98, 0.2925, 1.0775, 0.3925, 1.175, 0.49, 1.2725, 0.5875, 1.3725, 0.685, 0, 0.7825, 0.0975, 0.8825, 0.195, 0.98, 0.2925, 1.0775, 0.3925, 1.175, 0.49, 1.2725, 0.5875, 1.3725, 0.685, 0, 0.7825, 0.0975, 0.8825, 0.195, 0.98, 0.2925, 1.0775, 0.3925, 1.175, 0.49, 1.2725, 0.5875, 1.3725, 0.685, 0, 0.7825, 0.0975, 0.8825, 0.195, 0.98, 0.2925, 1.0775, 0.3925, 1.175, 0.49, 1.2725, 0.5875, 1.3725, 0.685],
  "SoftwareVersions": "syngo MR E11",
  "SpacingBetweenSlices": 2,
  "StationName": "MRC35049",
  "TaskName": "mario3",
  "TotalReadoutTime": 0.0576811,
  "TxRefAmp": 288.112,
  "WipMemBlock": "4dd2436e-b169-4544-9044-4b067ed87c15||Sequence: R017 ve11c/master r/75a17815+; Jun 28 2022 16:32:11 by eja",
  "dcmmeta_affine": [
    [-1.990082025527954, -0.1436983048915863, 0.13756613433361053, 109.95394897460938],
    [-0.18434932827949524, 1.8519237041473389, -0.7323893308639526, -57.25645446777344],
    [0.07475943118333817, 0.741437554359436, 1.8559852838516235, -64.62992858886719],
    [0.0, 0.0, 0.0, 1.0]
],
  "dcmmeta_reorient_transform": [
    [0.0, -1.0, 0.0, 103.0],
    [1.0, 0.0, 0.0, 0.0],
    [0.0, 0.0, 1.0, 0.0],
    [0.0, 0.0, 0.0, 1.0]
],
  "dcmmeta_shape": [104, 104, 60, 595],
  "dcmmeta_slice_dim": 2,
  "dcmmeta_version": 0.6,
  "global": {
    "const": {
      "AcquisitionMatrix": [104, 0, 0, 104],
      "AngioFlag": "N",
      "BitsAllocated": 16,
      "BitsStored": 16,
      "BodyPartExamined": "BRAIN",
      "Columns": 832,
      "EchoNumbers": 1,
      "EchoTime": 37.0,
      "EchoTrainLength": 104,
      "FlipAngle": 52.0,
      "HighBit": 15,
      "ImageOrientationPatient": [0.9950409986085, 0.09217466043116, 0.03737971458705, -0.0718491549916, 0.92596182235016, -0.370718764668],
      "ImagePositionPatient": [-767.23668735463, -874.6950395902, 254.4089648352],
      "ImageType": [
        "ORIGINAL",
        "PRIMARY",
        "P",
        "MB",
        "ND",
        "MOSAIC"
],
      "ImagedNucleus": "1H",
      "ImagingFrequency": 123.258971,
      "InPlanePhaseEncodingDirection": "COL",
      "LargestImagePixelValue": 4095,
      "MRAcquisitionType": "2D",
      "MagneticFieldStrength": 3.0,
      "Manufacturer": "SIEMENS",
      "ManufacturerModelName": "Prisma_fit",
      "Modality": "MR",
      "NumberOfAverages": 1.0,
      "NumberOfPhaseEncodingSteps": 104,
      "PercentPhaseFieldOfView": 100.0,
      "PercentSampling": 100.0,
      "PerformedProcedureStepStartTime": "184012.860000",
      "PhotometricInterpretation": "MONOCHROME2",
      "PixelBandwidth": 2290.0,
      "PixelRepresentation": 0,
      "PixelSpacing": [2.0, 2.0],
      "ProtocolName": "func_task-mario3_run-03",
      "RepetitionTime": 1490.0,
      "RescaleIntercept": -4096.0,
      "RescaleSlope": 2.0,
      "RescaleType": "US",
      "Rows": 832,
      "SAR": 0.07358590214127,
      "SamplesPerPixel": 1,
      "ScanOptions": "FS",
      "ScanningSequence": "EP",
      "SequenceName": "epfid2d1_104",
      "SequenceVariant": [
        "SK",
        "SS"
],
      "SeriesDescription": "func_task-mario3_run-03",
      "SeriesNumber": 17,
      "SeriesTime": "190301.958000",
      "SliceLocation": -31.446120640041,
      "SliceThickness": 2.0,
      "SmallestImagePixelValue": 0,
      "SoftwareVersions": "syngo MR E11",
      "SpacingBetweenSlices": 1.999999964005,
      "SpecificCharacterSet": "ISO_IR 100",
      "StudyID": "1",
      "StudyTime": "184012.792000",
      "TransmitCoilName": "Body",
      "VariableFlipAngleFlag": "N",
      "WindowCenterWidthExplanation": "Algo1",
      "dBdt": 0.0},
    "slices": {}
  },
  "time": {
    "samples": {
      "AcquisitionNumber": [1, 2, 3, 4, 5, 6, 7, 8, 9, 10, 11, 12, 13, 14, 15, 16, 17, 18, 19, 20, 21, 22, 23, 24, 25, 26, 27, 28, 29, 30, 31, 32, 33, 34, 35, 36, 37, 38, 39, 40, 41, 42, 43, 44, 45, 46, 47, 48, 49, 50, 51, 52, 53, 54, 55, 56, 57, 58, 59, 60, 61, 62, 63, 64, 65, 66, 67, 68, 69, 70, 71, 72, 73, 74, 75, 76, 77, 78, 79, 80, 81, 82, 83, 84, 85, 86, 87, 88, 89, 90, 91, 92, 93, 94, 95, 96, 97, 98, 99, 100, 101, 102, 103, 104, 105, 106, 107, 108, 109, 110, 111, 112, 113, 114, 115, 116, 117, 118, 119, 120, 121, 122, 123, 124, 125, 126, 127, 128, 129, 130, 131, 132, 133, 134, 135, 136, 137, 138, 139, 140, 141, 142, 143, 144, 145, 146, 147, 148, 149, 150, 151, 152, 153, 154, 155, 156, 157, 158, 159, 160, 161, 162, 163, 164, 165, 166, 167, 168, 169, 170, 171, 172, 173, 174, 175, 176, 177, 178, 179, 180, 181, 182, 183, 184, 185, 186, 187, 188, 189, 190, 191, 192, 193, 194, 195, 196, 197, 198, 199, 200, 201, 202, 203, 204, 205, 206, 207, 208, 209, 210, 211, 212, 213, 214, 215, 216, 217, 218, 219, 220, 221, 222, 223, 224, 225, 226, 227, 228, 229, 230, 231, 232, 233, 234, 235, 236, 237, 238, 239, 240, 241, 242, 243, 244, 245, 246, 247, 248, 249, 250, 251, 252, 253, 254, 255, 256, 257, 258, 259, 260, 261, 262, 263, 264, 265, 266, 267, 268, 269, 270, 271, 272, 273, 274, 275, 276, 277, 278, 279, 280, 281, 282, 283, 284, 285, 286, 287, 288, 289, 290, 291, 292, 293, 294, 295, 296, 297, 298, 299, 300, 301, 302, 303, 304, 305, 306, 307, 308, 309, 310, 311, 312, 313, 314, 315, 316, 317, 318, 319, 320, 321, 322, 323, 324, 325, 326, 327, 328, 329, 330, 331, 332, 333, 334, 335, 336, 337, 338, 339, 340, 341, 342, 343, 344, 345, 346, 347, 348, 349, 350, 351, 352, 353, 354, 355, 356, 357, 358, 359, 360, 361, 362, 363, 364, 365, 366, 367, 368, 369, 370, 371, 372, 373, 374, 375, 376, 377, 378, 379, 380, 381, 382, 383, 384, 385, 386, 387, 388, 389, 390, 391, 392, 393, 394, 395, 396, 397, 398, 399, 400, 401, 402, 403, 404, 405, 406, 407, 408, 409, 410, 411, 412, 413, 414, 415, 416, 417, 418, 419, 420, 421, 422, 423, 424, 425, 426, 427, 428, 429, 430, 431, 432, 433, 434, 435, 436, 437, 438, 439, 440, 441, 442, 443, 444, 445, 446, 447, 448, 449, 450, 451, 452, 453, 454, 455, 456, 457, 458, 459, 460, 461, 462, 463, 464, 465, 466, 467, 468, 469, 470, 471, 472, 473, 474, 475, 476, 477, 478, 479, 480, 481, 482, 483, 484, 485, 486, 487, 488, 489, 490, 491, 492, 493, 494, 495, 496, 497, 498, 499, 500, 501, 502, 503, 504, 505, 506, 507, 508, 509, 510, 511, 512, 513, 514, 515, 516, 517, 518, 519, 520, 521, 522, 523, 524, 525, 526, 527, 528, 529, 530, 531, 532, 533, 534, 535, 536, 537, 538, 539, 540, 541, 542, 543, 544, 545, 546, 547, 548, 549, 550, 551, 552, 553, 554, 555, 556, 557, 558, 559, 560, 561, 562, 563, 564, 565, 566, 567, 568, 569, 570, 571, 572, 573, 574, 575, 576, 577, 578, 579, 580, 581, 582, 583, 584, 585, 586, 587, 588, 589, 590, 591, 592, 593, 594, 595],
      "AcquisitionTime": ["190149.130000", "190150.620000", "190152.110000", "190153.600000", "190155.090000", "190156.580000", "190158.070000", "190159.560000", "190201.050000", "190202.540000", "190204.030000", "190205.520000", "190207.010000", "190208.500000", "190209.990000", "190211.480000", "190212.970000", "190214.460000", "190215.950000", "190217.440000", "190218.930000", "190220.420000", "190221.910000", "190223.400000", "190224.890000", "190226.380000", "190227.870000", "190229.360000", "190230.850000", "190232.340000", "190233.830000", "190235.320000", "190236.810000", "190238.300000", "190239.790000", "190241.280000", "190242.770000", "190244.260000", "190245.750000", "190247.240000", "190248.730000", "190250.220000", "190251.710000", "190253.200000", "190254.690000", "190256.180000", "190257.670000", "190259.160000", "190300.650000", "190302.140000", "190303.630000", "190305.120000", "190306.610000", "190308.100000", "190309.590000", "190311.080000", "190312.570000", "190314.060000", "190315.550000", "190317.040000", "190318.530000", "190320.020000", "190321.510000", "190323.000000", "190324.490000", "190325.980000", "190327.470000", "190328.960000", "190330.450000", "190331.940000", "190333.430000", "190334.920000", "190336.410000", "190337.900000", "190339.390000", "190340.880000", "190342.370000", "190343.860000", "190345.350000", "190346.840000", "190348.330000", "190349.820000", "190351.310000", "190352.800000", "190354.290000", "190355.780000", "190357.270000", "190358.760000", "190400.250000", "190401.740000", "190403.230000", "190404.720000", "190406.210000", "190407.700000", "190409.190000", "190410.680000", "190412.170000", "190413.660000", "190415.150000", "190416.640000", "190418.130000", "190419.620000", "190421.110000", "190422.600000", "190424.090000", "190425.580000", "190427.070000", "190428.560000", "190430.050000", "190431.540000", "190433.030000", "190434.520000", "190436.010000", "190437.500000", "190438.990000", "190440.480000", "190441.970000", "190443.460000", "190444.950000", "190446.440000", "190447.930000", "190449.420000", "190450.910000", "190452.400000", "190453.890000", "190455.380000", "190456.870000", "190458.360000", "190459.850000", "190501.340000", "190502.830000", "190504.320000", "190505.810000", "190507.300000", "190508.790000", "190510.280000", "190511.770000", "190513.260000", "190514.750000", "190516.240000", "190517.730000", "190519.220000", "190520.710000", "190522.200000", "190523.690000", "190525.180000", "190526.670000", "190528.160000", "190529.650000", "190531.140000", "190532.630000", "190534.120000", "190535.610000", "190537.100000", "190538.590000", "190540.080000", "190541.570000", "190543.060000", "190544.550000", "190546.040000", "190547.530000", "190549.020000", "190550.510000", "190552.000000", "190553.490000", "190554.980000", "190556.470000", "190557.960000", "190559.450000", "190600.940000", "190602.430000", "190603.920000", "190605.410000", "190606.900000", "190608.390000", "190609.880000", "190611.370000", "190612.860000", "190614.350000", "190615.840000", "190617.330000", "190618.820000", "190620.310000", "190621.800000", "190623.290000", "190624.780000", "190626.270000", "190627.760000", "190629.250000", "190630.740000", "190632.230000", "190633.720000", "190635.210000", "190636.700000", "190638.190000", "190639.680000", "190641.170000", "190642.660000", "190644.150000", "190645.640000", "190647.130000", "190648.620000", "190650.110000", "190651.600000", "190653.090000", "190654.580000", "190656.070000", "190657.560000", "190659.050000", "190700.540000", "190702.030000", "190703.520000", "190705.010000", "190706.500000", "190707.990000", "190709.480000", "190710.970000", "190712.460000", "190713.950000", "190715.440000", "190716.930000", "190718.420000", "190719.910000", "190721.400000", "190722.890000", "190724.380000", "190725.870000", "190727.360000", "190728.850000", "190730.340000", "190731.830000", "190733.320000", "190734.810000", "190736.300000", "190737.790000", "190739.280000", "190740.770000", "190742.260000", "190743.750000", "190745.240000", "190746.730000", "190748.220000", "190749.710000", "190751.200000", "190752.690000", "190754.180000", "190755.670000", "190757.160000", "190758.650000", "190800.140000", "190801.630000", "190803.120000", "190804.610000", "190806.100000", "190807.590000", "190809.080000", "190810.570000", "190812.060000", "190813.550000", "190815.040000", "190816.530000", "190818.020000", "190819.510000", "190821.000000", "190822.490000", "190823.980000", "190825.470000", "190826.960000", "190828.450000", "190829.940000", "190831.430000", "190832.920000", "190834.410000", "190835.900000", "190837.390000", "190838.880000", "190840.370000", "190841.860000", "190843.350000", "190844.840000", "190846.330000", "190847.820000", "190849.310000", "190850.800000", "190852.290000", "190853.780000", "190855.270000", "190856.760000", "190858.250000", "190859.740000", "190901.230000", "190902.720000", "190904.210000", "190905.700000", "190907.190000", "190908.680000", "190910.170000", "190911.660000", "190913.150000", "190914.640000", "190916.130000", "190917.620000", "190919.110000", "190920.600000", "190922.090000", "190923.580000", "190925.070000", "190926.560000", "190928.050000", "190929.540000", "190931.030000", "190932.520000", "190934.010000", "190935.500000", "190936.990000", "190938.480000", "190939.970000", "190941.460000", "190942.950000", "190944.440000", "190945.930000", "190947.420000", "190948.910000", "190950.400000", "190951.890000", "190953.380000", "190954.870000", "190956.360000", "190957.850000", "190959.340000", "191000.830000", "191002.320000", "191003.810000", "191005.300000", "191006.790000", "191008.280000", "191009.770000", "191011.260000", "191012.750000", "191014.240000", "191015.730000", "191017.220000", "191018.710000", "191020.200000", "191021.690000", "191023.180000", "191024.670000", "191026.160000", "191027.650000", "191029.140000", "191030.630000", "191032.120000", "191033.610000", "191035.100000", "191036.590000", "191038.080000", "191039.570000", "191041.060000", "191042.550000", "191044.040000", "191045.530000", "191047.020000", "191048.510000", "191050.000000", "191051.490000", "191052.980000", "191054.470000", "191055.960000", "191057.450000", "191058.940000", "191100.430000", "191101.920000", "191103.410000", "191104.900000", "191106.390000", "191107.880000", "191109.370000", "191110.860000", "191112.350000", "191113.840000", "191115.330000", "191116.820000", "191118.310000", "191119.800000", "191121.290000", "191122.780000", "191124.270000", "191125.760000", "191127.250000", "191128.740000", "191130.230000", "191131.720000", "191133.210000", "191134.700000", "191136.190000", "191137.680000", "191139.170000", "191140.660000", "191142.150000", "191143.640000", "191145.130000", "191146.620000", "191148.110000", "191149.600000", "191151.090000", "191152.580000", "191154.070000", "191155.560000", "191157.050000", "191158.540000", "191200.030000", "191201.520000", "191203.010000", "191204.500000", "191205.990000", "191207.480000", "191208.970000", "191210.460000", "191211.950000", "191213.440000", "191214.930000", "191216.420000", "191217.910000", "191219.400000", "191220.890000", "191222.380000", "191223.870000", "191225.360000", "191226.850000", "191228.340000", "191229.830000", "191231.320000", "191232.810000", "191234.300000", "191235.790000", "191237.280000", "191238.770000", "191240.260000", "191241.750000", "191243.240000", "191244.730000", "191246.220000", "191247.710000", "191249.200000", "191250.690000", "191252.180000", "191253.670000", "191255.160000", "191256.650000", "191258.140000", "191259.630000", "191301.120000", "191302.610000", "191304.100000", "191305.590000", "191307.080000", "191308.570000", "191310.060000", "191311.550000", "191313.040000", "191314.530000", "191316.020000", "191317.510000", "191319.000000", "191320.490000", "191321.980000", "191323.470000", "191324.960000", "191326.450000", "191327.940000", "191329.430000", "191330.920000", "191332.410000", "191333.900000", "191335.390000", "191336.880000", "191338.370000", "191339.860000", "191341.350000", "191342.840000", "191344.330000", "191345.820000", "191347.310000", "191348.800000", "191350.290000", "191351.780000", "191353.270000", "191354.760000", "191356.250000", "191357.740000", "191359.230000", "191400.720000", "191402.210000", "191403.700000", "191405.190000", "191406.680000", "191408.170000", "191409.660000", "191411.150000", "191412.640000", "191414.130000", "191415.620000", "191417.110000", "191418.600000", "191420.090000", "191421.580000", "191423.070000", "191424.560000", "191426.050000", "191427.540000", "191429.030000", "191430.520000", "191432.010000", "191433.500000", "191434.990000", "191436.480000", "191437.970000", "191439.460000", "191440.950000", "191442.440000", "191443.930000", "191445.420000", "191446.910000", "191448.400000", "191449.890000", "191451.380000", "191452.870000", "191454.360000", "191455.850000", "191457.340000", "191458.830000", "191500.320000", "191501.810000", "191503.300000", "191504.790000", "191506.280000", "191507.770000", "191509.260000", "191510.750000", "191512.240000", "191513.730000", "191515.220000", "191516.710000", "191518.200000", "191519.690000", "191521.180000", "191522.670000", "191524.160000", "191525.650000", "191527.140000", "191528.630000", "191530.120000", "191531.610000", "191533.100000", "191534.590000", "191536.080000", "191537.570000", "191539.060000", "191540.550000", "191542.040000", "191543.530000", "191545.020000", "191546.510000", "191548.000000", "191549.490000", "191550.980000", "191552.470000", "191553.960000", "191555.450000", "191556.940000", "191558.430000", "191559.920000", "191601.410000", "191602.900000", "191604.390000", "191605.880000", "191607.370000", "191608.860000", "191610.350000", "191611.840000", "191613.330000", "191614.820000", "191616.310000", "191617.800000", "191619.290000", "191620.780000", "191622.270000", "191623.760000", "191625.250000", "191626.740000", "191628.230000", "191629.720000", "191631.210000", "191632.700000", "191634.190000"],
      "ContentTime": ["190301.960000", "190301.963000", "190301.966000", "190301.968000", "190301.971000", "190301.974000", "190301.976000", "190301.979000", "190301.981000", "190301.984000", "190301.986000", "190301.989000", "190301.991000", "190302.001000", "190302.004000", "190302.007000", "190302.009000", "190302.012000", "190302.014000", "190302.017000", "190302.019000", "190302.022000", "190302.024000", "190302.027000", "190321.918000", "190321.921000", "190321.923000", "190321.926000", "190321.928000", "190321.931000", "190321.933000", "190321.936000", "190321.938000", "190321.941000", "190321.944000", "190321.946000", "190321.949000", "190321.952000", "190321.955000", "190321.957000", "190321.960000", "190321.962000", "190321.970000", "190321.973000", "190341.922000", "190341.925000", "190341.928000", "190341.930000", "190341.933000", "190341.935000", "190341.938000", "190341.940000", "190341.943000", "190341.945000", "190341.948000", "190341.951000", "190341.953000", "190341.956000", "190341.958000", "190341.961000", "190341.963000", "190341.966000", "190341.968000", "190341.971000", "190401.917000", "190401.920000", "190401.922000", "190401.925000", "190401.927000", "190401.930000", "190401.933000", "190401.935000", "190401.938000", "190401.941000", "190401.943000", "190401.946000", "190401.948000", "190401.951000", "190401.954000", "190401.956000", "190401.959000", "190401.961000", "190401.964000", "190401.966000", "190441.994000", "190441.997000", "190442.000000", "190442.003000", "190442.005000", "190442.008000", "190442.010000", "190442.013000", "190442.015000", "190442.018000", "190442.020000", "190442.023000", "190442.026000", "190442.028000", "190442.031000", "190442.033000", "190442.036000", "190442.038000", "190442.041000", "190442.043000", "190442.046000", "190442.048000", "190442.051000", "190442.054000", "190442.057000", "190442.059000", "190442.062000", "190442.064000", "190442.067000", "190442.069000", "190442.072000", "190521.943000", "190521.946000", "190521.949000", "190521.951000", "190521.954000", "190521.957000", "190521.959000", "190521.962000", "190521.964000", "190521.967000", "190521.969000", "190521.972000", "190521.974000", "190521.977000", "190521.979000", "190521.982000", "190521.984000", "190521.987000", "190521.989000", "190521.992000", "190521.995000", "190521.997000", "190522.001000", "190522.003000", "190522.006000", "190522.008000", "190522.011000", "190601.944000", "190601.947000", "190601.950000", "190601.953000", "190601.956000", "190601.959000", "190601.961000", "190601.964000", "190601.966000", "190601.969000", "190601.972000", "190601.974000", "190601.977000", "190601.979000", "190601.982000", "190601.984000", "190601.987000", "190601.989000", "190601.992000", "190601.994000", "190601.997000", "190602.000000", "190602.003000", "190602.006000", "190602.008000", "190602.011000", "190641.941000", "190641.944000", "190641.947000", "190641.949000", "190641.952000", "190641.955000", "190641.957000", "190641.960000", "190641.962000", "190641.965000", "190641.967000", "190641.970000", "190641.972000", "190641.975000", "190641.977000", "190641.980000", "190641.983000", "190641.985000", "190641.988000", "190641.990000", "190641.993000", "190641.995000", "190641.998000", "190642.002000", "190642.004000", "190642.013000", "190642.015000", "190721.943000", "190721.946000", "190721.949000", "190721.951000", "190721.954000", "190721.956000", "190721.959000", "190721.961000", "190721.964000", "190721.966000", "190721.969000", "190721.971000", "190721.974000", "190721.977000", "190721.979000", "190721.982000", "190721.984000", "190721.987000", "190721.989000", "190721.992000", "190721.994000", "190721.997000", "190722.001000", "190722.003000", "190722.006000", "190722.008000", "190722.011000", "190801.962000", "190801.965000", "190801.968000", "190801.970000", "190801.973000", "190801.976000", "190801.978000", "190801.981000", "190801.983000", "190801.986000", "190801.988000", "190801.991000", "190801.993000", "190801.996000", "190802.000000", "190802.002000", "190802.005000", "190802.007000", "190802.010000", "190802.012000", "190802.015000", "190802.018000", "190802.020000", "190802.023000", "190802.025000", "190802.028000", "190802.030000", "190841.949000", "190841.952000", "190841.954000", "190841.957000", "190841.959000", "190841.962000", "190841.964000", "190841.967000", "190841.969000", "190841.972000", "190841.975000", "190841.977000", "190841.980000", "190841.982000", "190841.985000", "190841.987000", "190841.990000", "190841.992000", "190841.995000", "190841.997000", "190842.001000", "190842.004000", "190842.006000", "190842.009000", "190842.011000", "190842.014000", "190842.017000", "190922.373000", "190922.376000", "190922.378000", "190922.381000", "190922.383000", "190922.386000", "190922.388000", "190922.391000", "190922.393000", "190922.396000", "190922.399000", "190922.401000", "190922.404000", "190922.406000", "190922.409000", "190922.411000", "190922.414000", "190922.416000", "190922.419000", "190922.422000", "190922.424000", "190922.427000", "190922.429000", "190922.432000", "190922.434000", "190922.437000", "190922.439000", "191001.941000", "191001.944000", "191001.947000", "191001.949000", "191001.952000", "191001.968000", "191001.970000", "191001.973000", "191001.975000", "191001.978000", "191001.980000", "191001.983000", "191001.986000", "191001.988000", "191001.991000", "191001.993000", "191001.996000", "191001.998000", "191002.002000", "191002.004000", "191002.007000", "191002.010000", "191002.012000", "191002.015000", "191002.017000", "191002.020000", "191041.955000", "191041.958000", "191041.961000", "191041.963000", "191041.966000", "191041.968000", "191041.971000", "191041.973000", "191041.976000", "191041.979000", "191041.981000", "191041.984000", "191041.986000", "191041.989000", "191042.001000", "191042.004000", "191042.007000", "191042.009000", "191042.012000", "191042.014000", "191042.017000", "191042.019000", "191042.022000", "191042.024000", "191042.027000", "191042.030000", "191042.032000", "191121.970000", "191121.973000", "191121.975000", "191121.978000", "191121.980000", "191121.983000", "191121.985000", "191121.988000", "191121.990000", "191121.993000", "191121.996000", "191121.998000", "191122.002000", "191122.004000", "191122.007000", "191122.009000", "191122.012000", "191122.014000", "191122.017000", "191122.019000", "191122.022000", "191122.025000", "191122.027000", "191122.030000", "191122.032000", "191122.035000", "191122.042000", "191201.944000", "191201.947000", "191201.950000", "191201.952000", "191201.955000", "191201.957000", "191201.960000", "191201.963000", "191201.965000", "191201.968000", "191201.970000", "191201.973000", "191201.975000", "191201.978000", "191201.980000", "191201.983000", "191201.986000", "191201.988000", "191201.991000", "191201.993000", "191201.996000", "191202.000000", "191202.002000", "191202.005000", "191202.007000", "191202.010000", "191202.012000", "191241.952000", "191241.955000", "191241.958000", "191241.960000", "191241.963000", "191241.965000", "191241.968000", "191241.970000", "191241.973000", "191241.975000", "191241.978000", "191241.981000", "191241.983000", "191241.986000", "191241.988000", "191241.991000", "191241.993000", "191241.996000", "191242.000000", "191242.002000", "191242.005000", "191242.007000", "191242.010000", "191242.012000", "191242.015000", "191242.017000", "191242.020000", "191321.956000", "191321.958000", "191321.961000", "191321.964000", "191321.966000", "191321.969000", "191321.971000", "191321.974000", "191321.977000", "191321.979000", "191321.982000", "191321.984000", "191321.987000", "191321.989000", "191321.992000", "191321.995000", "191321.997000", "191322.001000", "191322.003000", "191322.006000", "191322.008000", "191322.011000", "191322.013000", "191322.016000", "191322.019000", "191322.022000", "191322.024000", "191401.958000", "191401.961000", "191401.964000", "191401.966000", "191401.969000", "191401.971000", "191401.974000", "191401.977000", "191401.979000", "191401.982000", "191401.984000", "191401.987000", "191401.989000", "191401.992000", "191401.995000", "191401.997000", "191402.001000", "191402.003000", "191402.006000", "191402.008000", "191402.011000", "191402.014000", "191402.016000", "191402.019000", "191402.021000", "191402.024000", "191402.026000", "191441.938000", "191441.941000", "191441.944000", "191441.947000", "191441.949000", "191441.952000", "191441.954000", "191441.957000", "191441.960000", "191441.962000", "191441.965000", "191441.967000", "191441.970000", "191441.973000", "191441.975000", "191441.978000", "191441.980000", "191441.983000", "191441.985000", "191441.988000", "191441.990000", "191441.993000", "191441.996000", "191441.998000", "191442.002000", "191442.004000", "191521.942000", "191521.945000", "191521.948000", "191521.950000", "191521.953000", "191521.955000", "191521.958000", "191521.960000", "191521.963000", "191521.966000", "191521.968000", "191521.971000", "191521.973000", "191521.981000", "191521.984000", "191521.986000", "191521.989000", "191521.991000", "191521.994000", "191521.996000", "191521.999000", "191522.002000", "191522.004000", "191522.007000", "191522.009000", "191522.012000", "191522.014000", "191601.955000", "191601.958000", "191601.960000", "191601.963000", "191601.966000", "191601.968000", "191601.971000", "191601.973000", "191601.976000", "191601.978000", "191601.986000", "191601.988000", "191601.991000", "191601.993000", "191601.996000", "191601.998000", "191602.002000", "191602.005000", "191602.007000", "191602.010000", "191602.012000", "191602.015000", "191602.017000", "191602.020000", "191602.023000", "191602.025000", "191602.028000", "191637.942000", "191637.945000", "191637.948000", "191637.950000", "191637.953000", "191637.955000", "191637.958000", "191637.960000", "191637.963000", "191637.965000", "191637.968000", "191637.970000", "191637.973000", "191637.976000", "191637.978000", "191637.981000", "191637.983000", "191637.986000", "191637.988000", "191637.991000", "191637.993000", "191637.996000", "191637.998000", "191638.002000"],
