{
  "AcquisitionMatrixPE": 104,
  "AcquisitionNumber": 1,
  "AcquisitionTime": "14:23:53.610000",
  "BandwidthPerPixelPhaseEncode": 17.17,
  "BaseResolution": 104,
  "BodyPartExamined": "BRAIN",
  "CoilCombinationMethod": "Sum of Squares",
  "ConsistencyInfo": "N4_VE11C_LATEST_20160120",
  "ConversionSoftware": "dcm2niix",
  "ConversionSoftwareVersion": "v1.0.20220505",
  "DerivedVendorReportedEchoSpacing": 0.000560011,
  "DeviceSerialNumber": "167006",
  "DwellTime": 2.1e-06,
  "EchoTime": 0.037,
  "EchoTrainLength": 104,
  "EffectiveEchoSpacing": 0.000560011,
  "FlipAngle": 52,
  "HeudiconvVersion": "0.5.3.post811+g6206e14",
  "ImageComments": "Unaliased MB4/PE3/LB",
  "ImageOrientationPatientDICOM": [0.999852, 0.0129256, 0.0113272, -0.00959816, 0.966669, -0.255848],
  "ImageOrientationText": "Tra>Cor(-14.8)>Sag(0.8)",
  "ImageType": [
    "ORIGINAL",
    "PRIMARY",
    "M",
    "MB",
    "ND",
    "MOSAIC"
],
  "ImagingFrequency": 123.26,
  "InPlanePhaseEncodingDirectionDICOM": "COL",
  "InstitutionAddress": "Chemin Queen-Mary 4565,Montreal,District,CA,H3W 1W5",
  "InstitutionName": "IUGM",
  "InstitutionalDepartmentName": "Department",
  "MRAcquisitionType": "2D",
  "MagneticFieldStrength": 3,
  "Manufacturer": "Siemens",
  "ManufacturersModelName": "Prisma_fit",
  "MatrixCoilMode": "SENSE",
  "Modality": "MR",
  "MultibandAccelerationFactor": 4,
  "PartialFourier": 1,
  "PatientPosition": "HFS",
  "PercentPhaseFOV": 100,
  "PercentSampling": 100,
  "PhaseEncodingDirection": "j",
  "PhaseEncodingSteps": 104,
  "PhaseResolution": 1,
  "PixelBandwidth": 2290,
  "ProcedureStepDescription": "games^mario3",
  "ProtocolName": "func_task-mario3_run-05",
  "PulseSequenceDetails": "%CustomerSeq%\\cmrr_mbep2d_bold",
  "ReceiveCoilActiveElements": "HC1-7;NC1,2",
  "ReceiveCoilName": "HeadNeck_64",
  "ReconMatrixPE": 104,
  "RepetitionTime": 1.49,
  "SAR": 0.0566017,
  "ScanOptions": "FS",
  "ScanningSequence": "EP",
  "SequenceName": "epfid2d1_104",
  "SequenceVariant": "SK\\SS",
  "SeriesDescription": "func_task-mario3_run-05",
  "SeriesNumber": 22,
  "ShimSetting": [622, -7223, -8803, 712, 68, 4, 34, 0],
  "SliceThickness": 2,
  "SliceTiming": [0, 0.7825, 0.0975, 0.8825, 0.195, 0.98, 0.2925, 1.0775, 0.3925, 1.175, 0.49, 1.2725, 0.5875, 1.37, 0.685, 0, 0.7825, 0.0975, 0.8825, 0.195, 0.98, 0.2925, 1.0775, 0.3925, 1.175, 0.49, 1.2725, 0.5875, 1.37, 0.685, 0, 0.7825, 0.0975, 0.8825, 0.195, 0.98, 0.2925, 1.0775, 0.3925, 1.175, 0.49, 1.2725, 0.5875, 1.37, 0.685, 0, 0.7825, 0.0975, 0.8825, 0.195, 0.98, 0.2925, 1.0775, 0.3925, 1.175, 0.49, 1.2725, 0.5875, 1.37, 0.685],
  "SoftwareVersions": "syngo MR E11",
  "SpacingBetweenSlices": 2,
  "StationName": "MRC35049",
  "TaskName": "mario3",
  "TotalReadoutTime": 0.0576811,
  "TxRefAmp": 229.874,
  "WipMemBlock": "a38cf0f4-ad01-48da-8ff7-586ad732bd29||Sequence: R017 ve11c/master r/75a17815+; Jun 28 2022 16:32:11 by eja",
  "dcmmeta_affine": [
    [-1.9997045993804932, -0.01919631101191044, 0.028513208031654358, 108.95744323730469],
    [-0.02585117518901825, 1.9333387613296509, -0.5114030241966248, -73.26385498046875],
    [0.022654319182038307, 0.5116961002349854, 1.9333012104034424, -67.04470825195312],
    [0.0, 0.0, 0.0, 1.0]
],
  "dcmmeta_reorient_transform": [
    [0.0, -1.0, 0.0, 103.0],
    [1.0, 0.0, 0.0, 0.0],
    [0.0, 0.0, 1.0, 0.0],
    [0.0, 0.0, 0.0, 1.0]
],
  "dcmmeta_shape": [104, 104, 60, 321],
  "dcmmeta_slice_dim": 2,
  "dcmmeta_version": 0.6,
  "global": {
    "const": {
      "AcquisitionMatrix": [104, 0, 0, 104],
      "AngioFlag": "N",
      "BitsAllocated": 16,
      "BitsStored": 16,
      "BodyPartExamined": "BRAIN",
      "Columns": 832,
      "EchoNumbers": 1,
      "EchoTime": 37.0,
      "EchoTrainLength": 104,
      "FlipAngle": 52.0,
      "HighBit": 15,
      "ImageOrientationPatient": [0.9998523014126, 0.01292558749325, 0.01132715974511, -0.0095981554396, 0.96666936233583, -0.255848039534],
      "ImagePositionPatient": [-827.88524007602, -839.01515905492, 163.67118460645],
      "ImageType": [
        "ORIGINAL",
        "PRIMARY",
        "M",
        "MB",
        "ND",
        "MOSAIC"
],
      "ImagedNucleus": "1H",
      "ImagingFrequency": 123.260492,
      "InPlanePhaseEncodingDirection": "COL",
      "MRAcquisitionType": "2D",
      "MagneticFieldStrength": 3.0,
      "Manufacturer": "SIEMENS",
      "ManufacturerModelName": "Prisma_fit",
      "Modality": "MR",
      "NumberOfAverages": 1.0,
      "NumberOfPhaseEncodingSteps": 104,
      "PercentPhaseFieldOfView": 100.0,
      "PercentSampling": 100.0,
      "PerformedProcedureStepStartTime": "134057.758000",
      "PhotometricInterpretation": "MONOCHROME2",
      "PixelBandwidth": 2290.0,
      "PixelRepresentation": 0,
      "PixelSpacing": [2.0, 2.0],
      "ProtocolName": "func_task-mario3_run-05",
      "RepetitionTime": 1490.0,
      "Rows": 832,
      "SAR": 0.05660172302442,
      "SamplesPerPixel": 1,
      "ScanOptions": "FS",
      "ScanningSequence": "EP",
      "SequenceName": "epfid2d1_104",
      "SequenceVariant": [
        "SK",
        "SS"
],
      "SeriesDescription": "func_task-mario3_run-05",
      "SeriesNumber": 22,
      "SeriesTime": "142513.887000",
      "SliceLocation": -44.521771778806,
      "SliceThickness": 2.0,
      "SmallestImagePixelValue": 0,
      "SoftwareVersions": "syngo MR E11",
      "SpacingBetweenSlices": 1.9999999509724,
      "SpecificCharacterSet": "ISO_IR 100",
      "StudyID": "1",
      "StudyTime": "134057.669000",
      "TransmitCoilName": "Body",
      "VariableFlipAngleFlag": "N",
      "WindowCenterWidthExplanation": "Algo1",
      "dBdt": 0.0},
    "slices": {}
  },
  "time": {
    "samples": {
      "AcquisitionNumber": [1, 2, 3, 4, 5, 6, 7, 8, 9, 10, 11, 12, 13, 14, 15, 16, 17, 18, 19, 20, 21, 22, 23, 24, 25, 26, 27, 28, 29, 30, 31, 32, 33, 34, 35, 36, 37, 38, 39, 40, 41, 42, 43, 44, 45, 46, 47, 48, 49, 50, 51, 52, 53, 54, 55, 56, 57, 58, 59, 60, 61, 62, 63, 64, 65, 66, 67, 68, 69, 70, 71, 72, 73, 74, 75, 76, 77, 78, 79, 80, 81, 82, 83, 84, 85, 86, 87, 88, 89, 90, 91, 92, 93, 94, 95, 96, 97, 98, 99, 100, 101, 102, 103, 104, 105, 106, 107, 108, 109, 110, 111, 112, 113, 114, 115, 116, 117, 118, 119, 120, 121, 122, 123, 124, 125, 126, 127, 128, 129, 130, 131, 132, 133, 134, 135, 136, 137, 138, 139, 140, 141, 142, 143, 144, 145, 146, 147, 148, 149, 150, 151, 152, 153, 154, 155, 156, 157, 158, 159, 160, 161, 162, 163, 164, 165, 166, 167, 168, 169, 170, 171, 172, 173, 174, 175, 176, 177, 178, 179, 180, 181, 182, 183, 184, 185, 186, 187, 188, 189, 190, 191, 192, 193, 194, 195, 196, 197, 198, 199, 200, 201, 202, 203, 204, 205, 206, 207, 208, 209, 210, 211, 212, 213, 214, 215, 216, 217, 218, 219, 220, 221, 222, 223, 224, 225, 226, 227, 228, 229, 230, 231, 232, 233, 234, 235, 236, 237, 238, 239, 240, 241, 242, 243, 244, 245, 246, 247, 248, 249, 250, 251, 252, 253, 254, 255, 256, 257, 258, 259, 260, 261, 262, 263, 264, 265, 266, 267, 268, 269, 270, 271, 272, 273, 274, 275, 276, 277, 278, 279, 280, 281, 282, 283, 284, 285, 286, 287, 288, 289, 290, 291, 292, 293, 294, 295, 296, 297, 298, 299, 300, 301, 302, 303, 304, 305, 306, 307, 308, 309, 310, 311, 312, 313, 314, 315, 316, 317, 318, 319, 320, 321],
      "AcquisitionTime": ["142353.610000", "142355.100000", "142356.590000", "142358.080000", "142359.570000", "142401.060000", "142402.550000", "142404.040000", "142405.530000", "142407.020000", "142408.510000", "142410.000000", "142411.490000", "142412.980000", "142414.470000", "142415.960000", "142417.450000", "142418.940000", "142420.430000", "142421.920000", "142423.410000", "142424.900000", "142426.390000", "142427.880000", "142429.370000", "142430.860000", "142432.350000", "142433.840000", "142435.330000", "142436.820000", "142438.310000", "142439.800000", "142441.290000", "142442.780000", "142444.270000", "142445.760000", "142447.250000", "142448.740000", "142450.230000", "142451.720000", "142453.210000", "142454.700000", "142456.190000", "142457.680000", "142459.170000", "142500.660000", "142502.150000", "142503.640000", "142505.130000", "142506.620000", "142508.110000", "142509.600000", "142511.090000", "142512.580000", "142514.070000", "142515.560000", "142517.050000", "142518.540000", "142520.030000", "142521.520000", "142523.010000", "142524.500000", "142525.990000", "142527.480000", "142528.970000", "142530.460000", "142531.950000", "142533.440000", "142534.930000", "142536.420000", "142537.910000", "142539.400000", "142540.890000", "142542.380000", "142543.870000", "142545.360000", "142546.850000", "142548.340000", "142549.830000", "142551.320000", "142552.810000", "142554.300000", "142555.790000", "142557.280000", "142558.770000", "142600.260000", "142601.750000", "142603.240000", "142604.730000", "142606.220000", "142607.710000", "142609.200000", "142610.690000", "142612.180000", "142613.670000", "142615.160000", "142616.650000", "142618.140000", "142619.630000", "142621.120000", "142622.610000", "142624.100000", "142625.590000", "142627.080000", "142628.570000", "142630.060000", "142631.550000", "142633.040000", "142634.530000", "142636.020000", "142637.510000", "142639.000000", "142640.490000", "142641.980000", "142643.470000", "142644.960000", "142646.450000", "142647.940000", "142649.430000", "142650.920000", "142652.410000", "142653.900000", "142655.390000", "142656.880000", "142658.370000", "142659.860000", "142701.350000", "142702.840000", "142704.330000", "142705.820000", "142707.310000", "142708.800000", "142710.290000", "142711.780000", "142713.270000", "142714.760000", "142716.250000", "142717.740000", "142719.230000", "142720.720000", "142722.210000", "142723.700000", "142725.190000", "142726.680000", "142728.170000", "142729.660000", "142731.150000", "142732.640000", "142734.130000", "142735.620000", "142737.110000", "142738.600000", "142740.090000", "142741.580000", "142743.070000", "142744.560000", "142746.050000", "142747.540000", "142749.030000", "142750.520000", "142752.010000", "142753.500000", "142754.990000", "142756.480000", "142757.970000", "142759.460000", "142800.950000", "142802.440000", "142803.930000", "142805.420000", "142806.910000", "142808.400000", "142809.890000", "142811.380000", "142812.870000", "142814.360000", "142815.850000", "142817.340000", "142818.830000", "142820.320000", "142821.810000", "142823.300000", "142824.790000", "142826.280000", "142827.770000", "142829.260000", "142830.750000", "142832.240000", "142833.730000", "142835.220000", "142836.710000", "142838.200000", "142839.690000", "142841.180000", "142842.670000", "142844.160000", "142845.650000", "142847.140000", "142848.630000", "142850.120000", "142851.610000", "142853.100000", "142854.590000", "142856.080000", "142857.570000", "142859.060000", "142900.550000", "142902.040000", "142903.530000", "142905.020000", "142906.510000", "142908.000000", "142909.490000", "142910.980000", "142912.470000", "142913.960000", "142915.450000", "142916.940000", "142918.430000", "142919.920000", "142921.410000", "142922.900000", "142924.390000", "142925.880000", "142927.370000", "142928.860000", "142930.350000", "142931.840000", "142933.330000", "142934.820000", "142936.310000", "142937.800000", "142939.290000", "142940.780000", "142942.270000", "142943.760000", "142945.250000", "142946.740000", "142948.230000", "142949.720000", "142951.210000", "142952.700000", "142954.190000", "142955.680000", "142957.170000", "142958.660000", "143000.150000", "143001.640000", "143003.130000", "143004.620000", "143006.110000", "143007.600000", "143009.090000", "143010.580000", "143012.070000", "143013.560000", "143015.050000", "143016.540000", "143018.030000", "143019.520000", "143021.010000", "143022.500000", "143023.990000", "143025.480000", "143026.970000", "143028.460000", "143029.950000", "143031.440000", "143032.930000", "143034.420000", "143035.910000", "143037.400000", "143038.890000", "143040.380000", "143041.870000", "143043.360000", "143044.850000", "143046.340000", "143047.830000", "143049.320000", "143050.810000", "143052.300000", "143053.790000", "143055.280000", "143056.770000", "143058.260000", "143059.750000", "143101.240000", "143102.730000", "143104.220000", "143105.710000", "143107.200000", "143108.690000", "143110.180000", "143111.670000", "143113.160000", "143114.650000", "143116.140000", "143117.630000", "143119.120000", "143120.610000", "143122.100000", "143123.590000", "143125.080000", "143126.570000", "143128.060000", "143129.550000", "143131.040000", "143132.530000", "143134.020000", "143135.510000", "143137.000000", "143138.490000", "143139.980000", "143141.470000", "143142.960000", "143144.450000", "143145.940000", "143147.430000", "143148.920000", "143150.410000"],
      "ContentTime": ["142513.891000", "142513.895000", "142513.898000", "142513.901000", "142513.905000", "142513.908000", "142513.912000", "142513.915000", "142513.923000", "142513.927000", "142513.930000", "142513.933000", "142513.936000", "142513.940000", "142513.943000", "142513.946000", "142513.950000", "142513.953000", "142513.956000", "142513.960000", "142513.963000", "142513.966000", "142513.970000", "142513.973000", "142513.976000", "142513.979000", "142513.983000", "142513.986000", "142513.989000", "142514.005000", "142514.009000", "142533.785000", "142533.789000", "142533.792000", "142533.795000", "142533.799000", "142533.802000", "142533.805000", "142533.809000", "142533.812000", "142533.815000", "142533.819000", "142533.822000", "142533.825000", "142533.828000", "142533.832000", "142533.835000", "142533.838000", "142533.842000", "142533.845000", "142533.848000", "142533.852000", "142553.785000", "142553.789000", "142553.792000", "142553.796000", "142553.799000", "142553.802000", "142553.805000", "142553.809000", "142553.812000", "142553.815000", "142553.819000", "142553.822000", "142553.825000", "142553.829000", "142553.832000", "142553.836000", "142553.839000", "142553.842000", "142553.846000", "142553.849000", "142613.784000", "142613.788000", "142613.791000", "142613.794000", "142613.798000", "142613.801000", "142613.804000", "142613.808000", "142613.821000", "142613.824000", "142613.828000", "142613.831000", "142613.834000", "142613.838000", "142613.841000", "142613.844000", "142613.848000", "142613.851000", "142613.854000", "142613.858000", "142653.784000", "142653.788000", "142653.791000", "142653.795000", "142653.798000", "142653.801000", "142653.805000", "142653.808000", "142653.811000", "142653.815000", "142653.818000", "142653.821000", "142653.825000", "142653.828000", "142653.831000", "142653.835000", "142653.838000", "142653.841000", "142653.845000", "142653.848000", "142653.851000", "142653.854000", "142653.858000", "142653.861000", "142653.864000", "142653.868000", "142653.871000", "142653.874000", "142733.785000", "142733.789000", "142733.792000", "142733.802000", "142733.805000", "142733.809000", "142733.823000", "142733.827000", "142733.830000", "142733.833000", "142733.837000", "142733.840000", "142733.843000", "142733.847000", "142733.850000", "142733.853000", "142733.857000", "142733.860000", "142733.863000", "142733.867000", "142733.870000", "142733.873000", "142733.877000", "142733.880000", "142733.883000", "142733.887000", "142733.890000", "142813.785000", "142813.789000", "142813.792000", "142813.796000", "142813.799000", "142813.802000", "142813.806000", "142813.809000", "142813.812000", "142813.816000", "142813.819000", "142813.822000", "142813.825000", "142813.829000", "142813.832000", "142813.836000", "142813.839000", "142813.848000", "142813.851000", "142813.854000", "142813.858000", "142813.861000", "142813.864000", "142813.868000", "142813.871000", "142813.874000", "142813.877000", "142853.784000", "142853.788000", "142853.791000", "142853.795000", "142853.798000", "142853.802000", "142853.805000", "142853.810000", "142853.813000", "142853.816000", "142853.820000", "142853.830000", "142853.833000", "142853.837000", "142853.840000", "142853.844000", "142853.847000", "142853.850000", "142853.854000", "142853.857000", "142853.860000", "142853.864000", "142853.867000", "142853.870000", "142853.874000", "142853.877000", "142933.784000", "142933.788000", "142933.791000", "142933.795000", "142933.798000", "142933.801000", "142933.805000", "142933.808000", "142933.811000", "142933.815000", "142933.818000", "142933.821000", "142933.825000", "142933.828000", "142933.832000", "142933.835000", "142933.838000", "142933.842000", "142933.845000", "142933.848000", "142933.852000", "142933.855000", "142933.858000", "142933.862000", "142933.865000", "142933.868000", "142933.871000", "143013.785000", "143013.789000", "143013.792000", "143013.796000", "143013.799000", "143013.802000", "143013.806000", "143013.809000", "143013.812000", "143013.816000", "143013.819000", "143013.823000", "143013.826000", "143013.829000", "143013.833000", "143013.836000", "143013.839000", "143013.843000", "143013.846000", "143013.849000", "143013.852000", "143013.856000", "143013.859000", "143013.863000", "143013.866000", "143013.869000", "143013.872000", "143053.784000", "143053.788000", "143053.791000", "143053.795000", "143053.798000", "143053.801000", "143053.805000", "143053.815000", "143053.818000", "143053.822000", "143053.825000", "143053.829000", "143053.832000", "143053.835000", "143053.839000", "143053.842000", "143053.845000", "143053.849000", "143053.852000", "143053.855000", "143053.859000", "143053.862000", "143053.865000", "143053.869000", "143053.872000", "143053.875000", "143053.879000", "143133.784000", "143133.788000", "143133.791000", "143133.795000", "143133.798000", "143133.808000", "143133.812000", "143133.815000", "143133.818000", "143133.822000", "143133.825000", "143133.829000", "143133.832000", "143133.836000", "143133.839000", "143133.842000", "143133.845000", "143133.849000", "143133.852000", "143133.856000", "143133.859000", "143133.862000", "143133.866000", "143133.869000", "143133.872000", "143133.876000", "143133.879000", "143153.743000", "143153.747000", "143153.750000", "143153.754000", "143153.757000", "143153.761000", "143153.765000", "143153.768000", "143153.772000", "143153.776000", "143153.781000", "143153.785000", "143153.789000"],
      "InstanceCreationTime": ["142513.891000", "142513.895000", "142513.898000", "142513.901000", "142513.905000", "142513.908000", "142513.912000", "142513.915000", "142513.923000", "142513.927000", "142513.930000", "142513.933000", "142513.936000", "142513.940000", "142513.943000", "142513.946000", "142513.950000", "142513.953000", "142513.956000", "142513.960000", "142513.963000", "142513.966000", "142513.970000", "142513.973000", "142513.976000", "142513.979000", "142513.983000", "142513.986000", "142513.989000", "142514.005000", "142514.009000", "142533.785000", "142533.789000", "142533.792000", "142533.795000", "142533.799000", "142533.802000", "142533.805000", "142533.809000", "142533.812000", "142533.815000", "142533.819000", "142533.822000", "142533.825000", "142533.828000", "142533.832000", "142533.835000", "142533.838000", "142533.842000", "142533.845000", "142533.848000", "142533.852000", "142553.785000", "142553.789000", "142553.792000", "142553.796000", "142553.799000", "142553.802000", "142553.805000", "142553.809000", "142553.812000", "142553.815000", "142553.819000", "142553.822000", "142553.825000", "142553.829000", "142553.832000", "142553.836000", "142553.839000", "142553.842000", "142553.846000", "142553.849000", "142613.784000", "142613.788000", "142613.791000", "142613.794000", "142613.798000", "142613.801000", "142613.804000", "142613.808000", "142613.821000", "142613.824000", "142613.828000", "142613.831000", "142613.834000", "142613.838000", "142613.841000", "142613.844000", "142613.848000", "142613.851000", "142613.854000", "142613.858000", "142653.784000", "142653.788000", "142653.791000", "142653.795000", "142653.798000", "142653.801000", "142653.805000", "142653.808000", "142653.811000", "142653.815000", "142653.818000", "142653.821000", "142653.825000", "142653.828000", "142653.831000", "142653.835000", "142653.838000", "142653.841000", "142653.845000", "142653.848000", "142653.851000", "142653.854000", "142653.858000", "142653.861000", "142653.864000", "142653.868000", "142653.871000", "142653.874000", "142733.785000", "142733.789000", "142733.792000", "142733.802000", "142733.805000", "142733.809000", "142733.823000", "142733.827000", "142733.830000", "142733.833000", "142733.837000", "142733.840000", "142733.843000", "142733.847000", "142733.850000", "142733.853000", "142733.857000", "142733.860000", "142733.863000", "142733.867000", "142733.870000", "142733.873000", "142733.877000", "142733.880000", "142733.883000", "142733.887000", "142733.890000", "142813.785000", "142813.789000", "142813.792000", "142813.796000", "142813.799000", "142813.802000", "142813.806000", "142813.809000", "142813.812000", "142813.816000", "142813.819000", "142813.822000", "142813.825000", "142813.829000", "142813.832000", "142813.836000", "142813.839000", "142813.848000", "142813.851000", "142813.854000", "142813.858000", "142813.861000", "142813.864000", "142813.868000", "142813.871000", "142813.874000", "142813.877000", "142853.784000", "142853.788000", "142853.791000", "142853.795000", "142853.798000", "142853.802000", "142853.805000", "142853.810000", "142853.813000", "142853.816000", "142853.820000", "142853.830000", "142853.833000", "142853.837000", "142853.840000", "142853.844000", "142853.847000", "142853.850000", "142853.854000", "142853.857000", "142853.860000", "142853.864000", "142853.867000", "142853.870000", "142853.874000", "142853.877000", "142933.784000", "142933.788000", "142933.791000", "142933.795000", "142933.798000", "142933.801000", "142933.805000", "142933.808000", "142933.811000", "142933.815000", "142933.818000", "142933.821000", "142933.825000", "142933.828000", "142933.832000", "142933.835000", "142933.838000", "142933.842000", "142933.845000", "142933.848000", "142933.852000", "142933.855000", "142933.858000", "142933.862000", "142933.865000", "142933.868000", "142933.871000", "143013.785000", "143013.789000", "143013.792000", "143013.796000", "143013.799000", "143013.802000", "143013.806000", "143013.809000", "143013.812000", "143013.816000", "143013.819000", "143013.823000", "143013.826000", "143013.829000", "143013.833000", "143013.836000", "143013.839000", "143013.843000", "143013.846000", "143013.849000", "143013.852000", "143013.856000", "143013.859000", "143013.863000", "143013.866000", "143013.869000", "143013.872000", "143053.784000", "143053.788000", "143053.791000", "143053.795000", "143053.798000", "143053.801000", "143053.805000", "143053.815000", "143053.818000", "143053.822000", "143053.825000", "143053.829000", "143053.832000", "143053.835000", "143053.839000", "143053.842000", "143053.845000", "143053.849000", "143053.852000", "143053.855000", "143053.859000", "143053.862000", "143053.865000", "143053.869000", "143053.872000", "143053.875000", "143053.879000", "143133.784000", "143133.788000", "143133.791000", "143133.795000", "143133.798000", "143133.808000", "143133.812000", "143133.815000", "143133.818000", "143133.822000", "143133.825000", "143133.829000", "143133.832000", "143133.836000", "143133.839000", "143133.842000", "143133.845000", "143133.849000", "143133.852000", "143133.856000", "143133.859000", "143133.862000", "143133.866000", "143133.869000", "143133.872000", "143133.876000", "143133.879000", "143153.743000", "143153.747000", "143153.750000", "143153.754000", "143153.757000", "143153.761000", "143153.765000", "143153.768000", "143153.772000", "143153.776000", "143153.781000", "143153.785000", "143153.789000"],
      "InstanceNumber": [1, 2, 3, 4, 5, 6, 7, 8, 9, 10, 11, 12, 13, 14, 15, 16, 17, 18, 19, 20, 21, 22, 23, 24, 25, 26, 27, 28, 29, 30, 31, 32, 33, 34, 35, 36, 37, 38, 39, 40, 41, 42, 43, 44, 45, 46, 47, 48, 49, 50, 51, 52, 53, 54, 55, 56, 57, 58, 59, 60, 61, 62, 63, 64, 65, 66, 67, 68, 69, 70, 71, 72, 73, 74, 75, 76, 77, 78, 79, 80, 81, 82, 83, 84, 85, 86, 87, 88, 89, 90, 91, 92, 93, 94, 95, 96, 97, 98, 99, 100, 101, 102, 103, 104, 105, 106, 107, 108, 109, 110, 111, 112, 113, 114, 115, 116, 117, 118, 119, 120, 121, 122, 123, 124, 125, 126, 127, 128, 129, 130, 131, 132, 133, 134, 135, 136, 137, 138, 139, 140, 141, 142, 143, 144, 145, 146, 147, 148, 149, 150, 151, 152, 153, 154, 155, 156, 157, 158, 159, 160, 161, 162, 163, 164, 165, 166, 167, 168, 169, 170, 171, 172, 173, 174, 175, 176, 177, 178, 179, 180, 181, 182, 183, 184, 185, 186, 187, 188, 189, 190, 191, 192, 193, 194, 195, 196, 197, 198, 199, 200, 201, 202, 203, 204, 205, 206, 207, 208, 209, 210, 211, 212, 213, 214, 215, 216, 217, 218, 219, 220, 221, 222, 223, 224, 225, 226, 227, 228, 229, 230, 231, 232, 233, 234, 235, 236, 237, 238, 239, 240, 241, 242, 243, 244, 245, 246, 247, 248, 249, 250, 251, 252, 253, 254, 255, 256, 257, 258, 259, 260, 261, 262, 263, 264, 265, 266, 267, 268, 269, 270, 271, 272, 273, 274, 275, 276, 277, 278, 279, 280, 281, 282, 283, 284, 285, 286, 287, 288, 289, 290, 291, 292, 293, 294, 295, 296, 297, 298, 299, 300, 301, 302, 303, 304, 305, 306, 307, 308, 309, 310, 311, 312, 313, 314, 315, 316, 317, 318, 319, 320, 321],
      "LargestImagePixelValue": [42565, 40904, 40498, 40538, 40338, 41428, 40757, 40881, 39761, 39690, 39248, 40642, 41086, 39125, 39265, 39231, 39492, 39044, 39423, 39681, 39977, 39195, 39858, 38897, 39068, 38714, 38839, 39316, 40486, 40150, 40344, 39121, 39787, 40476, 40175, 39931, 40145, 40368, 40910, 39757, 39572, 39841, 40575, 39723, 39565, 39356, 39819, 39575, 40064, 38517, 39141, 39543, 38586, 38417, 39146, 38966, 39279, 39330, 39078, 39398, 39864, 39733, 40725, 39182, 38914, 38659, 39204, 39958, 39549, 39317, 39475, 38571, 38965, 38553, 38491, 38553, 39066, 39517, 40111, 39859, 39826, 41032, 39625, 39776, 39317, 39678, 39828, 39635, 38614, 38586, 38895, 39300, 39333, 39040, 39285, 38868, 38975, 39106, 38698, 39579, 39022, 39509, 39386, 40785, 39488, 39486, 39166, 39190, 39861, 40313, 39450, 38815, 39936, 39305, 39850, 39459, 38942, 39590, 39296, 39371, 39919, 37888, 39868, 39880, 39949, 39708, 39604, 39687, 39177, 38536, 38610, 38221, 39193, 38849, 38709, 38859, 39014, 39990, 39976, 39589, 38445, 38742, 39164, 39406, 39847, 39724, 39489, 39121, 39213, 39241, 38289, 42418, 41171, 39481, 39106, 38750, 38461, 39719, 39217, 39020, 40244, 39482, 39145, 39001, 38704, 38813, 38723, 40225, 40025, 38960, 39656, 39574, 39551, 40096, 39702, 39459, 39973, 40341, 39991, 40186, 39535, 39357, 39686, 39237, 38726, 40265, 38795, 38871, 39514, 39154, 39837, 39705, 39677, 40048, 40244, 39850, 39200, 39944, 39594, 39561, 39739, 39827, 39894, 39731, 39844, 39669, 40323, 39229, 39565, 40032, 39621, 39530, 39538, 40190, 40035, 40121, 40276, 40101, 39647, 40022, 39549, 40421, 39874, 40228, 40465, 39826, 39932, 39509, 39103, 39180, 39411, 39780, 39232, 38866, 39014, 40288, 39112, 39038, 38930, 39269, 39212, 39329, 39279, 39317, 39128, 39993, 40256, 39691, 39543, 38709, 38601, 39669, 40149, 40154, 39094, 39623, 39884, 40271, 40418, 39976, 40634, 40373, 40121, 39589, 38645, 37883, 38861, 39569, 38778, 38874, 39642, 38788, 38721, 39173, 39487, 39267, 39538, 39238, 38729, 38526, 38826, 39562, 39561, 38850, 38701, 38777, 38980, 39436, 38928, 38677, 39260, 39342, 39126, 39593, 38720, 39218, 39350, 39591, 39444, 39512, 40124, 40114, 39080, 38666, 38455, 38296, 38487, 38731, 39193, 39776, 39727, 38541, 38549, 39230, 39821, 39270, 39942, 39217, 39290, 38785, 38605],
