{
  "AcquisitionMatrixPE": 104,
  "AcquisitionNumber": 1,
  "AcquisitionTime": "14:14:28.522500",
  "BandwidthPerPixelPhaseEncode": 17.17,
  "BaseResolution": 104,
  "BodyPartExamined": "BRAIN",
  "CoilCombinationMethod": "Sum of Squares",
  "ConsistencyInfo": "N4_VE11C_LATEST_20160120",
  "ConversionSoftware": "dcm2niix",
  "ConversionSoftwareVersion": "v1.0.20220505",
  "DerivedVendorReportedEchoSpacing": 0.000560011,
  "DeviceSerialNumber": "167006",
  "DwellTime": 2.1e-06,
  "EchoTime": 0.037,
  "EchoTime1": 0.037,
  "EchoTime2": 0.001,
  "EchoTrainLength": 104,
  "EffectiveEchoSpacing": 0.000560011,
  "FlipAngle": 52,
  "HeudiconvVersion": "0.5.3.post811+g6206e14",
  "ImageComments": "Unaliased MB4/PE3/LB",
  "ImageOrientationPatientDICOM": [0.999852, 0.0129256, 0.0113272, -0.00959816, 0.966669, -0.255848],
  "ImageOrientationText": "Tra>Cor(-14.8)>Sag(0.8)",
  "ImageType": [
    "ORIGINAL",
    "PRIMARY",
    "P",
    "MB",
    "ND",
    "MOSAIC",
    "PHASE"
],
  "ImagingFrequency": 123.26,
  "InPlanePhaseEncodingDirectionDICOM": "COL",
  "InstitutionAddress": "Chemin Queen-Mary 4565,Montreal,District,CA,H3W 1W5",
  "InstitutionName": "IUGM",
  "InstitutionalDepartmentName": "Department",
  "MRAcquisitionType": "2D",
  "MagneticFieldStrength": 3,
  "Manufacturer": "Siemens",
  "ManufacturersModelName": "Prisma_fit",
  "MatrixCoilMode": "SENSE",
  "Modality": "MR",
  "MultibandAccelerationFactor": 4,
  "PartialFourier": 1,
  "PatientPosition": "HFS",
  "PercentPhaseFOV": 100,
  "PercentSampling": 100,
  "PhaseEncodingDirection": "j",
  "PhaseEncodingSteps": 104,
  "PhaseResolution": 1,
  "PixelBandwidth": 2290,
  "ProcedureStepDescription": "games^mario3",
  "ProtocolName": "func_task-mario3_run-04",
  "PulseSequenceDetails": "%CustomerSeq%\\cmrr_mbep2d_bold",
  "ReceiveCoilActiveElements": "HC1-7;NC1,2",
  "ReceiveCoilName": "HeadNeck_64",
  "ReconMatrixPE": 104,
  "RepetitionTime": 1.49,
  "SAR": 0.0566017,
  "ScanOptions": "FS",
  "ScanningSequence": "EP",
  "SequenceName": "epfid2d1_104",
  "SequenceVariant": "SK\\SS",
  "SeriesDescription": "func_task-mario3_run-04",
  "SeriesNumber": 20,
  "ShimSetting": [622, -7223, -8803, 712, 68, 4, 34, 0],
  "SliceThickness": 2,
  "SliceTiming": [0, 0.7825, 0.0975, 0.8825, 0.195, 0.98, 0.2925, 1.0775, 0.3925, 1.175, 0.49, 1.2725, 0.5875, 1.3725, 0.685, 0, 0.7825, 0.0975, 0.8825, 0.195, 0.98, 0.2925, 1.0775, 0.3925, 1.175, 0.49, 1.2725, 0.5875, 1.3725, 0.685, 0, 0.7825, 0.0975, 0.8825, 0.195, 0.98, 0.2925, 1.0775, 0.3925, 1.175, 0.49, 1.2725, 0.5875, 1.3725, 0.685, 0, 0.7825, 0.0975, 0.8825, 0.195, 0.98, 0.2925, 1.0775, 0.3925, 1.175, 0.49, 1.2725, 0.5875, 1.3725, 0.685],
  "SoftwareVersions": "syngo MR E11",
  "SpacingBetweenSlices": 2,
  "StationName": "MRC35049",
  "TaskName": "mario3",
  "TotalReadoutTime": 0.0576811,
  "TxRefAmp": 229.874,
  "WipMemBlock": "68880c4d-a29b-42a3-925d-33a0704464d6||Sequence: R017 ve11c/master r/75a17815+; Jun 28 2022 16:32:11 by eja",
  "dcmmeta_affine": [
    [-1.9997045993804932, -0.01919631101191044, 0.028513208031654358, 108.95744323730469],
    [-0.02585117518901825, 1.9333387613296509, -0.5114030241966248, -73.26385498046875],
    [0.022654319182038307, 0.5116961002349854, 1.9333012104034424, -67.04470825195312],
    [0.0, 0.0, 0.0, 1.0]
],
  "dcmmeta_reorient_transform": [
    [0.0, -1.0, 0.0, 103.0],
    [1.0, 0.0, 0.0, 0.0],
    [0.0, 0.0, 1.0, 0.0],
    [0.0, 0.0, 0.0, 1.0]
],
  "dcmmeta_shape": [104, 104, 60, 307],
  "dcmmeta_slice_dim": 2,
  "dcmmeta_version": 0.6,
  "global": {
    "const": {
      "AcquisitionMatrix": [104, 0, 0, 104],
      "AngioFlag": "N",
      "BitsAllocated": 16,
      "BitsStored": 16,
      "BodyPartExamined": "BRAIN",
      "Columns": 832,
      "EchoNumbers": 1,
      "EchoTime": 37.0,
      "EchoTrainLength": 104,
      "FlipAngle": 52.0,
      "HighBit": 15,
      "ImageOrientationPatient": [0.9998523014126, 0.01292558749325, 0.01132715974511, -0.0095981554396, 0.96666936233583, -0.255848039534],
      "ImagePositionPatient": [-827.88524007602, -839.01515905492, 163.67118460645],
      "ImageType": [
        "ORIGINAL",
        "PRIMARY",
        "P",
        "MB",
        "ND",
        "MOSAIC"
],
      "ImagedNucleus": "1H",
      "ImagingFrequency": 123.26049,
      "InPlanePhaseEncodingDirection": "COL",
      "LargestImagePixelValue": 4095,
      "MRAcquisitionType": "2D",
      "MagneticFieldStrength": 3.0,
      "Manufacturer": "SIEMENS",
      "ManufacturerModelName": "Prisma_fit",
      "Modality": "MR",
      "NumberOfAverages": 1.0,
      "NumberOfPhaseEncodingSteps": 104,
      "PercentPhaseFieldOfView": 100.0,
      "PercentSampling": 100.0,
      "PerformedProcedureStepStartTime": "134057.758000",
      "PhotometricInterpretation": "MONOCHROME2",
      "PixelBandwidth": 2290.0,
      "PixelRepresentation": 0,
      "PixelSpacing": [2.0, 2.0],
      "ProtocolName": "func_task-mario3_run-04",
      "RepetitionTime": 1490.0,
      "RescaleIntercept": -4096.0,
      "RescaleSlope": 2.0,
      "RescaleType": "US",
      "Rows": 832,
      "SAR": 0.05660172302442,
      "SamplesPerPixel": 1,
      "ScanOptions": "FS",
      "ScanningSequence": "EP",
      "SequenceName": "epfid2d1_104",
      "SequenceVariant": [
        "SK",
        "SS"
],
      "SeriesDescription": "func_task-mario3_run-04",
      "SeriesNumber": 20,
      "SeriesTime": "141548.177000",
      "SliceLocation": -44.521771778806,
      "SliceThickness": 2.0,
      "SmallestImagePixelValue": 0,
      "SoftwareVersions": "syngo MR E11",
      "SpacingBetweenSlices": 1.9999999509724,
      "SpecificCharacterSet": "ISO_IR 100",
      "StudyID": "1",
      "StudyTime": "134057.669000",
      "TransmitCoilName": "Body",
      "VariableFlipAngleFlag": "N",
      "WindowCenterWidthExplanation": "Algo1",
      "dBdt": 0.0},
    "slices": {}
  },
  "time": {
    "samples": {
      "AcquisitionNumber": [1, 2, 3, 4, 5, 6, 7, 8, 9, 10, 11, 12, 13, 14, 15, 16, 17, 18, 19, 20, 21, 22, 23, 24, 25, 26, 27, 28, 29, 30, 31, 32, 33, 34, 35, 36, 37, 38, 39, 40, 41, 42, 43, 44, 45, 46, 47, 48, 49, 50, 51, 52, 53, 54, 55, 56, 57, 58, 59, 60, 61, 62, 63, 64, 65, 66, 67, 68, 69, 70, 71, 72, 73, 74, 75, 76, 77, 78, 79, 80, 81, 82, 83, 84, 85, 86, 87, 88, 89, 90, 91, 92, 93, 94, 95, 96, 97, 98, 99, 100, 101, 102, 103, 104, 105, 106, 107, 108, 109, 110, 111, 112, 113, 114, 115, 116, 117, 118, 119, 120, 121, 122, 123, 124, 125, 126, 127, 128, 129, 130, 131, 132, 133, 134, 135, 136, 137, 138, 139, 140, 141, 142, 143, 144, 145, 146, 147, 148, 149, 150, 151, 152, 153, 154, 155, 156, 157, 158, 159, 160, 161, 162, 163, 164, 165, 166, 167, 168, 169, 170, 171, 172, 173, 174, 175, 176, 177, 178, 179, 180, 181, 182, 183, 184, 185, 186, 187, 188, 189, 190, 191, 192, 193, 194, 195, 196, 197, 198, 199, 200, 201, 202, 203, 204, 205, 206, 207, 208, 209, 210, 211, 212, 213, 214, 215, 216, 217, 218, 219, 220, 221, 222, 223, 224, 225, 226, 227, 228, 229, 230, 231, 232, 233, 234, 235, 236, 237, 238, 239, 240, 241, 242, 243, 244, 245, 246, 247, 248, 249, 250, 251, 252, 253, 254, 255, 256, 257, 258, 259, 260, 261, 262, 263, 264, 265, 266, 267, 268, 269, 270, 271, 272, 273, 274, 275, 276, 277, 278, 279, 280, 281, 282, 283, 284, 285, 286, 287, 288, 289, 290, 291, 292, 293, 294, 295, 296, 297, 298, 299, 300, 301, 302, 303, 304, 305, 306, 307],
      "AcquisitionTime": ["141428.522500", "141430.012500", "141431.502500", "141432.992500", "141434.482500", "141435.972500", "141437.462500", "141438.952500", "141440.442500", "141441.932500", "141443.422500", "141444.912500", "141446.402500", "141447.892500", "141449.382500", "141450.872500", "141452.362500", "141453.852500", "141455.342500", "141456.832500", "141458.322500", "141459.812500", "141501.302500", "141502.792500", "141504.282500", "141505.772500", "141507.262500", "141508.752500", "141510.242500", "141511.732500", "141513.222500", "141514.712500", "141516.202500", "141517.692500", "141519.182500", "141520.672500", "141522.162500", "141523.652500", "141525.142500", "141526.632500", "141528.122500", "141529.612500", "141531.102500", "141532.592500", "141534.082500", "141535.572500", "141537.062500", "141538.552500", "141540.042500", "141541.532500", "141543.022500", "141544.512500", "141546.002500", "141547.492500", "141548.982500", "141550.472500", "141551.962500", "141553.452500", "141554.942500", "141556.432500", "141557.922500", "141559.412500", "141600.902500", "141602.392500", "141603.882500", "141605.372500", "141606.862500", "141608.352500", "141609.842500", "141611.332500", "141612.822500", "141614.312500", "141615.802500", "141617.292500", "141618.782500", "141620.272500", "141621.762500", "141623.252500", "141624.742500", "141626.232500", "141627.722500", "141629.212500", "141630.702500", "141632.192500", "141633.682500", "141635.172500", "141636.662500", "141638.152500", "141639.642500", "141641.132500", "141642.622500", "141644.112500", "141645.602500", "141647.092500", "141648.582500", "141650.072500", "141651.562500", "141653.052500", "141654.542500", "141656.032500", "141657.522500", "141659.012500", "141700.502500", "141701.992500", "141703.482500", "141704.972500", "141706.462500", "141707.952500", "141709.442500", "141710.932500", "141712.422500", "141713.912500", "141715.402500", "141716.892500", "141718.382500", "141719.872500", "141721.362500", "141722.852500", "141724.342500", "141725.832500", "141727.322500", "141728.812500", "141730.302500", "141731.792500", "141733.282500", "141734.772500", "141736.262500", "141737.752500", "141739.242500", "141740.732500", "141742.222500", "141743.712500", "141745.202500", "141746.692500", "141748.182500", "141749.672500", "141751.162500", "141752.652500", "141754.142500", "141755.632500", "141757.122500", "141758.612500", "141800.102500", "141801.592500", "141803.082500", "141804.572500", "141806.062500", "141807.552500", "141809.042500", "141810.532500", "141812.022500", "141813.512500", "141815.002500", "141816.492500", "141817.982500", "141819.472500", "141820.962500", "141822.452500", "141823.942500", "141825.432500", "141826.922500", "141828.412500", "141829.902500", "141831.392500", "141832.882500", "141834.372500", "141835.862500", "141837.352500", "141838.842500", "141840.332500", "141841.822500", "141843.312500", "141844.802500", "141846.292500", "141847.782500", "141849.272500", "141850.762500", "141852.252500", "141853.742500", "141855.232500", "141856.722500", "141858.212500", "141859.702500", "141901.192500", "141902.682500", "141904.172500", "141905.662500", "141907.152500", "141908.642500", "141910.132500", "141911.622500", "141913.112500", "141914.602500", "141916.092500", "141917.582500", "141919.072500", "141920.562500", "141922.052500", "141923.542500", "141925.032500", "141926.522500", "141928.012500", "141929.502500", "141930.992500", "141932.482500", "141933.972500", "141935.462500", "141936.952500", "141938.442500", "141939.932500", "141941.422500", "141942.912500", "141944.402500", "141945.892500", "141947.382500", "141948.872500", "141950.362500", "141951.852500", "141953.342500", "141954.832500", "141956.322500", "141957.812500", "141959.302500", "142000.792500", "142002.282500", "142003.772500", "142005.262500", "142006.752500", "142008.242500", "142009.732500", "142011.222500", "142012.712500", "142014.202500", "142015.692500", "142017.182500", "142018.672500", "142020.162500", "142021.652500", "142023.142500", "142024.632500", "142026.122500", "142027.612500", "142029.102500", "142030.592500", "142032.082500", "142033.572500", "142035.062500", "142036.552500", "142038.042500", "142039.532500", "142041.022500", "142042.512500", "142044.002500", "142045.492500", "142046.982500", "142048.472500", "142049.962500", "142051.452500", "142052.942500", "142054.432500", "142055.922500", "142057.412500", "142058.902500", "142100.392500", "142101.882500", "142103.372500", "142104.862500", "142106.352500", "142107.842500", "142109.332500", "142110.822500", "142112.312500", "142113.802500", "142115.292500", "142116.782500", "142118.272500", "142119.762500", "142121.252500", "142122.742500", "142124.232500", "142125.722500", "142127.212500", "142128.702500", "142130.192500", "142131.682500", "142133.172500", "142134.662500", "142136.152500", "142137.642500", "142139.132500", "142140.622500", "142142.112500", "142143.602500", "142145.092500", "142146.582500", "142148.072500", "142149.562500", "142151.052500", "142152.542500", "142154.032500", "142155.522500", "142157.012500", "142158.502500", "142159.992500", "142201.482500", "142202.972500", "142204.462500"],
      "ContentTime": ["141548.179000", "141548.182000", "141548.185000", "141548.187000", "141548.190000", "141548.192000", "141548.195000", "141548.197000", "141548.200000", "141548.202000", "141548.205000", "141548.207000", "141548.210000", "141548.212000", "141548.215000", "141548.217000", "141548.220000", "141548.222000", "141548.225000", "141548.227000", "141548.230000", "141548.232000", "141548.235000", "141548.237000", "141548.240000", "141548.242000", "141548.245000", "141548.247000", "141548.250000", "141548.252000", "141548.255000", "141548.257000", "141608.102000", "141608.105000", "141608.107000", "141608.109000", "141608.112000", "141608.114000", "141608.117000", "141608.119000", "141608.122000", "141608.125000", "141608.127000", "141608.130000", "141608.133000", "141608.135000", "141608.138000", "141608.140000", "141608.143000", "141608.145000", "141608.148000", "141608.150000", "141628.084000", "141628.087000", "141628.089000", "141628.092000", "141628.094000", "141628.097000", "141628.106000", "141628.109000", "141628.111000", "141628.114000", "141628.116000", "141628.119000", "141628.121000", "141628.124000", "141628.126000", "141628.129000", "141628.131000", "141628.134000", "141628.136000", "141628.139000", "141648.089000", "141648.092000", "141648.095000", "141648.097000", "141648.100000", "141648.106000", "141648.109000", "141648.111000", "141648.114000", "141648.116000", "141648.119000", "141648.121000", "141648.124000", "141648.126000", "141648.129000", "141648.131000", "141648.134000", "141648.136000", "141648.139000", "141648.141000", "141728.120000", "141728.123000", "141728.125000", "141728.128000", "141728.130000", "141728.133000", "141728.135000", "141728.138000", "141728.140000", "141728.143000", "141728.145000", "141728.148000", "141728.150000", "141728.153000", "141728.155000", "141728.158000", "141728.161000", "141728.163000", "141728.166000", "141728.168000", "141728.171000", "141728.173000", "141728.176000", "141728.178000", "141728.181000", "141728.183000", "141728.186000", "141728.188000", "141808.133000", "141808.136000", "141808.138000", "141808.141000", "141808.143000", "141808.146000", "141808.148000", "141808.151000", "141808.153000", "141808.156000", "141808.158000", "141808.161000", "141808.163000", "141808.166000", "141808.168000", "141808.171000", "141808.174000", "141808.176000", "141808.179000", "141808.181000", "141808.184000", "141808.186000", "141808.189000", "141808.191000", "141808.193000", "141808.196000", "141808.198000", "141848.135000", "141848.138000", "141848.140000", "141848.143000", "141848.145000", "141848.148000", "141848.150000", "141848.153000", "141848.155000", "141848.158000", "141848.161000", "141848.163000", "141848.166000", "141848.168000", "141848.171000", "141848.173000", "141848.176000", "141848.178000", "141848.181000", "141848.183000", "141848.186000", "141848.188000", "141848.191000", "141848.194000", "141848.196000", "141848.199000", "141928.114000", "141928.117000", "141928.120000", "141928.122000", "141928.125000", "141928.127000", "141928.130000", "141928.132000", "141928.135000", "141928.137000", "141928.140000", "141928.142000", "141928.145000", "141928.147000", "141928.150000", "141928.152000", "141928.155000", "141928.157000", "141928.160000", "141928.162000", "141928.165000", "141928.167000", "141928.170000", "141928.172000", "141928.182000", "141928.185000", "141928.187000", "142008.126000", "142008.129000", "142008.131000", "142008.134000", "142008.136000", "142008.139000", "142008.141000", "142008.144000", "142008.146000", "142008.149000", "142008.151000", "142008.154000", "142008.156000", "142008.159000", "142008.161000", "142008.164000", "142008.166000", "142008.169000", "142008.172000", "142008.174000", "142008.177000", "142008.179000", "142008.182000", "142008.184000", "142008.187000", "142008.189000", "142008.192000", "142048.533000", "142048.536000", "142048.539000", "142048.541000", "142048.544000", "142048.546000", "142048.549000", "142048.551000", "142048.554000", "142048.556000", "142048.559000", "142048.561000", "142048.564000", "142048.566000", "142048.569000", "142048.572000", "142048.574000", "142048.577000", "142048.579000", "142048.582000", "142048.584000", "142048.587000", "142048.590000", "142048.592000", "142048.595000", "142048.597000", "142048.600000", "142128.114000", "142128.117000", "142128.120000", "142128.122000", "142128.125000", "142128.128000", "142128.130000", "142128.133000", "142128.135000", "142128.138000", "142128.140000", "142128.143000", "142128.145000", "142128.148000", "142128.150000", "142128.153000", "142128.155000", "142128.158000", "142128.161000", "142128.163000", "142128.165000", "142128.168000", "142128.170000", "142128.173000", "142128.176000", "142128.178000", "142128.181000", "142207.426000", "142207.429000", "142207.432000", "142207.434000", "142207.437000", "142207.439000", "142207.442000", "142207.444000", "142207.447000", "142207.449000", "142207.452000", "142207.454000", "142207.457000", "142207.459000", "142207.462000", "142207.464000", "142207.467000", "142207.469000", "142207.472000", "142207.474000", "142207.477000", "142207.479000", "142207.482000", "142207.484000", "142207.487000", "142207.489000"],
      "InstanceCreationTime": ["141548.179000", "141548.182000", "141548.185000", "141548.187000", "141548.190000", "141548.192000", "141548.195000", "141548.197000", "141548.200000", "141548.202000", "141548.205000", "141548.207000", "141548.210000", "141548.212000", "141548.215000", "141548.217000", "141548.220000", "141548.222000", "141548.225000", "141548.227000", "141548.230000", "141548.232000", "141548.235000", "141548.237000", "141548.240000", "141548.242000", "141548.245000", "141548.247000", "141548.250000", "141548.252000", "141548.255000", "141548.257000", "141608.102000", "141608.105000", "141608.107000", "141608.109000", "141608.112000", "141608.114000", "141608.117000", "141608.119000", "141608.122000", "141608.125000", "141608.127000", "141608.130000", "141608.133000", "141608.135000", "141608.138000", "141608.140000", "141608.143000", "141608.145000", "141608.148000", "141608.150000", "141628.084000", "141628.087000", "141628.089000", "141628.092000", "141628.094000", "141628.097000", "141628.106000", "141628.109000", "141628.111000", "141628.114000", "141628.116000", "141628.119000", "141628.121000", "141628.124000", "141628.126000", "141628.129000", "141628.131000", "141628.134000", "141628.136000", "141628.139000", "141648.089000", "141648.092000", "141648.095000", "141648.097000", "141648.100000", "141648.106000", "141648.109000", "141648.111000", "141648.114000", "141648.116000", "141648.119000", "141648.121000", "141648.124000", "141648.126000", "141648.129000", "141648.131000", "141648.134000", "141648.136000", "141648.139000", "141648.141000", "141728.120000", "141728.123000", "141728.125000", "141728.128000", "141728.130000", "141728.133000", "141728.135000", "141728.138000", "141728.140000", "141728.143000", "141728.145000", "141728.148000", "141728.150000", "141728.153000", "141728.155000", "141728.158000", "141728.161000", "141728.163000", "141728.166000", "141728.168000", "141728.171000", "141728.173000", "141728.176000", "141728.178000", "141728.181000", "141728.183000", "141728.186000", "141728.188000", "141808.133000", "141808.136000", "141808.138000", "141808.141000", "141808.143000", "141808.146000", "141808.148000", "141808.151000", "141808.153000", "141808.156000", "141808.158000", "141808.161000", "141808.163000", "141808.166000", "141808.168000", "141808.171000", "141808.174000", "141808.176000", "141808.179000", "141808.181000", "141808.184000", "141808.186000", "141808.189000", "141808.191000", "141808.193000", "141808.196000", "141808.198000", "141848.135000", "141848.138000", "141848.140000", "141848.143000", "141848.145000", "141848.148000", "141848.150000", "141848.153000", "141848.155000", "141848.158000", "141848.161000", "141848.163000", "141848.166000", "141848.168000", "141848.171000", "141848.173000", "141848.176000", "141848.178000", "141848.181000", "141848.183000", "141848.186000", "141848.188000", "141848.191000", "141848.194000", "141848.196000", "141848.199000", "141928.114000", "141928.117000", "141928.120000", "141928.122000", "141928.125000", "141928.127000", "141928.130000", "141928.132000", "141928.135000", "141928.137000", "141928.140000", "141928.142000", "141928.145000", "141928.147000", "141928.150000", "141928.152000", "141928.155000", "141928.157000", "141928.160000", "141928.162000", "141928.165000", "141928.167000", "141928.170000", "141928.172000", "141928.182000", "141928.185000", "141928.187000", "142008.126000", "142008.129000", "142008.131000", "142008.134000", "142008.136000", "142008.139000", "142008.141000", "142008.144000", "142008.146000", "142008.149000", "142008.151000", "142008.154000", "142008.156000", "142008.159000", "142008.161000", "142008.164000", "142008.166000", "142008.169000", "142008.172000", "142008.174000", "142008.177000", "142008.179000", "142008.182000", "142008.184000", "142008.187000", "142008.189000", "142008.192000", "142048.533000", "142048.536000", "142048.539000", "142048.541000", "142048.544000", "142048.546000", "142048.549000", "142048.551000", "142048.554000", "142048.556000", "142048.559000", "142048.561000", "142048.564000", "142048.566000", "142048.569000", "142048.572000", "142048.574000", "142048.577000", "142048.579000", "142048.582000", "142048.584000", "142048.587000", "142048.590000", "142048.592000", "142048.595000", "142048.597000", "142048.600000", "142128.114000", "142128.117000", "142128.120000", "142128.122000", "142128.125000", "142128.128000", "142128.130000", "142128.133000", "142128.135000", "142128.138000", "142128.140000", "142128.143000", "142128.145000", "142128.148000", "142128.150000", "142128.153000", "142128.155000", "142128.158000", "142128.161000", "142128.163000", "142128.165000", "142128.168000", "142128.170000", "142128.173000", "142128.176000", "142128.178000", "142128.181000", "142207.426000", "142207.429000", "142207.432000", "142207.434000", "142207.437000", "142207.439000", "142207.442000", "142207.444000", "142207.447000", "142207.449000", "142207.452000", "142207.454000", "142207.457000", "142207.459000", "142207.462000", "142207.464000", "142207.467000", "142207.469000", "142207.472000", "142207.474000", "142207.477000", "142207.479000", "142207.482000", "142207.484000", "142207.487000", "142207.489000"],
      "InstanceNumber": [1, 2, 3, 4, 5, 6, 7, 8, 9, 10, 11, 12, 13, 14, 15, 16, 17, 18, 19, 20, 21, 22, 23, 24, 25, 26, 27, 28, 29, 30, 31, 32, 33, 34, 35, 36, 37, 38, 39, 40, 41, 42, 43, 44, 45, 46, 47, 48, 49, 50, 51, 52, 53, 54, 55, 56, 57, 58, 59, 60, 61, 62, 63, 64, 65, 66, 67, 68, 69, 70, 71, 72, 73, 74, 75, 76, 77, 78, 79, 80, 81, 82, 83, 84, 85, 86, 87, 88, 89, 90, 91, 92, 93, 94, 95, 96, 97, 98, 99, 100, 101, 102, 103, 104, 105, 106, 107, 108, 109, 110, 111, 112, 113, 114, 115, 116, 117, 118, 119, 120, 121, 122, 123, 124, 125, 126, 127, 128, 129, 130, 131, 132, 133, 134, 135, 136, 137, 138, 139, 140, 141, 142, 143, 144, 145, 146, 147, 148, 149, 150, 151, 152, 153, 154, 155, 156, 157, 158, 159, 160, 161, 162, 163, 164, 165, 166, 167, 168, 169, 170, 171, 172, 173, 174, 175, 176, 177, 178, 179, 180, 181, 182, 183, 184, 185, 186, 187, 188, 189, 190, 191, 192, 193, 194, 195, 196, 197, 198, 199, 200, 201, 202, 203, 204, 205, 206, 207, 208, 209, 210, 211, 212, 213, 214, 215, 216, 217, 218, 219, 220, 221, 222, 223, 224, 225, 226, 227, 228, 229, 230, 231, 232, 233, 234, 235, 236, 237, 238, 239, 240, 241, 242, 243, 244, 245, 246, 247, 248, 249, 250, 251, 252, 253, 254, 255, 256, 257, 258, 259, 260, 261, 262, 263, 264, 265, 266, 267, 268, 269, 270, 271, 272, 273, 274, 275, 276, 277, 278, 279, 280, 281, 282, 283, 284, 285, 286, 287, 288, 289, 290, 291, 292, 293, 294, 295, 296, 297, 298, 299, 300, 301, 302, 303, 304, 305, 306, 307],
      "WindowCenter": [4796.0, 4796.0, 4800.0, 4794.0, 4804.0, 4800.0, 4802.0, 4806.0, 4804.0, 4802.0, 4804.0, 4802.0, 4800.0, 4800.0, 4796.0, 4802.0, 4800.0, 4802.0, 4802.0, 4802.0, 4804.0, 4798.0, 4804.0, 4806.0, 4804.0, 4800.0, 4800.0, 4802.0, 4800.0, 4826.0, 4830.0, 4798.0, 4796.0, 4800.0, 4804.0, 4826.0, 4804.0, 4832.0, 4830.0, 4806.0, 4802.0, 4800.0, 4796.0, 4798.0, 4802.0, 4806.0, 4828.0, 4802.0, 4802.0, 4804.0, 4800.0, 4802.0, 4800.0, 4800.0, 4800.0, 4800.0, 4800.0, 4828.0, 4828.0, 4828.0, 4806.0, 4804.0, 4804.0, 4804.0, 4802.0, 4798.0, 4804.0, 4826.0, 4804.0, 4802.0, 4804.0, 4832.0, 4802.0, 4832.0, 4832.0, 4802.0, 4830.0, 4826.0, 4802.0, 4802.0, 4802.0, 4802.0, 4802.0, 4798.0, 4802.0, 4798.0, 4800.0, 4800.0, 4798.0, 4800.0, 4800.0, 4798.0, 4802.0, 4802.0, 4802.0, 4804.0, 4802.0, 4802.0, 4800.0, 4802.0, 4826.0, 4800.0, 4804.0, 4798.0, 4800.0, 4800.0, 4802.0, 4800.0, 4800.0, 4804.0, 4804.0, 4798.0, 4800.0, 4826.0, 4806.0, 4800.0, 4796.0, 4800.0, 4794.0, 4798.0, 4802.0, 4800.0, 4802.0, 4798.0, 4798.0, 4804.0, 4828.0, 4802.0, 4800.0, 4826.0, 4802.0, 4830.0, 4826.0, 4826.0, 4804.0, 4828.0, 4826.0, 4798.0, 4800.0, 4802.0, 4798.0, 4796.0, 4802.0, 4800.0, 4802.0, 4824.0, 4830.0, 4798.0, 4800.0, 4800.0, 4830.0, 4824.0, 4800.0, 4798.0, 4800.0, 4824.0, 4804.0, 4828.0, 4826.0, 4800.0, 4794.0, 4792.0, 4794.0, 4796.0, 4822.0, 4804.0, 4824.0, 4824.0, 4828.0, 4826.0, 4828.0, 4824.0, 4826.0, 4800.0, 4796.0, 4826.0, 4804.0, 4802.0, 4800.0, 4798.0, 4800.0, 4800.0, 4800.0, 4800.0, 4800.0, 4798.0, 4798.0, 4798.0, 4798.0, 4800.0, 4800.0, 4822.0, 4800.0, 4798.0, 4800.0, 4824.0, 4798.0, 4800.0, 4800.0, 4820.0, 4802.0, 4826.0, 4834.0, 4828.0, 4824.0, 4826.0, 4824.0, 4802.0, 4802.0, 4822.0, 4802.0, 4822.0, 4826.0, 4824.0, 4826.0, 4798.0, 4800.0, 4798.0, 4800.0, 4802.0, 4826.0, 4804.0, 4822.0, 4798.0, 4796.0, 4826.0, 4798.0, 4800.0, 4800.0, 4824.0, 4824.0, 4800.0, 4798.0, 4802.0, 4824.0, 4800.0, 4822.0, 4824.0, 4826.0, 4798.0, 4802.0, 4826.0, 4802.0, 4828.0, 4830.0, 4830.0, 4828.0, 4824.0, 4824.0, 4802.0, 4798.0, 4798.0, 4800.0, 4804.0, 4828.0, 4826.0, 4802.0, 4826.0, 4826.0, 4804.0, 4800.0, 4826.0, 4802.0, 4802.0, 4828.0, 4830.0, 4822.0, 4822.0, 4826.0, 4826.0, 4822.0, 4822.0, 4802.0, 4802.0, 4824.0, 4802.0, 4806.0, 4800.0, 4794.0, 4804.0, 4826.0, 4828.0, 4830.0, 4828.0, 4826.0, 4830.0, 4830.0, 4826.0, 4802.0, 4800.0, 4804.0, 4828.0, 4828.0, 4828.0, 4800.0, 4800.0, 4802.0, 4798.0, 4800.0, 4802.0, 4828.0, 4832.0, 4830.0, 4828.0, 4802.0, 4796.0, 4798.0],
      "WindowWidth": [18564.0, 18568.0, 18570.0, 18564.0, 18578.0, 18564.0, 18566.0, 18564.0, 18566.0, 18568.0, 18560.0, 18564.0, 18564.0, 18564.0, 18568.0, 18566.0, 18564.0, 18564.0, 18564.0, 18560.0, 18562.0, 18564.0, 18566.0, 18564.0, 18556.0, 18562.0, 18566.0, 18562.0, 18554.0, 18596.0, 18586.0, 18558.0, 18566.0, 18564.0, 18566.0, 18590.0, 18558.0, 18588.0, 18592.0, 18562.0, 18560.0, 18564.0, 18564.0, 18568.0, 18568.0, 18562.0, 18592.0, 18556.0, 18562.0, 18562.0, 18566.0, 18564.0, 18560.0, 18562.0, 18568.0, 18566.0, 18564.0, 18596.0, 18590.0, 18588.0, 18560.0, 18562.0, 18568.0, 18560.0, 18564.0, 18566.0, 18564.0, 18594.0, 18566.0, 18566.0, 18568.0, 18594.0, 18558.0, 18584.0, 18584.0, 18550.0, 18590.0, 18594.0, 18566.0, 18568.0, 18572.0, 18568.0, 18568.0, 18562.0, 18564.0, 18560.0, 18560.0, 18566.0, 18566.0, 18568.0, 18574.0, 18564.0, 18566.0, 18568.0, 18562.0, 18564.0, 18572.0, 18560.0, 18566.0, 18562.0, 18598.0, 18568.0, 18568.0, 18568.0, 18566.0, 18570.0, 18566.0, 18562.0, 18562.0, 18568.0, 18560.0, 18566.0, 18560.0, 18594.0, 18564.0, 18564.0, 18564.0, 18570.0, 18566.0, 18562.0, 18568.0, 18568.0, 18562.0, 18564.0, 18562.0, 18562.0, 18598.0, 18568.0, 18564.0, 18588.0, 18564.0, 18600.0, 18590.0, 18596.0, 18562.0, 18594.0, 18590.0, 18556.0, 18560.0, 18564.0, 18568.0, 18566.0, 18570.0, 18562.0, 18564.0, 18586.0, 18592.0, 18556.0, 18554.0, 18560.0, 18594.0, 18592.0, 18562.0, 18564.0, 18570.0, 18598.0, 18564.0, 18584.0, 18586.0, 18556.0, 18566.0, 18568.0, 18576.0, 18568.0, 18596.0, 18566.0, 18596.0, 18592.0, 18600.0, 18590.0, 18586.0, 18588.0, 18598.0, 18568.0, 18572.0, 18598.0, 18564.0, 18566.0, 18564.0, 18560.0, 18564.0, 18562.0, 18566.0, 18566.0, 18568.0, 18566.0, 18564.0, 18566.0, 18564.0, 18566.0, 18566.0, 18594.0, 18566.0, 18564.0, 18562.0, 18598.0, 18564.0, 18568.0, 18570.0, 18590.0, 18564.0, 18592.0, 18582.0, 18594.0, 18590.0, 18594.0, 18596.0, 18572.0, 18564.0, 18590.0, 18562.0, 18588.0, 18594.0, 18586.0, 18588.0, 18558.0, 18556.0, 18564.0, 18564.0, 18560.0, 18592.0, 18566.0, 18594.0, 18566.0, 18562.0, 18596.0, 18560.0, 18564.0, 18566.0, 18590.0, 18592.0, 18564.0, 18564.0, 18562.0, 18594.0, 18562.0, 18592.0, 18594.0, 18594.0, 18566.0, 18564.0, 18594.0, 18562.0, 18594.0, 18590.0, 18592.0, 18586.0, 18592.0, 18598.0, 18566.0, 18564.0, 18568.0, 18564.0, 18564.0, 18594.0, 18590.0, 18556.0, 18586.0, 18592.0, 18566.0, 18566.0, 18592.0, 18560.0, 18566.0, 18592.0, 18604.0, 18594.0, 18584.0, 18590.0, 18594.0, 18598.0, 18598.0, 18562.0, 18570.0, 18600.0, 18558.0, 18562.0, 18562.0, 18556.0, 18560.0, 18592.0, 18592.0, 18586.0, 18586.0, 18576.0, 18586.0, 18584.0, 18584.0, 18562.0, 18566.0, 18566.0, 18584.0, 18590.0, 18584.0, 18558.0, 18564.0, 18568.0, 18568.0, 18566.0, 18570.0, 18592.0, 18586.0, 18590.0, 18592.0, 18562.0, 18562.0, 18568.0]
    },
    "slices": {}
  }
}