{
  "AcquisitionMatrixPE": 104,
  "AcquisitionNumber": 1,
  "AcquisitionTime": "13:44:17.685000",
  "BandwidthPerPixelPhaseEncode": 17.17,
  "BaseResolution": 104,
  "BodyPartExamined": "BRAIN",
  "CoilCombinationMethod": "Sum of Squares",
  "ConsistencyInfo": "N4_VE11C_LATEST_20160120",
  "ConversionSoftware": "dcm2niix",
  "ConversionSoftwareVersion": "v1.0.20220505",
  "DerivedVendorReportedEchoSpacing": 0.000560011,
  "DeviceSerialNumber": "167006",
  "DwellTime": 2.1e-06,
  "EchoTime": 0.037,
  "EchoTime1": 0.037,
  "EchoTime2": 0.001,
  "EchoTrainLength": 104,
  "EffectiveEchoSpacing": 0.000560011,
  "FlipAngle": 52,
  "HeudiconvVersion": "0.5.3.post811+g6206e14",
  "ImageComments": "Unaliased MB4/PE3/LB",
  "ImageOrientationPatientDICOM": [0.999852, 0.0129256, 0.0113272, -0.00959816, 0.966669, -0.255848],
  "ImageOrientationText": "Tra>Cor(-14.8)>Sag(0.8)",
  "ImageType": [
    "ORIGINAL",
    "PRIMARY",
    "P",
    "MB",
    "ND",
    "MOSAIC",
    "PHASE"
],
  "ImagingFrequency": 123.26,
  "InPlanePhaseEncodingDirectionDICOM": "COL",
  "InstitutionAddress": "Chemin Queen-Mary 4565,Montreal,District,CA,H3W 1W5",
  "InstitutionName": "IUGM",
  "InstitutionalDepartmentName": "Department",
  "MRAcquisitionType": "2D",
  "MagneticFieldStrength": 3,
  "Manufacturer": "Siemens",
  "ManufacturersModelName": "Prisma_fit",
  "MatrixCoilMode": "SENSE",
  "Modality": "MR",
  "MultibandAccelerationFactor": 4,
  "PartialFourier": 1,
  "PatientPosition": "HFS",
  "PercentPhaseFOV": 100,
  "PercentSampling": 100,
  "PhaseEncodingDirection": "j",
  "PhaseEncodingSteps": 104,
  "PhaseResolution": 1,
  "PixelBandwidth": 2290,
  "ProcedureStepDescription": "games^mario3",
  "ProtocolName": "func_task-mario3_run-01",
  "PulseSequenceDetails": "%CustomerSeq%\\cmrr_mbep2d_bold",
  "ReceiveCoilActiveElements": "HC1-7;NC1,2",
  "ReceiveCoilName": "HeadNeck_64",
  "ReconMatrixPE": 104,
  "RepetitionTime": 1.49,
  "SAR": 0.0566017,
  "ScanOptions": "FS",
  "ScanningSequence": "EP",
  "SequenceName": "epfid2d1_104",
  "SequenceVariant": "SK\\SS",
  "SeriesDescription": "func_task-mario3_run-01",
  "SeriesNumber": 11,
  "ShimSetting": [622, -7223, -8803, 712, 68, 4, 34, 0],
  "SliceThickness": 2,
  "SliceTiming": [0, 0.785, 0.0975, 0.8825, 0.195, 0.98, 0.295, 1.0775, 0.3925, 1.175, 0.49, 1.275, 0.5875, 1.3725, 0.685, 0, 0.785, 0.0975, 0.8825, 0.195, 0.98, 0.295, 1.0775, 0.3925, 1.175, 0.49, 1.275, 0.5875, 1.3725, 0.685, 0, 0.785, 0.0975, 0.8825, 0.195, 0.98, 0.295, 1.0775, 0.3925, 1.175, 0.49, 1.275, 0.5875, 1.3725, 0.685, 0, 0.785, 0.0975, 0.8825, 0.195, 0.98, 0.295, 1.0775, 0.3925, 1.175, 0.49, 1.275, 0.5875, 1.3725, 0.685],
  "SoftwareVersions": "syngo MR E11",
  "SpacingBetweenSlices": 2,
  "StationName": "MRC35049",
  "TaskName": "mario3",
  "TotalReadoutTime": 0.0576811,
  "TxRefAmp": 229.874,
  "WipMemBlock": "c5dd3396-d62e-4133-b0a9-2aac2cc87622||Sequence: R017 ve11c/master r/75a17815+; Jun 28 2022 16:32:11 by eja",
  "dcmmeta_affine": [
    [-1.9997045993804932, -0.01919631101191044, 0.028513208031654358, 108.95744323730469],
    [-0.02585117518901825, 1.9333387613296509, -0.5114030241966248, -73.26385498046875],
    [0.022654319182038307, 0.5116961002349854, 1.9333012104034424, -67.04470825195312],
    [0.0, 0.0, 0.0, 1.0]
],
  "dcmmeta_reorient_transform": [
    [0.0, -1.0, 0.0, 103.0],
    [1.0, 0.0, 0.0, 0.0],
    [0.0, 0.0, 1.0, 0.0],
    [0.0, 0.0, 0.0, 1.0]
],
  "dcmmeta_shape": [104, 104, 60, 309],
  "dcmmeta_slice_dim": 2,
  "dcmmeta_version": 0.6,
  "global": {
    "const": {
      "AcquisitionMatrix": [104, 0, 0, 104],
      "AngioFlag": "N",
      "BitsAllocated": 16,
      "BitsStored": 16,
      "BodyPartExamined": "BRAIN",
      "Columns": 832,
      "EchoNumbers": 1,
      "EchoTime": 37.0,
      "EchoTrainLength": 104,
      "FlipAngle": 52.0,
      "HighBit": 15,
      "ImageOrientationPatient": [0.9998523014126, 0.01292558749325, 0.01132715974511, -0.0095981554396, 0.96666936233583, -0.255848039534],
      "ImagePositionPatient": [-827.88524007602, -839.01515905492, 163.67118460645],
      "ImageType": [
        "ORIGINAL",
        "PRIMARY",
        "P",
        "MB",
        "ND",
        "MOSAIC"
],
      "ImagedNucleus": "1H",
      "ImagingFrequency": 123.260481,
      "InPlanePhaseEncodingDirection": "COL",
      "LargestImagePixelValue": 4095,
      "MRAcquisitionType": "2D",
      "MagneticFieldStrength": 3.0,
      "Manufacturer": "SIEMENS",
      "ManufacturerModelName": "Prisma_fit",
      "Modality": "MR",
      "NumberOfAverages": 1.0,
      "NumberOfPhaseEncodingSteps": 104,
      "PercentPhaseFieldOfView": 100.0,
      "PercentSampling": 100.0,
      "PerformedProcedureStepStartTime": "134057.758000",
      "PhotometricInterpretation": "MONOCHROME2",
      "PixelBandwidth": 2290.0,
      "PixelRepresentation": 0,
      "PixelSpacing": [2.0, 2.0],
      "ProtocolName": "func_task-mario3_run-01",
      "RepetitionTime": 1490.0,
      "RescaleIntercept": -4096.0,
      "RescaleSlope": 2.0,
      "RescaleType": "US",
      "Rows": 832,
      "SAR": 0.05660172302442,
      "SamplesPerPixel": 1,
      "ScanOptions": "FS",
      "ScanningSequence": "EP",
      "SequenceName": "epfid2d1_104",
      "SequenceVariant": [
        "SK",
        "SS"
],
      "SeriesDescription": "func_task-mario3_run-01",
      "SeriesNumber": 11,
      "SeriesTime": "134528.140000",
      "SliceLocation": -44.521771778806,
      "SliceThickness": 2.0,
      "SmallestImagePixelValue": 0,
      "SoftwareVersions": "syngo MR E11",
      "SpacingBetweenSlices": 1.9999999509724,
      "SpecificCharacterSet": "ISO_IR 100",
      "StudyID": "1",
      "StudyTime": "134057.669000",
      "TransmitCoilName": "Body",
      "VariableFlipAngleFlag": "N",
      "WindowCenterWidthExplanation": "Algo1",
      "dBdt": 0.0},
    "slices": {}
  },
  "time": {
    "samples": {
      "AcquisitionNumber": [1, 2, 3, 4, 5, 6, 7, 8, 9, 10, 11, 12, 13, 14, 15, 16, 17, 18, 19, 20, 21, 22, 23, 24, 25, 26, 27, 28, 29, 30, 31, 32, 33, 34, 35, 36, 37, 38, 39, 40, 41, 42, 43, 44, 45, 46, 47, 48, 49, 50, 51, 52, 53, 54, 55, 56, 57, 58, 59, 60, 61, 62, 63, 64, 65, 66, 67, 68, 69, 70, 71, 72, 73, 74, 75, 76, 77, 78, 79, 80, 81, 82, 83, 84, 85, 86, 87, 88, 89, 90, 91, 92, 93, 94, 95, 96, 97, 98, 99, 100, 101, 102, 103, 104, 105, 106, 107, 108, 109, 110, 111, 112, 113, 114, 115, 116, 117, 118, 119, 120, 121, 122, 123, 124, 125, 126, 127, 128, 129, 130, 131, 132, 133, 134, 135, 136, 137, 138, 139, 140, 141, 142, 143, 144, 145, 146, 147, 148, 149, 150, 151, 152, 153, 154, 155, 156, 157, 158, 159, 160, 161, 162, 163, 164, 165, 166, 167, 168, 169, 170, 171, 172, 173, 174, 175, 176, 177, 178, 179, 180, 181, 182, 183, 184, 185, 186, 187, 188, 189, 190, 191, 192, 193, 194, 195, 196, 197, 198, 199, 200, 201, 202, 203, 204, 205, 206, 207, 208, 209, 210, 211, 212, 213, 214, 215, 216, 217, 218, 219, 220, 221, 222, 223, 224, 225, 226, 227, 228, 229, 230, 231, 232, 233, 234, 235, 236, 237, 238, 239, 240, 241, 242, 243, 244, 245, 246, 247, 248, 249, 250, 251, 252, 253, 254, 255, 256, 257, 258, 259, 260, 261, 262, 263, 264, 265, 266, 267, 268, 269, 270, 271, 272, 273, 274, 275, 276, 277, 278, 279, 280, 281, 282, 283, 284, 285, 286, 287, 288, 289, 290, 291, 292, 293, 294, 295, 296, 297, 298, 299, 300, 301, 302, 303, 304, 305, 306, 307, 308, 309],
      "AcquisitionTime": ["134417.685000", "134419.175000", "134420.665000", "134422.155000", "134423.645000", "134425.135000", "134426.625000", "134428.115000", "134429.605000", "134431.095000", "134432.585000", "134434.075000", "134435.565000", "134437.055000", "134438.545000", "134440.035000", "134441.525000", "134443.015000", "134444.505000", "134445.995000", "134447.485000", "134448.975000", "134450.465000", "134451.955000", "134453.445000", "134454.935000", "134456.425000", "134457.915000", "134459.405000", "134500.895000", "134502.385000", "134503.875000", "134505.365000", "134506.855000", "134508.345000", "134509.835000", "134511.325000", "134512.815000", "134514.305000", "134515.795000", "134517.285000", "134518.775000", "134520.265000", "134521.755000", "134523.245000", "134524.735000", "134526.225000", "134527.715000", "134529.205000", "134530.695000", "134532.185000", "134533.675000", "134535.165000", "134536.655000", "134538.145000", "134539.635000", "134541.125000", "134542.615000", "134544.105000", "134545.595000", "134547.085000", "134548.575000", "134550.065000", "134551.555000", "134553.045000", "134554.535000", "134556.025000", "134557.515000", "134559.005000", "134600.495000", "134601.985000", "134603.475000", "134604.965000", "134606.455000", "134607.945000", "134609.435000", "134610.925000", "134612.415000", "134613.905000", "134615.395000", "134616.885000", "134618.375000", "134619.865000", "134621.355000", "134622.845000", "134624.335000", "134625.825000", "134627.315000", "134628.805000", "134630.295000", "134631.785000", "134633.275000", "134634.765000", "134636.255000", "134637.745000", "134639.235000", "134640.725000", "134642.215000", "134643.705000", "134645.195000", "134646.685000", "134648.175000", "134649.665000", "134651.155000", "134652.645000", "134654.135000", "134655.625000", "134657.115000", "134658.605000", "134700.095000", "134701.585000", "134703.075000", "134704.565000", "134706.055000", "134707.545000", "134709.035000", "134710.525000", "134712.015000", "134713.505000", "134714.995000", "134716.485000", "134717.975000", "134719.465000", "134720.955000", "134722.445000", "134723.935000", "134725.425000", "134726.915000", "134728.405000", "134729.895000", "134731.385000", "134732.875000", "134734.365000", "134735.855000", "134737.345000", "134738.835000", "134740.325000", "134741.815000", "134743.305000", "134744.795000", "134746.285000", "134747.775000", "134749.265000", "134750.755000", "134752.245000", "134753.735000", "134755.225000", "134756.715000", "134758.205000", "134759.695000", "134801.185000", "134802.675000", "134804.165000", "134805.655000", "134807.145000", "134808.635000", "134810.125000", "134811.615000", "134813.105000", "134814.595000", "134816.085000", "134817.575000", "134819.065000", "134820.555000", "134822.045000", "134823.535000", "134825.025000", "134826.515000", "134828.005000", "134829.495000", "134830.985000", "134832.475000", "134833.965000", "134835.455000", "134836.945000", "134838.435000", "134839.925000", "134841.415000", "134842.905000", "134844.395000", "134845.885000", "134847.375000", "134848.865000", "134850.355000", "134851.845000", "134853.335000", "134854.825000", "134856.315000", "134857.805000", "134859.295000", "134900.785000", "134902.275000", "134903.765000", "134905.255000", "134906.745000", "134908.235000", "134909.725000", "134911.215000", "134912.705000", "134914.195000", "134915.685000", "134917.175000", "134918.665000", "134920.155000", "134921.645000", "134923.135000", "134924.625000", "134926.115000", "134927.605000", "134929.095000", "134930.585000", "134932.075000", "134933.565000", "134935.055000", "134936.545000", "134938.035000", "134939.525000", "134941.015000", "134942.505000", "134943.995000", "134945.485000", "134946.975000", "134948.465000", "134949.955000", "134951.445000", "134952.935000", "134954.425000", "134955.915000", "134957.405000", "134958.895000", "135000.385000", "135001.875000", "135003.365000", "135004.855000", "135006.345000", "135007.835000", "135009.325000", "135010.815000", "135012.305000", "135013.795000", "135015.285000", "135016.775000", "135018.265000", "135019.755000", "135021.245000", "135022.735000", "135024.225000", "135025.715000", "135027.205000", "135028.695000", "135030.185000", "135031.675000", "135033.165000", "135034.655000", "135036.145000", "135037.635000", "135039.125000", "135040.615000", "135042.105000", "135043.595000", "135045.085000", "135046.575000", "135048.065000", "135049.555000", "135051.045000", "135052.535000", "135054.025000", "135055.515000", "135057.005000", "135058.495000", "135059.985000", "135101.475000", "135102.965000", "135104.455000", "135105.945000", "135107.435000", "135108.925000", "135110.415000", "135111.905000", "135113.395000", "135114.885000", "135116.375000", "135117.865000", "135119.355000", "135120.845000", "135122.335000", "135123.825000", "135125.315000", "135126.805000", "135128.295000", "135129.785000", "135131.275000", "135132.765000", "135134.255000", "135135.745000", "135137.235000", "135138.725000", "135140.215000", "135141.705000", "135143.195000", "135144.685000", "135146.175000", "135147.665000", "135149.155000", "135150.645000", "135152.135000", "135153.625000", "135155.115000", "135156.605000"],
      "ContentTime": ["134528.142000", "134528.145000", "134528.147000", "134528.150000", "134528.152000", "134528.155000", "134528.157000", "134528.164000", "134528.166000", "134528.169000", "134528.171000", "134528.174000", "134528.176000", "134528.179000", "134528.181000", "134528.184000", "134528.186000", "134528.189000", "134528.191000", "134528.194000", "134528.196000", "134548.117000", "134548.120000", "134548.122000", "134548.125000", "134548.127000", "134548.130000", "134548.132000", "134548.135000", "134548.137000", "134548.140000", "134548.142000", "134548.144000", "134548.147000", "134548.149000", "134548.152000", "134548.155000", "134548.157000", "134548.160000", "134548.162000", "134548.172000", "134548.175000", "134608.082000", "134608.085000", "134608.087000", "134608.090000", "134608.092000", "134608.095000", "134608.097000", "134608.100000", "134608.102000", "134608.104000", "134608.107000", "134608.109000", "134608.112000", "134608.114000", "134608.117000", "134608.119000", "134608.122000", "134608.124000", "134608.127000", "134608.129000", "134628.086000", "134628.089000", "134628.092000", "134628.094000", "134628.097000", "134628.099000", "134628.102000", "134628.104000", "134628.107000", "134628.109000", "134628.112000", "134628.114000", "134628.117000", "134628.120000", "134628.122000", "134628.125000", "134628.127000", "134628.130000", "134628.132000", "134628.135000", "134708.159000", "134708.162000", "134708.165000", "134708.167000", "134708.170000", "134708.172000", "134708.182000", "134708.185000", "134708.187000", "134708.190000", "134708.192000", "134708.195000", "134708.197000", "134708.200000", "134708.203000", "134708.205000", "134708.208000", "134708.211000", "134708.214000", "134708.216000", "134708.219000", "134708.221000", "134708.224000", "134708.226000", "134708.229000", "134708.232000", "134708.234000", "134708.237000", "134708.239000", "134708.242000", "134708.244000", "134748.126000", "134748.129000", "134748.132000", "134748.135000", "134748.137000", "134748.140000", "134748.142000", "134748.145000", "134748.147000", "134748.150000", "134748.152000", "134748.155000", "134748.157000", "134748.160000", "134748.162000", "134748.165000", "134748.167000", "134748.170000", "134748.172000", "134748.175000", "134748.178000", "134748.180000", "134748.182000", "134748.185000", "134748.188000", "134748.190000", "134748.193000", "134828.111000", "134828.114000", "134828.117000", "134828.119000", "134828.122000", "134828.125000", "134828.127000", "134828.130000", "134828.132000", "134828.135000", "134828.137000", "134828.148000", "134828.150000", "134828.153000", "134828.155000", "134828.158000", "134828.160000", "134828.163000", "134828.165000", "134828.168000", "134828.170000", "134828.173000", "134828.175000", "134828.178000", "134828.180000", "134828.183000", "134828.185000", "134908.137000", "134908.140000", "134908.143000", "134908.146000", "134908.148000", "134908.151000", "134908.154000", "134908.161000", "134908.164000", "134908.166000", "134908.169000", "134908.171000", "134908.174000", "134908.176000", "134908.179000", "134908.181000", "134908.184000", "134908.186000", "134908.189000", "134908.191000", "134908.194000", "134908.196000", "134908.199000", "134908.201000", "134908.204000", "134908.206000", "134908.209000", "134948.111000", "134948.113000", "134948.116000", "134948.119000", "134948.121000", "134948.123000", "134948.126000", "134948.129000", "134948.131000", "134948.134000", "134948.142000", "134948.144000", "134948.147000", "134948.149000", "134948.152000", "134948.154000", "134948.157000", "134948.159000", "134948.162000", "134948.164000", "134948.167000", "134948.169000", "134948.172000", "134948.174000", "134948.177000", "134948.179000", "134948.182000", "135028.101000", "135028.104000", "135028.107000", "135028.110000", "135028.112000", "135028.130000", "135028.133000", "135028.135000", "135028.138000", "135028.140000", "135028.143000", "135028.145000", "135028.148000", "135028.150000", "135028.153000", "135028.155000", "135028.158000", "135028.160000", "135028.163000", "135028.166000", "135028.168000", "135028.171000", "135028.173000", "135028.176000", "135028.178000", "135028.181000", "135108.144000", "135108.147000", "135108.150000", "135108.152000", "135108.156000", "135108.158000", "135108.161000", "135108.163000", "135108.166000", "135108.168000", "135108.171000", "135108.173000", "135108.176000", "135108.179000", "135108.181000", "135108.184000", "135108.202000", "135108.205000", "135108.207000", "135108.210000", "135108.212000", "135108.215000", "135108.218000", "135108.220000", "135108.223000", "135108.225000", "135108.228000", "135148.110000", "135148.113000", "135148.116000", "135148.118000", "135148.121000", "135148.123000", "135148.126000", "135148.136000", "135148.139000", "135148.141000", "135148.144000", "135148.146000", "135148.149000", "135148.151000", "135148.154000", "135148.156000", "135148.159000", "135148.161000", "135148.164000", "135148.166000", "135148.169000", "135148.171000", "135148.174000", "135148.177000", "135148.179000", "135148.182000", "135148.184000", "135200.005000", "135200.008000", "135200.011000", "135200.013000", "135200.016000", "135200.018000", "135200.021000", "135200.024000"],
      "InstanceCreationTime": ["134528.142000", "134528.145000", "134528.147000", "134528.150000", "134528.152000", "134528.155000", "134528.157000", "134528.164000", "134528.166000", "134528.169000", "134528.171000", "134528.174000", "134528.176000", "134528.179000", "134528.181000", "134528.184000", "134528.186000", "134528.189000", "134528.191000", "134528.194000", "134528.196000", "134548.117000", "134548.120000", "134548.122000", "134548.125000", "134548.127000", "134548.130000", "134548.132000", "134548.135000", "134548.137000", "134548.140000", "134548.142000", "134548.144000", "134548.147000", "134548.149000", "134548.152000", "134548.155000", "134548.157000", "134548.160000", "134548.162000", "134548.172000", "134548.175000", "134608.082000", "134608.085000", "134608.087000", "134608.090000", "134608.092000", "134608.095000", "134608.097000", "134608.100000", "134608.102000", "134608.104000", "134608.107000", "134608.109000", "134608.112000", "134608.114000", "134608.117000", "134608.119000", "134608.122000", "134608.124000", "134608.127000", "134608.129000", "134628.086000", "134628.089000", "134628.092000", "134628.094000", "134628.097000", "134628.099000", "134628.102000", "134628.104000", "134628.107000", "134628.109000", "134628.112000", "134628.114000", "134628.117000", "134628.120000", "134628.122000", "134628.125000", "134628.127000", "134628.130000", "134628.132000", "134628.135000", "134708.159000", "134708.162000", "134708.165000", "134708.167000", "134708.170000", "134708.172000", "134708.182000", "134708.185000", "134708.187000", "134708.190000", "134708.192000", "134708.195000", "134708.197000", "134708.200000", "134708.203000", "134708.205000", "134708.208000", "134708.211000", "134708.214000", "134708.216000", "134708.219000", "134708.221000", "134708.224000", "134708.226000", "134708.229000", "134708.232000", "134708.234000", "134708.237000", "134708.239000", "134708.242000", "134708.244000", "134748.126000", "134748.129000", "134748.132000", "134748.135000", "134748.137000", "134748.140000", "134748.142000", "134748.145000", "134748.147000", "134748.150000", "134748.152000", "134748.155000", "134748.157000", "134748.160000", "134748.162000", "134748.165000", "134748.167000", "134748.170000", "134748.172000", "134748.175000", "134748.178000", "134748.180000", "134748.182000", "134748.185000", "134748.188000", "134748.190000", "134748.193000", "134828.111000", "134828.114000", "134828.117000", "134828.119000", "134828.122000", "134828.125000", "134828.127000", "134828.130000", "134828.132000", "134828.135000", "134828.137000", "134828.148000", "134828.150000", "134828.153000", "134828.155000", "134828.158000", "134828.160000", "134828.163000", "134828.165000", "134828.168000", "134828.170000", "134828.173000", "134828.175000", "134828.178000", "134828.180000", "134828.183000", "134828.185000", "134908.137000", "134908.140000", "134908.143000", "134908.146000", "134908.148000", "134908.151000", "134908.154000", "134908.161000", "134908.164000", "134908.166000", "134908.169000", "134908.171000", "134908.174000", "134908.176000", "134908.179000", "134908.181000", "134908.184000", "134908.186000", "134908.189000", "134908.191000", "134908.194000", "134908.196000", "134908.199000", "134908.201000", "134908.204000", "134908.206000", "134908.209000", "134948.111000", "134948.113000", "134948.116000", "134948.119000", "134948.121000", "134948.123000", "134948.126000", "134948.129000", "134948.131000", "134948.134000", "134948.142000", "134948.144000", "134948.147000", "134948.149000", "134948.152000", "134948.154000", "134948.157000", "134948.159000", "134948.162000", "134948.164000", "134948.167000", "134948.169000", "134948.172000", "134948.174000", "134948.177000", "134948.179000", "134948.182000", "135028.101000", "135028.104000", "135028.107000", "135028.110000", "135028.112000", "135028.130000", "135028.133000", "135028.135000", "135028.138000", "135028.140000", "135028.143000", "135028.145000", "135028.148000", "135028.150000", "135028.153000", "135028.155000", "135028.158000", "135028.160000", "135028.163000", "135028.166000", "135028.168000", "135028.171000", "135028.173000", "135028.176000", "135028.178000", "135028.181000", "135108.144000", "135108.147000", "135108.150000", "135108.152000", "135108.156000", "135108.158000", "135108.161000", "135108.163000", "135108.166000", "135108.168000", "135108.171000", "135108.173000", "135108.176000", "135108.179000", "135108.181000", "135108.184000", "135108.202000", "135108.205000", "135108.207000", "135108.210000", "135108.212000", "135108.215000", "135108.218000", "135108.220000", "135108.223000", "135108.225000", "135108.228000", "135148.110000", "135148.113000", "135148.116000", "135148.118000", "135148.121000", "135148.123000", "135148.126000", "135148.136000", "135148.139000", "135148.141000", "135148.144000", "135148.146000", "135148.149000", "135148.151000", "135148.154000", "135148.156000", "135148.159000", "135148.161000", "135148.164000", "135148.166000", "135148.169000", "135148.171000", "135148.174000", "135148.177000", "135148.179000", "135148.182000", "135148.184000", "135200.005000", "135200.008000", "135200.011000", "135200.013000", "135200.016000", "135200.018000", "135200.021000", "135200.024000"],
      "InstanceNumber": [1, 2, 3, 4, 5, 6, 7, 8, 9, 10, 11, 12, 13, 14, 15, 16, 17, 18, 19, 20, 21, 22, 23, 24, 25, 26, 27, 28, 29, 30, 31, 32, 33, 34, 35, 36, 37, 38, 39, 40, 41, 42, 43, 44, 45, 46, 47, 48, 49, 50, 51, 52, 53, 54, 55, 56, 57, 58, 59, 60, 61, 62, 63, 64, 65, 66, 67, 68, 69, 70, 71, 72, 73, 74, 75, 76, 77, 78, 79, 80, 81, 82, 83, 84, 85, 86, 87, 88, 89, 90, 91, 92, 93, 94, 95, 96, 97, 98, 99, 100, 101, 102, 103, 104, 105, 106, 107, 108, 109, 110, 111, 112, 113, 114, 115, 116, 117, 118, 119, 120, 121, 122, 123, 124, 125, 126, 127, 128, 129, 130, 131, 132, 133, 134, 135, 136, 137, 138, 139, 140, 141, 142, 143, 144, 145, 146, 147, 148, 149, 150, 151, 152, 153, 154, 155, 156, 157, 158, 159, 160, 161, 162, 163, 164, 165, 166, 167, 168, 169, 170, 171, 172, 173, 174, 175, 176, 177, 178, 179, 180, 181, 182, 183, 184, 185, 186, 187, 188, 189, 190, 191, 192, 193, 194, 195, 196, 197, 198, 199, 200, 201, 202, 203, 204, 205, 206, 207, 208, 209, 210, 211, 212, 213, 214, 215, 216, 217, 218, 219, 220, 221, 222, 223, 224, 225, 226, 227, 228, 229, 230, 231, 232, 233, 234, 235, 236, 237, 238, 239, 240, 241, 242, 243, 244, 245, 246, 247, 248, 249, 250, 251, 252, 253, 254, 255, 256, 257, 258, 259, 260, 261, 262, 263, 264, 265, 266, 267, 268, 269, 270, 271, 272, 273, 274, 275, 276, 277, 278, 279, 280, 281, 282, 283, 284, 285, 286, 287, 288, 289, 290, 291, 292, 293, 294, 295, 296, 297, 298, 299, 300, 301, 302, 303, 304, 305, 306, 307, 308, 309],
      "WindowCenter": [4766.0, 4766.0, 4764.0, 4770.0, 4766.0, 4768.0, 4768.0, 4766.0, 4764.0, 4764.0, 4768.0, 4768.0, 4764.0, 4766.0, 4768.0, 4768.0, 4764.0, 4762.0, 4764.0, 4766.0, 4766.0, 4764.0, 4770.0, 4764.0, 4768.0, 4770.0, 4768.0, 4768.0, 4766.0, 4772.0, 4772.0, 4772.0, 4768.0, 4766.0, 4766.0, 4794.0, 4768.0, 4764.0, 4762.0, 4770.0, 4770.0, 4766.0, 4770.0, 4768.0, 4768.0, 4772.0, 4772.0, 4774.0, 4770.0, 4770.0, 4776.0, 4766.0, 4770.0, 4768.0, 4770.0, 4772.0, 4770.0, 4770.0, 4776.0, 4766.0, 4768.0, 4766.0, 4766.0, 4770.0, 4770.0, 4770.0, 4772.0, 4776.0, 4772.0, 4768.0, 4770.0, 4764.0, 4768.0, 4770.0, 4772.0, 4770.0, 4770.0, 4772.0, 4796.0, 4774.0, 4774.0, 4774.0, 4764.0, 4764.0, 4770.0, 4772.0, 4772.0, 4766.0, 4766.0, 4774.0, 4800.0, 4798.0, 4772.0, 4796.0, 4772.0, 4772.0, 4770.0, 4774.0, 4774.0, 4778.0, 4798.0, 4778.0, 4774.0, 4768.0, 4772.0, 4768.0, 4774.0, 4772.0, 4796.0, 4772.0, 4796.0, 4774.0, 4772.0, 4772.0, 4774.0, 4800.0, 4772.0, 4772.0, 4774.0, 4770.0, 4772.0, 4796.0, 4794.0, 4794.0, 4798.0, 4796.0, 4798.0, 4796.0, 4794.0, 4794.0, 4772.0, 4772.0, 4796.0, 4774.0, 4796.0, 4796.0, 4800.0, 4798.0, 4800.0, 4798.0, 4774.0, 4772.0, 4776.0, 4774.0, 4800.0, 4802.0, 4798.0, 4776.0, 4774.0, 4798.0, 4772.0, 4798.0, 4768.0, 4770.0, 4766.0, 4766.0, 4770.0, 4794.0, 4772.0, 4768.0, 4798.0, 4772.0, 4796.0, 4800.0, 4772.0, 4766.0, 4766.0, 4762.0, 4772.0, 4772.0, 4772.0, 4798.0, 4772.0, 4770.0, 4774.0, 4774.0, 4770.0, 4772.0, 4772.0, 4774.0, 4764.0, 4766.0, 4768.0, 4772.0, 4772.0, 4774.0, 4802.0, 4800.0, 4774.0, 4770.0, 4770.0, 4772.0, 4772.0, 4772.0, 4770.0, 4772.0, 4772.0, 4772.0, 4794.0, 4794.0, 4772.0, 4800.0, 4796.0, 4794.0, 4772.0, 4776.0, 4800.0, 4796.0, 4802.0, 4804.0, 4804.0, 4800.0, 4798.0, 4796.0, 4798.0, 4794.0, 4798.0, 4798.0, 4794.0, 4792.0, 4768.0, 4766.0, 4788.0, 4794.0, 4794.0, 4798.0, 4798.0, 4802.0, 4798.0, 4796.0, 4772.0, 4772.0, 4796.0, 4794.0, 4798.0, 4796.0, 4798.0, 4794.0, 4798.0, 4798.0, 4800.0, 4794.0, 4794.0, 4794.0, 4794.0, 4800.0, 4774.0, 4768.0, 4768.0, 4772.0, 4794.0, 4796.0, 4798.0, 4798.0, 4796.0, 4796.0, 4800.0, 4800.0, 4798.0, 4794.0, 4796.0, 4794.0, 4800.0, 4800.0, 4796.0, 4796.0, 4796.0, 4798.0, 4802.0, 4798.0, 4794.0, 4796.0, 4792.0, 4768.0, 4796.0, 4796.0, 4802.0, 4802.0, 4800.0, 4800.0, 4798.0, 4796.0, 4796.0, 4796.0, 4800.0, 4798.0, 4796.0, 4798.0, 4798.0, 4796.0, 4798.0, 4800.0, 4798.0, 4794.0, 4798.0, 4770.0, 4792.0, 4768.0, 4800.0, 4796.0, 4796.0, 4796.0, 4772.0, 4796.0, 4800.0, 4800.0, 4798.0, 4792.0, 4796.0],
      "WindowWidth": [18528.0, 18536.0, 18530.0, 18532.0, 18530.0, 18532.0, 18530.0, 18528.0, 18524.0, 18530.0, 18524.0, 18526.0, 18522.0, 18530.0, 18522.0, 18524.0, 18526.0, 18526.0, 18524.0, 18524.0, 18528.0, 18522.0, 18528.0, 18524.0, 18526.0, 18528.0, 18532.0, 18530.0, 18524.0, 18522.0, 18528.0, 18524.0, 18522.0, 18530.0, 18528.0, 18560.0, 18526.0, 18530.0, 18530.0, 18532.0, 18532.0, 18530.0, 18528.0, 18530.0, 18530.0, 18526.0, 18536.0, 18532.0, 18532.0, 18528.0, 18534.0, 18524.0, 18528.0, 18532.0, 18532.0, 18526.0, 18530.0, 18530.0, 18528.0, 18530.0, 18534.0, 18526.0, 18526.0, 18528.0, 18522.0, 18528.0, 18524.0, 18530.0, 18526.0, 18528.0, 18528.0, 18528.0, 18522.0, 18528.0, 18528.0, 18520.0, 18528.0, 18526.0, 18554.0, 18524.0, 18526.0, 18528.0, 18528.0, 18528.0, 18536.0, 18524.0, 18526.0, 18528.0, 18528.0, 18530.0, 18554.0, 18558.0, 18524.0, 18552.0, 18528.0, 18532.0, 18524.0, 18528.0, 18530.0, 18526.0, 18548.0, 18522.0, 18528.0, 18534.0, 18540.0, 18532.0, 18528.0, 18530.0, 18560.0, 18530.0, 18560.0, 18522.0, 18528.0, 18522.0, 18532.0, 18562.0, 18522.0, 18526.0, 18526.0, 18528.0, 18530.0, 18552.0, 18552.0, 18562.0, 18556.0, 18556.0, 18554.0, 18558.0, 18552.0, 18560.0, 18528.0, 18526.0, 18554.0, 18528.0, 18560.0, 18552.0, 18554.0, 18558.0, 18558.0, 18560.0, 18524.0, 18528.0, 18528.0, 18532.0, 18556.0, 18558.0, 18556.0, 18524.0, 18530.0, 18558.0, 18532.0, 18552.0, 18522.0, 18530.0, 18530.0, 18530.0, 18526.0, 18558.0, 18526.0, 18528.0, 18558.0, 18526.0, 18552.0, 18556.0, 18528.0, 18522.0, 18528.0, 18524.0, 18530.0, 18530.0, 18532.0, 18560.0, 18528.0, 18526.0, 18528.0, 18526.0, 18520.0, 18522.0, 18524.0, 18526.0, 18528.0, 18528.0, 18528.0, 18526.0, 18528.0, 18526.0, 18556.0, 18552.0, 18524.0, 18528.0, 18524.0, 18530.0, 18536.0, 18526.0, 18524.0, 18526.0, 18534.0, 18520.0, 18552.0, 18552.0, 18524.0, 18558.0, 18554.0, 18568.0, 18534.0, 18528.0, 18554.0, 18554.0, 18554.0, 18556.0, 18558.0, 18554.0, 18556.0, 18554.0, 18560.0, 18558.0, 18562.0, 18554.0, 18558.0, 18560.0, 18536.0, 18538.0, 18562.0, 18560.0, 18560.0, 18562.0, 18566.0, 18558.0, 18556.0, 18558.0, 18524.0, 18530.0, 18560.0, 18558.0, 18558.0, 18558.0, 18556.0, 18562.0, 18558.0, 18558.0, 18558.0, 18564.0, 18562.0, 18562.0, 18560.0, 18550.0, 18522.0, 18528.0, 18530.0, 18536.0, 18560.0, 18556.0, 18562.0, 18560.0, 18560.0, 18560.0, 18566.0, 18562.0, 18564.0, 18556.0, 18564.0, 18550.0, 18558.0, 18560.0, 18558.0, 18558.0, 18560.0, 18562.0, 18558.0, 18560.0, 18562.0, 18564.0, 18560.0, 18536.0, 18562.0, 18556.0, 18556.0, 18562.0, 18556.0, 18562.0, 18562.0, 18558.0, 18566.0, 18556.0, 18556.0, 18558.0, 18562.0, 18564.0, 18556.0, 18558.0, 18556.0, 18554.0, 18564.0, 18556.0, 18558.0, 18528.0, 18560.0, 18532.0, 18558.0, 18562.0, 18560.0, 18558.0, 18528.0, 18558.0, 18562.0, 18558.0, 18560.0, 18552.0, 18564.0]
    },
    "slices": {}
  }
}