{
  "AcquisitionMatrixPE": 104,
  "AcquisitionNumber": 1,
  "AcquisitionTime": "14:14:28.522500",
  "BandwidthPerPixelPhaseEncode": 17.17,
  "BaseResolution": 104,
  "BodyPartExamined": "BRAIN",
  "CoilCombinationMethod": "Sum of Squares",
  "ConsistencyInfo": "N4_VE11C_LATEST_20160120",
  "ConversionSoftware": "dcm2niix",
  "ConversionSoftwareVersion": "v1.0.20220505",
  "DerivedVendorReportedEchoSpacing": 0.000560011,
  "DeviceSerialNumber": "167006",
  "DwellTime": 2.1e-06,
  "EchoTime": 0.037,
  "EchoTrainLength": 104,
  "EffectiveEchoSpacing": 0.000560011,
  "FlipAngle": 52,
  "HeudiconvVersion": "0.5.3.post811+g6206e14",
  "ImageComments": "Unaliased MB4/PE3/LB",
  "ImageOrientationPatientDICOM": [0.999852, 0.0129256, 0.0113272, -0.00959816, 0.966669, -0.255848],
  "ImageOrientationText": "Tra>Cor(-14.8)>Sag(0.8)",
  "ImageType": [
    "ORIGINAL",
    "PRIMARY",
    "M",
    "MB",
    "ND",
    "MOSAIC"
],
  "ImagingFrequency": 123.26,
  "InPlanePhaseEncodingDirectionDICOM": "COL",
  "InstitutionAddress": "Chemin Queen-Mary 4565,Montreal,District,CA,H3W 1W5",
  "InstitutionName": "IUGM",
  "InstitutionalDepartmentName": "Department",
  "MRAcquisitionType": "2D",
  "MagneticFieldStrength": 3,
  "Manufacturer": "Siemens",
  "ManufacturersModelName": "Prisma_fit",
  "MatrixCoilMode": "SENSE",
  "Modality": "MR",
  "MultibandAccelerationFactor": 4,
  "PartialFourier": 1,
  "PatientPosition": "HFS",
  "PercentPhaseFOV": 100,
  "PercentSampling": 100,
  "PhaseEncodingDirection": "j",
  "PhaseEncodingSteps": 104,
  "PhaseResolution": 1,
  "PixelBandwidth": 2290,
  "ProcedureStepDescription": "games^mario3",
  "ProtocolName": "func_task-mario3_run-04",
  "PulseSequenceDetails": "%CustomerSeq%\\cmrr_mbep2d_bold",
  "ReceiveCoilActiveElements": "HC1-7;NC1,2",
  "ReceiveCoilName": "HeadNeck_64",
  "ReconMatrixPE": 104,
  "RepetitionTime": 1.49,
  "SAR": 0.0566017,
  "ScanOptions": "FS",
  "ScanningSequence": "EP",
  "SequenceName": "epfid2d1_104",
  "SequenceVariant": "SK\\SS",
  "SeriesDescription": "func_task-mario3_run-04",
  "SeriesNumber": 19,
  "ShimSetting": [622, -7223, -8803, 712, 68, 4, 34, 0],
  "SliceThickness": 2,
  "SliceTiming": [0, 0.7825, 0.0975, 0.8825, 0.195, 0.98, 0.2925, 1.0775, 0.3925, 1.175, 0.49, 1.2725, 0.5875, 1.3725, 0.685, 0, 0.7825, 0.0975, 0.8825, 0.195, 0.98, 0.2925, 1.0775, 0.3925, 1.175, 0.49, 1.2725, 0.5875, 1.3725, 0.685, 0, 0.7825, 0.0975, 0.8825, 0.195, 0.98, 0.2925, 1.0775, 0.3925, 1.175, 0.49, 1.2725, 0.5875, 1.3725, 0.685, 0, 0.7825, 0.0975, 0.8825, 0.195, 0.98, 0.2925, 1.0775, 0.3925, 1.175, 0.49, 1.2725, 0.5875, 1.3725, 0.685],
  "SoftwareVersions": "syngo MR E11",
  "SpacingBetweenSlices": 2,
  "StationName": "MRC35049",
  "TaskName": "mario3",
  "TotalReadoutTime": 0.0576811,
  "TxRefAmp": 229.874,
  "WipMemBlock": "68880c4d-a29b-42a3-925d-33a0704464d6||Sequence: R017 ve11c/master r/75a17815+; Jun 28 2022 16:32:11 by eja",
  "dcmmeta_affine": [
    [-1.9997045993804932, -0.01919631101191044, 0.028513208031654358, 108.95744323730469],
    [-0.02585117518901825, 1.9333387613296509, -0.5114030241966248, -73.26385498046875],
    [0.022654319182038307, 0.5116961002349854, 1.9333012104034424, -67.04470825195312],
    [0.0, 0.0, 0.0, 1.0]
],
  "dcmmeta_reorient_transform": [
    [0.0, -1.0, 0.0, 103.0],
    [1.0, 0.0, 0.0, 0.0],
    [0.0, 0.0, 1.0, 0.0],
    [0.0, 0.0, 0.0, 1.0]
],
  "dcmmeta_shape": [104, 104, 60, 307],
  "dcmmeta_slice_dim": 2,
  "dcmmeta_version": 0.6,
  "global": {
    "const": {
      "AcquisitionMatrix": [104, 0, 0, 104],
      "AngioFlag": "N",
      "BitsAllocated": 16,
      "BitsStored": 16,
      "BodyPartExamined": "BRAIN",
      "Columns": 832,
      "EchoNumbers": 1,
      "EchoTime": 37.0,
      "EchoTrainLength": 104,
      "FlipAngle": 52.0,
      "HighBit": 15,
      "ImageOrientationPatient": [0.9998523014126, 0.01292558749325, 0.01132715974511, -0.0095981554396, 0.96666936233583, -0.255848039534],
      "ImagePositionPatient": [-827.88524007602, -839.01515905492, 163.67118460645],
      "ImageType": [
        "ORIGINAL",
        "PRIMARY",
        "M",
        "MB",
        "ND",
        "MOSAIC"
],
      "ImagedNucleus": "1H",
      "ImagingFrequency": 123.26049,
      "InPlanePhaseEncodingDirection": "COL",
      "MRAcquisitionType": "2D",
      "MagneticFieldStrength": 3.0,
      "Manufacturer": "SIEMENS",
      "ManufacturerModelName": "Prisma_fit",
      "Modality": "MR",
      "NumberOfAverages": 1.0,
      "NumberOfPhaseEncodingSteps": 104,
      "PercentPhaseFieldOfView": 100.0,
      "PercentSampling": 100.0,
      "PerformedProcedureStepStartTime": "134057.758000",
      "PhotometricInterpretation": "MONOCHROME2",
      "PixelBandwidth": 2290.0,
      "PixelRepresentation": 0,
      "PixelSpacing": [2.0, 2.0],
      "ProtocolName": "func_task-mario3_run-04",
      "RepetitionTime": 1490.0,
      "Rows": 832,
      "SAR": 0.05660172302442,
      "SamplesPerPixel": 1,
      "ScanOptions": "FS",
      "ScanningSequence": "EP",
      "SequenceName": "epfid2d1_104",
      "SequenceVariant": [
        "SK",
        "SS"
],
      "SeriesDescription": "func_task-mario3_run-04",
      "SeriesNumber": 19,
      "SeriesTime": "141548.013000",
      "SliceLocation": -44.521771778806,
      "SliceThickness": 2.0,
      "SmallestImagePixelValue": 0,
      "SoftwareVersions": "syngo MR E11",
      "SpacingBetweenSlices": 1.9999999509724,
      "SpecificCharacterSet": "ISO_IR 100",
      "StudyID": "1",
      "StudyTime": "134057.669000",
      "TransmitCoilName": "Body",
      "VariableFlipAngleFlag": "N",
      "WindowCenterWidthExplanation": "Algo1",
      "dBdt": 0.0},
    "slices": {}
  },
  "time": {
    "samples": {
      "AcquisitionNumber": [1, 2, 3, 4, 5, 6, 7, 8, 9, 10, 11, 12, 13, 14, 15, 16, 17, 18, 19, 20, 21, 22, 23, 24, 25, 26, 27, 28, 29, 30, 31, 32, 33, 34, 35, 36, 37, 38, 39, 40, 41, 42, 43, 44, 45, 46, 47, 48, 49, 50, 51, 52, 53, 54, 55, 56, 57, 58, 59, 60, 61, 62, 63, 64, 65, 66, 67, 68, 69, 70, 71, 72, 73, 74, 75, 76, 77, 78, 79, 80, 81, 82, 83, 84, 85, 86, 87, 88, 89, 90, 91, 92, 93, 94, 95, 96, 97, 98, 99, 100, 101, 102, 103, 104, 105, 106, 107, 108, 109, 110, 111, 112, 113, 114, 115, 116, 117, 118, 119, 120, 121, 122, 123, 124, 125, 126, 127, 128, 129, 130, 131, 132, 133, 134, 135, 136, 137, 138, 139, 140, 141, 142, 143, 144, 145, 146, 147, 148, 149, 150, 151, 152, 153, 154, 155, 156, 157, 158, 159, 160, 161, 162, 163, 164, 165, 166, 167, 168, 169, 170, 171, 172, 173, 174, 175, 176, 177, 178, 179, 180, 181, 182, 183, 184, 185, 186, 187, 188, 189, 190, 191, 192, 193, 194, 195, 196, 197, 198, 199, 200, 201, 202, 203, 204, 205, 206, 207, 208, 209, 210, 211, 212, 213, 214, 215, 216, 217, 218, 219, 220, 221, 222, 223, 224, 225, 226, 227, 228, 229, 230, 231, 232, 233, 234, 235, 236, 237, 238, 239, 240, 241, 242, 243, 244, 245, 246, 247, 248, 249, 250, 251, 252, 253, 254, 255, 256, 257, 258, 259, 260, 261, 262, 263, 264, 265, 266, 267, 268, 269, 270, 271, 272, 273, 274, 275, 276, 277, 278, 279, 280, 281, 282, 283, 284, 285, 286, 287, 288, 289, 290, 291, 292, 293, 294, 295, 296, 297, 298, 299, 300, 301, 302, 303, 304, 305, 306, 307],
      "AcquisitionTime": ["141428.522500", "141430.012500", "141431.502500", "141432.992500", "141434.482500", "141435.972500", "141437.462500", "141438.952500", "141440.442500", "141441.932500", "141443.422500", "141444.912500", "141446.402500", "141447.892500", "141449.382500", "141450.872500", "141452.362500", "141453.852500", "141455.342500", "141456.832500", "141458.322500", "141459.812500", "141501.302500", "141502.792500", "141504.282500", "141505.772500", "141507.262500", "141508.752500", "141510.242500", "141511.732500", "141513.222500", "141514.712500", "141516.202500", "141517.692500", "141519.182500", "141520.672500", "141522.162500", "141523.652500", "141525.142500", "141526.632500", "141528.122500", "141529.612500", "141531.102500", "141532.592500", "141534.082500", "141535.572500", "141537.062500", "141538.552500", "141540.042500", "141541.532500", "141543.022500", "141544.512500", "141546.002500", "141547.492500", "141548.982500", "141550.472500", "141551.962500", "141553.452500", "141554.942500", "141556.432500", "141557.922500", "141559.412500", "141600.902500", "141602.392500", "141603.882500", "141605.372500", "141606.862500", "141608.352500", "141609.842500", "141611.332500", "141612.822500", "141614.312500", "141615.802500", "141617.292500", "141618.782500", "141620.272500", "141621.762500", "141623.252500", "141624.742500", "141626.232500", "141627.722500", "141629.212500", "141630.702500", "141632.192500", "141633.682500", "141635.172500", "141636.662500", "141638.152500", "141639.642500", "141641.132500", "141642.622500", "141644.112500", "141645.602500", "141647.092500", "141648.582500", "141650.072500", "141651.562500", "141653.052500", "141654.542500", "141656.032500", "141657.522500", "141659.012500", "141700.502500", "141701.992500", "141703.482500", "141704.972500", "141706.462500", "141707.952500", "141709.442500", "141710.932500", "141712.422500", "141713.912500", "141715.402500", "141716.892500", "141718.382500", "141719.872500", "141721.362500", "141722.852500", "141724.342500", "141725.832500", "141727.322500", "141728.812500", "141730.302500", "141731.792500", "141733.282500", "141734.772500", "141736.262500", "141737.752500", "141739.242500", "141740.732500", "141742.222500", "141743.712500", "141745.202500", "141746.692500", "141748.182500", "141749.672500", "141751.162500", "141752.652500", "141754.142500", "141755.632500", "141757.122500", "141758.612500", "141800.102500", "141801.592500", "141803.082500", "141804.572500", "141806.062500", "141807.552500", "141809.042500", "141810.532500", "141812.022500", "141813.512500", "141815.002500", "141816.492500", "141817.982500", "141819.472500", "141820.962500", "141822.452500", "141823.942500", "141825.432500", "141826.922500", "141828.412500", "141829.902500", "141831.392500", "141832.882500", "141834.372500", "141835.862500", "141837.352500", "141838.842500", "141840.332500", "141841.822500", "141843.312500", "141844.802500", "141846.292500", "141847.782500", "141849.272500", "141850.762500", "141852.252500", "141853.742500", "141855.232500", "141856.722500", "141858.212500", "141859.702500", "141901.192500", "141902.682500", "141904.172500", "141905.662500", "141907.152500", "141908.642500", "141910.132500", "141911.622500", "141913.112500", "141914.602500", "141916.092500", "141917.582500", "141919.072500", "141920.562500", "141922.052500", "141923.542500", "141925.032500", "141926.522500", "141928.012500", "141929.502500", "141930.992500", "141932.482500", "141933.972500", "141935.462500", "141936.952500", "141938.442500", "141939.932500", "141941.422500", "141942.912500", "141944.402500", "141945.892500", "141947.382500", "141948.872500", "141950.362500", "141951.852500", "141953.342500", "141954.832500", "141956.322500", "141957.812500", "141959.302500", "142000.792500", "142002.282500", "142003.772500", "142005.262500", "142006.752500", "142008.242500", "142009.732500", "142011.222500", "142012.712500", "142014.202500", "142015.692500", "142017.182500", "142018.672500", "142020.162500", "142021.652500", "142023.142500", "142024.632500", "142026.122500", "142027.612500", "142029.102500", "142030.592500", "142032.082500", "142033.572500", "142035.062500", "142036.552500", "142038.042500", "142039.532500", "142041.022500", "142042.512500", "142044.002500", "142045.492500", "142046.982500", "142048.472500", "142049.962500", "142051.452500", "142052.942500", "142054.432500", "142055.922500", "142057.412500", "142058.902500", "142100.392500", "142101.882500", "142103.372500", "142104.862500", "142106.352500", "142107.842500", "142109.332500", "142110.822500", "142112.312500", "142113.802500", "142115.292500", "142116.782500", "142118.272500", "142119.762500", "142121.252500", "142122.742500", "142124.232500", "142125.722500", "142127.212500", "142128.702500", "142130.192500", "142131.682500", "142133.172500", "142134.662500", "142136.152500", "142137.642500", "142139.132500", "142140.622500", "142142.112500", "142143.602500", "142145.092500", "142146.582500", "142148.072500", "142149.562500", "142151.052500", "142152.542500", "142154.032500", "142155.522500", "142157.012500", "142158.502500", "142159.992500", "142201.482500", "142202.972500", "142204.462500"],
      "ContentTime": ["141548.016000", "141548.020000", "141548.023000", "141548.027000", "141548.030000", "141548.033000", "141548.037000", "141548.040000", "141548.043000", "141548.047000", "141548.050000", "141548.053000", "141548.057000", "141548.060000", "141548.064000", "141548.067000", "141548.070000", "141548.074000", "141548.077000", "141548.080000", "141548.084000", "141548.087000", "141548.090000", "141548.094000", "141548.097000", "141548.100000", "141548.104000", "141548.107000", "141548.120000", "141548.123000", "141548.127000", "141548.130000", "141607.972000", "141607.976000", "141607.979000", "141607.982000", "141607.986000", "141607.989000", "141607.992000", "141607.996000", "141608.000000", "141608.010000", "141608.013000", "141608.017000", "141608.020000", "141608.023000", "141608.027000", "141608.045000", "141608.048000", "141608.051000", "141608.055000", "141608.058000", "141627.972000", "141627.981000", "141627.984000", "141627.988000", "141627.991000", "141627.995000", "141627.998000", "141628.003000", "141628.006000", "141628.009000", "141628.013000", "141628.016000", "141628.019000", "141628.023000", "141628.026000", "141628.029000", "141628.033000", "141628.036000", "141628.039000", "141628.043000", "141647.973000", "141647.977000", "141647.980000", "141647.984000", "141647.987000", "141647.990000", "141647.994000", "141647.997000", "141648.001000", "141648.005000", "141648.008000", "141648.012000", "141648.015000", "141648.018000", "141648.022000", "141648.025000", "141648.029000", "141648.032000", "141648.035000", "141648.039000", "141727.972000", "141727.976000", "141727.979000", "141727.982000", "141727.986000", "141727.989000", "141727.992000", "141727.996000", "141727.999000", "141728.003000", "141728.006000", "141728.009000", "141728.012000", "141728.016000", "141728.019000", "141728.023000", "141728.026000", "141728.029000", "141728.033000", "141728.036000", "141728.039000", "141728.043000", "141728.046000", "141728.050000", "141728.053000", "141728.056000", "141728.059000", "141728.071000", "141807.972000", "141807.976000", "141807.979000", "141807.982000", "141807.986000", "141807.989000", "141807.993000", "141807.996000", "141807.999000", "141808.002000", "141808.006000", "141808.009000", "141808.018000", "141808.022000", "141808.025000", "141808.028000", "141808.032000", "141808.035000", "141808.038000", "141808.042000", "141808.045000", "141808.049000", "141808.052000", "141808.055000", "141808.059000", "141808.062000", "141808.065000", "141847.972000", "141847.976000", "141847.979000", "141847.983000", "141847.986000", "141847.989000", "141848.014000", "141848.024000", "141848.027000", "141848.031000", "141848.034000", "141848.037000", "141848.041000", "141848.044000", "141848.048000", "141848.051000", "141848.055000", "141848.058000", "141848.061000", "141848.074000", "141848.078000", "141848.081000", "141848.085000", "141848.088000", "141848.091000", "141848.095000", "141927.973000", "141927.977000", "141927.980000", "141927.984000", "141927.987000", "141927.990000", "141927.994000", "141927.997000", "141928.002000", "141928.005000", "141928.008000", "141928.012000", "141928.015000", "141928.018000", "141928.022000", "141928.025000", "141928.028000", "141928.032000", "141928.035000", "141928.038000", "141928.042000", "141928.045000", "141928.048000", "141928.052000", "141928.055000", "141928.058000", "141928.062000", "142007.972000", "142007.976000", "142007.979000", "142007.983000", "142007.986000", "142007.989000", "142007.993000", "142007.996000", "142007.999000", "142008.003000", "142008.006000", "142008.009000", "142008.013000", "142008.016000", "142008.020000", "142008.023000", "142008.027000", "142008.030000", "142008.033000", "142008.037000", "142008.040000", "142008.043000", "142008.047000", "142008.050000", "142008.053000", "142008.057000", "142008.060000", "142047.972000", "142047.976000", "142047.989000", "142048.004000", "142048.007000", "142048.011000", "142048.014000", "142048.017000", "142048.021000", "142048.024000", "142048.027000", "142048.031000", "142048.034000", "142048.038000", "142048.041000", "142048.045000", "142048.048000", "142048.051000", "142048.055000", "142048.058000", "142048.061000", "142048.081000", "142048.084000", "142048.088000", "142048.091000", "142048.094000", "142048.097000", "142127.973000", "142127.977000", "142127.980000", "142127.984000", "142127.987000", "142127.990000", "142127.994000", "142127.997000", "142128.001000", "142128.005000", "142128.008000", "142128.012000", "142128.015000", "142128.018000", "142128.022000", "142128.025000", "142128.034000", "142128.037000", "142128.041000", "142128.044000", "142128.047000", "142128.051000", "142128.054000", "142128.057000", "142128.061000", "142128.064000", "142128.067000", "142207.297000", "142207.301000", "142207.304000", "142207.307000", "142207.311000", "142207.314000", "142207.317000", "142207.321000", "142207.324000", "142207.327000", "142207.331000", "142207.334000", "142207.337000", "142207.341000", "142207.344000", "142207.347000", "142207.351000", "142207.354000", "142207.357000", "142207.361000", "142207.364000", "142207.367000", "142207.371000", "142207.374000", "142207.377000", "142207.381000"],
      "InstanceCreationTime": ["141548.016000", "141548.020000", "141548.023000", "141548.027000", "141548.030000", "141548.033000", "141548.037000", "141548.040000", "141548.043000", "141548.047000", "141548.050000", "141548.053000", "141548.057000", "141548.060000", "141548.064000", "141548.067000", "141548.070000", "141548.074000", "141548.077000", "141548.080000", "141548.084000", "141548.087000", "141548.090000", "141548.094000", "141548.097000", "141548.100000", "141548.104000", "141548.107000", "141548.120000", "141548.123000", "141548.127000", "141548.130000", "141607.972000", "141607.976000", "141607.979000", "141607.982000", "141607.986000", "141607.989000", "141607.992000", "141607.996000", "141608.000000", "141608.010000", "141608.013000", "141608.017000", "141608.020000", "141608.023000", "141608.027000", "141608.045000", "141608.048000", "141608.051000", "141608.055000", "141608.058000", "141627.972000", "141627.981000", "141627.984000", "141627.988000", "141627.991000", "141627.995000", "141627.998000", "141628.003000", "141628.006000", "141628.009000", "141628.013000", "141628.016000", "141628.019000", "141628.023000", "141628.026000", "141628.029000", "141628.033000", "141628.036000", "141628.039000", "141628.043000", "141647.973000", "141647.977000", "141647.980000", "141647.984000", "141647.987000", "141647.990000", "141647.994000", "141647.997000", "141648.001000", "141648.005000", "141648.008000", "141648.012000", "141648.015000", "141648.018000", "141648.022000", "141648.025000", "141648.029000", "141648.032000", "141648.035000", "141648.039000", "141727.972000", "141727.976000", "141727.979000", "141727.982000", "141727.986000", "141727.989000", "141727.992000", "141727.996000", "141727.999000", "141728.003000", "141728.006000", "141728.009000", "141728.012000", "141728.016000", "141728.019000", "141728.023000", "141728.026000", "141728.029000", "141728.033000", "141728.036000", "141728.039000", "141728.043000", "141728.046000", "141728.050000", "141728.053000", "141728.056000", "141728.059000", "141728.071000", "141807.972000", "141807.976000", "141807.979000", "141807.982000", "141807.986000", "141807.989000", "141807.993000", "141807.996000", "141807.999000", "141808.002000", "141808.006000", "141808.009000", "141808.018000", "141808.022000", "141808.025000", "141808.028000", "141808.032000", "141808.035000", "141808.038000", "141808.042000", "141808.045000", "141808.049000", "141808.052000", "141808.055000", "141808.059000", "141808.062000", "141808.065000", "141847.972000", "141847.976000", "141847.979000", "141847.983000", "141847.986000", "141847.989000", "141848.014000", "141848.024000", "141848.027000", "141848.031000", "141848.034000", "141848.037000", "141848.041000", "141848.044000", "141848.048000", "141848.051000", "141848.055000", "141848.058000", "141848.061000", "141848.074000", "141848.078000", "141848.081000", "141848.085000", "141848.088000", "141848.091000", "141848.095000", "141927.973000", "141927.977000", "141927.980000", "141927.984000", "141927.987000", "141927.990000", "141927.994000", "141927.997000", "141928.002000", "141928.005000", "141928.008000", "141928.012000", "141928.015000", "141928.018000", "141928.022000", "141928.025000", "141928.028000", "141928.032000", "141928.035000", "141928.038000", "141928.042000", "141928.045000", "141928.048000", "141928.052000", "141928.055000", "141928.058000", "141928.062000", "142007.972000", "142007.976000", "142007.979000", "142007.983000", "142007.986000", "142007.989000", "142007.993000", "142007.996000", "142007.999000", "142008.003000", "142008.006000", "142008.009000", "142008.013000", "142008.016000", "142008.020000", "142008.023000", "142008.027000", "142008.030000", "142008.033000", "142008.037000", "142008.040000", "142008.043000", "142008.047000", "142008.050000", "142008.053000", "142008.057000", "142008.060000", "142047.972000", "142047.976000", "142047.989000", "142048.004000", "142048.007000", "142048.011000", "142048.014000", "142048.017000", "142048.021000", "142048.024000", "142048.027000", "142048.031000", "142048.034000", "142048.038000", "142048.041000", "142048.045000", "142048.048000", "142048.051000", "142048.055000", "142048.058000", "142048.061000", "142048.081000", "142048.084000", "142048.088000", "142048.091000", "142048.094000", "142048.097000", "142127.973000", "142127.977000", "142127.980000", "142127.984000", "142127.987000", "142127.990000", "142127.994000", "142127.997000", "142128.001000", "142128.005000", "142128.008000", "142128.012000", "142128.015000", "142128.018000", "142128.022000", "142128.025000", "142128.034000", "142128.037000", "142128.041000", "142128.044000", "142128.047000", "142128.051000", "142128.054000", "142128.057000", "142128.061000", "142128.064000", "142128.067000", "142207.297000", "142207.301000", "142207.304000", "142207.307000", "142207.311000", "142207.314000", "142207.317000", "142207.321000", "142207.324000", "142207.327000", "142207.331000", "142207.334000", "142207.337000", "142207.341000", "142207.344000", "142207.347000", "142207.351000", "142207.354000", "142207.357000", "142207.361000", "142207.364000", "142207.367000", "142207.371000", "142207.374000", "142207.377000", "142207.381000"],
      "InstanceNumber": [1, 2, 3, 4, 5, 6, 7, 8, 9, 10, 11, 12, 13, 14, 15, 16, 17, 18, 19, 20, 21, 22, 23, 24, 25, 26, 27, 28, 29, 30, 31, 32, 33, 34, 35, 36, 37, 38, 39, 40, 41, 42, 43, 44, 45, 46, 47, 48, 49, 50, 51, 52, 53, 54, 55, 56, 57, 58, 59, 60, 61, 62, 63, 64, 65, 66, 67, 68, 69, 70, 71, 72, 73, 74, 75, 76, 77, 78, 79, 80, 81, 82, 83, 84, 85, 86, 87, 88, 89, 90, 91, 92, 93, 94, 95, 96, 97, 98, 99, 100, 101, 102, 103, 104, 105, 106, 107, 108, 109, 110, 111, 112, 113, 114, 115, 116, 117, 118, 119, 120, 121, 122, 123, 124, 125, 126, 127, 128, 129, 130, 131, 132, 133, 134, 135, 136, 137, 138, 139, 140, 141, 142, 143, 144, 145, 146, 147, 148, 149, 150, 151, 152, 153, 154, 155, 156, 157, 158, 159, 160, 161, 162, 163, 164, 165, 166, 167, 168, 169, 170, 171, 172, 173, 174, 175, 176, 177, 178, 179, 180, 181, 182, 183, 184, 185, 186, 187, 188, 189, 190, 191, 192, 193, 194, 195, 196, 197, 198, 199, 200, 201, 202, 203, 204, 205, 206, 207, 208, 209, 210, 211, 212, 213, 214, 215, 216, 217, 218, 219, 220, 221, 222, 223, 224, 225, 226, 227, 228, 229, 230, 231, 232, 233, 234, 235, 236, 237, 238, 239, 240, 241, 242, 243, 244, 245, 246, 247, 248, 249, 250, 251, 252, 253, 254, 255, 256, 257, 258, 259, 260, 261, 262, 263, 264, 265, 266, 267, 268, 269, 270, 271, 272, 273, 274, 275, 276, 277, 278, 279, 280, 281, 282, 283, 284, 285, 286, 287, 288, 289, 290, 291, 292, 293, 294, 295, 296, 297, 298, 299, 300, 301, 302, 303, 304, 305, 306, 307],
      "LargestImagePixelValue": [42059, 40622, 40843, 39633, 39539, 38874, 39504, 40642, 39460, 39526, 39725, 39384, 38847, 38970, 39918, 39701, 39303, 39718, 39897, 39612, 39271, 39203, 38949, 38889, 41459, 40553, 39262, 39811, 38900, 38830, 38252, 38374, 39159, 38471, 39879, 39941, 39227, 40628, 39132, 38322, 38868, 38340, 38574, 38688, 38953, 38844, 38419, 38942, 39076, 38936, 38647, 38451, 38940, 39022, 38613, 38529, 38945, 38509, 38277, 38772, 39234, 38892, 38532, 39057, 38865, 38678, 38404, 38492, 39048, 38747, 38786, 38768, 39315, 38992, 39471, 39372, 39163, 39066, 39657, 39273, 39066, 38528, 40109, 39063, 40186, 39534, 40670, 38866, 39462, 39228, 39360, 38684, 38484, 39108, 39425, 38708, 39181, 38667, 38679, 38497, 38499, 39106, 39346, 39932, 38795, 39567, 38740, 38481, 39125, 38448, 39289, 38965, 38270, 38950, 39347, 38168, 38592, 38591, 38155, 38564, 38337, 38344, 38379, 39001, 38341, 38775, 38513, 38718, 38907, 39870, 39486, 39734, 39577, 39860, 39914, 38343, 40544, 39461, 40082, 39622, 39381, 40114, 39641, 39927, 38736, 40012, 40688, 39689, 39570, 39890, 40269, 39883, 39845, 39236, 39741, 39936, 37463, 40790, 40312, 38661, 38387, 38785, 38834, 38710, 39611, 41008, 39657, 39590, 40037, 40498, 39365, 39028, 39751, 39915, 39312, 40098, 39676, 39940, 39339, 39652, 39565, 39509, 39833, 39832, 39769, 40159, 39590, 40069, 40423, 39385, 39447, 40218, 40023, 40096, 39502, 40085, 40224, 40291, 39692, 39776, 40264, 39337, 39648, 38687, 38781, 38907, 39463, 39787, 38982, 39487, 39451, 40084, 39522, 39568, 39866, 38907, 39310, 39377, 39951, 40001, 40065, 39502, 39653, 39029, 39935, 39680, 39715, 39332, 39846, 39885, 38946, 39061, 39364, 39379, 39200, 38057, 39671, 39519, 39778, 39405, 39603, 39629, 39383, 38584, 39337, 38301, 38181, 38212, 38730, 38947, 40268, 39859, 39499, 39784, 38891, 40027, 39524, 39473, 39398, 39492, 39442, 39451, 38942, 39017, 38600, 38956, 39084, 39162, 39708, 39344, 38756, 38592, 39329, 39473, 39736, 39212, 38947, 39214, 38422, 38762, 38508, 38429, 38252, 38314, 38065, 37959, 38755, 38664, 38579, 38568, 38260, 38513, 39100, 39349, 38618, 39335, 38885, 38959, 39599, 38871, 38376, 39025, 38711, 38513, 37915, 38277, 38578],
      "WindowCenter": [10190.0, 10153.0, 10204.0, 10110.0, 10132.0, 10092.0, 10087.0, 10160.0, 10127.0, 10131.0, 10168.0, 10169.0, 10174.0, 10139.0, 10171.0, 10096.0, 10041.0, 10090.0, 10129.0, 10112.0, 10115.0, 10105.0, 10103.0, 10036.0, 10124.0, 10155.0, 10113.0, 10134.0, 10045.0, 10030.0, 10052.0, 10067.0, 10076.0, 10085.0, 10088.0, 10078.0, 10018.0, 10149.0, 10102.0, 10117.0, 10097.0, 10090.0, 10114.0, 10092.0, 10145.0, 10119.0, 10049.0, 10080.0, 10097.0, 10100.0, 10114.0, 10089.0, 10118.0, 10102.0, 10108.0, 10124.0, 10141.0, 10127.0, 10100.0, 10092.0, 10105.0, 10140.0, 10089.0, 10151.0, 10105.0, 10121.0, 10121.0, 10123.0, 10133.0, 10093.0, 10048.0, 10027.0, 10065.0, 10115.0, 10096.0, 10107.0, 10124.0, 10066.0, 10097.0, 10079.0, 10073.0, 10060.0, 10080.0, 10032.0, 10064.0, 10070.0, 10140.0, 10081.0, 10123.0, 10110.0, 10129.0, 10086.0, 10104.0, 10129.0, 10140.0, 10096.0, 10103.0, 10113.0, 10108.0, 10101.0, 10139.0, 10114.0, 10108.0, 10120.0, 10131.0, 10167.0, 10130.0, 10117.0, 10093.0, 10085.0, 10116.0, 10120.0, 10113.0, 10107.0, 10186.0, 10084.0, 10143.0, 10124.0, 10100.0, 10105.0, 10103.0, 10098.0, 10070.0, 10094.0, 10056.0, 10074.0, 10077.0, 10099.0, 10107.0, 10183.0, 10103.0, 10137.0, 10122.0, 10172.0, 10115.0, 10079.0, 10150.0, 10069.0, 10083.0, 10072.0, 10099.0, 10103.0, 10094.0, 10093.0, 10069.0, 10067.0, 10153.0, 10087.0, 10146.0, 10089.0, 10149.0, 10157.0, 10185.0, 10181.0, 10149.0, 10137.0, 10035.0, 10108.0, 10152.0, 10112.0, 10143.0, 10081.0, 10060.0, 10061.0, 10046.0, 10141.0, 10154.0, 10133.0, 10117.0, 10076.0, 10085.0, 10127.0, 10126.0, 10141.0, 10113.0, 10091.0, 10077.0, 10083.0, 10040.0, 10077.0, 10072.0, 10122.0, 10098.0, 10101.0, 10120.0, 10136.0, 10131.0, 10135.0, 10136.0, 10112.0, 10136.0, 10161.0, 10152.0, 10128.0, 10110.0, 10141.0, 10170.0, 10125.0, 10101.0, 10112.0, 10126.0, 10079.0, 10162.0, 10132.0, 10110.0, 10104.0, 10094.0, 10075.0, 10043.0, 10012.0, 10056.0, 10063.0, 10019.0, 10013.0, 10054.0, 10013.0, 10099.0, 10091.0, 10088.0, 10068.0, 10137.0, 10112.0, 10139.0, 10120.0, 10137.0, 10155.0, 10167.0, 10133.0, 10139.0, 10131.0, 10081.0, 10116.0, 10125.0, 10116.0, 10149.0, 10079.0, 10149.0, 10126.0, 10159.0, 10107.0, 10107.0, 10139.0, 10152.0, 10145.0, 10176.0, 10108.0, 10139.0, 10113.0, 10103.0, 10092.0, 10078.0, 10100.0, 10049.0, 10064.0, 10074.0, 10080.0, 10089.0, 10107.0, 10133.0, 10152.0, 10148.0, 10117.0, 10154.0, 10136.0, 10153.0, 10147.0, 10119.0, 10151.0, 10147.0, 10178.0, 10176.0, 10165.0, 10140.0, 10113.0, 10131.0, 10135.0, 10130.0, 10131.0, 10122.0, 10069.0, 10129.0, 10139.0, 10113.0, 10113.0, 10099.0, 10086.0, 10115.0, 10101.0, 10117.0, 10055.0, 10013.0, 10013.0, 10017.0, 10101.0, 10065.0, 10086.0, 10071.0, 10064.0, 10067.0, 10056.0, 10061.0, 10099.0, 10117.0, 10098.0, 10063.0, 10032.0, 10101.0],
