{
  "AcquisitionMatrixPE": 104,
  "AcquisitionNumber": 1,
  "AcquisitionTime": "13:54:1.625000",
  "BandwidthPerPixelPhaseEncode": 17.17,
  "BaseResolution": 104,
  "BodyPartExamined": "BRAIN",
  "CoilCombinationMethod": "Sum of Squares",
  "ConsistencyInfo": "N4_VE11C_LATEST_20160120",
  "ConversionSoftware": "dcm2niix",
  "ConversionSoftwareVersion": "v1.0.20220505",
  "DerivedVendorReportedEchoSpacing": 0.000560011,
  "DeviceSerialNumber": "167006",
  "DwellTime": 2.1e-06,
  "EchoTime": 0.037,
  "EchoTrainLength": 104,
  "EffectiveEchoSpacing": 0.000560011,
  "FlipAngle": 52,
  "HeudiconvVersion": "0.5.3.post811+g6206e14",
  "ImageComments": "Unaliased MB4/PE3/LB",
  "ImageOrientationPatientDICOM": [0.999852, 0.0129256, 0.0113272, -0.00959816, 0.966669, -0.255848],
  "ImageOrientationText": "Tra>Cor(-14.8)>Sag(0.8)",
  "ImageType": [
    "ORIGINAL",
    "PRIMARY",
    "M",
    "MB",
    "ND",
    "MOSAIC"
],
  "ImagingFrequency": 123.26,
  "InPlanePhaseEncodingDirectionDICOM": "COL",
  "InstitutionAddress": "Chemin Queen-Mary 4565,Montreal,District,CA,H3W 1W5",
  "InstitutionName": "IUGM",
  "InstitutionalDepartmentName": "Department",
  "MRAcquisitionType": "2D",
  "MagneticFieldStrength": 3,
  "Manufacturer": "Siemens",
  "ManufacturersModelName": "Prisma_fit",
  "MatrixCoilMode": "SENSE",
  "Modality": "MR",
  "MultibandAccelerationFactor": 4,
  "PartialFourier": 1,
  "PatientPosition": "HFS",
  "PercentPhaseFOV": 100,
  "PercentSampling": 100,
  "PhaseEncodingDirection": "j",
  "PhaseEncodingSteps": 104,
  "PhaseResolution": 1,
  "PixelBandwidth": 2290,
  "ProcedureStepDescription": "games^mario3",
  "ProtocolName": "func_task-mario3_run-02",
  "PulseSequenceDetails": "%CustomerSeq%\\cmrr_mbep2d_bold",
  "ReceiveCoilActiveElements": "HC1-7;NC1,2",
  "ReceiveCoilName": "HeadNeck_64",
  "ReconMatrixPE": 104,
  "RepetitionTime": 1.49,
  "SAR": 0.0566017,
  "ScanOptions": "FS",
  "ScanningSequence": "EP",
  "SequenceName": "epfid2d1_104",
  "SequenceVariant": "SK\\SS",
  "SeriesDescription": "func_task-mario3_run-02",
  "SeriesNumber": 13,
  "ShimSetting": [622, -7223, -8803, 712, 68, 4, 34, 0],
  "SliceThickness": 2,
  "SliceTiming": [0, 0.785, 0.0975, 0.8825, 0.1975, 0.98, 0.295, 1.0775, 0.3925, 1.175, 0.49, 1.275, 0.5875, 1.3725, 0.685, 0, 0.785, 0.0975, 0.8825, 0.1975, 0.98, 0.295, 1.0775, 0.3925, 1.175, 0.49, 1.275, 0.5875, 1.3725, 0.685, 0, 0.785, 0.0975, 0.8825, 0.1975, 0.98, 0.295, 1.0775, 0.3925, 1.175, 0.49, 1.275, 0.5875, 1.3725, 0.685, 0, 0.785, 0.0975, 0.8825, 0.1975, 0.98, 0.295, 1.0775, 0.3925, 1.175, 0.49, 1.275, 0.5875, 1.3725, 0.685],
  "SoftwareVersions": "syngo MR E11",
  "SpacingBetweenSlices": 2,
  "StationName": "MRC35049",
  "TaskName": "mario3",
  "TotalReadoutTime": 0.0576811,
  "TxRefAmp": 229.874,
  "WipMemBlock": "bbe1e0cc-c26c-43c7-8795-fb5f311ab304||Sequence: R017 ve11c/master r/75a17815+; Jun 28 2022 16:32:11 by eja",
  "dcmmeta_affine": [
    [-1.9997045993804932, -0.01919631101191044, 0.028513208031654358, 108.95744323730469],
    [-0.02585117518901825, 1.9333387613296509, -0.5114030241966248, -73.26385498046875],
    [0.022654319182038307, 0.5116961002349854, 1.9333012104034424, -67.04470825195312],
    [0.0, 0.0, 0.0, 1.0]
],
  "dcmmeta_reorient_transform": [
    [0.0, -1.0, 0.0, 103.0],
    [1.0, 0.0, 0.0, 0.0],
    [0.0, 0.0, 1.0, 0.0],
    [0.0, 0.0, 0.0, 1.0]
],
  "dcmmeta_shape": [104, 104, 60, 300],
  "dcmmeta_slice_dim": 2,
  "dcmmeta_version": 0.6,
  "global": {
    "const": {
      "AcquisitionMatrix": [104, 0, 0, 104],
      "AngioFlag": "N",
      "BitsAllocated": 16,
      "BitsStored": 16,
      "BodyPartExamined": "BRAIN",
      "Columns": 832,
      "EchoNumbers": 1,
      "EchoTime": 37.0,
      "EchoTrainLength": 104,
      "FlipAngle": 52.0,
      "HighBit": 15,
      "ImageOrientationPatient": [0.9998523014126, 0.01292558749325, 0.01132715974511, -0.0095981554396, 0.96666936233583, -0.255848039534],
      "ImagePositionPatient": [-827.88524007602, -839.01515905492, 163.67118460645],
      "ImageType": [
        "ORIGINAL",
        "PRIMARY",
        "M",
        "MB",
        "ND",
        "MOSAIC"
],
      "ImagedNucleus": "1H",
      "ImagingFrequency": 123.260486,
      "InPlanePhaseEncodingDirection": "COL",
      "MRAcquisitionType": "2D",
      "MagneticFieldStrength": 3.0,
      "Manufacturer": "SIEMENS",
      "ManufacturerModelName": "Prisma_fit",
      "Modality": "MR",
      "NumberOfAverages": 1.0,
      "NumberOfPhaseEncodingSteps": 104,
      "PercentPhaseFieldOfView": 100.0,
      "PercentSampling": 100.0,
      "PerformedProcedureStepStartTime": "134057.758000",
      "PhotometricInterpretation": "MONOCHROME2",
      "PixelBandwidth": 2290.0,
      "PixelRepresentation": 0,
      "PixelSpacing": [2.0, 2.0],
      "ProtocolName": "func_task-mario3_run-02",
      "RepetitionTime": 1490.0,
      "Rows": 832,
      "SAR": 0.05660172302442,
      "SamplesPerPixel": 1,
      "ScanOptions": "FS",
      "ScanningSequence": "EP",
      "SequenceName": "epfid2d1_104",
      "SequenceVariant": [
        "SK",
        "SS"
],
      "SeriesDescription": "func_task-mario3_run-02",
      "SeriesNumber": 13,
      "SeriesTime": "135513.822000",
      "SliceLocation": -44.521771778806,
      "SliceThickness": 2.0,
      "SmallestImagePixelValue": 0,
      "SoftwareVersions": "syngo MR E11",
      "SpacingBetweenSlices": 1.9999999509724,
      "SpecificCharacterSet": "ISO_IR 100",
      "StudyID": "1",
      "StudyTime": "134057.669000",
      "TransmitCoilName": "Body",
      "VariableFlipAngleFlag": "N",
      "WindowCenterWidthExplanation": "Algo1",
      "dBdt": 0.0},
    "slices": {}
  },
  "time": {
    "samples": {
      "AcquisitionNumber": [1, 2, 3, 4, 5, 6, 7, 8, 9, 10, 11, 12, 13, 14, 15, 16, 17, 18, 19, 20, 21, 22, 23, 24, 25, 26, 27, 28, 29, 30, 31, 32, 33, 34, 35, 36, 37, 38, 39, 40, 41, 42, 43, 44, 45, 46, 47, 48, 49, 50, 51, 52, 53, 54, 55, 56, 57, 58, 59, 60, 61, 62, 63, 64, 65, 66, 67, 68, 69, 70, 71, 72, 73, 74, 75, 76, 77, 78, 79, 80, 81, 82, 83, 84, 85, 86, 87, 88, 89, 90, 91, 92, 93, 94, 95, 96, 97, 98, 99, 100, 101, 102, 103, 104, 105, 106, 107, 108, 109, 110, 111, 112, 113, 114, 115, 116, 117, 118, 119, 120, 121, 122, 123, 124, 125, 126, 127, 128, 129, 130, 131, 132, 133, 134, 135, 136, 137, 138, 139, 140, 141, 142, 143, 144, 145, 146, 147, 148, 149, 150, 151, 152, 153, 154, 155, 156, 157, 158, 159, 160, 161, 162, 163, 164, 165, 166, 167, 168, 169, 170, 171, 172, 173, 174, 175, 176, 177, 178, 179, 180, 181, 182, 183, 184, 185, 186, 187, 188, 189, 190, 191, 192, 193, 194, 195, 196, 197, 198, 199, 200, 201, 202, 203, 204, 205, 206, 207, 208, 209, 210, 211, 212, 213, 214, 215, 216, 217, 218, 219, 220, 221, 222, 223, 224, 225, 226, 227, 228, 229, 230, 231, 232, 233, 234, 235, 236, 237, 238, 239, 240, 241, 242, 243, 244, 245, 246, 247, 248, 249, 250, 251, 252, 253, 254, 255, 256, 257, 258, 259, 260, 261, 262, 263, 264, 265, 266, 267, 268, 269, 270, 271, 272, 273, 274, 275, 276, 277, 278, 279, 280, 281, 282, 283, 284, 285, 286, 287, 288, 289, 290, 291, 292, 293, 294, 295, 296, 297, 298, 299, 300],
      "AcquisitionTime": ["135401.625000", "135403.115000", "135404.605000", "135406.095000", "135407.585000", "135409.075000", "135410.565000", "135412.055000", "135413.545000", "135415.035000", "135416.525000", "135418.015000", "135419.505000", "135420.995000", "135422.485000", "135423.975000", "135425.465000", "135426.955000", "135428.445000", "135429.935000", "135431.425000", "135432.915000", "135434.405000", "135435.895000", "135437.385000", "135438.875000", "135440.365000", "135441.855000", "135443.345000", "135444.835000", "135446.325000", "135447.815000", "135449.305000", "135450.795000", "135452.285000", "135453.775000", "135455.265000", "135456.755000", "135458.245000", "135459.735000", "135501.225000", "135502.715000", "135504.205000", "135505.695000", "135507.185000", "135508.675000", "135510.165000", "135511.655000", "135513.145000", "135514.635000", "135516.125000", "135517.615000", "135519.105000", "135520.595000", "135522.085000", "135523.575000", "135525.065000", "135526.555000", "135528.045000", "135529.535000", "135531.025000", "135532.515000", "135534.005000", "135535.495000", "135536.985000", "135538.475000", "135539.965000", "135541.455000", "135542.945000", "135544.435000", "135545.925000", "135547.415000", "135548.905000", "135550.395000", "135551.885000", "135553.375000", "135554.865000", "135556.355000", "135557.845000", "135559.335000", "135600.825000", "135602.315000", "135603.805000", "135605.295000", "135606.785000", "135608.275000", "135609.765000", "135611.255000", "135612.745000", "135614.235000", "135615.725000", "135617.215000", "135618.705000", "135620.195000", "135621.685000", "135623.175000", "135624.665000", "135626.155000", "135627.645000", "135629.135000", "135630.625000", "135632.115000", "135633.605000", "135635.095000", "135636.585000", "135638.075000", "135639.565000", "135641.055000", "135642.545000", "135644.035000", "135645.525000", "135647.015000", "135648.505000", "135649.995000", "135651.485000", "135652.975000", "135654.465000", "135655.955000", "135657.445000", "135658.935000", "135700.425000", "135701.915000", "135703.405000", "135704.895000", "135706.385000", "135707.875000", "135709.365000", "135710.855000", "135712.345000", "135713.835000", "135715.325000", "135716.815000", "135718.305000", "135719.795000", "135721.285000", "135722.775000", "135724.265000", "135725.755000", "135727.245000", "135728.735000", "135730.225000", "135731.715000", "135733.205000", "135734.695000", "135736.185000", "135737.675000", "135739.165000", "135740.655000", "135742.145000", "135743.635000", "135745.125000", "135746.615000", "135748.105000", "135749.595000", "135751.085000", "135752.575000", "135754.065000", "135755.555000", "135757.045000", "135758.535000", "135800.025000", "135801.515000", "135803.005000", "135804.495000", "135805.985000", "135807.475000", "135808.965000", "135810.455000", "135811.945000", "135813.435000", "135814.925000", "135816.415000", "135817.905000", "135819.395000", "135820.885000", "135822.375000", "135823.865000", "135825.355000", "135826.845000", "135828.335000", "135829.825000", "135831.315000", "135832.805000", "135834.295000", "135835.785000", "135837.275000", "135838.765000", "135840.255000", "135841.745000", "135843.235000", "135844.725000", "135846.215000", "135847.705000", "135849.195000", "135850.685000", "135852.175000", "135853.665000", "135855.155000", "135856.645000", "135858.135000", "135859.625000", "135901.115000", "135902.605000", "135904.095000", "135905.585000", "135907.075000", "135908.565000", "135910.055000", "135911.545000", "135913.035000", "135914.525000", "135916.015000", "135917.505000", "135918.995000", "135920.485000", "135921.975000", "135923.465000", "135924.955000", "135926.445000", "135927.935000", "135929.425000", "135930.915000", "135932.405000", "135933.895000", "135935.385000", "135936.875000", "135938.365000", "135939.855000", "135941.345000", "135942.835000", "135944.325000", "135945.815000", "135947.305000", "135948.795000", "135950.285000", "135951.775000", "135953.265000", "135954.755000", "135956.245000", "135957.735000", "135959.225000", "140000.715000", "140002.205000", "140003.695000", "140005.185000", "140006.675000", "140008.165000", "140009.655000", "140011.145000", "140012.635000", "140014.125000", "140015.615000", "140017.105000", "140018.595000", "140020.085000", "140021.575000", "140023.065000", "140024.555000", "140026.045000", "140027.535000", "140029.025000", "140030.515000", "140032.005000", "140033.495000", "140034.985000", "140036.475000", "140037.965000", "140039.455000", "140040.945000", "140042.435000", "140043.925000", "140045.415000", "140046.905000", "140048.395000", "140049.885000", "140051.375000", "140052.865000", "140054.355000", "140055.845000", "140057.335000", "140058.825000", "140100.315000", "140101.805000", "140103.295000", "140104.785000", "140106.275000", "140107.765000", "140109.255000", "140110.745000", "140112.235000", "140113.725000", "140115.215000", "140116.705000", "140118.195000", "140119.685000", "140121.175000", "140122.665000", "140124.155000", "140125.645000", "140127.135000"],
      "ContentTime": ["135513.825000", "135513.829000", "135513.832000", "135513.836000", "135513.839000", "135513.842000", "135513.846000", "135513.849000", "135513.852000", "135513.856000", "135513.859000", "135513.862000", "135513.866000", "135513.869000", "135513.872000", "135513.876000", "135513.879000", "135513.882000", "135513.886000", "135513.889000", "135513.892000", "135513.896000", "135513.899000", "135533.785000", "135533.789000", "135533.793000", "135533.796000", "135533.799000", "135533.802000", "135533.806000", "135533.809000", "135533.812000", "135533.816000", "135533.819000", "135533.822000", "135533.826000", "135533.829000", "135533.832000", "135533.835000", "135533.839000", "135533.842000", "135533.856000", "135533.859000", "135553.784000", "135553.788000", "135553.791000", "135553.795000", "135553.798000", "135553.805000", "135553.809000", "135553.812000", "135553.815000", "135553.818000", "135553.836000", "135553.840000", "135553.843000", "135553.846000", "135553.850000", "135553.862000", "135553.866000", "135553.869000", "135553.872000", "135553.876000", "135613.784000", "135613.788000", "135613.791000", "135613.794000", "135613.798000", "135613.801000", "135613.804000", "135613.808000", "135613.811000", "135613.814000", "135613.818000", "135613.821000", "135613.832000", "135613.835000", "135613.838000", "135613.842000", "135613.845000", "135613.848000", "135613.852000", "135613.855000", "135653.784000", "135653.788000", "135653.791000", "135653.795000", "135653.798000", "135653.801000", "135653.804000", "135653.808000", "135653.811000", "135653.814000", "135653.818000", "135653.821000", "135653.829000", "135653.833000", "135653.836000", "135653.839000", "135653.843000", "135653.846000", "135653.849000", "135653.853000", "135653.856000", "135653.859000", "135653.863000", "135653.866000", "135653.869000", "135653.873000", "135653.876000", "135653.879000", "135653.883000", "135653.886000", "135653.889000", "135653.893000", "135733.785000", "135733.789000", "135733.792000", "135733.795000", "135733.799000", "135733.802000", "135733.806000", "135733.809000", "135733.812000", "135733.815000", "135733.819000", "135733.822000", "135733.825000", "135733.829000", "135733.832000", "135733.835000", "135733.839000", "135733.842000", "135733.845000", "135733.849000", "135733.852000", "135733.855000", "135733.859000", "135733.862000", "135733.865000", "135733.869000", "135733.872000", "135813.786000", "135813.791000", "135813.795000", "135813.798000", "135813.802000", "135813.805000", "135813.808000", "135813.812000", "135813.815000", "135813.818000", "135813.822000", "135813.833000", "135813.836000", "135813.839000", "135813.843000", "135813.846000", "135813.849000", "135813.853000", "135813.856000", "135813.859000", "135813.863000", "135813.866000", "135813.869000", "135813.873000", "135813.876000", "135813.879000", "135813.883000", "135853.784000", "135853.788000", "135853.791000", "135853.802000", "135853.805000", "135853.809000", "135853.812000", "135853.815000", "135853.819000", "135853.822000", "135853.825000", "135853.829000", "135853.832000", "135853.835000", "135853.839000", "135853.842000", "135853.845000", "135853.848000", "135853.852000", "135853.855000", "135853.858000", "135853.862000", "135853.865000", "135853.868000", "135853.872000", "135853.875000", "135933.784000", "135933.788000", "135933.791000", "135933.795000", "135933.798000", "135933.801000", "135933.810000", "135933.813000", "135933.817000", "135933.820000", "135933.823000", "135933.827000", "135933.830000", "135933.833000", "135933.837000", "135933.840000", "135933.843000", "135933.847000", "135933.850000", "135933.853000", "135933.857000", "135933.860000", "135933.863000", "135933.867000", "135933.870000", "135933.873000", "135933.877000", "140013.785000", "140013.789000", "140013.799000", "140013.803000", "140013.806000", "140013.809000", "140013.813000", "140013.816000", "140013.819000", "140013.823000", "140013.826000", "140013.829000", "140013.833000", "140013.836000", "140013.839000", "140013.843000", "140013.846000", "140013.849000", "140013.853000", "140013.856000", "140013.859000", "140013.863000", "140013.866000", "140013.869000", "140013.873000", "140013.876000", "140013.879000", "140053.784000", "140053.788000", "140053.791000", "140053.795000", "140053.813000", "140053.817000", "140053.820000", "140053.823000", "140053.827000", "140053.830000", "140053.834000", "140053.837000", "140053.840000", "140053.844000", "140053.856000", "140053.859000", "140053.863000", "140053.866000", "140053.869000", "140053.873000", "140053.876000", "140053.880000", "140053.883000", "140053.886000", "140053.890000", "140053.893000", "140053.896000", "140129.781000", "140129.802000", "140129.806000", "140129.809000", "140129.813000", "140129.816000", "140129.819000", "140129.823000", "140129.826000", "140129.829000", "140129.833000", "140129.836000", "140129.839000", "140129.843000", "140129.846000", "140129.850000", "140129.853000", "140129.856000", "140129.860000", "140129.863000", "140129.866000", "140129.870000", "140129.873000", "140129.876000"],
      "InstanceCreationTime": ["135513.825000", "135513.829000", "135513.832000", "135513.836000", "135513.839000", "135513.842000", "135513.846000", "135513.849000", "135513.852000", "135513.856000", "135513.859000", "135513.862000", "135513.866000", "135513.869000", "135513.872000", "135513.876000", "135513.879000", "135513.882000", "135513.886000", "135513.889000", "135513.892000", "135513.896000", "135513.899000", "135533.785000", "135533.789000", "135533.793000", "135533.796000", "135533.799000", "135533.802000", "135533.806000", "135533.809000", "135533.812000", "135533.816000", "135533.819000", "135533.822000", "135533.826000", "135533.829000", "135533.832000", "135533.835000", "135533.839000", "135533.842000", "135533.856000", "135533.859000", "135553.784000", "135553.788000", "135553.791000", "135553.795000", "135553.798000", "135553.805000", "135553.809000", "135553.812000", "135553.815000", "135553.818000", "135553.836000", "135553.840000", "135553.843000", "135553.846000", "135553.850000", "135553.862000", "135553.866000", "135553.869000", "135553.872000", "135553.876000", "135613.784000", "135613.788000", "135613.791000", "135613.794000", "135613.798000", "135613.801000", "135613.804000", "135613.808000", "135613.811000", "135613.814000", "135613.818000", "135613.821000", "135613.832000", "135613.835000", "135613.838000", "135613.842000", "135613.845000", "135613.848000", "135613.852000", "135613.855000", "135653.784000", "135653.788000", "135653.791000", "135653.795000", "135653.798000", "135653.801000", "135653.804000", "135653.808000", "135653.811000", "135653.814000", "135653.818000", "135653.821000", "135653.829000", "135653.833000", "135653.836000", "135653.839000", "135653.843000", "135653.846000", "135653.849000", "135653.853000", "135653.856000", "135653.859000", "135653.863000", "135653.866000", "135653.869000", "135653.873000", "135653.876000", "135653.879000", "135653.883000", "135653.886000", "135653.889000", "135653.893000", "135733.785000", "135733.789000", "135733.792000", "135733.795000", "135733.799000", "135733.802000", "135733.806000", "135733.809000", "135733.812000", "135733.815000", "135733.819000", "135733.822000", "135733.825000", "135733.829000", "135733.832000", "135733.835000", "135733.839000", "135733.842000", "135733.845000", "135733.849000", "135733.852000", "135733.855000", "135733.859000", "135733.862000", "135733.865000", "135733.869000", "135733.872000", "135813.786000", "135813.791000", "135813.795000", "135813.798000", "135813.802000", "135813.805000", "135813.808000", "135813.812000", "135813.815000", "135813.818000", "135813.822000", "135813.833000", "135813.836000", "135813.839000", "135813.843000", "135813.846000", "135813.849000", "135813.853000", "135813.856000", "135813.859000", "135813.863000", "135813.866000", "135813.869000", "135813.873000", "135813.876000", "135813.879000", "135813.883000", "135853.784000", "135853.788000", "135853.791000", "135853.802000", "135853.805000", "135853.809000", "135853.812000", "135853.815000", "135853.819000", "135853.822000", "135853.825000", "135853.829000", "135853.832000", "135853.835000", "135853.839000", "135853.842000", "135853.845000", "135853.848000", "135853.852000", "135853.855000", "135853.858000", "135853.862000", "135853.865000", "135853.868000", "135853.872000", "135853.875000", "135933.784000", "135933.788000", "135933.791000", "135933.795000", "135933.798000", "135933.801000", "135933.810000", "135933.813000", "135933.817000", "135933.820000", "135933.823000", "135933.827000", "135933.830000", "135933.833000", "135933.837000", "135933.840000", "135933.843000", "135933.847000", "135933.850000", "135933.853000", "135933.857000", "135933.860000", "135933.863000", "135933.867000", "135933.870000", "135933.873000", "135933.877000", "140013.785000", "140013.789000", "140013.799000", "140013.803000", "140013.806000", "140013.809000", "140013.813000", "140013.816000", "140013.819000", "140013.823000", "140013.826000", "140013.829000", "140013.833000", "140013.836000", "140013.839000", "140013.843000", "140013.846000", "140013.849000", "140013.853000", "140013.856000", "140013.859000", "140013.863000", "140013.866000", "140013.869000", "140013.873000", "140013.876000", "140013.879000", "140053.784000", "140053.788000", "140053.791000", "140053.795000", "140053.813000", "140053.817000", "140053.820000", "140053.823000", "140053.827000", "140053.830000", "140053.834000", "140053.837000", "140053.840000", "140053.844000", "140053.856000", "140053.859000", "140053.863000", "140053.866000", "140053.869000", "140053.873000", "140053.876000", "140053.880000", "140053.883000", "140053.886000", "140053.890000", "140053.893000", "140053.896000", "140129.781000", "140129.802000", "140129.806000", "140129.809000", "140129.813000", "140129.816000", "140129.819000", "140129.823000", "140129.826000", "140129.829000", "140129.833000", "140129.836000", "140129.839000", "140129.843000", "140129.846000", "140129.850000", "140129.853000", "140129.856000", "140129.860000", "140129.863000", "140129.866000", "140129.870000", "140129.873000", "140129.876000"],
      "InstanceNumber": [1, 2, 3, 4, 5, 6, 7, 8, 9, 10, 11, 12, 13, 14, 15, 16, 17, 18, 19, 20, 21, 22, 23, 24, 25, 26, 27, 28, 29, 30, 31, 32, 33, 34, 35, 36, 37, 38, 39, 40, 41, 42, 43, 44, 45, 46, 47, 48, 49, 50, 51, 52, 53, 54, 55, 56, 57, 58, 59, 60, 61, 62, 63, 64, 65, 66, 67, 68, 69, 70, 71, 72, 73, 74, 75, 76, 77, 78, 79, 80, 81, 82, 83, 84, 85, 86, 87, 88, 89, 90, 91, 92, 93, 94, 95, 96, 97, 98, 99, 100, 101, 102, 103, 104, 105, 106, 107, 108, 109, 110, 111, 112, 113, 114, 115, 116, 117, 118, 119, 120, 121, 122, 123, 124, 125, 126, 127, 128, 129, 130, 131, 132, 133, 134, 135, 136, 137, 138, 139, 140, 141, 142, 143, 144, 145, 146, 147, 148, 149, 150, 151, 152, 153, 154, 155, 156, 157, 158, 159, 160, 161, 162, 163, 164, 165, 166, 167, 168, 169, 170, 171, 172, 173, 174, 175, 176, 177, 178, 179, 180, 181, 182, 183, 184, 185, 186, 187, 188, 189, 190, 191, 192, 193, 194, 195, 196, 197, 198, 199, 200, 201, 202, 203, 204, 205, 206, 207, 208, 209, 210, 211, 212, 213, 214, 215, 216, 217, 218, 219, 220, 221, 222, 223, 224, 225, 226, 227, 228, 229, 230, 231, 232, 233, 234, 235, 236, 237, 238, 239, 240, 241, 242, 243, 244, 245, 246, 247, 248, 249, 250, 251, 252, 253, 254, 255, 256, 257, 258, 259, 260, 261, 262, 263, 264, 265, 266, 267, 268, 269, 270, 271, 272, 273, 274, 275, 276, 277, 278, 279, 280, 281, 282, 283, 284, 285, 286, 287, 288, 289, 290, 291, 292, 293, 294, 295, 296, 297, 298, 299, 300],
      "LargestImagePixelValue": [41575, 40850, 40328, 39393, 38522, 38547, 38870, 39071, 38920, 40197, 37904, 38336, 39052, 38788, 38665, 40103, 39438, 39308, 39862, 38977, 38741, 37922, 38260, 38421, 39687, 39055, 39261, 39575, 39306, 38596, 38938, 38572, 39003, 38707, 40339, 40207, 39683, 40108, 39958, 38599, 39192, 39371, 39225, 39709, 39562, 39839, 39198, 39242, 39347, 39357, 39237, 39257, 39574, 39168, 39487, 39469, 38736, 39048, 38238, 38228, 38665, 37678, 38625, 38260, 38765, 38652, 38249, 38337, 39072, 37797, 38447, 38211, 38180, 38136, 38612, 38345, 38503, 38775, 39262, 39116, 39412, 39037, 38909, 39423, 38947, 38289, 38879, 39029, 38123, 38115, 37707, 37928, 38877, 38330, 38231, 37626, 38667, 39412, 38432, 39901, 39425, 39475, 39621, 38956, 40318, 39307, 39811, 39014, 39490, 38741, 38653, 38210, 39628, 38292, 38952, 39270, 38958, 39322, 39109, 38493, 38269, 39296, 38935, 38697, 39232, 38952, 38477, 38910, 38324, 39434, 39478, 39607, 39331, 39550, 39293, 39595, 38963, 39032, 38938, 39164, 38993, 39762, 38495, 38382, 38491, 38491, 38928, 38866, 39217, 38859, 38341, 38617, 38432, 38819, 38822, 38592, 37981, 39162, 39642, 38084, 37739, 37173, 37974, 37743, 38343, 39047, 38886, 38324, 37843, 39127, 38446, 38966, 38827, 38701, 39022, 38488, 38416, 39129, 38705, 37991, 37906, 38132, 38172, 37989, 38411, 38144, 37919, 38971, 39543, 38811, 38119, 38516, 38782, 38492, 38944, 38189, 38380, 39398, 38673, 38921, 38200, 38135, 38459, 37866, 38589, 38471, 39008, 38010, 37918, 37861, 38582, 39235, 38775, 37832, 38338, 38609, 38097, 38010, 38206, 38479, 37590, 38504, 38486, 38547, 38504, 38997, 38602, 38645, 38697, 38990, 38467, 37990, 38628, 38387, 38320, 37942, 38235, 37684, 38012, 37980, 38540, 38900, 38137, 37958, 38339, 38048, 37804, 38156, 37818, 37946, 39224, 39155, 39423, 38343, 37856, 37992, 38964, 38487, 38237, 38560, 38658, 37912, 38670, 38677, 38621, 38074, 38309, 38177, 38110, 39081, 37937, 38621, 38534, 38069, 37774, 38023, 39258, 38385, 38218, 37686, 38518, 37794, 37972, 37838, 38628, 38149, 38363, 38433, 38259, 38909, 38884, 38220, 38361, 38305, 37772, 37694, 38373, 38215, 38010, 38029],
      "WindowCenter": [10198.0, 10175.0, 10168.0, 10151.0, 10152.0, 10113.0, 10149.0, 10153.0, 10160.0, 10184.0, 10100.0, 10158.0, 10145.0, 10158.0, 10049.0, 10142.0, 10063.0, 10089.0, 10116.0, 10100.0, 10123.0, 10088.0, 10092.0, 10063.0, 10073.0, 10007.0, 10057.0, 10085.0, 10122.0, 10104.0, 10096.0, 10057.0, 10102.0, 9896.0, 9949.0, 10112.0, 10079.0, 10101.0, 10135.0, 10052.0, 10089.0, 10020.0, 10062.0, 10046.0, 10040.0, 10054.0, 10063.0, 10087.0, 10123.0, 10099.0, 10079.0, 10107.0, 10103.0, 10097.0, 10114.0, 10105.0, 10125.0, 10123.0, 10121.0, 10108.0, 10126.0, 10094.0, 10142.0, 10083.0, 10144.0, 10132.0, 10091.0, 10109.0, 10104.0, 10074.0, 10114.0, 10084.0, 10084.0, 10054.0, 10122.0, 10043.0, 10111.0, 10108.0, 10097.0, 10082.0, 10133.0, 10107.0, 10097.0, 10115.0, 10117.0, 10111.0, 10120.0, 10160.0, 10102.0, 10111.0, 10100.0, 10058.0, 10156.0, 10101.0, 10096.0, 10069.0, 10099.0, 10124.0, 10103.0, 10163.0, 10136.0, 10122.0, 10084.0, 10048.0, 10104.0, 10080.0, 10085.0, 10093.0, 10103.0, 10111.0, 10094.0, 10060.0, 10158.0, 10053.0, 10102.0, 10120.0, 10098.0, 10138.0, 10132.0, 10120.0, 10090.0, 10123.0, 10133.0, 10059.0, 10111.0, 10075.0, 10086.0, 10103.0, 10146.0, 10111.0, 10079.0, 10066.0, 10054.0, 10092.0, 10086.0, 10146.0, 10122.0, 10116.0, 10118.0, 10120.0, 10098.0, 10145.0, 10126.0, 10115.0, 10114.0, 10133.0, 10111.0, 10106.0, 10098.0, 10072.0, 10036.0, 10097.0, 10072.0, 10054.0, 10093.0, 10045.0, 10046.0, 10045.0, 10147.0, 10106.0, 10113.0, 10052.0, 10094.0, 10017.0, 10058.0, 10112.0, 10094.0, 10111.0, 10006.0, 10063.0, 10006.0, 10067.0, 10093.0, 10113.0, 10141.0, 10085.0, 10081.0, 10082.0, 10114.0, 10081.0, 10072.0, 10046.0, 10082.0, 10053.0, 10072.0, 10056.0, 9981.0, 10052.0, 10083.0, 10091.0, 10068.0, 10087.0, 10084.0, 10087.0, 10093.0, 10056.0, 10061.0, 10057.0, 10047.0, 10067.0, 10083.0, 10054.0, 10063.0, 9993.0, 10060.0, 10051.0, 10101.0, 10088.0, 10102.0, 10090.0, 10111.0, 10078.0, 10091.0, 10061.0, 10070.0, 10106.0, 10059.0, 10122.0, 10095.0, 10116.0, 10039.0, 10072.0, 10078.0, 10088.0, 10105.0, 10097.0, 10107.0, 10088.0, 10126.0, 10136.0, 10096.0, 10053.0, 10082.0, 10070.0, 10080.0, 10075.0, 10070.0, 10020.0, 10059.0, 10026.0, 10046.0, 10067.0, 10042.0, 10067.0, 10065.0, 10069.0, 10061.0, 10078.0, 10093.0, 10013.0, 10035.0, 10080.0, 10080.0, 10054.0, 10064.0, 10059.0, 10059.0, 10085.0, 10088.0, 10102.0, 10087.0, 10055.0, 10070.0, 10077.0, 10088.0, 10096.0, 10062.0, 10050.0, 10014.0, 10047.0, 10004.0, 10065.0, 10064.0, 10045.0, 10025.0, 10006.0, 10122.0, 10111.0, 10111.0, 10073.0, 10089.0, 10071.0, 10081.0, 10084.0, 10071.0, 10041.0, 9996.0, 9985.0, 9990.0, 10024.0, 10059.0, 10050.0, 10091.0, 10087.0, 10049.0, 10030.0, 10016.0, 10118.0, 10075.0, 10068.0],
