{
  "AcquisitionMatrixPE": 104,
  "AcquisitionNumber": 1,
  "AcquisitionTime": "14:23:53.610000",
  "BandwidthPerPixelPhaseEncode": 17.17,
  "BaseResolution": 104,
  "BodyPartExamined": "BRAIN",
  "CoilCombinationMethod": "Sum of Squares",
  "ConsistencyInfo": "N4_VE11C_LATEST_20160120",
  "ConversionSoftware": "dcm2niix",
  "ConversionSoftwareVersion": "v1.0.20220505",
  "DerivedVendorReportedEchoSpacing": 0.000560011,
  "DeviceSerialNumber": "167006",
  "DwellTime": 2.1e-06,
  "EchoTime": 0.037,
  "EchoTime1": 0.037,
  "EchoTime2": 0.001,
  "EchoTrainLength": 104,
  "EffectiveEchoSpacing": 0.000560011,
  "FlipAngle": 52,
  "HeudiconvVersion": "0.5.3.post811+g6206e14",
  "ImageComments": "Unaliased MB4/PE3/LB",
  "ImageOrientationPatientDICOM": [0.999852, 0.0129256, 0.0113272, -0.00959816, 0.966669, -0.255848],
  "ImageOrientationText": "Tra>Cor(-14.8)>Sag(0.8)",
  "ImageType": [
    "ORIGINAL",
    "PRIMARY",
    "P",
    "MB",
    "ND",
    "MOSAIC",
    "PHASE"
],
  "ImagingFrequency": 123.26,
  "InPlanePhaseEncodingDirectionDICOM": "COL",
  "InstitutionAddress": "Chemin Queen-Mary 4565,Montreal,District,CA,H3W 1W5",
  "InstitutionName": "IUGM",
  "InstitutionalDepartmentName": "Department",
  "MRAcquisitionType": "2D",
  "MagneticFieldStrength": 3,
  "Manufacturer": "Siemens",
  "ManufacturersModelName": "Prisma_fit",
  "MatrixCoilMode": "SENSE",
  "Modality": "MR",
  "MultibandAccelerationFactor": 4,
  "PartialFourier": 1,
  "PatientPosition": "HFS",
  "PercentPhaseFOV": 100,
  "PercentSampling": 100,
  "PhaseEncodingDirection": "j",
  "PhaseEncodingSteps": 104,
  "PhaseResolution": 1,
  "PixelBandwidth": 2290,
  "ProcedureStepDescription": "games^mario3",
  "ProtocolName": "func_task-mario3_run-05",
  "PulseSequenceDetails": "%CustomerSeq%\\cmrr_mbep2d_bold",
  "ReceiveCoilActiveElements": "HC1-7;NC1,2",
  "ReceiveCoilName": "HeadNeck_64",
  "ReconMatrixPE": 104,
  "RepetitionTime": 1.49,
  "SAR": 0.0566017,
  "ScanOptions": "FS",
  "ScanningSequence": "EP",
  "SequenceName": "epfid2d1_104",
  "SequenceVariant": "SK\\SS",
  "SeriesDescription": "func_task-mario3_run-05",
  "SeriesNumber": 23,
  "ShimSetting": [622, -7223, -8803, 712, 68, 4, 34, 0],
  "SliceThickness": 2,
  "SliceTiming": [0, 0.7825, 0.0975, 0.8825, 0.195, 0.98, 0.2925, 1.0775, 0.3925, 1.175, 0.49, 1.2725, 0.5875, 1.37, 0.685, 0, 0.7825, 0.0975, 0.8825, 0.195, 0.98, 0.2925, 1.0775, 0.3925, 1.175, 0.49, 1.2725, 0.5875, 1.37, 0.685, 0, 0.7825, 0.0975, 0.8825, 0.195, 0.98, 0.2925, 1.0775, 0.3925, 1.175, 0.49, 1.2725, 0.5875, 1.37, 0.685, 0, 0.7825, 0.0975, 0.8825, 0.195, 0.98, 0.2925, 1.0775, 0.3925, 1.175, 0.49, 1.2725, 0.5875, 1.37, 0.685],
  "SoftwareVersions": "syngo MR E11",
  "SpacingBetweenSlices": 2,
  "StationName": "MRC35049",
  "TaskName": "mario3",
  "TotalReadoutTime": 0.0576811,
  "TxRefAmp": 229.874,
  "WipMemBlock": "a38cf0f4-ad01-48da-8ff7-586ad732bd29||Sequence: R017 ve11c/master r/75a17815+; Jun 28 2022 16:32:11 by eja",
  "dcmmeta_affine": [
    [-1.9997045993804932, -0.01919631101191044, 0.028513208031654358, 108.95744323730469],
    [-0.02585117518901825, 1.9333387613296509, -0.5114030241966248, -73.26385498046875],
    [0.022654319182038307, 0.5116961002349854, 1.9333012104034424, -67.04470825195312],
    [0.0, 0.0, 0.0, 1.0]
],
  "dcmmeta_reorient_transform": [
    [0.0, -1.0, 0.0, 103.0],
    [1.0, 0.0, 0.0, 0.0],
    [0.0, 0.0, 1.0, 0.0],
    [0.0, 0.0, 0.0, 1.0]
],
  "dcmmeta_shape": [104, 104, 60, 321],
  "dcmmeta_slice_dim": 2,
  "dcmmeta_version": 0.6,
  "global": {
    "const": {
      "AcquisitionMatrix": [104, 0, 0, 104],
      "AngioFlag": "N",
      "BitsAllocated": 16,
      "BitsStored": 16,
      "BodyPartExamined": "BRAIN",
      "Columns": 832,
      "EchoNumbers": 1,
      "EchoTime": 37.0,
      "EchoTrainLength": 104,
      "FlipAngle": 52.0,
      "HighBit": 15,
      "ImageOrientationPatient": [0.9998523014126, 0.01292558749325, 0.01132715974511, -0.0095981554396, 0.96666936233583, -0.255848039534],
      "ImagePositionPatient": [-827.88524007602, -839.01515905492, 163.67118460645],
      "ImageType": [
        "ORIGINAL",
        "PRIMARY",
        "P",
        "MB",
        "ND",
        "MOSAIC"
],
      "ImagedNucleus": "1H",
      "ImagingFrequency": 123.260492,
      "InPlanePhaseEncodingDirection": "COL",
      "LargestImagePixelValue": 4095,
      "MRAcquisitionType": "2D",
      "MagneticFieldStrength": 3.0,
      "Manufacturer": "SIEMENS",
      "ManufacturerModelName": "Prisma_fit",
      "Modality": "MR",
      "NumberOfAverages": 1.0,
      "NumberOfPhaseEncodingSteps": 104,
      "PercentPhaseFieldOfView": 100.0,
      "PercentSampling": 100.0,
      "PerformedProcedureStepStartTime": "134057.758000",
      "PhotometricInterpretation": "MONOCHROME2",
      "PixelBandwidth": 2290.0,
      "PixelRepresentation": 0,
      "PixelSpacing": [2.0, 2.0],
      "ProtocolName": "func_task-mario3_run-05",
      "RepetitionTime": 1490.0,
      "RescaleIntercept": -4096.0,
      "RescaleSlope": 2.0,
      "RescaleType": "US",
      "Rows": 832,
      "SAR": 0.05660172302442,
      "SamplesPerPixel": 1,
      "ScanOptions": "FS",
      "ScanningSequence": "EP",
      "SequenceName": "epfid2d1_104",
      "SequenceVariant": [
        "SK",
        "SS"
],
      "SeriesDescription": "func_task-mario3_run-05",
      "SeriesNumber": 23,
      "SeriesTime": "142514.063000",
      "SliceLocation": -44.521771778806,
      "SliceThickness": 2.0,
      "SmallestImagePixelValue": 0,
      "SoftwareVersions": "syngo MR E11",
      "SpacingBetweenSlices": 1.9999999509724,
      "SpecificCharacterSet": "ISO_IR 100",
      "StudyID": "1",
      "StudyTime": "134057.669000",
      "TransmitCoilName": "Body",
      "VariableFlipAngleFlag": "N",
      "WindowCenterWidthExplanation": "Algo1",
      "dBdt": 0.0},
    "slices": {}
  },
  "time": {
    "samples": {
      "AcquisitionNumber": [1, 2, 3, 4, 5, 6, 7, 8, 9, 10, 11, 12, 13, 14, 15, 16, 17, 18, 19, 20, 21, 22, 23, 24, 25, 26, 27, 28, 29, 30, 31, 32, 33, 34, 35, 36, 37, 38, 39, 40, 41, 42, 43, 44, 45, 46, 47, 48, 49, 50, 51, 52, 53, 54, 55, 56, 57, 58, 59, 60, 61, 62, 63, 64, 65, 66, 67, 68, 69, 70, 71, 72, 73, 74, 75, 76, 77, 78, 79, 80, 81, 82, 83, 84, 85, 86, 87, 88, 89, 90, 91, 92, 93, 94, 95, 96, 97, 98, 99, 100, 101, 102, 103, 104, 105, 106, 107, 108, 109, 110, 111, 112, 113, 114, 115, 116, 117, 118, 119, 120, 121, 122, 123, 124, 125, 126, 127, 128, 129, 130, 131, 132, 133, 134, 135, 136, 137, 138, 139, 140, 141, 142, 143, 144, 145, 146, 147, 148, 149, 150, 151, 152, 153, 154, 155, 156, 157, 158, 159, 160, 161, 162, 163, 164, 165, 166, 167, 168, 169, 170, 171, 172, 173, 174, 175, 176, 177, 178, 179, 180, 181, 182, 183, 184, 185, 186, 187, 188, 189, 190, 191, 192, 193, 194, 195, 196, 197, 198, 199, 200, 201, 202, 203, 204, 205, 206, 207, 208, 209, 210, 211, 212, 213, 214, 215, 216, 217, 218, 219, 220, 221, 222, 223, 224, 225, 226, 227, 228, 229, 230, 231, 232, 233, 234, 235, 236, 237, 238, 239, 240, 241, 242, 243, 244, 245, 246, 247, 248, 249, 250, 251, 252, 253, 254, 255, 256, 257, 258, 259, 260, 261, 262, 263, 264, 265, 266, 267, 268, 269, 270, 271, 272, 273, 274, 275, 276, 277, 278, 279, 280, 281, 282, 283, 284, 285, 286, 287, 288, 289, 290, 291, 292, 293, 294, 295, 296, 297, 298, 299, 300, 301, 302, 303, 304, 305, 306, 307, 308, 309, 310, 311, 312, 313, 314, 315, 316, 317, 318, 319, 320, 321],
      "AcquisitionTime": ["142353.610000", "142355.100000", "142356.590000", "142358.080000", "142359.570000", "142401.060000", "142402.550000", "142404.040000", "142405.530000", "142407.020000", "142408.510000", "142410.000000", "142411.490000", "142412.980000", "142414.470000", "142415.960000", "142417.450000", "142418.940000", "142420.430000", "142421.920000", "142423.410000", "142424.900000", "142426.390000", "142427.880000", "142429.370000", "142430.860000", "142432.350000", "142433.840000", "142435.330000", "142436.820000", "142438.310000", "142439.800000", "142441.290000", "142442.780000", "142444.270000", "142445.760000", "142447.250000", "142448.740000", "142450.230000", "142451.720000", "142453.210000", "142454.700000", "142456.190000", "142457.680000", "142459.170000", "142500.660000", "142502.150000", "142503.640000", "142505.130000", "142506.620000", "142508.110000", "142509.600000", "142511.090000", "142512.580000", "142514.070000", "142515.560000", "142517.050000", "142518.540000", "142520.030000", "142521.520000", "142523.010000", "142524.500000", "142525.990000", "142527.480000", "142528.970000", "142530.460000", "142531.950000", "142533.440000", "142534.930000", "142536.420000", "142537.910000", "142539.400000", "142540.890000", "142542.380000", "142543.870000", "142545.360000", "142546.850000", "142548.340000", "142549.830000", "142551.320000", "142552.810000", "142554.300000", "142555.790000", "142557.280000", "142558.770000", "142600.260000", "142601.750000", "142603.240000", "142604.730000", "142606.220000", "142607.710000", "142609.200000", "142610.690000", "142612.180000", "142613.670000", "142615.160000", "142616.650000", "142618.140000", "142619.630000", "142621.120000", "142622.610000", "142624.100000", "142625.590000", "142627.080000", "142628.570000", "142630.060000", "142631.550000", "142633.040000", "142634.530000", "142636.020000", "142637.510000", "142639.000000", "142640.490000", "142641.980000", "142643.470000", "142644.960000", "142646.450000", "142647.940000", "142649.430000", "142650.920000", "142652.410000", "142653.900000", "142655.390000", "142656.880000", "142658.370000", "142659.860000", "142701.350000", "142702.840000", "142704.330000", "142705.820000", "142707.310000", "142708.800000", "142710.290000", "142711.780000", "142713.270000", "142714.760000", "142716.250000", "142717.740000", "142719.230000", "142720.720000", "142722.210000", "142723.700000", "142725.190000", "142726.680000", "142728.170000", "142729.660000", "142731.150000", "142732.640000", "142734.130000", "142735.620000", "142737.110000", "142738.600000", "142740.090000", "142741.580000", "142743.070000", "142744.560000", "142746.050000", "142747.540000", "142749.030000", "142750.520000", "142752.010000", "142753.500000", "142754.990000", "142756.480000", "142757.970000", "142759.460000", "142800.950000", "142802.440000", "142803.930000", "142805.420000", "142806.910000", "142808.400000", "142809.890000", "142811.380000", "142812.870000", "142814.360000", "142815.850000", "142817.340000", "142818.830000", "142820.320000", "142821.810000", "142823.300000", "142824.790000", "142826.280000", "142827.770000", "142829.260000", "142830.750000", "142832.240000", "142833.730000", "142835.220000", "142836.710000", "142838.200000", "142839.690000", "142841.180000", "142842.670000", "142844.160000", "142845.650000", "142847.140000", "142848.630000", "142850.120000", "142851.610000", "142853.100000", "142854.590000", "142856.080000", "142857.570000", "142859.060000", "142900.550000", "142902.040000", "142903.530000", "142905.020000", "142906.510000", "142908.000000", "142909.490000", "142910.980000", "142912.470000", "142913.960000", "142915.450000", "142916.940000", "142918.430000", "142919.920000", "142921.410000", "142922.900000", "142924.390000", "142925.880000", "142927.370000", "142928.860000", "142930.350000", "142931.840000", "142933.330000", "142934.820000", "142936.310000", "142937.800000", "142939.290000", "142940.780000", "142942.270000", "142943.760000", "142945.250000", "142946.740000", "142948.230000", "142949.720000", "142951.210000", "142952.700000", "142954.190000", "142955.680000", "142957.170000", "142958.660000", "143000.150000", "143001.640000", "143003.130000", "143004.620000", "143006.110000", "143007.600000", "143009.090000", "143010.580000", "143012.070000", "143013.560000", "143015.050000", "143016.540000", "143018.030000", "143019.520000", "143021.010000", "143022.500000", "143023.990000", "143025.480000", "143026.970000", "143028.460000", "143029.950000", "143031.440000", "143032.930000", "143034.420000", "143035.910000", "143037.400000", "143038.890000", "143040.380000", "143041.870000", "143043.360000", "143044.850000", "143046.340000", "143047.830000", "143049.320000", "143050.810000", "143052.300000", "143053.790000", "143055.280000", "143056.770000", "143058.260000", "143059.750000", "143101.240000", "143102.730000", "143104.220000", "143105.710000", "143107.200000", "143108.690000", "143110.180000", "143111.670000", "143113.160000", "143114.650000", "143116.140000", "143117.630000", "143119.120000", "143120.610000", "143122.100000", "143123.590000", "143125.080000", "143126.570000", "143128.060000", "143129.550000", "143131.040000", "143132.530000", "143134.020000", "143135.510000", "143137.000000", "143138.490000", "143139.980000", "143141.470000", "143142.960000", "143144.450000", "143145.940000", "143147.430000", "143148.920000", "143150.410000"],
      "ContentTime": ["142514.065000", "142514.068000", "142514.070000", "142514.073000", "142514.075000", "142514.078000", "142514.080000", "142514.083000", "142514.085000", "142514.088000", "142514.090000", "142514.093000", "142514.095000", "142514.098000", "142514.100000", "142514.103000", "142514.105000", "142514.108000", "142514.110000", "142514.118000", "142514.121000", "142514.123000", "142514.134000", "142514.137000", "142514.139000", "142514.142000", "142514.144000", "142514.147000", "142514.149000", "142514.152000", "142514.154000", "142533.965000", "142533.968000", "142533.970000", "142533.973000", "142533.976000", "142533.978000", "142533.980000", "142533.983000", "142533.985000", "142533.988000", "142533.990000", "142533.993000", "142533.995000", "142533.998000", "142534.002000", "142534.008000", "142534.010000", "142534.013000", "142534.015000", "142534.018000", "142534.020000", "142553.901000", "142553.904000", "142553.906000", "142553.909000", "142553.911000", "142553.914000", "142553.917000", "142553.919000", "142553.922000", "142553.924000", "142553.927000", "142553.929000", "142553.932000", "142553.934000", "142553.937000", "142553.939000", "142553.942000", "142553.944000", "142553.947000", "142553.950000", "142613.900000", "142613.903000", "142613.905000", "142613.908000", "142613.911000", "142613.913000", "142613.916000", "142613.918000", "142613.921000", "142613.923000", "142613.926000", "142613.928000", "142613.931000", "142613.933000", "142613.935000", "142613.938000", "142613.940000", "142613.943000", "142613.945000", "142613.948000", "142653.931000", "142653.933000", "142653.936000", "142653.938000", "142653.941000", "142653.943000", "142653.946000", "142653.949000", "142653.951000", "142653.953000", "142653.956000", "142653.958000", "142653.961000", "142653.963000", "142653.966000", "142653.968000", "142653.971000", "142653.974000", "142653.976000", "142653.978000", "142653.981000", "142653.984000", "142653.986000", "142653.996000", "142653.998000", "142654.002000", "142654.004000", "142654.007000", "142733.939000", "142733.942000", "142733.944000", "142733.947000", "142733.949000", "142733.952000", "142733.954000", "142733.957000", "142733.959000", "142733.962000", "142733.964000", "142733.967000", "142733.970000", "142733.972000", "142733.975000", "142733.978000", "142733.980000", "142733.983000", "142733.985000", "142733.988000", "142733.990000", "142733.993000", "142733.995000", "142733.998000", "142734.000000", "142734.003000", "142734.005000", "142813.924000", "142813.926000", "142813.929000", "142813.931000", "142813.934000", "142813.936000", "142813.939000", "142813.941000", "142813.944000", "142813.946000", "142813.949000", "142813.951000", "142813.954000", "142813.957000", "142813.959000", "142813.962000", "142813.964000", "142813.967000", "142813.969000", "142813.972000", "142813.974000", "142813.977000", "142813.979000", "142813.982000", "142813.984000", "142813.987000", "142813.989000", "142853.942000", "142853.945000", "142853.947000", "142853.950000", "142853.952000", "142853.955000", "142853.958000", "142853.960000", "142853.963000", "142853.965000", "142853.968000", "142853.970000", "142853.973000", "142853.975000", "142853.978000", "142853.980000", "142853.983000", "142853.985000", "142853.988000", "142853.990000", "142853.993000", "142853.995000", "142853.998000", "142854.001000", "142854.011000", "142854.013000", "142933.922000", "142933.924000", "142933.927000", "142933.929000", "142933.932000", "142933.934000", "142933.937000", "142933.939000", "142933.942000", "142933.945000", "142933.947000", "142933.950000", "142933.952000", "142933.955000", "142933.957000", "142933.960000", "142933.962000", "142933.965000", "142933.975000", "142933.978000", "142933.980000", "142933.983000", "142933.985000", "142933.997000", "142934.000000", "142934.003000", "142934.005000", "143013.941000", "143013.944000", "143013.947000", "143013.949000", "143013.952000", "143013.954000", "143013.957000", "143013.959000", "143013.962000", "143013.964000", "143013.967000", "143013.969000", "143013.972000", "143013.974000", "143013.977000", "143013.979000", "143013.982000", "143013.984000", "143013.987000", "143013.989000", "143013.992000", "143013.994000", "143013.997000", "143014.000000", "143014.002000", "143014.005000", "143014.007000", "143053.926000", "143053.929000", "143053.931000", "143053.934000", "143053.937000", "143053.939000", "143053.942000", "143053.944000", "143053.947000", "143053.950000", "143053.952000", "143053.955000", "143053.957000", "143053.960000", "143053.962000", "143053.965000", "143053.967000", "143053.970000", "143053.972000", "143053.975000", "143053.977000", "143053.980000", "143053.982000", "143053.985000", "143053.988000", "143053.990000", "143053.993000", "143133.940000", "143133.943000", "143133.945000", "143133.948000", "143133.950000", "143133.953000", "143133.956000", "143133.958000", "143133.961000", "143133.963000", "143133.966000", "143133.968000", "143133.971000", "143133.973000", "143133.976000", "143133.978000", "143133.981000", "143133.983000", "143133.986000", "143133.988000", "143133.991000", "143133.993000", "143133.996000", "143133.998000", "143134.002000", "143134.005000", "143134.007000", "143153.851000", "143153.854000", "143153.857000", "143153.860000", "143153.862000", "143153.865000", "143153.867000", "143153.870000", "143153.873000", "143153.875000", "143153.878000", "143153.880000", "143153.883000"],
      "InstanceCreationTime": ["142514.065000", "142514.068000", "142514.070000", "142514.073000", "142514.075000", "142514.078000", "142514.080000", "142514.083000", "142514.085000", "142514.088000", "142514.090000", "142514.093000", "142514.095000", "142514.098000", "142514.100000", "142514.103000", "142514.105000", "142514.108000", "142514.110000", "142514.118000", "142514.121000", "142514.123000", "142514.134000", "142514.137000", "142514.139000", "142514.142000", "142514.144000", "142514.147000", "142514.149000", "142514.152000", "142514.154000", "142533.965000", "142533.968000", "142533.970000", "142533.973000", "142533.976000", "142533.978000", "142533.980000", "142533.983000", "142533.985000", "142533.988000", "142533.990000", "142533.993000", "142533.995000", "142533.998000", "142534.002000", "142534.008000", "142534.010000", "142534.013000", "142534.015000", "142534.018000", "142534.020000", "142553.901000", "142553.904000", "142553.906000", "142553.909000", "142553.911000", "142553.914000", "142553.917000", "142553.919000", "142553.922000", "142553.924000", "142553.927000", "142553.929000", "142553.932000", "142553.934000", "142553.937000", "142553.939000", "142553.942000", "142553.944000", "142553.947000", "142553.950000", "142613.900000", "142613.903000", "142613.905000", "142613.908000", "142613.911000", "142613.913000", "142613.916000", "142613.918000", "142613.921000", "142613.923000", "142613.926000", "142613.928000", "142613.931000", "142613.933000", "142613.935000", "142613.938000", "142613.940000", "142613.943000", "142613.945000", "142613.948000", "142653.931000", "142653.933000", "142653.936000", "142653.938000", "142653.941000", "142653.943000", "142653.946000", "142653.949000", "142653.951000", "142653.953000", "142653.956000", "142653.958000", "142653.961000", "142653.963000", "142653.966000", "142653.968000", "142653.971000", "142653.974000", "142653.976000", "142653.978000", "142653.981000", "142653.984000", "142653.986000", "142653.996000", "142653.998000", "142654.002000", "142654.004000", "142654.007000", "142733.939000", "142733.942000", "142733.944000", "142733.947000", "142733.949000", "142733.952000", "142733.954000", "142733.957000", "142733.959000", "142733.962000", "142733.964000", "142733.967000", "142733.970000", "142733.972000", "142733.975000", "142733.978000", "142733.980000", "142733.983000", "142733.985000", "142733.988000", "142733.990000", "142733.993000", "142733.995000", "142733.998000", "142734.000000", "142734.003000", "142734.005000", "142813.924000", "142813.926000", "142813.929000", "142813.931000", "142813.934000", "142813.936000", "142813.939000", "142813.941000", "142813.944000", "142813.946000", "142813.949000", "142813.951000", "142813.954000", "142813.957000", "142813.959000", "142813.962000", "142813.964000", "142813.967000", "142813.969000", "142813.972000", "142813.974000", "142813.977000", "142813.979000", "142813.982000", "142813.984000", "142813.987000", "142813.989000", "142853.942000", "142853.945000", "142853.947000", "142853.950000", "142853.952000", "142853.955000", "142853.958000", "142853.960000", "142853.963000", "142853.965000", "142853.968000", "142853.970000", "142853.973000", "142853.975000", "142853.978000", "142853.980000", "142853.983000", "142853.985000", "142853.988000", "142853.990000", "142853.993000", "142853.995000", "142853.998000", "142854.001000", "142854.011000", "142854.013000", "142933.922000", "142933.924000", "142933.927000", "142933.929000", "142933.932000", "142933.934000", "142933.937000", "142933.939000", "142933.942000", "142933.945000", "142933.947000", "142933.950000", "142933.952000", "142933.955000", "142933.957000", "142933.960000", "142933.962000", "142933.965000", "142933.975000", "142933.978000", "142933.980000", "142933.983000", "142933.985000", "142933.997000", "142934.000000", "142934.003000", "142934.005000", "143013.941000", "143013.944000", "143013.947000", "143013.949000", "143013.952000", "143013.954000", "143013.957000", "143013.959000", "143013.962000", "143013.964000", "143013.967000", "143013.969000", "143013.972000", "143013.974000", "143013.977000", "143013.979000", "143013.982000", "143013.984000", "143013.987000", "143013.989000", "143013.992000", "143013.994000", "143013.997000", "143014.000000", "143014.002000", "143014.005000", "143014.007000", "143053.926000", "143053.929000", "143053.931000", "143053.934000", "143053.937000", "143053.939000", "143053.942000", "143053.944000", "143053.947000", "143053.950000", "143053.952000", "143053.955000", "143053.957000", "143053.960000", "143053.962000", "143053.965000", "143053.967000", "143053.970000", "143053.972000", "143053.975000", "143053.977000", "143053.980000", "143053.982000", "143053.985000", "143053.988000", "143053.990000", "143053.993000", "143133.940000", "143133.943000", "143133.945000", "143133.948000", "143133.950000", "143133.953000", "143133.956000", "143133.958000", "143133.961000", "143133.963000", "143133.966000", "143133.968000", "143133.971000", "143133.973000", "143133.976000", "143133.978000", "143133.981000", "143133.983000", "143133.986000", "143133.988000", "143133.991000", "143133.993000", "143133.996000", "143133.998000", "143134.002000", "143134.005000", "143134.007000", "143153.851000", "143153.854000", "143153.857000", "143153.860000", "143153.862000", "143153.865000", "143153.867000", "143153.870000", "143153.873000", "143153.875000", "143153.878000", "143153.880000", "143153.883000"],
      "InstanceNumber": [1, 2, 3, 4, 5, 6, 7, 8, 9, 10, 11, 12, 13, 14, 15, 16, 17, 18, 19, 20, 21, 22, 23, 24, 25, 26, 27, 28, 29, 30, 31, 32, 33, 34, 35, 36, 37, 38, 39, 40, 41, 42, 43, 44, 45, 46, 47, 48, 49, 50, 51, 52, 53, 54, 55, 56, 57, 58, 59, 60, 61, 62, 63, 64, 65, 66, 67, 68, 69, 70, 71, 72, 73, 74, 75, 76, 77, 78, 79, 80, 81, 82, 83, 84, 85, 86, 87, 88, 89, 90, 91, 92, 93, 94, 95, 96, 97, 98, 99, 100, 101, 102, 103, 104, 105, 106, 107, 108, 109, 110, 111, 112, 113, 114, 115, 116, 117, 118, 119, 120, 121, 122, 123, 124, 125, 126, 127, 128, 129, 130, 131, 132, 133, 134, 135, 136, 137, 138, 139, 140, 141, 142, 143, 144, 145, 146, 147, 148, 149, 150, 151, 152, 153, 154, 155, 156, 157, 158, 159, 160, 161, 162, 163, 164, 165, 166, 167, 168, 169, 170, 171, 172, 173, 174, 175, 176, 177, 178, 179, 180, 181, 182, 183, 184, 185, 186, 187, 188, 189, 190, 191, 192, 193, 194, 195, 196, 197, 198, 199, 200, 201, 202, 203, 204, 205, 206, 207, 208, 209, 210, 211, 212, 213, 214, 215, 216, 217, 218, 219, 220, 221, 222, 223, 224, 225, 226, 227, 228, 229, 230, 231, 232, 233, 234, 235, 236, 237, 238, 239, 240, 241, 242, 243, 244, 245, 246, 247, 248, 249, 250, 251, 252, 253, 254, 255, 256, 257, 258, 259, 260, 261, 262, 263, 264, 265, 266, 267, 268, 269, 270, 271, 272, 273, 274, 275, 276, 277, 278, 279, 280, 281, 282, 283, 284, 285, 286, 287, 288, 289, 290, 291, 292, 293, 294, 295, 296, 297, 298, 299, 300, 301, 302, 303, 304, 305, 306, 307, 308, 309, 310, 311, 312, 313, 314, 315, 316, 317, 318, 319, 320, 321],
      "WindowCenter": [4794.0, 4794.0, 4790.0, 4792.0, 4768.0, 4792.0, 4792.0, 4792.0, 4796.0, 4792.0, 4796.0, 4796.0, 4796.0, 4802.0, 4794.0, 4796.0, 4790.0, 4794.0, 4794.0, 4796.0, 4792.0, 4800.0, 4800.0, 4796.0, 4794.0, 4794.0, 4794.0, 4800.0, 4796.0, 4796.0, 4792.0, 4788.0, 4790.0, 4766.0, 4768.0, 4794.0, 4796.0, 4794.0, 4790.0, 4792.0, 4790.0, 4790.0, 4792.0, 4796.0, 4798.0, 4794.0, 4792.0, 4758.0, 4798.0, 4824.0, 4798.0, 4822.0, 4798.0, 4800.0, 4796.0, 4790.0, 4798.0, 4792.0, 4792.0, 4792.0, 4794.0, 4804.0, 4796.0, 4796.0, 4800.0, 4794.0, 4792.0, 4792.0, 4792.0, 4796.0, 4798.0, 4822.0, 4798.0, 4798.0, 4798.0, 4794.0, 4798.0, 4788.0, 4788.0, 4790.0, 4792.0, 4822.0, 4800.0, 4798.0, 4824.0, 4798.0, 4800.0, 4800.0, 4798.0, 4818.0, 4792.0, 4792.0, 4794.0, 4798.0, 4798.0, 4796.0, 4798.0, 4798.0, 4796.0, 4794.0, 4794.0, 4796.0, 4814.0, 4796.0, 4820.0, 4798.0, 4796.0, 4796.0, 4798.0, 4798.0, 4828.0, 4822.0, 4802.0, 4822.0, 4820.0, 4798.0, 4796.0, 4824.0, 4798.0, 4822.0, 4822.0, 4822.0, 4822.0, 4824.0, 4820.0, 4822.0, 4824.0, 4800.0, 4824.0, 4826.0, 4800.0, 4798.0, 4824.0, 4826.0, 4826.0, 4826.0, 4824.0, 4790.0, 4762.0, 4788.0, 4796.0, 4800.0, 4796.0, 4800.0, 4824.0, 4794.0, 4794.0, 4792.0, 4790.0, 4794.0, 4804.0, 4802.0, 4826.0, 4802.0, 4798.0, 4796.0, 4790.0, 4792.0, 4794.0, 4798.0, 4790.0, 4794.0, 4798.0, 4798.0, 4798.0, 4796.0, 4794.0, 4798.0, 4826.0, 4824.0, 4802.0, 4796.0, 4796.0, 4794.0, 4796.0, 4798.0, 4802.0, 4798.0, 4796.0, 4800.0, 4800.0, 4796.0, 4800.0, 4824.0, 4802.0, 4796.0, 4802.0, 4826.0, 4828.0, 4824.0, 4824.0, 4798.0, 4798.0, 4824.0, 4802.0, 4798.0, 4800.0, 4800.0, 4796.0, 4796.0, 4798.0, 4800.0, 4798.0, 4824.0, 4824.0, 4798.0, 4820.0, 4798.0, 4826.0, 4800.0, 4798.0, 4800.0, 4796.0, 4798.0, 4800.0, 4798.0, 4822.0, 4796.0, 4798.0, 4798.0, 4824.0, 4798.0, 4798.0, 4800.0, 4822.0, 4794.0, 4794.0, 4792.0, 4796.0, 4794.0, 4800.0, 4798.0, 4824.0, 4820.0, 4798.0, 4802.0, 4822.0, 4798.0, 4798.0, 4800.0, 4800.0, 4802.0, 4798.0, 4800.0, 4798.0, 4800.0, 4824.0, 4798.0, 4792.0, 4788.0, 4792.0, 4800.0, 4824.0, 4800.0, 4802.0, 4800.0, 4800.0, 4800.0, 4802.0, 4822.0, 4796.0, 4796.0, 4796.0, 4792.0, 4790.0, 4790.0, 4796.0, 4798.0, 4800.0, 4796.0, 4794.0, 4792.0, 4794.0, 4794.0, 4794.0, 4794.0, 4790.0, 4796.0, 4794.0, 4792.0, 4794.0, 4796.0, 4794.0, 4792.0, 4794.0, 4792.0, 4790.0, 4796.0, 4796.0, 4798.0, 4792.0, 4802.0, 4822.0, 4800.0, 4796.0, 4798.0, 4796.0, 4798.0, 4796.0, 4796.0, 4798.0, 4796.0, 4788.0, 4788.0, 4790.0, 4802.0, 4800.0, 4804.0, 4828.0, 4828.0, 4822.0, 4798.0, 4792.0, 4784.0, 4792.0, 4790.0, 4794.0, 4798.0, 4802.0, 4804.0, 4800.0],
