{
  "AcquisitionMatrixPE": 104,
  "AcquisitionNumber": 1,
  "AcquisitionTime": "11:52:15.015000",
  "BandwidthPerPixelPhaseEncode": 17.17,
  "BaseResolution": 104,
  "BodyPartExamined": "BRAIN",
  "CoilCombinationMethod": "Sum of Squares",
  "ConsistencyInfo": "N4_VE11C_LATEST_20160120",
  "ConversionSoftware": "dcm2niix",
  "ConversionSoftwareVersion": "v1.0.20220505",
  "DerivedVendorReportedEchoSpacing": 0.000560011,
  "DeviceSerialNumber": "167006",
  "DwellTime": 2.1e-06,
  "EchoTime": 0.037,
  "EchoTrainLength": 104,
  "EffectiveEchoSpacing": 0.000560011,
  "FlipAngle": 52,
  "HeudiconvVersion": "0.5.3.post811+g6206e14",
  "ImageComments": "Unaliased MB4/PE3/LB",
  "ImageOrientationPatientDICOM": [0.991201, 0.130984, 0.0190585, -0.113809, 0.9169, -0.382547],
  "ImageOrientationText": "Tra>Cor(-22.2)>Sag(3.9)",
  "ImageType": [
    "ORIGINAL",
    "PRIMARY",
    "M",
    "MB",
    "ND",
    "MOSAIC"
],
  "ImagingFrequency": 123.259,
  "InPlanePhaseEncodingDirectionDICOM": "COL",
  "InstitutionAddress": "Chemin Queen-Mary 4565,Montreal,District,CA,H3W 1W5",
  "InstitutionName": "IUGM",
  "InstitutionalDepartmentName": "Department",
  "MRAcquisitionType": "2D",
  "MagneticFieldStrength": 3,
  "Manufacturer": "Siemens",
  "ManufacturersModelName": "Prisma_fit",
  "MatrixCoilMode": "SENSE",
  "Modality": "MR",
  "MultibandAccelerationFactor": 4,
  "PartialFourier": 1,
  "PatientPosition": "HFS",
  "PercentPhaseFOV": 100,
  "PercentSampling": 100,
  "PhaseEncodingDirection": "j",
  "PhaseEncodingSteps": 104,
  "PhaseResolution": 1,
  "PixelBandwidth": 2290,
  "ProcedureStepDescription": "games^mario3",
  "ProtocolName": "func_task-mario3_run-02",
  "PulseSequenceDetails": "%CustomerSeq%\\cmrr_mbep2d_bold",
  "ReceiveCoilActiveElements": "HC1-7;NC1,2",
  "ReceiveCoilName": "HeadNeck_64",
  "ReconMatrixPE": 104,
  "RepetitionTime": 1.49,
  "SAR": 0.0517807,
  "ScanOptions": "FS",
  "ScanningSequence": "EP",
  "SequenceName": "epfid2d1_104",
  "SequenceVariant": "SK\\SS",
  "SeriesDescription": "func_task-mario3_run-02",
  "SeriesNumber": 13,
  "ShimSetting": [627, -7194, -8835, 618, 103, -21, -64, 2],
  "SliceThickness": 2,
  "SliceTiming": [0, 0.785, 0.0975, 0.8825, 0.1975, 0.98, 0.295, 1.0775, 0.3925, 1.1775, 0.49, 1.275, 0.5875, 1.3725, 0.6875, 0, 0.785, 0.0975, 0.8825, 0.1975, 0.98, 0.295, 1.0775, 0.3925, 1.1775, 0.49, 1.275, 0.5875, 1.3725, 0.6875, 0, 0.785, 0.0975, 0.8825, 0.1975, 0.98, 0.295, 1.0775, 0.3925, 1.1775, 0.49, 1.275, 0.5875, 1.3725, 0.6875, 0, 0.785, 0.0975, 0.8825, 0.1975, 0.98, 0.295, 1.0775, 0.3925, 1.1775, 0.49, 1.275, 0.5875, 1.3725, 0.6875],
  "SoftwareVersions": "syngo MR E11",
  "SpacingBetweenSlices": 2,
  "StationName": "MRC35049",
  "TaskName": "mario3",
  "TotalReadoutTime": 0.0576811,
  "TxRefAmp": 265.338,
  "WipMemBlock": "f20e336c-35af-4173-b792-f93e50c55891||Sequence: R017 ve11c/master r/75a17815+; Jun 28 2022 16:32:11 by eja",
  "dcmmeta_affine": [
    [-1.9824026823043823, -0.22761887311935425, 0.1351640671491623, 112.38368225097656],
    [-0.26196712255477905, 1.833799958229065, -0.7540232539176941, -43.454402923583984],
    [0.03811696171760559, 0.7650931477546692, 1.847479224205017, -68.62422180175781],
    [0.0, 0.0, 0.0, 1.0]
],
  "dcmmeta_reorient_transform": [
    [0.0, -1.0, 0.0, 103.0],
    [1.0, 0.0, 0.0, 0.0],
    [0.0, 0.0, 1.0, 0.0],
    [0.0, 0.0, 0.0, 1.0]
],
  "dcmmeta_shape": [104, 104, 60, 350],
  "dcmmeta_slice_dim": 2,
  "dcmmeta_version": 0.6,
  "global": {
    "const": {
      "AcquisitionMatrix": [104, 0, 0, 104],
      "AngioFlag": "N",
      "BitsAllocated": 16,
      "BitsStored": 16,
      "BodyPartExamined": "BRAIN",
      "Columns": 832,
      "EchoNumbers": 1,
      "EchoTime": 37.0,
      "EchoTrainLength": 104,
      "FlipAngle": 52.0,
      "HighBit": 15,
      "ImageOrientationPatient": [0.99120133212651, 0.13098356184694, 0.01905848148545, -0.1138094372425, 0.91689995906778, -0.3825465684803],
      "ImagePositionPatient": [-727.68023469942, -908.28619099406, 274.79970144735],
      "ImageType": [
        "ORIGINAL",
        "PRIMARY",
        "M",
        "MB",
        "ND",
        "MOSAIC"
],
      "ImagedNucleus": "1H",
      "ImagingFrequency": 123.258824,
      "InPlanePhaseEncodingDirection": "COL",
      "MRAcquisitionType": "2D",
      "MagneticFieldStrength": 3.0,
      "Manufacturer": "SIEMENS",
      "ManufacturerModelName": "Prisma_fit",
      "Modality": "MR",
      "NumberOfAverages": 1.0,
      "NumberOfPhaseEncodingSteps": 104,
      "PercentPhaseFieldOfView": 100.0,
      "PercentSampling": 100.0,
      "PerformedProcedureStepStartTime": "114034.532000",
      "PhotometricInterpretation": "MONOCHROME2",
      "PixelBandwidth": 2290.0,
      "PixelRepresentation": 0,
      "PixelSpacing": [2.0, 2.0],
      "ProtocolName": "func_task-mario3_run-02",
      "RepetitionTime": 1490.0,
      "Rows": 832,
      "SAR": 0.0517806767081,
      "SamplesPerPixel": 1,
      "ScanOptions": "FS",
      "ScanningSequence": "EP",
      "SequenceName": "epfid2d1_104",
      "SequenceVariant": [
        "SK",
        "SS"
],
      "SeriesDescription": "func_task-mario3_run-02",
      "SeriesNumber": 13,
      "SeriesTime": "115341.300000",
      "SliceLocation": -39.412977136908,
      "SliceThickness": 2.0,
      "SmallestImagePixelValue": 0,
      "SoftwareVersions": "syngo MR E11",
      "SpacingBetweenSlices": 2.0000000182307,
      "SpecificCharacterSet": "ISO_IR 100",
      "StudyID": "1",
      "StudyTime": "114034.444000",
      "TransmitCoilName": "Body",
      "VariableFlipAngleFlag": "N",
      "WindowCenterWidthExplanation": "Algo1",
      "dBdt": 0.0},
    "slices": {}
  },
  "time": {
    "samples": {
      "AcquisitionNumber": [1, 2, 3, 4, 5, 6, 7, 8, 9, 10, 11, 12, 13, 14, 15, 16, 17, 18, 19, 20, 21, 22, 23, 24, 25, 26, 27, 28, 29, 30, 31, 32, 33, 34, 35, 36, 37, 38, 39, 40, 41, 42, 43, 44, 45, 46, 47, 48, 49, 50, 51, 52, 53, 54, 55, 56, 57, 58, 59, 60, 61, 62, 63, 64, 65, 66, 67, 68, 69, 70, 71, 72, 73, 74, 75, 76, 77, 78, 79, 80, 81, 82, 83, 84, 85, 86, 87, 88, 89, 90, 91, 92, 93, 94, 95, 96, 97, 98, 99, 100, 101, 102, 103, 104, 105, 106, 107, 108, 109, 110, 111, 112, 113, 114, 115, 116, 117, 118, 119, 120, 121, 122, 123, 124, 125, 126, 127, 128, 129, 130, 131, 132, 133, 134, 135, 136, 137, 138, 139, 140, 141, 142, 143, 144, 145, 146, 147, 148, 149, 150, 151, 152, 153, 154, 155, 156, 157, 158, 159, 160, 161, 162, 163, 164, 165, 166, 167, 168, 169, 170, 171, 172, 173, 174, 175, 176, 177, 178, 179, 180, 181, 182, 183, 184, 185, 186, 187, 188, 189, 190, 191, 192, 193, 194, 195, 196, 197, 198, 199, 200, 201, 202, 203, 204, 205, 206, 207, 208, 209, 210, 211, 212, 213, 214, 215, 216, 217, 218, 219, 220, 221, 222, 223, 224, 225, 226, 227, 228, 229, 230, 231, 232, 233, 234, 235, 236, 237, 238, 239, 240, 241, 242, 243, 244, 245, 246, 247, 248, 249, 250, 251, 252, 253, 254, 255, 256, 257, 258, 259, 260, 261, 262, 263, 264, 265, 266, 267, 268, 269, 270, 271, 272, 273, 274, 275, 276, 277, 278, 279, 280, 281, 282, 283, 284, 285, 286, 287, 288, 289, 290, 291, 292, 293, 294, 295, 296, 297, 298, 299, 300, 301, 302, 303, 304, 305, 306, 307, 308, 309, 310, 311, 312, 313, 314, 315, 316, 317, 318, 319, 320, 321, 322, 323, 324, 325, 326, 327, 328, 329, 330, 331, 332, 333, 334, 335, 336, 337, 338, 339, 340, 341, 342, 343, 344, 345, 346, 347, 348, 349, 350],
      "AcquisitionTime": ["115215.015000", "115216.505000", "115217.995000", "115219.485000", "115220.975000", "115222.465000", "115223.955000", "115225.445000", "115226.935000", "115228.425000", "115229.915000", "115231.405000", "115232.895000", "115234.385000", "115235.875000", "115237.365000", "115238.855000", "115240.345000", "115241.835000", "115243.325000", "115244.815000", "115246.305000", "115247.795000", "115249.285000", "115250.775000", "115252.265000", "115253.755000", "115255.245000", "115256.735000", "115258.225000", "115259.715000", "115301.205000", "115302.695000", "115304.185000", "115305.675000", "115307.165000", "115308.655000", "115310.145000", "115311.635000", "115313.125000", "115314.615000", "115316.105000", "115317.595000", "115319.085000", "115320.575000", "115322.065000", "115323.555000", "115325.045000", "115326.535000", "115328.025000", "115329.515000", "115331.005000", "115332.495000", "115333.985000", "115335.475000", "115336.965000", "115338.455000", "115339.945000", "115341.435000", "115342.925000", "115344.415000", "115345.905000", "115347.395000", "115348.885000", "115350.375000", "115351.865000", "115353.355000", "115354.845000", "115356.335000", "115357.825000", "115359.315000", "115400.805000", "115402.295000", "115403.785000", "115405.275000", "115406.765000", "115408.255000", "115409.745000", "115411.235000", "115412.725000", "115414.215000", "115415.705000", "115417.195000", "115418.685000", "115420.175000", "115421.665000", "115423.155000", "115424.645000", "115426.135000", "115427.625000", "115429.115000", "115430.605000", "115432.095000", "115433.585000", "115435.075000", "115436.565000", "115438.055000", "115439.545000", "115441.035000", "115442.525000", "115444.015000", "115445.505000", "115446.995000", "115448.485000", "115449.975000", "115451.465000", "115452.955000", "115454.445000", "115455.935000", "115457.425000", "115458.915000", "115500.405000", "115501.895000", "115503.385000", "115504.875000", "115506.365000", "115507.855000", "115509.345000", "115510.835000", "115512.325000", "115513.815000", "115515.305000", "115516.795000", "115518.285000", "115519.775000", "115521.265000", "115522.755000", "115524.245000", "115525.735000", "115527.225000", "115528.715000", "115530.205000", "115531.695000", "115533.185000", "115534.675000", "115536.165000", "115537.655000", "115539.145000", "115540.635000", "115542.125000", "115543.615000", "115545.105000", "115546.595000", "115548.085000", "115549.575000", "115551.065000", "115552.555000", "115554.045000", "115555.535000", "115557.025000", "115558.515000", "115600.005000", "115601.495000", "115602.985000", "115604.475000", "115605.965000", "115607.455000", "115608.945000", "115610.435000", "115611.925000", "115613.415000", "115614.905000", "115616.395000", "115617.885000", "115619.375000", "115620.865000", "115622.355000", "115623.845000", "115625.335000", "115626.825000", "115628.315000", "115629.805000", "115631.295000", "115632.785000", "115634.275000", "115635.765000", "115637.255000", "115638.745000", "115640.235000", "115641.725000", "115643.215000", "115644.705000", "115646.195000", "115647.685000", "115649.175000", "115650.665000", "115652.155000", "115653.645000", "115655.135000", "115656.625000", "115658.115000", "115659.605000", "115701.095000", "115702.585000", "115704.075000", "115705.565000", "115707.055000", "115708.545000", "115710.035000", "115711.525000", "115713.015000", "115714.505000", "115715.995000", "115717.485000", "115718.975000", "115720.465000", "115721.955000", "115723.445000", "115724.935000", "115726.425000", "115727.915000", "115729.405000", "115730.895000", "115732.385000", "115733.875000", "115735.365000", "115736.855000", "115738.345000", "115739.835000", "115741.325000", "115742.815000", "115744.305000", "115745.795000", "115747.285000", "115748.775000", "115750.265000", "115751.755000", "115753.245000", "115754.735000", "115756.225000", "115757.715000", "115759.205000", "115800.695000", "115802.185000", "115803.675000", "115805.165000", "115806.655000", "115808.145000", "115809.635000", "115811.125000", "115812.615000", "115814.105000", "115815.595000", "115817.085000", "115818.575000", "115820.065000", "115821.555000", "115823.045000", "115824.535000", "115826.025000", "115827.515000", "115829.005000", "115830.495000", "115831.985000", "115833.475000", "115834.965000", "115836.455000", "115837.945000", "115839.435000", "115840.925000", "115842.415000", "115843.905000", "115845.395000", "115846.885000", "115848.375000", "115849.865000", "115851.355000", "115852.845000", "115854.335000", "115855.825000", "115857.315000", "115858.805000", "115900.295000", "115901.785000", "115903.275000", "115904.765000", "115906.255000", "115907.745000", "115909.235000", "115910.725000", "115912.215000", "115913.705000", "115915.195000", "115916.685000", "115918.175000", "115919.665000", "115921.155000", "115922.645000", "115924.135000", "115925.625000", "115927.115000", "115928.605000", "115930.095000", "115931.585000", "115933.075000", "115934.565000", "115936.055000", "115937.545000", "115939.035000", "115940.525000", "115942.015000", "115943.505000", "115944.995000", "115946.485000", "115947.975000", "115949.465000", "115950.955000", "115952.445000", "115953.935000", "115955.425000", "115956.915000", "115958.405000", "115959.895000", "120001.385000", "120002.875000", "120004.365000", "120005.855000", "120007.345000", "120008.835000", "120010.325000", "120011.815000", "120013.305000", "120014.795000", "120016.285000", "120017.775000", "120019.265000", "120020.755000", "120022.245000", "120023.735000", "120025.225000", "120026.715000", "120028.205000", "120029.695000", "120031.185000", "120032.675000", "120034.165000", "120035.655000", "120037.145000", "120038.635000", "120040.125000", "120041.615000", "120043.105000", "120044.595000", "120046.085000", "120047.575000", "120049.065000", "120050.555000", "120052.045000", "120053.535000", "120055.025000"],
      "ContentTime": ["115341.303000", "115341.307000", "115341.310000", "115341.314000", "115341.317000", "115341.321000", "115341.324000", "115341.332000", "115341.336000", "115341.339000", "115341.342000", "115341.346000", "115341.349000", "115341.352000", "115341.356000", "115341.359000", "115341.363000", "115341.366000", "115341.369000", "115341.373000", "115341.376000", "115341.379000", "115341.383000", "115341.386000", "115341.389000", "115341.393000", "115341.396000", "115341.400000", "115341.403000", "115341.406000", "115341.410000", "115341.413000", "115341.416000", "115341.420000", "115341.423000", "115341.426000", "115341.430000", "115401.264000", "115401.268000", "115401.271000", "115401.275000", "115401.278000", "115401.281000", "115401.285000", "115401.288000", "115401.292000", "115401.295000", "115401.298000", "115401.302000", "115401.305000", "115401.308000", "115401.312000", "115401.315000", "115401.319000", "115401.322000", "115401.325000", "115401.329000", "115421.264000", "115421.268000", "115421.271000", "115421.275000", "115421.278000", "115421.281000", "115421.285000", "115421.289000", "115421.293000", "115421.296000", "115421.300000", "115421.305000", "115421.310000", "115421.313000", "115421.318000", "115421.321000", "115421.325000", "115421.328000", "115421.332000", "115421.335000", "115441.264000", "115441.268000", "115441.272000", "115441.275000", "115441.278000", "115441.282000", "115441.285000", "115441.289000", "115441.292000", "115441.296000", "115441.299000", "115441.302000", "115441.306000", "115441.309000", "115441.312000", "115441.316000", "115441.319000", "115441.323000", "115441.326000", "115441.329000", "115441.333000", "115521.265000", "115521.269000", "115521.272000", "115521.276000", "115521.279000", "115521.283000", "115521.286000", "115521.290000", "115521.293000", "115521.296000", "115521.300000", "115521.303000", "115521.306000", "115521.310000", "115521.313000", "115521.317000", "115521.320000", "115521.323000", "115521.327000", "115521.330000", "115521.334000", "115521.338000", "115521.341000", "115521.345000", "115521.348000", "115521.351000", "115601.264000", "115601.268000", "115601.271000", "115601.275000", "115601.278000", "115601.282000", "115601.285000", "115601.288000", "115601.292000", "115601.295000", "115601.299000", "115601.302000", "115601.305000", "115601.309000", "115601.312000", "115601.316000", "115601.319000", "115601.322000", "115601.326000", "115601.329000", "115601.333000", "115601.336000", "115601.339000", "115601.343000", "115601.346000", "115601.349000", "115601.353000", "115641.264000", "115641.268000", "115641.271000", "115641.275000", "115641.278000", "115641.282000", "115641.285000", "115641.288000", "115641.292000", "115641.295000", "115641.298000", "115641.302000", "115641.305000", "115641.309000", "115641.312000", "115641.316000", "115641.319000", "115641.322000", "115641.326000", "115641.329000", "115641.333000", "115641.336000", "115641.339000", "115641.343000", "115641.346000", "115641.349000", "115641.353000", "115721.265000", "115721.269000", "115721.272000", "115721.276000", "115721.279000", "115721.283000", "115721.286000", "115721.289000", "115721.293000", "115721.296000", "115721.299000", "115721.313000", "115721.316000", "115721.320000", "115721.323000", "115721.326000", "115721.330000", "115721.333000", "115721.336000", "115721.340000", "115721.343000", "115721.347000", "115721.350000", "115721.353000", "115721.357000", "115721.360000", "115721.364000", "115801.265000", "115801.269000", "115801.273000", "115801.276000", "115801.279000", "115801.283000", "115801.286000", "115801.290000", "115801.293000", "115801.296000", "115801.300000", "115801.303000", "115801.307000", "115801.310000", "115801.313000", "115801.317000", "115801.320000", "115801.324000", "115801.327000", "115801.330000", "115801.334000", "115801.337000", "115801.341000", "115801.344000", "115801.348000", "115801.351000", "115801.354000", "115841.264000", "115841.268000", "115841.271000", "115841.275000", "115841.278000", "115841.281000", "115841.285000", "115841.288000", "115841.292000", "115841.295000", "115841.298000", "115841.302000", "115841.305000", "115841.309000", "115841.312000", "115841.315000", "115841.319000", "115841.322000", "115841.325000", "115841.329000", "115841.332000", "115841.336000", "115841.339000", "115841.342000", "115841.346000", "115841.349000", "115841.353000", "115921.264000", "115921.268000", "115921.271000", "115921.281000", "115921.285000", "115921.288000", "115921.291000", "115921.295000", "115921.298000", "115921.302000", "115921.305000", "115921.308000", "115921.312000", "115921.315000", "115921.318000", "115921.322000", "115921.325000", "115921.329000", "115921.332000", "115921.336000", "115921.339000", "115921.343000", "115921.346000", "115921.350000", "115921.353000", "115921.357000", "120001.265000", "120001.269000", "120001.273000", "120001.276000", "120001.279000", "120001.283000", "120001.286000", "120001.290000", "120001.293000", "120001.296000", "120001.300000", "120001.303000", "120001.307000", "120001.310000", "120001.313000", "120001.317000", "120001.320000", "120001.324000", "120001.327000", "120001.330000", "120001.334000", "120001.337000", "120001.340000", "120001.344000", "120001.347000", "120001.351000", "120001.354000", "120041.264000", "120041.268000", "120041.271000", "120041.275000", "120041.278000", "120041.282000", "120041.285000", "120041.289000", "120041.292000", "120041.295000", "120041.299000", "120041.302000", "120041.306000", "120041.309000", "120041.312000", "120041.316000", "120041.319000", "120041.323000", "120041.326000", "120041.329000", "120041.333000", "120041.336000", "120041.340000", "120041.343000", "120041.346000", "120041.350000", "120041.353000", "120057.144000", "120057.148000", "120057.152000", "120057.155000", "120057.159000", "120057.162000", "120057.166000", "120057.169000", "120057.172000", "120057.176000", "120057.179000"],
      "InstanceCreationTime": ["115341.303000", "115341.307000", "115341.310000", "115341.314000", "115341.317000", "115341.321000", "115341.324000", "115341.332000", "115341.336000", "115341.339000", "115341.342000", "115341.346000", "115341.349000", "115341.352000", "115341.356000", "115341.359000", "115341.363000", "115341.366000", "115341.369000", "115341.373000", "115341.376000", "115341.379000", "115341.383000", "115341.386000", "115341.389000", "115341.393000", "115341.396000", "115341.400000", "115341.403000", "115341.406000", "115341.410000", "115341.413000", "115341.416000", "115341.420000", "115341.423000", "115341.426000", "115341.430000", "115401.264000", "115401.268000", "115401.271000", "115401.275000", "115401.278000", "115401.281000", "115401.285000", "115401.288000", "115401.292000", "115401.295000", "115401.298000", "115401.302000", "115401.305000", "115401.308000", "115401.312000", "115401.315000", "115401.319000", "115401.322000", "115401.325000", "115401.329000", "115421.264000", "115421.268000", "115421.271000", "115421.275000", "115421.278000", "115421.281000", "115421.285000", "115421.289000", "115421.293000", "115421.296000", "115421.300000", "115421.305000", "115421.310000", "115421.313000", "115421.318000", "115421.321000", "115421.325000", "115421.328000", "115421.332000", "115421.335000", "115441.264000", "115441.268000", "115441.272000", "115441.275000", "115441.278000", "115441.282000", "115441.285000", "115441.289000", "115441.292000", "115441.296000", "115441.299000", "115441.302000", "115441.306000", "115441.309000", "115441.312000", "115441.316000", "115441.319000", "115441.323000", "115441.326000", "115441.329000", "115441.333000", "115521.265000", "115521.269000", "115521.272000", "115521.276000", "115521.279000", "115521.283000", "115521.286000", "115521.290000", "115521.293000", "115521.296000", "115521.300000", "115521.303000", "115521.306000", "115521.310000", "115521.313000", "115521.317000", "115521.320000", "115521.323000", "115521.327000", "115521.330000", "115521.334000", "115521.338000", "115521.341000", "115521.345000", "115521.348000", "115521.351000", "115601.264000", "115601.268000", "115601.271000", "115601.275000", "115601.278000", "115601.282000", "115601.285000", "115601.288000", "115601.292000", "115601.295000", "115601.299000", "115601.302000", "115601.305000", "115601.309000", "115601.312000", "115601.316000", "115601.319000", "115601.322000", "115601.326000", "115601.329000", "115601.333000", "115601.336000", "115601.339000", "115601.343000", "115601.346000", "115601.349000", "115601.353000", "115641.264000", "115641.268000", "115641.271000", "115641.275000", "115641.278000", "115641.282000", "115641.285000", "115641.288000", "115641.292000", "115641.295000", "115641.298000", "115641.302000", "115641.305000", "115641.309000", "115641.312000", "115641.316000", "115641.319000", "115641.322000", "115641.326000", "115641.329000", "115641.333000", "115641.336000", "115641.339000", "115641.343000", "115641.346000", "115641.349000", "115641.353000", "115721.265000", "115721.269000", "115721.272000", "115721.276000", "115721.279000", "115721.283000", "115721.286000", "115721.289000", "115721.293000", "115721.296000", "115721.299000", "115721.313000", "115721.316000", "115721.320000", "115721.323000", "115721.326000", "115721.330000", "115721.333000", "115721.336000", "115721.340000", "115721.343000", "115721.347000", "115721.350000", "115721.353000", "115721.357000", "115721.360000", "115721.364000", "115801.265000", "115801.269000", "115801.273000", "115801.276000", "115801.279000", "115801.283000", "115801.286000", "115801.290000", "115801.293000", "115801.296000", "115801.300000", "115801.303000", "115801.307000", "115801.310000", "115801.313000", "115801.317000", "115801.320000", "115801.324000", "115801.327000", "115801.330000", "115801.334000", "115801.337000", "115801.341000", "115801.344000", "115801.348000", "115801.351000", "115801.354000", "115841.264000", "115841.268000", "115841.271000", "115841.275000", "115841.278000", "115841.281000", "115841.285000", "115841.288000", "115841.292000", "115841.295000", "115841.298000", "115841.302000", "115841.305000", "115841.309000", "115841.312000", "115841.315000", "115841.319000", "115841.322000", "115841.325000", "115841.329000", "115841.332000", "115841.336000", "115841.339000", "115841.342000", "115841.346000", "115841.349000", "115841.353000", "115921.264000", "115921.268000", "115921.271000", "115921.281000", "115921.285000", "115921.288000", "115921.291000", "115921.295000", "115921.298000", "115921.302000", "115921.305000", "115921.308000", "115921.312000", "115921.315000", "115921.318000", "115921.322000", "115921.325000", "115921.329000", "115921.332000", "115921.336000", "115921.339000", "115921.343000", "115921.346000", "115921.350000", "115921.353000", "115921.357000", "120001.265000", "120001.269000", "120001.273000", "120001.276000", "120001.279000", "120001.283000", "120001.286000", "120001.290000", "120001.293000", "120001.296000", "120001.300000", "120001.303000", "120001.307000", "120001.310000", "120001.313000", "120001.317000", "120001.320000", "120001.324000", "120001.327000", "120001.330000", "120001.334000", "120001.337000", "120001.340000", "120001.344000", "120001.347000", "120001.351000", "120001.354000", "120041.264000", "120041.268000", "120041.271000", "120041.275000", "120041.278000", "120041.282000", "120041.285000", "120041.289000", "120041.292000", "120041.295000", "120041.299000", "120041.302000", "120041.306000", "120041.309000", "120041.312000", "120041.316000", "120041.319000", "120041.323000", "120041.326000", "120041.329000", "120041.333000", "120041.336000", "120041.340000", "120041.343000", "120041.346000", "120041.350000", "120041.353000", "120057.144000", "120057.148000", "120057.152000", "120057.155000", "120057.159000", "120057.162000", "120057.166000", "120057.169000", "120057.172000", "120057.176000", "120057.179000"],
      "InstanceNumber": [1, 2, 3, 4, 5, 6, 7, 8, 9, 10, 11, 12, 13, 14, 15, 16, 17, 18, 19, 20, 21, 22, 23, 24, 25, 26, 27, 28, 29, 30, 31, 32, 33, 34, 35, 36, 37, 38, 39, 40, 41, 42, 43, 44, 45, 46, 47, 48, 49, 50, 51, 52, 53, 54, 55, 56, 57, 58, 59, 60, 61, 62, 63, 64, 65, 66, 67, 68, 69, 70, 71, 72, 73, 74, 75, 76, 77, 78, 79, 80, 81, 82, 83, 84, 85, 86, 87, 88, 89, 90, 91, 92, 93, 94, 95, 96, 97, 98, 99, 100, 101, 102, 103, 104, 105, 106, 107, 108, 109, 110, 111, 112, 113, 114, 115, 116, 117, 118, 119, 120, 121, 122, 123, 124, 125, 126, 127, 128, 129, 130, 131, 132, 133, 134, 135, 136, 137, 138, 139, 140, 141, 142, 143, 144, 145, 146, 147, 148, 149, 150, 151, 152, 153, 154, 155, 156, 157, 158, 159, 160, 161, 162, 163, 164, 165, 166, 167, 168, 169, 170, 171, 172, 173, 174, 175, 176, 177, 178, 179, 180, 181, 182, 183, 184, 185, 186, 187, 188, 189, 190, 191, 192, 193, 194, 195, 196, 197, 198, 199, 200, 201, 202, 203, 204, 205, 206, 207, 208, 209, 210, 211, 212, 213, 214, 215, 216, 217, 218, 219, 220, 221, 222, 223, 224, 225, 226, 227, 228, 229, 230, 231, 232, 233, 234, 235, 236, 237, 238, 239, 240, 241, 242, 243, 244, 245, 246, 247, 248, 249, 250, 251, 252, 253, 254, 255, 256, 257, 258, 259, 260, 261, 262, 263, 264, 265, 266, 267, 268, 269, 270, 271, 272, 273, 274, 275, 276, 277, 278, 279, 280, 281, 282, 283, 284, 285, 286, 287, 288, 289, 290, 291, 292, 293, 294, 295, 296, 297, 298, 299, 300, 301, 302, 303, 304, 305, 306, 307, 308, 309, 310, 311, 312, 313, 314, 315, 316, 317, 318, 319, 320, 321, 322, 323, 324, 325, 326, 327, 328, 329, 330, 331, 332, 333, 334, 335, 336, 337, 338, 339, 340, 341, 342, 343, 344, 345, 346, 347, 348, 349, 350],
      "LargestImagePixelValue": [46079, 46169, 44127, 45398, 44077, 44801, 44134, 44452, 43280, 45629, 43967, 45404, 44622, 44874, 46026, 46076, 46809, 46568, 46588, 47121, 45879, 47544, 46578, 47768, 47645, 47968, 47033, 47988, 46912, 48008, 45851, 47282, 46746, 45926, 47257, 47141, 46650, 46800, 46834, 46947, 47628, 46743, 47365, 46177, 46318, 47401, 44913, 47210, 46654, 45603, 47440, 45710, 47426, 46426, 45591, 43918, 44368, 44313, 45747, 45724, 46421, 46748, 47097, 46066, 46861, 46103, 45123, 46374, 45897, 44779, 44595, 45965, 44896, 46347, 46192, 46214, 45811, 46232, 45129, 46337, 44820, 46385, 44164, 46662, 45329, 46790, 45744, 46438, 46206, 44206, 46207, 44440, 45500, 43781, 44664, 44605, 44250, 43502, 43508, 43576, 43638, 43456, 42883, 41715, 43663, 42931, 43749, 44211, 42490, 43437, 42376, 42978, 43050, 42825, 43478, 42518, 44114, 42545, 44813, 44465, 44815, 44328, 44528, 43844, 44645, 43305, 43363, 44358, 43091, 43574, 44227, 43239, 43965, 44679, 43395, 43587, 43367, 44006, 44295, 42883, 43561, 43413, 43088, 44208, 44217, 43652, 45415, 43753, 44181, 44375, 44143, 44844, 44111, 42504, 44002, 43453, 42999, 43680, 42845, 43471, 42722, 44125, 43331, 43164, 44445, 43684, 44264, 45027, 43885, 44003, 43893, 43218, 43075, 43262, 42585, 43328, 43931, 42818, 43220, 44075, 42657, 43542, 43863, 42744, 43133, 43670, 44611, 43278, 43385, 44335, 43631, 44597, 44570, 43231, 43808, 45274, 43783, 43551, 44386, 42827, 43879, 44304, 44031, 44030, 44664, 43794, 44404, 43947, 44029, 45604, 43988, 44725, 44115, 44540, 45035, 44065, 44414, 45187, 43977, 44342, 44664, 44513, 44725, 44143, 43822, 44845, 43580, 44743, 44836, 43681, 45136, 43726, 44129, 44102, 43459, 44537, 43982, 43849, 45154, 43864, 43913, 44860, 43773, 43779, 43730, 43876, 43290, 43528, 43640, 41809, 42367, 42465, 41603, 43038, 41758, 42863, 42865, 41959, 43186, 42898, 42329, 42558, 41931, 43014, 43252, 42405, 43695, 41918, 42386, 43069, 41975, 42207, 41672, 41010, 42947, 41823, 42262, 41950, 41116, 42320, 41435, 41079, 40952, 41628, 41191, 40677, 41471, 40705, 41335, 42855, 42383, 42046, 43373, 41697, 41158, 43046, 41220, 41254, 40860, 40962, 42490, 41286, 42026, 41059, 41138, 42815, 41347, 42263, 42398, 41491, 41208, 41421, 41461, 41194, 42878, 42695, 41176, 42493, 41088, 41873, 41540, 41690, 42819, 42392, 42761, 42049, 42895, 42646, 42122, 41967, 43064, 41710, 41364, 41796, 41537, 44067, 41691, 42798, 43934, 42377, 42758, 44455, 42048, 42497, 43830, 42285, 42472, 43672, 41836, 42520],
