{
  "AcquisitionMatrixPE": 104,
  "AcquisitionNumber": 1,
  "AcquisitionTime": "11:43:8.855000",
  "BandwidthPerPixelPhaseEncode": 17.17,
  "BaseResolution": 104,
  "BodyPartExamined": "BRAIN",
  "CoilCombinationMethod": "Sum of Squares",
  "ConsistencyInfo": "N4_VE11C_LATEST_20160120",
  "ConversionSoftware": "dcm2niix",
  "ConversionSoftwareVersion": "v1.0.20220505",
  "DerivedVendorReportedEchoSpacing": 0.000560011,
  "DeviceSerialNumber": "167006",
  "DwellTime": 2.1e-06,
  "EchoTime": 0.037,
  "EchoTrainLength": 104,
  "EffectiveEchoSpacing": 0.000560011,
  "FlipAngle": 52,
  "HeudiconvVersion": "0.5.3.post811+g6206e14",
  "ImageComments": "Unaliased MB4/PE3/LB",
  "ImageOrientationPatientDICOM": [0.991201, 0.130984, 0.0190585, -0.113809, 0.9169, -0.382547],
  "ImageOrientationText": "Tra>Cor(-22.2)>Sag(3.9)",
  "ImageType": [
    "ORIGINAL",
    "PRIMARY",
    "M",
    "MB",
    "ND",
    "MOSAIC"
],
  "ImagingFrequency": 123.259,
  "InPlanePhaseEncodingDirectionDICOM": "COL",
  "InstitutionAddress": "Chemin Queen-Mary 4565,Montreal,District,CA,H3W 1W5",
  "InstitutionName": "IUGM",
  "InstitutionalDepartmentName": "Department",
  "MRAcquisitionType": "2D",
  "MagneticFieldStrength": 3,
  "Manufacturer": "Siemens",
  "ManufacturersModelName": "Prisma_fit",
  "MatrixCoilMode": "SENSE",
  "Modality": "MR",
  "MultibandAccelerationFactor": 4,
  "PartialFourier": 1,
  "PatientPosition": "HFS",
  "PercentPhaseFOV": 100,
  "PercentSampling": 100,
  "PhaseEncodingDirection": "j",
  "PhaseEncodingSteps": 104,
  "PhaseResolution": 1,
  "PixelBandwidth": 2290,
  "ProcedureStepDescription": "games^mario3",
  "ProtocolName": "func_task-mario3_run-01",
  "PulseSequenceDetails": "%CustomerSeq%\\cmrr_mbep2d_bold",
  "ReceiveCoilActiveElements": "HC1-7;NC1,2",
  "ReceiveCoilName": "HeadNeck_64",
  "ReconMatrixPE": 104,
  "RepetitionTime": 1.49,
  "SAR": 0.0517807,
  "ScanOptions": "FS",
  "ScanningSequence": "EP",
  "SequenceName": "epfid2d1_104",
  "SequenceVariant": "SK\\SS",
  "SeriesDescription": "func_task-mario3_run-01",
  "SeriesNumber": 10,
  "ShimSetting": [627, -7194, -8835, 618, 103, -21, -64, 2],
  "SliceThickness": 2,
  "SliceTiming": [0, 0.7825, 0.0975, 0.88, 0.195, 0.98, 0.2925, 1.0775, 0.39, 1.175, 0.49, 1.2725, 0.5875, 1.37, 0.685, 0, 0.7825, 0.0975, 0.88, 0.195, 0.98, 0.2925, 1.0775, 0.39, 1.175, 0.49, 1.2725, 0.5875, 1.37, 0.685, 0, 0.7825, 0.0975, 0.88, 0.195, 0.98, 0.2925, 1.0775, 0.39, 1.175, 0.49, 1.2725, 0.5875, 1.37, 0.685, 0, 0.7825, 0.0975, 0.88, 0.195, 0.98, 0.2925, 1.0775, 0.39, 1.175, 0.49, 1.2725, 0.5875, 1.37, 0.685],
  "SoftwareVersions": "syngo MR E11",
  "SpacingBetweenSlices": 2,
  "StationName": "MRC35049",
  "TaskName": "mario3",
  "TotalReadoutTime": 0.0576811,
  "TxRefAmp": 265.338,
  "WipMemBlock": "702ec4ab-cfe0-452e-976b-03a454793a64||Sequence: R017 ve11c/master r/75a17815+; Jun 28 2022 16:32:11 by eja",
  "dcmmeta_affine": [
    [-1.9824026823043823, -0.22761887311935425, 0.1351640671491623, 112.38368225097656],
    [-0.26196712255477905, 1.833799958229065, -0.7540232539176941, -43.454402923583984],
    [0.03811696171760559, 0.7650931477546692, 1.847479224205017, -68.62422180175781],
    [0.0, 0.0, 0.0, 1.0]
],
  "dcmmeta_reorient_transform": [
    [0.0, -1.0, 0.0, 103.0],
    [1.0, 0.0, 0.0, 0.0],
    [0.0, 0.0, 1.0, 0.0],
    [0.0, 0.0, 0.0, 1.0]
],
  "dcmmeta_shape": [104, 104, 60, 315],
  "dcmmeta_slice_dim": 2,
  "dcmmeta_version": 0.6,
  "global": {
    "const": {
      "AcquisitionMatrix": [104, 0, 0, 104],
      "AngioFlag": "N",
      "BitsAllocated": 16,
      "BitsStored": 16,
      "BodyPartExamined": "BRAIN",
      "Columns": 832,
      "EchoNumbers": 1,
      "EchoTime": 37.0,
      "EchoTrainLength": 104,
      "FlipAngle": 52.0,
      "HighBit": 15,
      "ImageOrientationPatient": [0.99120133212651, 0.13098356184694, 0.01905848148545, -0.1138094372425, 0.91689995906778, -0.3825465684803],
      "ImagePositionPatient": [-727.68023469942, -908.28619099406, 274.79970144735],
      "ImageType": [
        "ORIGINAL",
        "PRIMARY",
        "M",
        "MB",
        "ND",
        "MOSAIC"
],
      "ImagedNucleus": "1H",
      "ImagingFrequency": 123.258817,
      "InPlanePhaseEncodingDirection": "COL",
      "MRAcquisitionType": "2D",
      "MagneticFieldStrength": 3.0,
      "Manufacturer": "SIEMENS",
      "ManufacturerModelName": "Prisma_fit",
      "Modality": "MR",
      "NumberOfAverages": 1.0,
      "NumberOfPhaseEncodingSteps": 104,
      "PercentPhaseFieldOfView": 100.0,
      "PercentSampling": 100.0,
      "PerformedProcedureStepStartTime": "114034.532000",
      "PhotometricInterpretation": "MONOCHROME2",
      "PixelBandwidth": 2290.0,
      "PixelRepresentation": 0,
      "PixelSpacing": [2.0, 2.0],
      "ProtocolName": "func_task-mario3_run-01",
      "RepetitionTime": 1490.0,
      "Rows": 832,
      "SAR": 0.0517806767081,
      "SamplesPerPixel": 1,
      "ScanOptions": "FS",
      "ScanningSequence": "EP",
      "SequenceName": "epfid2d1_104",
      "SequenceVariant": [
        "SK",
        "SS"
],
      "SeriesDescription": "func_task-mario3_run-01",
      "SeriesNumber": 10,
      "SeriesTime": "114438.739000",
      "SliceLocation": -39.412977136908,
      "SliceThickness": 2.0,
      "SmallestImagePixelValue": 0,
      "SoftwareVersions": "syngo MR E11",
      "SpacingBetweenSlices": 2.0000000182307,
      "SpecificCharacterSet": "ISO_IR 100",
      "StudyID": "1",
      "StudyTime": "114034.444000",
      "TransmitCoilName": "Body",
      "VariableFlipAngleFlag": "N",
      "WindowCenterWidthExplanation": "Algo1",
      "dBdt": 0.0},
    "slices": {}
  },
  "time": {
    "samples": {
      "AcquisitionNumber": [1, 2, 3, 4, 5, 6, 7, 8, 9, 10, 11, 12, 13, 14, 15, 16, 17, 18, 19, 20, 21, 22, 23, 24, 25, 26, 27, 28, 29, 30, 31, 32, 33, 34, 35, 36, 37, 38, 39, 40, 41, 42, 43, 44, 45, 46, 47, 48, 49, 50, 51, 52, 53, 54, 55, 56, 57, 58, 59, 60, 61, 62, 63, 64, 65, 66, 67, 68, 69, 70, 71, 72, 73, 74, 75, 76, 77, 78, 79, 80, 81, 82, 83, 84, 85, 86, 87, 88, 89, 90, 91, 92, 93, 94, 95, 96, 97, 98, 99, 100, 101, 102, 103, 104, 105, 106, 107, 108, 109, 110, 111, 112, 113, 114, 115, 116, 117, 118, 119, 120, 121, 122, 123, 124, 125, 126, 127, 128, 129, 130, 131, 132, 133, 134, 135, 136, 137, 138, 139, 140, 141, 142, 143, 144, 145, 146, 147, 148, 149, 150, 151, 152, 153, 154, 155, 156, 157, 158, 159, 160, 161, 162, 163, 164, 165, 166, 167, 168, 169, 170, 171, 172, 173, 174, 175, 176, 177, 178, 179, 180, 181, 182, 183, 184, 185, 186, 187, 188, 189, 190, 191, 192, 193, 194, 195, 196, 197, 198, 199, 200, 201, 202, 203, 204, 205, 206, 207, 208, 209, 210, 211, 212, 213, 214, 215, 216, 217, 218, 219, 220, 221, 222, 223, 224, 225, 226, 227, 228, 229, 230, 231, 232, 233, 234, 235, 236, 237, 238, 239, 240, 241, 242, 243, 244, 245, 246, 247, 248, 249, 250, 251, 252, 253, 254, 255, 256, 257, 258, 259, 260, 261, 262, 263, 264, 265, 266, 267, 268, 269, 270, 271, 272, 273, 274, 275, 276, 277, 278, 279, 280, 281, 282, 283, 284, 285, 286, 287, 288, 289, 290, 291, 292, 293, 294, 295, 296, 297, 298, 299, 300, 301, 302, 303, 304, 305, 306, 307, 308, 309, 310, 311, 312, 313, 314, 315],
      "AcquisitionTime": ["114308.855000", "114310.345000", "114311.835000", "114313.325000", "114314.815000", "114316.305000", "114317.795000", "114319.285000", "114320.775000", "114322.265000", "114323.755000", "114325.245000", "114326.735000", "114328.225000", "114329.715000", "114331.205000", "114332.695000", "114334.185000", "114335.675000", "114337.165000", "114338.655000", "114340.145000", "114341.635000", "114343.125000", "114344.615000", "114346.105000", "114347.595000", "114349.085000", "114350.575000", "114352.065000", "114353.555000", "114355.045000", "114356.535000", "114358.025000", "114359.515000", "114401.005000", "114402.495000", "114403.985000", "114405.475000", "114406.965000", "114408.455000", "114409.945000", "114411.435000", "114412.925000", "114414.415000", "114415.905000", "114417.395000", "114418.885000", "114420.375000", "114421.865000", "114423.355000", "114424.845000", "114426.335000", "114427.825000", "114429.315000", "114430.805000", "114432.295000", "114433.785000", "114435.275000", "114436.765000", "114438.255000", "114439.745000", "114441.235000", "114442.725000", "114444.215000", "114445.705000", "114447.195000", "114448.685000", "114450.175000", "114451.665000", "114453.155000", "114454.645000", "114456.135000", "114457.625000", "114459.115000", "114500.605000", "114502.095000", "114503.585000", "114505.075000", "114506.565000", "114508.055000", "114509.545000", "114511.035000", "114512.525000", "114514.015000", "114515.505000", "114516.995000", "114518.485000", "114519.975000", "114521.465000", "114522.955000", "114524.445000", "114525.935000", "114527.425000", "114528.915000", "114530.405000", "114531.895000", "114533.385000", "114534.875000", "114536.365000", "114537.855000", "114539.345000", "114540.835000", "114542.325000", "114543.815000", "114545.305000", "114546.795000", "114548.285000", "114549.775000", "114551.265000", "114552.755000", "114554.245000", "114555.735000", "114557.225000", "114558.715000", "114600.205000", "114601.695000", "114603.185000", "114604.675000", "114606.165000", "114607.655000", "114609.145000", "114610.635000", "114612.125000", "114613.615000", "114615.105000", "114616.595000", "114618.085000", "114619.575000", "114621.065000", "114622.555000", "114624.045000", "114625.535000", "114627.025000", "114628.515000", "114630.005000", "114631.495000", "114632.985000", "114634.475000", "114635.965000", "114637.455000", "114638.945000", "114640.435000", "114641.925000", "114643.415000", "114644.905000", "114646.395000", "114647.885000", "114649.375000", "114650.865000", "114652.355000", "114653.845000", "114655.335000", "114656.825000", "114658.315000", "114659.805000", "114701.295000", "114702.785000", "114704.275000", "114705.765000", "114707.255000", "114708.745000", "114710.235000", "114711.725000", "114713.215000", "114714.705000", "114716.195000", "114717.685000", "114719.175000", "114720.665000", "114722.155000", "114723.645000", "114725.135000", "114726.625000", "114728.115000", "114729.605000", "114731.095000", "114732.585000", "114734.075000", "114735.565000", "114737.055000", "114738.545000", "114740.035000", "114741.525000", "114743.015000", "114744.505000", "114745.995000", "114747.485000", "114748.975000", "114750.465000", "114751.955000", "114753.445000", "114754.935000", "114756.425000", "114757.915000", "114759.405000", "114800.895000", "114802.385000", "114803.875000", "114805.365000", "114806.855000", "114808.345000", "114809.835000", "114811.325000", "114812.815000", "114814.305000", "114815.795000", "114817.285000", "114818.775000", "114820.265000", "114821.755000", "114823.245000", "114824.735000", "114826.225000", "114827.715000", "114829.205000", "114830.695000", "114832.185000", "114833.675000", "114835.165000", "114836.655000", "114838.145000", "114839.635000", "114841.125000", "114842.615000", "114844.105000", "114845.595000", "114847.085000", "114848.575000", "114850.065000", "114851.555000", "114853.045000", "114854.535000", "114856.025000", "114857.515000", "114859.005000", "114900.495000", "114901.985000", "114903.475000", "114904.965000", "114906.455000", "114907.945000", "114909.435000", "114910.925000", "114912.415000", "114913.905000", "114915.395000", "114916.885000", "114918.375000", "114919.865000", "114921.355000", "114922.845000", "114924.335000", "114925.825000", "114927.315000", "114928.805000", "114930.295000", "114931.785000", "114933.275000", "114934.765000", "114936.255000", "114937.745000", "114939.235000", "114940.725000", "114942.215000", "114943.705000", "114945.195000", "114946.685000", "114948.175000", "114949.665000", "114951.155000", "114952.645000", "114954.135000", "114955.625000", "114957.115000", "114958.605000", "115000.095000", "115001.585000", "115003.075000", "115004.565000", "115006.055000", "115007.545000", "115009.035000", "115010.525000", "115012.015000", "115013.505000", "115014.995000", "115016.485000", "115017.975000", "115019.465000", "115020.955000", "115022.445000", "115023.935000", "115025.425000", "115026.915000", "115028.405000", "115029.895000", "115031.385000", "115032.875000", "115034.365000", "115035.855000", "115037.345000", "115038.835000", "115040.325000", "115041.815000", "115043.305000", "115044.795000", "115046.285000", "115047.775000", "115049.265000", "115050.755000", "115052.245000", "115053.735000", "115055.225000", "115056.715000"],
      "ContentTime": ["114438.742000", "114438.746000", "114438.749000", "114438.752000", "114438.756000", "114438.759000", "114438.772000", "114438.775000", "114438.779000", "114438.782000", "114438.786000", "114438.789000", "114438.792000", "114438.796000", "114438.799000", "114438.803000", "114438.806000", "114438.809000", "114438.813000", "114438.816000", "114438.820000", "114438.823000", "114438.826000", "114438.830000", "114438.833000", "114438.836000", "114438.840000", "114438.843000", "114438.846000", "114438.850000", "114458.704000", "114458.731000", "114458.734000", "114458.737000", "114458.741000", "114458.744000", "114458.747000", "114458.751000", "114458.754000", "114458.757000", "114458.761000", "114458.764000", "114458.768000", "114458.771000", "114458.774000", "114458.778000", "114458.781000", "114458.784000", "114458.788000", "114458.791000", "114518.704000", "114518.708000", "114518.711000", "114518.715000", "114518.718000", "114518.721000", "114518.725000", "114518.728000", "114518.732000", "114518.735000", "114518.739000", "114518.742000", "114518.745000", "114518.749000", "114518.752000", "114518.755000", "114518.759000", "114518.762000", "114518.766000", "114518.769000", "114538.704000", "114538.708000", "114538.711000", "114538.715000", "114538.718000", "114538.721000", "114538.725000", "114538.729000", "114538.732000", "114538.736000", "114538.739000", "114538.743000", "114538.747000", "114538.750000", "114538.754000", "114538.758000", "114538.762000", "114538.765000", "114538.768000", "114538.772000", "114558.705000", "114558.709000", "114558.712000", "114558.716000", "114558.719000", "114558.722000", "114558.726000", "114558.729000", "114558.733000", "114558.736000", "114558.739000", "114558.743000", "114558.746000", "114558.749000", "114558.753000", "114558.756000", "114558.760000", "114558.763000", "114558.766000", "114558.770000", "114558.773000", "114638.704000", "114638.708000", "114638.711000", "114638.715000", "114638.718000", "114638.721000", "114638.725000", "114638.728000", "114638.732000", "114638.735000", "114638.738000", "114638.742000", "114638.745000", "114638.749000", "114638.752000", "114638.755000", "114638.759000", "114638.762000", "114638.765000", "114638.769000", "114638.785000", "114638.788000", "114638.792000", "114638.795000", "114638.799000", "114638.802000", "114638.805000", "114638.809000", "114638.812000", "114718.704000", "114718.708000", "114718.711000", "114718.715000", "114718.718000", "114718.722000", "114718.725000", "114718.728000", "114718.732000", "114718.735000", "114718.739000", "114718.742000", "114718.745000", "114718.749000", "114718.752000", "114718.756000", "114718.759000", "114718.762000", "114718.766000", "114718.769000", "114718.773000", "114718.776000", "114718.779000", "114718.783000", "114718.786000", "114718.789000", "114718.793000", "114758.704000", "114758.708000", "114758.711000", "114758.715000", "114758.718000", "114758.722000", "114758.725000", "114758.728000", "114758.732000", "114758.735000", "114758.739000", "114758.742000", "114758.745000", "114758.749000", "114758.752000", "114758.755000", "114758.759000", "114758.762000", "114758.766000", "114758.769000", "114758.772000", "114758.776000", "114758.779000", "114758.783000", "114758.786000", "114758.789000", "114758.793000", "114838.704000", "114838.708000", "114838.711000", "114838.715000", "114838.718000", "114838.722000", "114838.725000", "114838.728000", "114838.732000", "114838.735000", "114838.738000", "114838.742000", "114838.745000", "114838.748000", "114838.752000", "114838.755000", "114838.759000", "114838.762000", "114838.770000", "114838.774000", "114838.777000", "114838.781000", "114838.784000", "114838.788000", "114838.791000", "114838.794000", "114838.798000", "114918.704000", "114918.708000", "114918.712000", "114918.716000", "114918.720000", "114918.723000", "114918.726000", "114918.730000", "114918.733000", "114918.737000", "114918.740000", "114918.743000", "114918.747000", "114918.750000", "114918.754000", "114918.757000", "114918.760000", "114918.764000", "114918.767000", "114918.771000", "114918.774000", "114918.778000", "114918.781000", "114918.784000", "114918.788000", "114918.791000", "114958.704000", "114958.708000", "114958.711000", "114958.715000", "114958.718000", "114958.722000", "114958.725000", "114958.728000", "114958.732000", "114958.735000", "114958.739000", "114958.742000", "114958.745000", "114958.749000", "114958.752000", "114958.756000", "114958.759000", "114958.762000", "114958.766000", "114958.769000", "114958.772000", "114958.776000", "114958.779000", "114958.783000", "114958.786000", "114958.789000", "114958.793000", "115038.705000", "115038.709000", "115038.712000", "115038.716000", "115038.719000", "115038.723000", "115038.726000", "115038.729000", "115038.733000", "115038.736000", "115038.740000", "115038.743000", "115038.746000", "115038.750000", "115038.753000", "115038.757000", "115038.760000", "115038.763000", "115038.767000", "115038.770000", "115038.773000", "115038.777000", "115038.780000", "115038.784000", "115038.787000", "115038.790000", "115038.794000", "115058.705000", "115058.708000", "115058.712000", "115058.715000", "115058.719000", "115058.722000", "115058.726000", "115058.729000", "115058.732000", "115058.736000", "115058.739000", "115058.743000", "115058.746000", "115058.749000"],
      "InstanceCreationTime": ["114438.742000", "114438.746000", "114438.749000", "114438.752000", "114438.756000", "114438.759000", "114438.772000", "114438.775000", "114438.779000", "114438.782000", "114438.786000", "114438.789000", "114438.792000", "114438.796000", "114438.799000", "114438.803000", "114438.806000", "114438.809000", "114438.813000", "114438.816000", "114438.820000", "114438.823000", "114438.826000", "114438.830000", "114438.833000", "114438.836000", "114438.840000", "114438.843000", "114438.846000", "114438.850000", "114458.704000", "114458.731000", "114458.734000", "114458.737000", "114458.741000", "114458.744000", "114458.747000", "114458.751000", "114458.754000", "114458.757000", "114458.761000", "114458.764000", "114458.768000", "114458.771000", "114458.774000", "114458.778000", "114458.781000", "114458.784000", "114458.788000", "114458.791000", "114518.704000", "114518.708000", "114518.711000", "114518.715000", "114518.718000", "114518.721000", "114518.725000", "114518.728000", "114518.732000", "114518.735000", "114518.739000", "114518.742000", "114518.745000", "114518.749000", "114518.752000", "114518.755000", "114518.759000", "114518.762000", "114518.766000", "114518.769000", "114538.704000", "114538.708000", "114538.711000", "114538.715000", "114538.718000", "114538.721000", "114538.725000", "114538.729000", "114538.732000", "114538.736000", "114538.739000", "114538.743000", "114538.747000", "114538.750000", "114538.754000", "114538.758000", "114538.762000", "114538.765000", "114538.768000", "114538.772000", "114558.705000", "114558.709000", "114558.712000", "114558.716000", "114558.719000", "114558.722000", "114558.726000", "114558.729000", "114558.733000", "114558.736000", "114558.739000", "114558.743000", "114558.746000", "114558.749000", "114558.753000", "114558.756000", "114558.760000", "114558.763000", "114558.766000", "114558.770000", "114558.773000", "114638.704000", "114638.708000", "114638.711000", "114638.715000", "114638.718000", "114638.721000", "114638.725000", "114638.728000", "114638.732000", "114638.735000", "114638.738000", "114638.742000", "114638.745000", "114638.749000", "114638.752000", "114638.755000", "114638.759000", "114638.762000", "114638.765000", "114638.769000", "114638.785000", "114638.788000", "114638.792000", "114638.795000", "114638.799000", "114638.802000", "114638.805000", "114638.809000", "114638.812000", "114718.704000", "114718.708000", "114718.711000", "114718.715000", "114718.718000", "114718.722000", "114718.725000", "114718.728000", "114718.732000", "114718.735000", "114718.739000", "114718.742000", "114718.745000", "114718.749000", "114718.752000", "114718.756000", "114718.759000", "114718.762000", "114718.766000", "114718.769000", "114718.773000", "114718.776000", "114718.779000", "114718.783000", "114718.786000", "114718.789000", "114718.793000", "114758.704000", "114758.708000", "114758.711000", "114758.715000", "114758.718000", "114758.722000", "114758.725000", "114758.728000", "114758.732000", "114758.735000", "114758.739000", "114758.742000", "114758.745000", "114758.749000", "114758.752000", "114758.755000", "114758.759000", "114758.762000", "114758.766000", "114758.769000", "114758.772000", "114758.776000", "114758.779000", "114758.783000", "114758.786000", "114758.789000", "114758.793000", "114838.704000", "114838.708000", "114838.711000", "114838.715000", "114838.718000", "114838.722000", "114838.725000", "114838.728000", "114838.732000", "114838.735000", "114838.738000", "114838.742000", "114838.745000", "114838.748000", "114838.752000", "114838.755000", "114838.759000", "114838.762000", "114838.770000", "114838.774000", "114838.777000", "114838.781000", "114838.784000", "114838.788000", "114838.791000", "114838.794000", "114838.798000", "114918.704000", "114918.708000", "114918.712000", "114918.716000", "114918.720000", "114918.723000", "114918.726000", "114918.730000", "114918.733000", "114918.737000", "114918.740000", "114918.743000", "114918.747000", "114918.750000", "114918.754000", "114918.757000", "114918.760000", "114918.764000", "114918.767000", "114918.771000", "114918.774000", "114918.778000", "114918.781000", "114918.784000", "114918.788000", "114918.791000", "114958.704000", "114958.708000", "114958.711000", "114958.715000", "114958.718000", "114958.722000", "114958.725000", "114958.728000", "114958.732000", "114958.735000", "114958.739000", "114958.742000", "114958.745000", "114958.749000", "114958.752000", "114958.756000", "114958.759000", "114958.762000", "114958.766000", "114958.769000", "114958.772000", "114958.776000", "114958.779000", "114958.783000", "114958.786000", "114958.789000", "114958.793000", "115038.705000", "115038.709000", "115038.712000", "115038.716000", "115038.719000", "115038.723000", "115038.726000", "115038.729000", "115038.733000", "115038.736000", "115038.740000", "115038.743000", "115038.746000", "115038.750000", "115038.753000", "115038.757000", "115038.760000", "115038.763000", "115038.767000", "115038.770000", "115038.773000", "115038.777000", "115038.780000", "115038.784000", "115038.787000", "115038.790000", "115038.794000", "115058.705000", "115058.708000", "115058.712000", "115058.715000", "115058.719000", "115058.722000", "115058.726000", "115058.729000", "115058.732000", "115058.736000", "115058.739000", "115058.743000", "115058.746000", "115058.749000"],
      "InstanceNumber": [1, 2, 3, 4, 5, 6, 7, 8, 9, 10, 11, 12, 13, 14, 15, 16, 17, 18, 19, 20, 21, 22, 23, 24, 25, 26, 27, 28, 29, 30, 31, 32, 33, 34, 35, 36, 37, 38, 39, 40, 41, 42, 43, 44, 45, 46, 47, 48, 49, 50, 51, 52, 53, 54, 55, 56, 57, 58, 59, 60, 61, 62, 63, 64, 65, 66, 67, 68, 69, 70, 71, 72, 73, 74, 75, 76, 77, 78, 79, 80, 81, 82, 83, 84, 85, 86, 87, 88, 89, 90, 91, 92, 93, 94, 95, 96, 97, 98, 99, 100, 101, 102, 103, 104, 105, 106, 107, 108, 109, 110, 111, 112, 113, 114, 115, 116, 117, 118, 119, 120, 121, 122, 123, 124, 125, 126, 127, 128, 129, 130, 131, 132, 133, 134, 135, 136, 137, 138, 139, 140, 141, 142, 143, 144, 145, 146, 147, 148, 149, 150, 151, 152, 153, 154, 155, 156, 157, 158, 159, 160, 161, 162, 163, 164, 165, 166, 167, 168, 169, 170, 171, 172, 173, 174, 175, 176, 177, 178, 179, 180, 181, 182, 183, 184, 185, 186, 187, 188, 189, 190, 191, 192, 193, 194, 195, 196, 197, 198, 199, 200, 201, 202, 203, 204, 205, 206, 207, 208, 209, 210, 211, 212, 213, 214, 215, 216, 217, 218, 219, 220, 221, 222, 223, 224, 225, 226, 227, 228, 229, 230, 231, 232, 233, 234, 235, 236, 237, 238, 239, 240, 241, 242, 243, 244, 245, 246, 247, 248, 249, 250, 251, 252, 253, 254, 255, 256, 257, 258, 259, 260, 261, 262, 263, 264, 265, 266, 267, 268, 269, 270, 271, 272, 273, 274, 275, 276, 277, 278, 279, 280, 281, 282, 283, 284, 285, 286, 287, 288, 289, 290, 291, 292, 293, 294, 295, 296, 297, 298, 299, 300, 301, 302, 303, 304, 305, 306, 307, 308, 309, 310, 311, 312, 313, 314, 315],
      "LargestImagePixelValue": [44862, 43571, 42988, 43117, 42561, 43699, 42783, 43554, 43982, 43030, 44343, 43372, 43471, 44053, 45326, 44216, 44892, 44160, 44099, 44880, 43891, 44900, 45478, 44884, 45034, 45832, 45887, 44949, 44438, 45606, 44888, 44523, 44747, 44091, 43204, 44084, 43371, 43979, 44786, 45126, 44290, 44283, 43908, 42772, 44277, 43368, 42173, 43467, 43339, 42969, 42841, 42191, 41723, 41725, 42021, 43455, 43193, 44922, 42412, 43483, 44960, 43764, 40924, 42017, 41387, 41673, 44327, 43520, 45539, 45759, 44969, 46218, 46098, 46455, 46657, 45861, 45968, 45834, 47046, 46442, 48724, 47800, 47696, 47314, 46383, 45966, 46463, 44924, 46134, 47675, 47342, 48082, 48972, 48078, 47375, 48320, 47193, 48222, 47736, 48139, 48581, 47406, 48748, 47800, 47589, 48630, 48220, 47325, 48949, 48273, 48332, 47526, 47795, 48784, 48116, 48088, 47763, 48070, 46414, 47723, 48435, 47629, 48487, 48828, 47814, 46473, 47765, 48425, 47931, 48352, 47526, 47203, 47269, 47464, 46071, 47136, 46765, 46328, 46777, 47175, 46865, 48178, 45370, 45411, 43786, 45208, 43777, 45351, 43976, 44319, 43433, 43840, 44106, 44827, 45194, 44569, 44269, 43370, 43858, 43188, 43941, 43526, 44116, 43286, 43881, 43485, 43872, 43587, 43635, 44368, 44377, 44264, 43610, 45043, 43561, 43968, 44444, 44177, 43980, 43993, 44685, 44744, 47572, 47528, 47006, 47808, 47224, 45548, 45689, 46020, 45225, 46575, 48058, 46602, 48662, 48160, 48180, 46485, 46854, 46858, 46111, 47146, 46666, 45080, 46435, 43790, 44668, 44085, 44504, 44296, 45101, 42749, 40790, 42127, 41917, 42597, 41433, 42719, 41193, 42964, 43929, 44655, 45159, 46114, 45426, 43615, 43009, 42715, 44867, 45874, 46861, 46590, 45392, 45655, 45598, 46039, 45387, 44408, 45837, 44765, 45358, 47730, 47113, 47864, 47045, 46878, 46155, 45284, 44808, 44781, 44094, 44234, 43401, 44118, 44349, 44460, 44974, 44678, 45454, 44158, 41564, 43090, 42150, 41823, 41661, 39730, 40058, 40391, 39859, 42158, 42531, 41607, 42652, 42702, 40919, 40443, 40055, 42571, 40342, 40878, 40514, 40563, 40441, 40495, 40559, 41300, 40879, 39939, 39981, 40508, 39900, 41955, 42730, 43079, 42862, 43557, 44641, 43812, 42465, 42565, 41937, 42005, 42085, 41390, 41355, 41474, 42814, 41649, 42175, 42351, 42259, 42959, 44606, 46931, 45779],
      "WindowCenter": [10501.0, 10457.0, 10419.0, 10390.0, 10379.0, 10412.0, 10421.0, 10445.0, 10460.0, 10439.0, 10440.0, 10431.0, 10450.0, 10463.0, 10497.0, 10476.0, 10474.0, 10452.0, 10441.0, 10447.0, 10426.0, 10428.0, 10439.0, 10423.0, 10438.0, 10447.0, 10461.0, 10458.0, 10452.0, 10460.0, 10456.0, 10458.0, 10448.0, 10423.0, 10416.0, 10411.0, 10436.0, 10465.0, 10474.0, 10457.0, 10433.0, 10426.0, 10435.0, 10453.0, 10457.0, 10453.0, 10416.0, 10422.0, 10405.0, 10396.0, 10381.0, 10364.0, 10373.0, 10387.0, 10402.0, 10438.0, 10441.0, 10458.0, 10422.0, 10431.0, 10439.0, 10410.0, 10409.0, 10406.0, 10430.0, 10429.0, 10424.0, 10397.0, 10416.0, 10414.0, 10402.0, 10420.0, 10432.0, 10430.0, 10419.0, 10414.0, 10436.0, 10449.0, 10455.0, 10455.0, 10469.0, 10464.0, 10459.0, 10474.0, 10490.0, 10493.0, 10479.0, 10452.0, 10464.0, 10457.0, 10443.0, 10442.0, 10458.0, 10467.0, 10470.0, 10478.0, 10455.0, 10463.0, 10458.0, 10475.0, 10480.0, 10472.0, 10490.0, 10477.0, 10477.0, 10481.0, 10469.0, 10464.0, 10498.0, 10487.0, 10485.0, 10460.0, 10470.0, 10463.0, 10470.0, 10464.0, 10486.0, 10475.0, 10477.0, 10462.0, 10458.0, 10453.0, 10451.0, 10486.0, 10469.0, 10465.0, 10470.0, 10450.0, 10432.0, 10424.0, 10414.0, 10405.0, 10422.0, 10425.0, 10422.0, 10421.0, 10410.0, 10426.0, 10438.0, 10470.0, 10465.0, 10478.0, 10457.0, 10467.0, 10450.0, 10460.0, 10441.0, 10456.0, 10448.0, 10464.0, 10457.0, 10459.0, 10440.0, 10451.0, 10442.0, 10452.0, 10440.0, 10424.0, 10422.0, 10421.0, 10422.0, 10431.0, 10427.0, 10413.0, 10422.0, 10411.0, 10436.0, 10433.0, 10434.0, 10427.0, 10427.0, 10429.0, 10425.0, 10449.0, 10426.0, 10432.0, 10422.0, 10421.0, 10411.0, 10420.0, 10444.0, 10436.0, 10466.0, 10467.0, 10447.0, 10435.0, 10427.0, 10395.0, 10391.0, 10399.0, 10420.0, 10450.0, 10500.0, 10475.0, 10464.0, 10437.0, 10438.0, 10417.0, 10413.0, 10422.0, 10425.0, 10449.0, 10440.0, 10434.0, 10434.0, 10415.0, 10409.0, 10403.0, 10408.0, 10403.0, 10430.0, 10411.0, 10392.0, 10415.0, 10420.0, 10430.0, 10413.0, 10421.0, 10401.0, 10430.0, 10458.0, 10475.0, 10467.0, 10463.0, 10429.0, 10394.0, 10384.0, 10385.0, 10425.0, 10446.0, 10458.0, 10454.0, 10416.0, 10393.0, 10394.0, 10396.0, 10409.0, 10407.0, 10424.0, 10422.0, 10420.0, 10462.0, 10447.0, 10478.0, 10447.0, 10417.0, 10399.0, 10386.0, 10369.0, 10377.0, 10382.0, 10408.0, 10408.0, 10412.0, 10428.0, 10429.0, 10427.0, 10420.0, 10405.0, 10390.0, 10372.0, 10396.0, 10416.0, 10443.0, 10440.0, 10391.0, 10386.0, 10385.0, 10385.0, 10407.0, 10404.0, 10394.0, 10396.0, 10410.0, 10406.0, 10420.0, 10415.0, 10443.0, 10405.0, 10396.0, 10398.0, 10397.0, 10409.0, 10407.0, 10410.0, 10396.0, 10388.0, 10385.0, 10385.0, 10382.0, 10368.0, 10417.0, 10413.0, 10423.0, 10414.0, 10394.0, 10400.0, 10401.0, 10385.0, 10380.0, 10385.0, 10372.0, 10373.0, 10379.0, 10381.0, 10372.0, 10388.0, 10379.0, 10376.0, 10391.0, 10420.0, 10427.0, 10420.0, 10422.0, 10400.0],
