{
  "AcquisitionMatrixPE": 104,
  "AcquisitionNumber": 1,
  "AcquisitionTime": "11:52:15.015000",
  "BandwidthPerPixelPhaseEncode": 17.17,
  "BaseResolution": 104,
  "BodyPartExamined": "BRAIN",
  "CoilCombinationMethod": "Sum of Squares",
  "ConsistencyInfo": "N4_VE11C_LATEST_20160120",
  "ConversionSoftware": "dcm2niix",
  "ConversionSoftwareVersion": "v1.0.20220505",
  "DerivedVendorReportedEchoSpacing": 0.000560011,
  "DeviceSerialNumber": "167006",
  "DwellTime": 2.1e-06,
  "EchoTime": 0.037,
  "EchoTime1": 0.037,
  "EchoTime2": 0.001,
  "EchoTrainLength": 104,
  "EffectiveEchoSpacing": 0.000560011,
  "FlipAngle": 52,
  "HeudiconvVersion": "0.5.3.post811+g6206e14",
  "ImageComments": "Unaliased MB4/PE3/LB",
  "ImageOrientationPatientDICOM": [0.991201, 0.130984, 0.0190585, -0.113809, 0.9169, -0.382547],
  "ImageOrientationText": "Tra>Cor(-22.2)>Sag(3.9)",
  "ImageType": [
    "ORIGINAL",
    "PRIMARY",
    "P",
    "MB",
    "ND",
    "MOSAIC",
    "PHASE"
],
  "ImagingFrequency": 123.259,
  "InPlanePhaseEncodingDirectionDICOM": "COL",
  "InstitutionAddress": "Chemin Queen-Mary 4565,Montreal,District,CA,H3W 1W5",
  "InstitutionName": "IUGM",
  "InstitutionalDepartmentName": "Department",
  "MRAcquisitionType": "2D",
  "MagneticFieldStrength": 3,
  "Manufacturer": "Siemens",
  "ManufacturersModelName": "Prisma_fit",
  "MatrixCoilMode": "SENSE",
  "Modality": "MR",
  "MultibandAccelerationFactor": 4,
  "PartialFourier": 1,
  "PatientPosition": "HFS",
  "PercentPhaseFOV": 100,
  "PercentSampling": 100,
  "PhaseEncodingDirection": "j",
  "PhaseEncodingSteps": 104,
  "PhaseResolution": 1,
  "PixelBandwidth": 2290,
  "ProcedureStepDescription": "games^mario3",
  "ProtocolName": "func_task-mario3_run-02",
  "PulseSequenceDetails": "%CustomerSeq%\\cmrr_mbep2d_bold",
  "ReceiveCoilActiveElements": "HC1-7;NC1,2",
  "ReceiveCoilName": "HeadNeck_64",
  "ReconMatrixPE": 104,
  "RepetitionTime": 1.49,
  "SAR": 0.0517807,
  "ScanOptions": "FS",
  "ScanningSequence": "EP",
  "SequenceName": "epfid2d1_104",
  "SequenceVariant": "SK\\SS",
  "SeriesDescription": "func_task-mario3_run-02",
  "SeriesNumber": 14,
  "ShimSetting": [627, -7194, -8835, 618, 103, -21, -64, 2],
  "SliceThickness": 2,
  "SliceTiming": [0, 0.785, 0.0975, 0.8825, 0.1975, 0.98, 0.295, 1.0775, 0.3925, 1.1775, 0.49, 1.275, 0.5875, 1.3725, 0.6875, 0, 0.785, 0.0975, 0.8825, 0.1975, 0.98, 0.295, 1.0775, 0.3925, 1.1775, 0.49, 1.275, 0.5875, 1.3725, 0.6875, 0, 0.785, 0.0975, 0.8825, 0.1975, 0.98, 0.295, 1.0775, 0.3925, 1.1775, 0.49, 1.275, 0.5875, 1.3725, 0.6875, 0, 0.785, 0.0975, 0.8825, 0.1975, 0.98, 0.295, 1.0775, 0.3925, 1.1775, 0.49, 1.275, 0.5875, 1.3725, 0.6875],
  "SoftwareVersions": "syngo MR E11",
  "SpacingBetweenSlices": 2,
  "StationName": "MRC35049",
  "TaskName": "mario3",
  "TotalReadoutTime": 0.0576811,
  "TxRefAmp": 265.338,
  "WipMemBlock": "f20e336c-35af-4173-b792-f93e50c55891||Sequence: R017 ve11c/master r/75a17815+; Jun 28 2022 16:32:11 by eja",
  "dcmmeta_affine": [
    [-1.9824026823043823, -0.22761887311935425, 0.1351640671491623, 112.38368225097656],
    [-0.26196712255477905, 1.833799958229065, -0.7540232539176941, -43.454402923583984],
    [0.03811696171760559, 0.7650931477546692, 1.847479224205017, -68.62422180175781],
    [0.0, 0.0, 0.0, 1.0]
],
  "dcmmeta_reorient_transform": [
    [0.0, -1.0, 0.0, 103.0],
    [1.0, 0.0, 0.0, 0.0],
    [0.0, 0.0, 1.0, 0.0],
    [0.0, 0.0, 0.0, 1.0]
],
  "dcmmeta_shape": [104, 104, 60, 350],
  "dcmmeta_slice_dim": 2,
  "dcmmeta_version": 0.6,
  "global": {
    "const": {
      "AcquisitionMatrix": [104, 0, 0, 104],
      "AngioFlag": "N",
      "BitsAllocated": 16,
      "BitsStored": 16,
      "BodyPartExamined": "BRAIN",
      "Columns": 832,
      "EchoNumbers": 1,
      "EchoTime": 37.0,
      "EchoTrainLength": 104,
      "FlipAngle": 52.0,
      "HighBit": 15,
      "ImageOrientationPatient": [0.99120133212651, 0.13098356184694, 0.01905848148545, -0.1138094372425, 0.91689995906778, -0.3825465684803],
      "ImagePositionPatient": [-727.68023469942, -908.28619099406, 274.79970144735],
      "ImageType": [
        "ORIGINAL",
        "PRIMARY",
        "P",
        "MB",
        "ND",
        "MOSAIC"
],
      "ImagedNucleus": "1H",
      "ImagingFrequency": 123.258824,
      "InPlanePhaseEncodingDirection": "COL",
      "LargestImagePixelValue": 4095,
      "MRAcquisitionType": "2D",
      "MagneticFieldStrength": 3.0,
      "Manufacturer": "SIEMENS",
      "ManufacturerModelName": "Prisma_fit",
      "Modality": "MR",
      "NumberOfAverages": 1.0,
      "NumberOfPhaseEncodingSteps": 104,
      "PercentPhaseFieldOfView": 100.0,
      "PercentSampling": 100.0,
      "PerformedProcedureStepStartTime": "114034.532000",
      "PhotometricInterpretation": "MONOCHROME2",
      "PixelBandwidth": 2290.0,
      "PixelRepresentation": 0,
      "PixelSpacing": [2.0, 2.0],
      "ProtocolName": "func_task-mario3_run-02",
      "RepetitionTime": 1490.0,
      "RescaleIntercept": -4096.0,
      "RescaleSlope": 2.0,
      "RescaleType": "US",
      "Rows": 832,
      "SAR": 0.0517806767081,
      "SamplesPerPixel": 1,
      "ScanOptions": "FS",
      "ScanningSequence": "EP",
      "SequenceName": "epfid2d1_104",
      "SequenceVariant": [
        "SK",
        "SS"
],
      "SeriesDescription": "func_task-mario3_run-02",
      "SeriesNumber": 14,
      "SeriesTime": "115341.488000",
      "SliceLocation": -39.412977136908,
      "SliceThickness": 2.0,
      "SmallestImagePixelValue": 0,
      "SoftwareVersions": "syngo MR E11",
      "SpacingBetweenSlices": 2.0000000182307,
      "SpecificCharacterSet": "ISO_IR 100",
      "StudyID": "1",
      "StudyTime": "114034.444000",
      "TransmitCoilName": "Body",
      "VariableFlipAngleFlag": "N",
      "WindowCenterWidthExplanation": "Algo1",
      "dBdt": 0.0},
    "slices": {}
  },
  "time": {
    "samples": {
      "AcquisitionNumber": [1, 2, 3, 4, 5, 6, 7, 8, 9, 10, 11, 12, 13, 14, 15, 16, 17, 18, 19, 20, 21, 22, 23, 24, 25, 26, 27, 28, 29, 30, 31, 32, 33, 34, 35, 36, 37, 38, 39, 40, 41, 42, 43, 44, 45, 46, 47, 48, 49, 50, 51, 52, 53, 54, 55, 56, 57, 58, 59, 60, 61, 62, 63, 64, 65, 66, 67, 68, 69, 70, 71, 72, 73, 74, 75, 76, 77, 78, 79, 80, 81, 82, 83, 84, 85, 86, 87, 88, 89, 90, 91, 92, 93, 94, 95, 96, 97, 98, 99, 100, 101, 102, 103, 104, 105, 106, 107, 108, 109, 110, 111, 112, 113, 114, 115, 116, 117, 118, 119, 120, 121, 122, 123, 124, 125, 126, 127, 128, 129, 130, 131, 132, 133, 134, 135, 136, 137, 138, 139, 140, 141, 142, 143, 144, 145, 146, 147, 148, 149, 150, 151, 152, 153, 154, 155, 156, 157, 158, 159, 160, 161, 162, 163, 164, 165, 166, 167, 168, 169, 170, 171, 172, 173, 174, 175, 176, 177, 178, 179, 180, 181, 182, 183, 184, 185, 186, 187, 188, 189, 190, 191, 192, 193, 194, 195, 196, 197, 198, 199, 200, 201, 202, 203, 204, 205, 206, 207, 208, 209, 210, 211, 212, 213, 214, 215, 216, 217, 218, 219, 220, 221, 222, 223, 224, 225, 226, 227, 228, 229, 230, 231, 232, 233, 234, 235, 236, 237, 238, 239, 240, 241, 242, 243, 244, 245, 246, 247, 248, 249, 250, 251, 252, 253, 254, 255, 256, 257, 258, 259, 260, 261, 262, 263, 264, 265, 266, 267, 268, 269, 270, 271, 272, 273, 274, 275, 276, 277, 278, 279, 280, 281, 282, 283, 284, 285, 286, 287, 288, 289, 290, 291, 292, 293, 294, 295, 296, 297, 298, 299, 300, 301, 302, 303, 304, 305, 306, 307, 308, 309, 310, 311, 312, 313, 314, 315, 316, 317, 318, 319, 320, 321, 322, 323, 324, 325, 326, 327, 328, 329, 330, 331, 332, 333, 334, 335, 336, 337, 338, 339, 340, 341, 342, 343, 344, 345, 346, 347, 348, 349, 350],
      "AcquisitionTime": ["115215.015000", "115216.505000", "115217.995000", "115219.485000", "115220.975000", "115222.465000", "115223.955000", "115225.445000", "115226.935000", "115228.425000", "115229.915000", "115231.405000", "115232.895000", "115234.385000", "115235.875000", "115237.365000", "115238.855000", "115240.345000", "115241.835000", "115243.325000", "115244.815000", "115246.305000", "115247.795000", "115249.285000", "115250.775000", "115252.265000", "115253.755000", "115255.245000", "115256.735000", "115258.225000", "115259.715000", "115301.205000", "115302.695000", "115304.185000", "115305.675000", "115307.165000", "115308.655000", "115310.145000", "115311.635000", "115313.125000", "115314.615000", "115316.105000", "115317.595000", "115319.085000", "115320.575000", "115322.065000", "115323.555000", "115325.045000", "115326.535000", "115328.025000", "115329.515000", "115331.005000", "115332.495000", "115333.985000", "115335.475000", "115336.965000", "115338.455000", "115339.945000", "115341.435000", "115342.925000", "115344.415000", "115345.905000", "115347.395000", "115348.885000", "115350.375000", "115351.865000", "115353.355000", "115354.845000", "115356.335000", "115357.825000", "115359.315000", "115400.805000", "115402.295000", "115403.785000", "115405.275000", "115406.765000", "115408.255000", "115409.745000", "115411.235000", "115412.725000", "115414.215000", "115415.705000", "115417.195000", "115418.685000", "115420.175000", "115421.665000", "115423.155000", "115424.645000", "115426.135000", "115427.625000", "115429.115000", "115430.605000", "115432.095000", "115433.585000", "115435.075000", "115436.565000", "115438.055000", "115439.545000", "115441.035000", "115442.525000", "115444.015000", "115445.505000", "115446.995000", "115448.485000", "115449.975000", "115451.465000", "115452.955000", "115454.445000", "115455.935000", "115457.425000", "115458.915000", "115500.405000", "115501.895000", "115503.385000", "115504.875000", "115506.365000", "115507.855000", "115509.345000", "115510.835000", "115512.325000", "115513.815000", "115515.305000", "115516.795000", "115518.285000", "115519.775000", "115521.265000", "115522.755000", "115524.245000", "115525.735000", "115527.225000", "115528.715000", "115530.205000", "115531.695000", "115533.185000", "115534.675000", "115536.165000", "115537.655000", "115539.145000", "115540.635000", "115542.125000", "115543.615000", "115545.105000", "115546.595000", "115548.085000", "115549.575000", "115551.065000", "115552.555000", "115554.045000", "115555.535000", "115557.025000", "115558.515000", "115600.005000", "115601.495000", "115602.985000", "115604.475000", "115605.965000", "115607.455000", "115608.945000", "115610.435000", "115611.925000", "115613.415000", "115614.905000", "115616.395000", "115617.885000", "115619.375000", "115620.865000", "115622.355000", "115623.845000", "115625.335000", "115626.825000", "115628.315000", "115629.805000", "115631.295000", "115632.785000", "115634.275000", "115635.765000", "115637.255000", "115638.745000", "115640.235000", "115641.725000", "115643.215000", "115644.705000", "115646.195000", "115647.685000", "115649.175000", "115650.665000", "115652.155000", "115653.645000", "115655.135000", "115656.625000", "115658.115000", "115659.605000", "115701.095000", "115702.585000", "115704.075000", "115705.565000", "115707.055000", "115708.545000", "115710.035000", "115711.525000", "115713.015000", "115714.505000", "115715.995000", "115717.485000", "115718.975000", "115720.465000", "115721.955000", "115723.445000", "115724.935000", "115726.425000", "115727.915000", "115729.405000", "115730.895000", "115732.385000", "115733.875000", "115735.365000", "115736.855000", "115738.345000", "115739.835000", "115741.325000", "115742.815000", "115744.305000", "115745.795000", "115747.285000", "115748.775000", "115750.265000", "115751.755000", "115753.245000", "115754.735000", "115756.225000", "115757.715000", "115759.205000", "115800.695000", "115802.185000", "115803.675000", "115805.165000", "115806.655000", "115808.145000", "115809.635000", "115811.125000", "115812.615000", "115814.105000", "115815.595000", "115817.085000", "115818.575000", "115820.065000", "115821.555000", "115823.045000", "115824.535000", "115826.025000", "115827.515000", "115829.005000", "115830.495000", "115831.985000", "115833.475000", "115834.965000", "115836.455000", "115837.945000", "115839.435000", "115840.925000", "115842.415000", "115843.905000", "115845.395000", "115846.885000", "115848.375000", "115849.865000", "115851.355000", "115852.845000", "115854.335000", "115855.825000", "115857.315000", "115858.805000", "115900.295000", "115901.785000", "115903.275000", "115904.765000", "115906.255000", "115907.745000", "115909.235000", "115910.725000", "115912.215000", "115913.705000", "115915.195000", "115916.685000", "115918.175000", "115919.665000", "115921.155000", "115922.645000", "115924.135000", "115925.625000", "115927.115000", "115928.605000", "115930.095000", "115931.585000", "115933.075000", "115934.565000", "115936.055000", "115937.545000", "115939.035000", "115940.525000", "115942.015000", "115943.505000", "115944.995000", "115946.485000", "115947.975000", "115949.465000", "115950.955000", "115952.445000", "115953.935000", "115955.425000", "115956.915000", "115958.405000", "115959.895000", "120001.385000", "120002.875000", "120004.365000", "120005.855000", "120007.345000", "120008.835000", "120010.325000", "120011.815000", "120013.305000", "120014.795000", "120016.285000", "120017.775000", "120019.265000", "120020.755000", "120022.245000", "120023.735000", "120025.225000", "120026.715000", "120028.205000", "120029.695000", "120031.185000", "120032.675000", "120034.165000", "120035.655000", "120037.145000", "120038.635000", "120040.125000", "120041.615000", "120043.105000", "120044.595000", "120046.085000", "120047.575000", "120049.065000", "120050.555000", "120052.045000", "120053.535000", "120055.025000"],
      "ContentTime": ["115341.490000", "115341.493000", "115341.496000", "115341.498000", "115341.501000", "115341.503000", "115341.506000", "115341.509000", "115341.512000", "115341.514000", "115341.517000", "115341.519000", "115341.522000", "115341.525000", "115341.527000", "115341.530000", "115341.532000", "115341.535000", "115341.537000", "115341.540000", "115341.542000", "115341.545000", "115341.547000", "115341.550000", "115341.552000", "115341.563000", "115341.565000", "115341.568000", "115341.570000", "115341.573000", "115341.575000", "115341.578000", "115341.581000", "115341.583000", "115341.586000", "115341.588000", "115341.591000", "115401.367000", "115401.370000", "115401.373000", "115401.375000", "115401.378000", "115401.380000", "115401.383000", "115401.389000", "115401.391000", "115401.394000", "115401.396000", "115401.399000", "115401.401000", "115401.404000", "115401.406000", "115401.409000", "115401.411000", "115401.414000", "115401.416000", "115401.419000", "115421.383000", "115421.386000", "115421.389000", "115421.391000", "115421.394000", "115421.396000", "115421.399000", "115421.401000", "115421.404000", "115421.406000", "115421.409000", "115421.411000", "115421.414000", "115421.416000", "115421.419000", "115421.422000", "115421.424000", "115421.427000", "115421.429000", "115421.432000", "115441.377000", "115441.380000", "115441.382000", "115441.385000", "115441.387000", "115441.390000", "115441.392000", "115441.395000", "115441.398000", "115441.409000", "115441.412000", "115441.415000", "115441.417000", "115441.420000", "115441.422000", "115441.425000", "115441.427000", "115441.430000", "115441.432000", "115441.435000", "115521.404000", "115521.406000", "115521.409000", "115521.411000", "115521.414000", "115521.417000", "115521.419000", "115521.422000", "115521.424000", "115521.427000", "115521.429000", "115521.432000", "115521.434000", "115521.437000", "115521.439000", "115521.442000", "115521.445000", "115521.447000", "115521.450000", "115521.452000", "115521.455000", "115521.457000", "115521.460000", "115521.463000", "115521.465000", "115521.468000", "115521.471000", "115601.393000", "115601.396000", "115601.399000", "115601.401000", "115601.404000", "115601.407000", "115601.409000", "115601.412000", "115601.414000", "115601.417000", "115601.419000", "115601.422000", "115601.424000", "115601.427000", "115601.430000", "115601.432000", "115601.435000", "115601.437000", "115601.440000", "115601.442000", "115601.445000", "115601.447000", "115601.450000", "115601.453000", "115601.455000", "115601.458000", "115601.460000", "115641.401000", "115641.404000", "115641.406000", "115641.409000", "115641.411000", "115641.414000", "115641.417000", "115641.419000", "115641.422000", "115641.424000", "115641.427000", "115641.429000", "115641.432000", "115641.434000", "115641.437000", "115641.439000", "115641.442000", "115641.445000", "115641.447000", "115641.450000", "115641.452000", "115641.455000", "115641.457000", "115641.460000", "115641.462000", "115641.465000", "115641.468000", "115721.414000", "115721.417000", "115721.419000", "115721.422000", "115721.425000", "115721.427000", "115721.437000", "115721.439000", "115721.442000", "115721.444000", "115721.447000", "115721.450000", "115721.452000", "115721.455000", "115721.457000", "115721.460000", "115721.462000", "115721.465000", "115721.467000", "115721.470000", "115721.473000", "115721.475000", "115721.478000", "115721.480000", "115721.483000", "115721.485000", "115721.488000", "115801.399000", "115801.402000", "115801.404000", "115801.407000", "115801.410000", "115801.412000", "115801.415000", "115801.417000", "115801.420000", "115801.422000", "115801.425000", "115801.427000", "115801.430000", "115801.432000", "115801.435000", "115801.437000", "115801.440000", "115801.443000", "115801.445000", "115801.448000", "115801.450000", "115801.453000", "115801.455000", "115801.458000", "115801.460000", "115801.463000", "115801.465000", "115841.401000", "115841.404000", "115841.406000", "115841.409000", "115841.411000", "115841.414000", "115841.416000", "115841.419000", "115841.422000", "115841.424000", "115841.427000", "115841.429000", "115841.432000", "115841.434000", "115841.437000", "115841.439000", "115841.442000", "115841.444000", "115841.447000", "115841.450000", "115841.452000", "115841.455000", "115841.457000", "115841.460000", "115841.462000", "115841.465000", "115841.467000", "115921.431000", "115921.434000", "115921.437000", "115921.439000", "115921.442000", "115921.444000", "115921.447000", "115921.449000", "115921.452000", "115921.454000", "115921.457000", "115921.460000", "115921.462000", "115921.465000", "115921.467000", "115921.470000", "115921.472000", "115921.475000", "115921.477000", "115921.480000", "115921.482000", "115921.485000", "115921.488000", "115921.490000", "115921.493000", "115921.495000", "120001.400000", "120001.403000", "120001.406000", "120001.408000", "120001.411000", "120001.413000", "120001.416000", "120001.418000", "120001.421000", "120001.423000", "120001.426000", "120001.428000", "120001.431000", "120001.434000", "120001.436000", "120001.439000", "120001.441000", "120001.444000", "120001.446000", "120001.449000", "120001.452000", "120001.455000", "120001.457000", "120001.460000", "120001.463000", "120001.465000", "120001.468000", "120041.420000", "120041.423000", "120041.425000", "120041.428000", "120041.430000", "120041.433000", "120041.435000", "120041.438000", "120041.440000", "120041.443000", "120041.446000", "120041.448000", "120041.451000", "120041.453000", "120041.456000", "120041.458000", "120041.461000", "120041.463000", "120041.466000", "120041.469000", "120041.471000", "120041.474000", "120041.476000", "120041.479000", "120041.481000", "120041.484000", "120041.486000", "120057.209000", "120057.212000", "120057.214000", "120057.217000", "120057.219000", "120057.222000", "120057.225000", "120057.228000", "120057.230000", "120057.233000", "120057.235000"],
      "InstanceCreationTime": ["115341.490000", "115341.493000", "115341.496000", "115341.498000", "115341.501000", "115341.503000", "115341.506000", "115341.509000", "115341.512000", "115341.514000", "115341.517000", "115341.519000", "115341.522000", "115341.525000", "115341.527000", "115341.530000", "115341.532000", "115341.535000", "115341.537000", "115341.540000", "115341.542000", "115341.545000", "115341.547000", "115341.550000", "115341.552000", "115341.563000", "115341.565000", "115341.568000", "115341.570000", "115341.573000", "115341.575000", "115341.578000", "115341.581000", "115341.583000", "115341.586000", "115341.588000", "115341.591000", "115401.367000", "115401.370000", "115401.373000", "115401.375000", "115401.378000", "115401.380000", "115401.383000", "115401.389000", "115401.391000", "115401.394000", "115401.396000", "115401.399000", "115401.401000", "115401.404000", "115401.406000", "115401.409000", "115401.411000", "115401.414000", "115401.416000", "115401.419000", "115421.383000", "115421.386000", "115421.389000", "115421.391000", "115421.394000", "115421.396000", "115421.399000", "115421.401000", "115421.404000", "115421.406000", "115421.409000", "115421.411000", "115421.414000", "115421.416000", "115421.419000", "115421.422000", "115421.424000", "115421.427000", "115421.429000", "115421.432000", "115441.377000", "115441.380000", "115441.382000", "115441.385000", "115441.387000", "115441.390000", "115441.392000", "115441.395000", "115441.398000", "115441.409000", "115441.412000", "115441.415000", "115441.417000", "115441.420000", "115441.422000", "115441.425000", "115441.427000", "115441.430000", "115441.432000", "115441.435000", "115521.404000", "115521.406000", "115521.409000", "115521.411000", "115521.414000", "115521.417000", "115521.419000", "115521.422000", "115521.424000", "115521.427000", "115521.429000", "115521.432000", "115521.434000", "115521.437000", "115521.439000", "115521.442000", "115521.445000", "115521.447000", "115521.450000", "115521.452000", "115521.455000", "115521.457000", "115521.460000", "115521.463000", "115521.465000", "115521.468000", "115521.471000", "115601.393000", "115601.396000", "115601.399000", "115601.401000", "115601.404000", "115601.407000", "115601.409000", "115601.412000", "115601.414000", "115601.417000", "115601.419000", "115601.422000", "115601.424000", "115601.427000", "115601.430000", "115601.432000", "115601.435000", "115601.437000", "115601.440000", "115601.442000", "115601.445000", "115601.447000", "115601.450000", "115601.453000", "115601.455000", "115601.458000", "115601.460000", "115641.401000", "115641.404000", "115641.406000", "115641.409000", "115641.411000", "115641.414000", "115641.417000", "115641.419000", "115641.422000", "115641.424000", "115641.427000", "115641.429000", "115641.432000", "115641.434000", "115641.437000", "115641.439000", "115641.442000", "115641.445000", "115641.447000", "115641.450000", "115641.452000", "115641.455000", "115641.457000", "115641.460000", "115641.462000", "115641.465000", "115641.468000", "115721.414000", "115721.417000", "115721.419000", "115721.422000", "115721.425000", "115721.427000", "115721.437000", "115721.439000", "115721.442000", "115721.444000", "115721.447000", "115721.450000", "115721.452000", "115721.455000", "115721.457000", "115721.460000", "115721.462000", "115721.465000", "115721.467000", "115721.470000", "115721.473000", "115721.475000", "115721.478000", "115721.480000", "115721.483000", "115721.485000", "115721.488000", "115801.399000", "115801.402000", "115801.404000", "115801.407000", "115801.410000", "115801.412000", "115801.415000", "115801.417000", "115801.420000", "115801.422000", "115801.425000", "115801.427000", "115801.430000", "115801.432000", "115801.435000", "115801.437000", "115801.440000", "115801.443000", "115801.445000", "115801.448000", "115801.450000", "115801.453000", "115801.455000", "115801.458000", "115801.460000", "115801.463000", "115801.465000", "115841.401000", "115841.404000", "115841.406000", "115841.409000", "115841.411000", "115841.414000", "115841.416000", "115841.419000", "115841.422000", "115841.424000", "115841.427000", "115841.429000", "115841.432000", "115841.434000", "115841.437000", "115841.439000", "115841.442000", "115841.444000", "115841.447000", "115841.450000", "115841.452000", "115841.455000", "115841.457000", "115841.460000", "115841.462000", "115841.465000", "115841.467000", "115921.431000", "115921.434000", "115921.437000", "115921.439000", "115921.442000", "115921.444000", "115921.447000", "115921.449000", "115921.452000", "115921.454000", "115921.457000", "115921.460000", "115921.462000", "115921.465000", "115921.467000", "115921.470000", "115921.472000", "115921.475000", "115921.477000", "115921.480000", "115921.482000", "115921.485000", "115921.488000", "115921.490000", "115921.493000", "115921.495000", "120001.400000", "120001.403000", "120001.406000", "120001.408000", "120001.411000", "120001.413000", "120001.416000", "120001.418000", "120001.421000", "120001.423000", "120001.426000", "120001.428000", "120001.431000", "120001.434000", "120001.436000", "120001.439000", "120001.441000", "120001.444000", "120001.446000", "120001.449000", "120001.452000", "120001.455000", "120001.457000", "120001.460000", "120001.463000", "120001.465000", "120001.468000", "120041.420000", "120041.423000", "120041.425000", "120041.428000", "120041.430000", "120041.433000", "120041.435000", "120041.438000", "120041.440000", "120041.443000", "120041.446000", "120041.448000", "120041.451000", "120041.453000", "120041.456000", "120041.458000", "120041.461000", "120041.463000", "120041.466000", "120041.469000", "120041.471000", "120041.474000", "120041.476000", "120041.479000", "120041.481000", "120041.484000", "120041.486000", "120057.209000", "120057.212000", "120057.214000", "120057.217000", "120057.219000", "120057.222000", "120057.225000", "120057.228000", "120057.230000", "120057.233000", "120057.235000"],
      "InstanceNumber": [1, 2, 3, 4, 5, 6, 7, 8, 9, 10, 11, 12, 13, 14, 15, 16, 17, 18, 19, 20, 21, 22, 23, 24, 25, 26, 27, 28, 29, 30, 31, 32, 33, 34, 35, 36, 37, 38, 39, 40, 41, 42, 43, 44, 45, 46, 47, 48, 49, 50, 51, 52, 53, 54, 55, 56, 57, 58, 59, 60, 61, 62, 63, 64, 65, 66, 67, 68, 69, 70, 71, 72, 73, 74, 75, 76, 77, 78, 79, 80, 81, 82, 83, 84, 85, 86, 87, 88, 89, 90, 91, 92, 93, 94, 95, 96, 97, 98, 99, 100, 101, 102, 103, 104, 105, 106, 107, 108, 109, 110, 111, 112, 113, 114, 115, 116, 117, 118, 119, 120, 121, 122, 123, 124, 125, 126, 127, 128, 129, 130, 131, 132, 133, 134, 135, 136, 137, 138, 139, 140, 141, 142, 143, 144, 145, 146, 147, 148, 149, 150, 151, 152, 153, 154, 155, 156, 157, 158, 159, 160, 161, 162, 163, 164, 165, 166, 167, 168, 169, 170, 171, 172, 173, 174, 175, 176, 177, 178, 179, 180, 181, 182, 183, 184, 185, 186, 187, 188, 189, 190, 191, 192, 193, 194, 195, 196, 197, 198, 199, 200, 201, 202, 203, 204, 205, 206, 207, 208, 209, 210, 211, 212, 213, 214, 215, 216, 217, 218, 219, 220, 221, 222, 223, 224, 225, 226, 227, 228, 229, 230, 231, 232, 233, 234, 235, 236, 237, 238, 239, 240, 241, 242, 243, 244, 245, 246, 247, 248, 249, 250, 251, 252, 253, 254, 255, 256, 257, 258, 259, 260, 261, 262, 263, 264, 265, 266, 267, 268, 269, 270, 271, 272, 273, 274, 275, 276, 277, 278, 279, 280, 281, 282, 283, 284, 285, 286, 287, 288, 289, 290, 291, 292, 293, 294, 295, 296, 297, 298, 299, 300, 301, 302, 303, 304, 305, 306, 307, 308, 309, 310, 311, 312, 313, 314, 315, 316, 317, 318, 319, 320, 321, 322, 323, 324, 325, 326, 327, 328, 329, 330, 331, 332, 333, 334, 335, 336, 337, 338, 339, 340, 341, 342, 343, 344, 345, 346, 347, 348, 349, 350],
      "WindowCenter": [4810.0, 4836.0, 4834.0, 4834.0, 4812.0, 4838.0, 4838.0, 4832.0, 4834.0, 4836.0, 4838.0, 4836.0, 4836.0, 4838.0, 4836.0, 4834.0, 4836.0, 4810.0, 4834.0, 4812.0, 4836.0, 4838.0, 4812.0, 4812.0, 4812.0, 4836.0, 4814.0, 4834.0, 4834.0, 4834.0, 4836.0, 4834.0, 4808.0, 4814.0, 4814.0, 4810.0, 4836.0, 4812.0, 4838.0, 4816.0, 4812.0, 4836.0, 4808.0, 4812.0, 4812.0, 4804.0, 4838.0, 4834.0, 4834.0, 4838.0, 4834.0, 4810.0, 4838.0, 4812.0, 4834.0, 4806.0, 4810.0, 4840.0, 4840.0, 4838.0, 4836.0, 4836.0, 4810.0, 4832.0, 4812.0, 4812.0, 4810.0, 4808.0, 4810.0, 4836.0, 4836.0, 4834.0, 4808.0, 4832.0, 4808.0, 4810.0, 4810.0, 4808.0, 4812.0, 4808.0, 4836.0, 4812.0, 4834.0, 4832.0, 4812.0, 4812.0, 4810.0, 4812.0, 4808.0, 4812.0, 4812.0, 4834.0, 4812.0, 4834.0, 4838.0, 4808.0, 4816.0, 4810.0, 4812.0, 4810.0, 4834.0, 4812.0, 4812.0, 4836.0, 4810.0, 4810.0, 4812.0, 4812.0, 4834.0, 4810.0, 4812.0, 4814.0, 4812.0, 4812.0, 4808.0, 4810.0, 4806.0, 4810.0, 4812.0, 4814.0, 4808.0, 4834.0, 4838.0, 4812.0, 4806.0, 4814.0, 4836.0, 4810.0, 4838.0, 4814.0, 4810.0, 4814.0, 4836.0, 4810.0, 4834.0, 4810.0, 4810.0, 4816.0, 4810.0, 4838.0, 4838.0, 4812.0, 4836.0, 4814.0, 4812.0, 4814.0, 4806.0, 4814.0, 4812.0, 4812.0, 4840.0, 4812.0, 4812.0, 4840.0, 4810.0, 4810.0, 4836.0, 4810.0, 4834.0, 4810.0, 4812.0, 4806.0, 4834.0, 4836.0, 4834.0, 4834.0, 4816.0, 4814.0, 4812.0, 4812.0, 4810.0, 4810.0, 4812.0, 4806.0, 4812.0, 4836.0, 4812.0, 4814.0, 4806.0, 4806.0, 4812.0, 4812.0, 4806.0, 4814.0, 4836.0, 4838.0, 4810.0, 4834.0, 4810.0, 4810.0, 4814.0, 4810.0, 4810.0, 4836.0, 4812.0, 4810.0, 4836.0, 4832.0, 4810.0, 4812.0, 4810.0, 4812.0, 4814.0, 4810.0, 4810.0, 4810.0, 4808.0, 4834.0, 4812.0, 4814.0, 4812.0, 4812.0, 4836.0, 4812.0, 4812.0, 4836.0, 4810.0, 4806.0, 4810.0, 4810.0, 4810.0, 4836.0, 4808.0, 4812.0, 4834.0, 4814.0, 4836.0, 4810.0, 4810.0, 4836.0, 4812.0, 4812.0, 4810.0, 4810.0, 4812.0, 4810.0, 4808.0, 4812.0, 4812.0, 4810.0, 4814.0, 4812.0, 4812.0, 4810.0, 4812.0, 4810.0, 4810.0, 4808.0, 4812.0, 4810.0, 4808.0, 4812.0, 4808.0, 4810.0, 4812.0, 4808.0, 4810.0, 4814.0, 4812.0, 4810.0, 4834.0, 4808.0, 4812.0, 4810.0, 4810.0, 4810.0, 4810.0, 4832.0, 4812.0, 4806.0, 4812.0, 4810.0, 4810.0, 4810.0, 4806.0, 4838.0, 4812.0, 4812.0, 4810.0, 4808.0, 4810.0, 4810.0, 4808.0, 4810.0, 4808.0, 4810.0, 4836.0, 4810.0, 4810.0, 4810.0, 4810.0, 4810.0, 4810.0, 4812.0, 4812.0, 4834.0, 4810.0, 4808.0, 4810.0, 4808.0, 4806.0, 4810.0, 4812.0, 4810.0, 4810.0, 4810.0, 4834.0, 4808.0, 4810.0, 4808.0, 4810.0, 4810.0, 4806.0, 4810.0, 4806.0, 4806.0, 4832.0, 4810.0, 4810.0, 4808.0, 4810.0, 4834.0, 4806.0, 4808.0, 4806.0, 4810.0, 4808.0, 4810.0, 4808.0, 4810.0, 4812.0, 4834.0, 4808.0, 4806.0, 4808.0, 4808.0, 4810.0, 4810.0, 4806.0, 4812.0, 4814.0, 4808.0, 4812.0, 4812.0, 4810.0, 4810.0, 4812.0, 4808.0, 4814.0, 4834.0],
