{
  "AcquisitionMatrixPE": 104,
  "AcquisitionNumber": 1,
  "AcquisitionTime": "11:43:8.855000",
  "BandwidthPerPixelPhaseEncode": 17.17,
  "BaseResolution": 104,
  "BodyPartExamined": "BRAIN",
  "CoilCombinationMethod": "Sum of Squares",
  "ConsistencyInfo": "N4_VE11C_LATEST_20160120",
  "ConversionSoftware": "dcm2niix",
  "ConversionSoftwareVersion": "v1.0.20220505",
  "DerivedVendorReportedEchoSpacing": 0.000560011,
  "DeviceSerialNumber": "167006",
  "DwellTime": 2.1e-06,
  "EchoTime": 0.037,
  "EchoTime1": 0.037,
  "EchoTime2": 0.001,
  "EchoTrainLength": 104,
  "EffectiveEchoSpacing": 0.000560011,
  "FlipAngle": 52,
  "HeudiconvVersion": "0.5.3.post811+g6206e14",
  "ImageComments": "Unaliased MB4/PE3/LB",
  "ImageOrientationPatientDICOM": [0.991201, 0.130984, 0.0190585, -0.113809, 0.9169, -0.382547],
  "ImageOrientationText": "Tra>Cor(-22.2)>Sag(3.9)",
  "ImageType": [
    "ORIGINAL",
    "PRIMARY",
    "P",
    "MB",
    "ND",
    "MOSAIC",
    "PHASE"
],
  "ImagingFrequency": 123.259,
  "InPlanePhaseEncodingDirectionDICOM": "COL",
  "InstitutionAddress": "Chemin Queen-Mary 4565,Montreal,District,CA,H3W 1W5",
  "InstitutionName": "IUGM",
  "InstitutionalDepartmentName": "Department",
  "MRAcquisitionType": "2D",
  "MagneticFieldStrength": 3,
  "Manufacturer": "Siemens",
  "ManufacturersModelName": "Prisma_fit",
  "MatrixCoilMode": "SENSE",
  "Modality": "MR",
  "MultibandAccelerationFactor": 4,
  "PartialFourier": 1,
  "PatientPosition": "HFS",
  "PercentPhaseFOV": 100,
  "PercentSampling": 100,
  "PhaseEncodingDirection": "j",
  "PhaseEncodingSteps": 104,
  "PhaseResolution": 1,
  "PixelBandwidth": 2290,
  "ProcedureStepDescription": "games^mario3",
  "ProtocolName": "func_task-mario3_run-01",
  "PulseSequenceDetails": "%CustomerSeq%\\cmrr_mbep2d_bold",
  "ReceiveCoilActiveElements": "HC1-7;NC1,2",
  "ReceiveCoilName": "HeadNeck_64",
  "ReconMatrixPE": 104,
  "RepetitionTime": 1.49,
  "SAR": 0.0517807,
  "ScanOptions": "FS",
  "ScanningSequence": "EP",
  "SequenceName": "epfid2d1_104",
  "SequenceVariant": "SK\\SS",
  "SeriesDescription": "func_task-mario3_run-01",
  "SeriesNumber": 11,
  "ShimSetting": [627, -7194, -8835, 618, 103, -21, -64, 2],
  "SliceThickness": 2,
  "SliceTiming": [0, 0.7825, 0.0975, 0.88, 0.195, 0.98, 0.2925, 1.0775, 0.39, 1.175, 0.49, 1.2725, 0.5875, 1.37, 0.685, 0, 0.7825, 0.0975, 0.88, 0.195, 0.98, 0.2925, 1.0775, 0.39, 1.175, 0.49, 1.2725, 0.5875, 1.37, 0.685, 0, 0.7825, 0.0975, 0.88, 0.195, 0.98, 0.2925, 1.0775, 0.39, 1.175, 0.49, 1.2725, 0.5875, 1.37, 0.685, 0, 0.7825, 0.0975, 0.88, 0.195, 0.98, 0.2925, 1.0775, 0.39, 1.175, 0.49, 1.2725, 0.5875, 1.37, 0.685],
  "SoftwareVersions": "syngo MR E11",
  "SpacingBetweenSlices": 2,
  "StationName": "MRC35049",
  "TaskName": "mario3",
  "TotalReadoutTime": 0.0576811,
  "TxRefAmp": 265.338,
  "WipMemBlock": "702ec4ab-cfe0-452e-976b-03a454793a64||Sequence: R017 ve11c/master r/75a17815+; Jun 28 2022 16:32:11 by eja",
  "dcmmeta_affine": [
    [-1.9824026823043823, -0.22761887311935425, 0.1351640671491623, 112.38368225097656],
    [-0.26196712255477905, 1.833799958229065, -0.7540232539176941, -43.454402923583984],
    [0.03811696171760559, 0.7650931477546692, 1.847479224205017, -68.62422180175781],
    [0.0, 0.0, 0.0, 1.0]
],
  "dcmmeta_reorient_transform": [
    [0.0, -1.0, 0.0, 103.0],
    [1.0, 0.0, 0.0, 0.0],
    [0.0, 0.0, 1.0, 0.0],
    [0.0, 0.0, 0.0, 1.0]
],
  "dcmmeta_shape": [104, 104, 60, 315],
  "dcmmeta_slice_dim": 2,
  "dcmmeta_version": 0.6,
  "global": {
    "const": {
      "AcquisitionMatrix": [104, 0, 0, 104],
      "AngioFlag": "N",
      "BitsAllocated": 16,
      "BitsStored": 16,
      "BodyPartExamined": "BRAIN",
      "Columns": 832,
      "EchoNumbers": 1,
      "EchoTime": 37.0,
      "EchoTrainLength": 104,
      "FlipAngle": 52.0,
      "HighBit": 15,
      "ImageOrientationPatient": [0.99120133212651, 0.13098356184694, 0.01905848148545, -0.1138094372425, 0.91689995906778, -0.3825465684803],
      "ImagePositionPatient": [-727.68023469942, -908.28619099406, 274.79970144735],
      "ImageType": [
        "ORIGINAL",
        "PRIMARY",
        "P",
        "MB",
        "ND",
        "MOSAIC"
],
      "ImagedNucleus": "1H",
      "ImagingFrequency": 123.258817,
      "InPlanePhaseEncodingDirection": "COL",
      "LargestImagePixelValue": 4095,
      "MRAcquisitionType": "2D",
      "MagneticFieldStrength": 3.0,
      "Manufacturer": "SIEMENS",
      "ManufacturerModelName": "Prisma_fit",
      "Modality": "MR",
      "NumberOfAverages": 1.0,
      "NumberOfPhaseEncodingSteps": 104,
      "PercentPhaseFieldOfView": 100.0,
      "PercentSampling": 100.0,
      "PerformedProcedureStepStartTime": "114034.532000",
      "PhotometricInterpretation": "MONOCHROME2",
      "PixelBandwidth": 2290.0,
      "PixelRepresentation": 0,
      "PixelSpacing": [2.0, 2.0],
      "ProtocolName": "func_task-mario3_run-01",
      "RepetitionTime": 1490.0,
      "RescaleIntercept": -4096.0,
      "RescaleSlope": 2.0,
      "RescaleType": "US",
      "Rows": 832,
      "SAR": 0.0517806767081,
      "SamplesPerPixel": 1,
      "ScanOptions": "FS",
      "ScanningSequence": "EP",
      "SequenceName": "epfid2d1_104",
      "SequenceVariant": [
        "SK",
        "SS"
],
      "SeriesDescription": "func_task-mario3_run-01",
      "SeriesNumber": 11,
      "SeriesTime": "114438.891000",
      "SliceLocation": -39.412977136908,
      "SliceThickness": 2.0,
      "SmallestImagePixelValue": 0,
      "SoftwareVersions": "syngo MR E11",
      "SpacingBetweenSlices": 2.0000000182307,
      "SpecificCharacterSet": "ISO_IR 100",
      "StudyID": "1",
      "StudyTime": "114034.444000",
      "TransmitCoilName": "Body",
      "VariableFlipAngleFlag": "N",
      "WindowCenterWidthExplanation": "Algo1",
      "dBdt": 0.0},
    "slices": {}
  },
  "time": {
    "samples": {
      "AcquisitionNumber": [1, 2, 3, 4, 5, 6, 7, 8, 9, 10, 11, 12, 13, 14, 15, 16, 17, 18, 19, 20, 21, 22, 23, 24, 25, 26, 27, 28, 29, 30, 31, 32, 33, 34, 35, 36, 37, 38, 39, 40, 41, 42, 43, 44, 45, 46, 47, 48, 49, 50, 51, 52, 53, 54, 55, 56, 57, 58, 59, 60, 61, 62, 63, 64, 65, 66, 67, 68, 69, 70, 71, 72, 73, 74, 75, 76, 77, 78, 79, 80, 81, 82, 83, 84, 85, 86, 87, 88, 89, 90, 91, 92, 93, 94, 95, 96, 97, 98, 99, 100, 101, 102, 103, 104, 105, 106, 107, 108, 109, 110, 111, 112, 113, 114, 115, 116, 117, 118, 119, 120, 121, 122, 123, 124, 125, 126, 127, 128, 129, 130, 131, 132, 133, 134, 135, 136, 137, 138, 139, 140, 141, 142, 143, 144, 145, 146, 147, 148, 149, 150, 151, 152, 153, 154, 155, 156, 157, 158, 159, 160, 161, 162, 163, 164, 165, 166, 167, 168, 169, 170, 171, 172, 173, 174, 175, 176, 177, 178, 179, 180, 181, 182, 183, 184, 185, 186, 187, 188, 189, 190, 191, 192, 193, 194, 195, 196, 197, 198, 199, 200, 201, 202, 203, 204, 205, 206, 207, 208, 209, 210, 211, 212, 213, 214, 215, 216, 217, 218, 219, 220, 221, 222, 223, 224, 225, 226, 227, 228, 229, 230, 231, 232, 233, 234, 235, 236, 237, 238, 239, 240, 241, 242, 243, 244, 245, 246, 247, 248, 249, 250, 251, 252, 253, 254, 255, 256, 257, 258, 259, 260, 261, 262, 263, 264, 265, 266, 267, 268, 269, 270, 271, 272, 273, 274, 275, 276, 277, 278, 279, 280, 281, 282, 283, 284, 285, 286, 287, 288, 289, 290, 291, 292, 293, 294, 295, 296, 297, 298, 299, 300, 301, 302, 303, 304, 305, 306, 307, 308, 309, 310, 311, 312, 313, 314, 315],
      "AcquisitionTime": ["114308.855000", "114310.345000", "114311.835000", "114313.325000", "114314.815000", "114316.305000", "114317.795000", "114319.285000", "114320.775000", "114322.265000", "114323.755000", "114325.245000", "114326.735000", "114328.225000", "114329.715000", "114331.205000", "114332.695000", "114334.185000", "114335.675000", "114337.165000", "114338.655000", "114340.145000", "114341.635000", "114343.125000", "114344.615000", "114346.105000", "114347.595000", "114349.085000", "114350.575000", "114352.065000", "114353.555000", "114355.045000", "114356.535000", "114358.025000", "114359.515000", "114401.005000", "114402.495000", "114403.985000", "114405.475000", "114406.965000", "114408.455000", "114409.945000", "114411.435000", "114412.925000", "114414.415000", "114415.905000", "114417.395000", "114418.885000", "114420.375000", "114421.865000", "114423.355000", "114424.845000", "114426.335000", "114427.825000", "114429.315000", "114430.805000", "114432.295000", "114433.785000", "114435.275000", "114436.765000", "114438.255000", "114439.745000", "114441.235000", "114442.725000", "114444.215000", "114445.705000", "114447.195000", "114448.685000", "114450.175000", "114451.665000", "114453.155000", "114454.645000", "114456.135000", "114457.625000", "114459.115000", "114500.605000", "114502.095000", "114503.585000", "114505.075000", "114506.565000", "114508.055000", "114509.545000", "114511.035000", "114512.525000", "114514.015000", "114515.505000", "114516.995000", "114518.485000", "114519.975000", "114521.465000", "114522.955000", "114524.445000", "114525.935000", "114527.425000", "114528.915000", "114530.405000", "114531.895000", "114533.385000", "114534.875000", "114536.365000", "114537.855000", "114539.345000", "114540.835000", "114542.325000", "114543.815000", "114545.305000", "114546.795000", "114548.285000", "114549.775000", "114551.265000", "114552.755000", "114554.245000", "114555.735000", "114557.225000", "114558.715000", "114600.205000", "114601.695000", "114603.185000", "114604.675000", "114606.165000", "114607.655000", "114609.145000", "114610.635000", "114612.125000", "114613.615000", "114615.105000", "114616.595000", "114618.085000", "114619.575000", "114621.065000", "114622.555000", "114624.045000", "114625.535000", "114627.025000", "114628.515000", "114630.005000", "114631.495000", "114632.985000", "114634.475000", "114635.965000", "114637.455000", "114638.945000", "114640.435000", "114641.925000", "114643.415000", "114644.905000", "114646.395000", "114647.885000", "114649.375000", "114650.865000", "114652.355000", "114653.845000", "114655.335000", "114656.825000", "114658.315000", "114659.805000", "114701.295000", "114702.785000", "114704.275000", "114705.765000", "114707.255000", "114708.745000", "114710.235000", "114711.725000", "114713.215000", "114714.705000", "114716.195000", "114717.685000", "114719.175000", "114720.665000", "114722.155000", "114723.645000", "114725.135000", "114726.625000", "114728.115000", "114729.605000", "114731.095000", "114732.585000", "114734.075000", "114735.565000", "114737.055000", "114738.545000", "114740.035000", "114741.525000", "114743.015000", "114744.505000", "114745.995000", "114747.485000", "114748.975000", "114750.465000", "114751.955000", "114753.445000", "114754.935000", "114756.425000", "114757.915000", "114759.405000", "114800.895000", "114802.385000", "114803.875000", "114805.365000", "114806.855000", "114808.345000", "114809.835000", "114811.325000", "114812.815000", "114814.305000", "114815.795000", "114817.285000", "114818.775000", "114820.265000", "114821.755000", "114823.245000", "114824.735000", "114826.225000", "114827.715000", "114829.205000", "114830.695000", "114832.185000", "114833.675000", "114835.165000", "114836.655000", "114838.145000", "114839.635000", "114841.125000", "114842.615000", "114844.105000", "114845.595000", "114847.085000", "114848.575000", "114850.065000", "114851.555000", "114853.045000", "114854.535000", "114856.025000", "114857.515000", "114859.005000", "114900.495000", "114901.985000", "114903.475000", "114904.965000", "114906.455000", "114907.945000", "114909.435000", "114910.925000", "114912.415000", "114913.905000", "114915.395000", "114916.885000", "114918.375000", "114919.865000", "114921.355000", "114922.845000", "114924.335000", "114925.825000", "114927.315000", "114928.805000", "114930.295000", "114931.785000", "114933.275000", "114934.765000", "114936.255000", "114937.745000", "114939.235000", "114940.725000", "114942.215000", "114943.705000", "114945.195000", "114946.685000", "114948.175000", "114949.665000", "114951.155000", "114952.645000", "114954.135000", "114955.625000", "114957.115000", "114958.605000", "115000.095000", "115001.585000", "115003.075000", "115004.565000", "115006.055000", "115007.545000", "115009.035000", "115010.525000", "115012.015000", "115013.505000", "115014.995000", "115016.485000", "115017.975000", "115019.465000", "115020.955000", "115022.445000", "115023.935000", "115025.425000", "115026.915000", "115028.405000", "115029.895000", "115031.385000", "115032.875000", "115034.365000", "115035.855000", "115037.345000", "115038.835000", "115040.325000", "115041.815000", "115043.305000", "115044.795000", "115046.285000", "115047.775000", "115049.265000", "115050.755000", "115052.245000", "115053.735000", "115055.225000", "115056.715000"],
      "ContentTime": ["114438.894000", "114438.896000", "114438.899000", "114438.901000", "114438.904000", "114438.906000", "114438.909000", "114438.911000", "114438.914000", "114438.916000", "114438.919000", "114438.921000", "114438.924000", "114438.934000", "114438.936000", "114438.939000", "114438.946000", "114438.949000", "114438.951000", "114438.954000", "114438.956000", "114438.959000", "114438.961000", "114438.964000", "114438.967000", "114438.969000", "114438.972000", "114438.974000", "114438.977000", "114438.979000", "114458.833000", "114458.836000", "114458.839000", "114458.841000", "114458.844000", "114458.846000", "114458.849000", "114458.851000", "114458.854000", "114458.856000", "114458.859000", "114458.861000", "114458.864000", "114458.866000", "114458.869000", "114458.871000", "114458.874000", "114458.876000", "114458.879000", "114458.882000", "114518.814000", "114518.817000", "114518.819000", "114518.822000", "114518.825000", "114518.828000", "114518.830000", "114518.833000", "114518.835000", "114518.838000", "114518.841000", "114518.843000", "114518.846000", "114518.848000", "114518.851000", "114518.853000", "114518.856000", "114518.858000", "114518.861000", "114518.864000", "114538.825000", "114538.827000", "114538.830000", "114538.832000", "114538.841000", "114538.844000", "114538.847000", "114538.849000", "114538.852000", "114538.854000", "114538.857000", "114538.859000", "114538.862000", "114538.864000", "114538.867000", "114538.869000", "114538.872000", "114538.874000", "114538.877000", "114538.879000", "114558.813000", "114558.816000", "114558.819000", "114558.821000", "114558.824000", "114558.826000", "114558.829000", "114558.831000", "114558.837000", "114558.840000", "114558.842000", "114558.845000", "114558.847000", "114558.850000", "114558.852000", "114558.855000", "114558.857000", "114558.860000", "114558.862000", "114558.865000", "114558.868000", "114638.862000", "114638.864000", "114638.867000", "114638.870000", "114638.872000", "114638.875000", "114638.877000", "114638.880000", "114638.882000", "114638.885000", "114638.887000", "114638.890000", "114638.892000", "114638.895000", "114638.898000", "114638.900000", "114638.903000", "114638.905000", "114638.908000", "114638.910000", "114638.913000", "114638.915000", "114638.918000", "114638.920000", "114638.923000", "114638.926000", "114638.928000", "114638.931000", "114638.933000", "114718.846000", "114718.849000", "114718.851000", "114718.854000", "114718.856000", "114718.859000", "114718.861000", "114718.864000", "114718.867000", "114718.869000", "114718.872000", "114718.874000", "114718.877000", "114718.879000", "114718.882000", "114718.884000", "114718.887000", "114718.889000", "114718.892000", "114718.894000", "114718.897000", "114718.900000", "114718.902000", "114718.905000", "114718.907000", "114718.910000", "114718.912000", "114758.836000", "114758.839000", "114758.841000", "114758.844000", "114758.846000", "114758.849000", "114758.852000", "114758.854000", "114758.857000", "114758.859000", "114758.862000", "114758.864000", "114758.867000", "114758.869000", "114758.872000", "114758.875000", "114758.877000", "114758.880000", "114758.882000", "114758.885000", "114758.887000", "114758.890000", "114758.892000", "114758.895000", "114758.898000", "114758.900000", "114758.903000", "114838.856000", "114838.859000", "114838.861000", "114838.864000", "114838.867000", "114838.869000", "114838.872000", "114838.874000", "114838.877000", "114838.879000", "114838.882000", "114838.885000", "114838.887000", "114838.890000", "114838.892000", "114838.895000", "114838.897000", "114838.900000", "114838.902000", "114838.905000", "114838.908000", "114838.910000", "114838.913000", "114838.915000", "114838.918000", "114838.920000", "114838.923000", "114918.847000", "114918.850000", "114918.854000", "114918.857000", "114918.859000", "114918.862000", "114918.865000", "114918.868000", "114918.870000", "114918.873000", "114918.876000", "114918.878000", "114918.881000", "114918.883000", "114918.886000", "114918.888000", "114918.891000", "114918.894000", "114918.896000", "114918.899000", "114918.901000", "114918.904000", "114918.906000", "114918.909000", "114918.911000", "114918.914000", "114958.855000", "114958.857000", "114958.860000", "114958.863000", "114958.865000", "114958.868000", "114958.870000", "114958.873000", "114958.875000", "114958.878000", "114958.880000", "114958.883000", "114958.885000", "114958.888000", "114958.890000", "114958.893000", "114958.895000", "114958.898000", "114958.901000", "114958.903000", "114958.906000", "114958.908000", "114958.911000", "114958.913000", "114958.916000", "114958.918000", "114958.921000", "115038.847000", "115038.849000", "115038.852000", "115038.854000", "115038.857000", "115038.860000", "115038.862000", "115038.865000", "115038.867000", "115038.870000", "115038.872000", "115038.875000", "115038.877000", "115038.880000", "115038.883000", "115038.885000", "115038.888000", "115038.890000", "115038.893000", "115038.895000", "115038.898000", "115038.900000", "115038.903000", "115038.905000", "115038.908000", "115038.910000", "115038.913000", "115058.788000", "115058.790000", "115058.793000", "115058.795000", "115058.798000", "115058.801000", "115058.803000", "115058.806000", "115058.808000", "115058.811000", "115058.813000", "115058.816000", "115058.819000", "115059.403000"],
      "InstanceCreationTime": ["114438.894000", "114438.896000", "114438.899000", "114438.901000", "114438.904000", "114438.906000", "114438.909000", "114438.911000", "114438.914000", "114438.916000", "114438.919000", "114438.921000", "114438.924000", "114438.934000", "114438.936000", "114438.939000", "114438.946000", "114438.949000", "114438.951000", "114438.954000", "114438.956000", "114438.959000", "114438.961000", "114438.964000", "114438.967000", "114438.969000", "114438.972000", "114438.974000", "114438.977000", "114438.979000", "114458.833000", "114458.836000", "114458.839000", "114458.841000", "114458.844000", "114458.846000", "114458.849000", "114458.851000", "114458.854000", "114458.856000", "114458.859000", "114458.861000", "114458.864000", "114458.866000", "114458.869000", "114458.871000", "114458.874000", "114458.876000", "114458.879000", "114458.882000", "114518.814000", "114518.817000", "114518.819000", "114518.822000", "114518.825000", "114518.828000", "114518.830000", "114518.833000", "114518.835000", "114518.838000", "114518.841000", "114518.843000", "114518.846000", "114518.848000", "114518.851000", "114518.853000", "114518.856000", "114518.858000", "114518.861000", "114518.864000", "114538.825000", "114538.827000", "114538.830000", "114538.832000", "114538.841000", "114538.844000", "114538.847000", "114538.849000", "114538.852000", "114538.854000", "114538.857000", "114538.859000", "114538.862000", "114538.864000", "114538.867000", "114538.869000", "114538.872000", "114538.874000", "114538.877000", "114538.879000", "114558.813000", "114558.816000", "114558.819000", "114558.821000", "114558.824000", "114558.826000", "114558.829000", "114558.831000", "114558.837000", "114558.840000", "114558.842000", "114558.845000", "114558.847000", "114558.850000", "114558.852000", "114558.855000", "114558.857000", "114558.860000", "114558.862000", "114558.865000", "114558.868000", "114638.862000", "114638.864000", "114638.867000", "114638.870000", "114638.872000", "114638.875000", "114638.877000", "114638.880000", "114638.882000", "114638.885000", "114638.887000", "114638.890000", "114638.892000", "114638.895000", "114638.898000", "114638.900000", "114638.903000", "114638.905000", "114638.908000", "114638.910000", "114638.913000", "114638.915000", "114638.918000", "114638.920000", "114638.923000", "114638.926000", "114638.928000", "114638.931000", "114638.933000", "114718.846000", "114718.849000", "114718.851000", "114718.854000", "114718.856000", "114718.859000", "114718.861000", "114718.864000", "114718.867000", "114718.869000", "114718.872000", "114718.874000", "114718.877000", "114718.879000", "114718.882000", "114718.884000", "114718.887000", "114718.889000", "114718.892000", "114718.894000", "114718.897000", "114718.900000", "114718.902000", "114718.905000", "114718.907000", "114718.910000", "114718.912000", "114758.836000", "114758.839000", "114758.841000", "114758.844000", "114758.846000", "114758.849000", "114758.852000", "114758.854000", "114758.857000", "114758.859000", "114758.862000", "114758.864000", "114758.867000", "114758.869000", "114758.872000", "114758.875000", "114758.877000", "114758.880000", "114758.882000", "114758.885000", "114758.887000", "114758.890000", "114758.892000", "114758.895000", "114758.898000", "114758.900000", "114758.903000", "114838.856000", "114838.859000", "114838.861000", "114838.864000", "114838.867000", "114838.869000", "114838.872000", "114838.874000", "114838.877000", "114838.879000", "114838.882000", "114838.885000", "114838.887000", "114838.890000", "114838.892000", "114838.895000", "114838.897000", "114838.900000", "114838.902000", "114838.905000", "114838.908000", "114838.910000", "114838.913000", "114838.915000", "114838.918000", "114838.920000", "114838.923000", "114918.847000", "114918.850000", "114918.854000", "114918.857000", "114918.859000", "114918.862000", "114918.865000", "114918.868000", "114918.870000", "114918.873000", "114918.876000", "114918.878000", "114918.881000", "114918.883000", "114918.886000", "114918.888000", "114918.891000", "114918.894000", "114918.896000", "114918.899000", "114918.901000", "114918.904000", "114918.906000", "114918.909000", "114918.911000", "114918.914000", "114958.855000", "114958.857000", "114958.860000", "114958.863000", "114958.865000", "114958.868000", "114958.870000", "114958.873000", "114958.875000", "114958.878000", "114958.880000", "114958.883000", "114958.885000", "114958.888000", "114958.890000", "114958.893000", "114958.895000", "114958.898000", "114958.901000", "114958.903000", "114958.906000", "114958.908000", "114958.911000", "114958.913000", "114958.916000", "114958.918000", "114958.921000", "115038.847000", "115038.849000", "115038.852000", "115038.854000", "115038.857000", "115038.860000", "115038.862000", "115038.865000", "115038.867000", "115038.870000", "115038.872000", "115038.875000", "115038.877000", "115038.880000", "115038.883000", "115038.885000", "115038.888000", "115038.890000", "115038.893000", "115038.895000", "115038.898000", "115038.900000", "115038.903000", "115038.905000", "115038.908000", "115038.910000", "115038.913000", "115058.788000", "115058.790000", "115058.793000", "115058.795000", "115058.798000", "115058.801000", "115058.803000", "115058.806000", "115058.808000", "115058.811000", "115058.813000", "115058.816000", "115058.819000", "115059.403000"],
      "InstanceNumber": [1, 2, 3, 4, 5, 6, 7, 8, 9, 10, 11, 12, 13, 14, 15, 16, 17, 18, 19, 20, 21, 22, 23, 24, 25, 26, 27, 28, 29, 30, 31, 32, 33, 34, 35, 36, 37, 38, 39, 40, 41, 42, 43, 44, 45, 46, 47, 48, 49, 50, 51, 52, 53, 54, 55, 56, 57, 58, 59, 60, 61, 62, 63, 64, 65, 66, 67, 68, 69, 70, 71, 72, 73, 74, 75, 76, 77, 78, 79, 80, 81, 82, 83, 84, 85, 86, 87, 88, 89, 90, 91, 92, 93, 94, 95, 96, 97, 98, 99, 100, 101, 102, 103, 104, 105, 106, 107, 108, 109, 110, 111, 112, 113, 114, 115, 116, 117, 118, 119, 120, 121, 122, 123, 124, 125, 126, 127, 128, 129, 130, 131, 132, 133, 134, 135, 136, 137, 138, 139, 140, 141, 142, 143, 144, 145, 146, 147, 148, 149, 150, 151, 152, 153, 154, 155, 156, 157, 158, 159, 160, 161, 162, 163, 164, 165, 166, 167, 168, 169, 170, 171, 172, 173, 174, 175, 176, 177, 178, 179, 180, 181, 182, 183, 184, 185, 186, 187, 188, 189, 190, 191, 192, 193, 194, 195, 196, 197, 198, 199, 200, 201, 202, 203, 204, 205, 206, 207, 208, 209, 210, 211, 212, 213, 214, 215, 216, 217, 218, 219, 220, 221, 222, 223, 224, 225, 226, 227, 228, 229, 230, 231, 232, 233, 234, 235, 236, 237, 238, 239, 240, 241, 242, 243, 244, 245, 246, 247, 248, 249, 250, 251, 252, 253, 254, 255, 256, 257, 258, 259, 260, 261, 262, 263, 264, 265, 266, 267, 268, 269, 270, 271, 272, 273, 274, 275, 276, 277, 278, 279, 280, 281, 282, 283, 284, 285, 286, 287, 288, 289, 290, 291, 292, 293, 294, 295, 296, 297, 298, 299, 300, 301, 302, 303, 304, 305, 306, 307, 308, 309, 310, 311, 312, 313, 314, 315],
      "WindowCenter": [4802.0, 4808.0, 4810.0, 4802.0, 4804.0, 4804.0, 4804.0, 4804.0, 4802.0, 4804.0, 4804.0, 4808.0, 4808.0, 4802.0, 4804.0, 4810.0, 4804.0, 4802.0, 4806.0, 4804.0, 4808.0, 4808.0, 4806.0, 4810.0, 4802.0, 4804.0, 4806.0, 4806.0, 4802.0, 4804.0, 4808.0, 4806.0, 4782.0, 4806.0, 4804.0, 4782.0, 4806.0, 4808.0, 4808.0, 4806.0, 4808.0, 4804.0, 4808.0, 4804.0, 4806.0, 4808.0, 4810.0, 4808.0, 4806.0, 4782.0, 4784.0, 4806.0, 4806.0, 4804.0, 4808.0, 4810.0, 4808.0, 4806.0, 4804.0, 4808.0, 4806.0, 4810.0, 4804.0, 4802.0, 4806.0, 4810.0, 4808.0, 4810.0, 4810.0, 4808.0, 4808.0, 4806.0, 4810.0, 4804.0, 4808.0, 4808.0, 4812.0, 4806.0, 4808.0, 4808.0, 4806.0, 4806.0, 4804.0, 4804.0, 4808.0, 4808.0, 4806.0, 4804.0, 4810.0, 4806.0, 4810.0, 4806.0, 4812.0, 4782.0, 4808.0, 4808.0, 4808.0, 4806.0, 4806.0, 4784.0, 4808.0, 4806.0, 4806.0, 4808.0, 4784.0, 4810.0, 4784.0, 4808.0, 4808.0, 4808.0, 4804.0, 4810.0, 4806.0, 4808.0, 4804.0, 4784.0, 4808.0, 4808.0, 4806.0, 4804.0, 4810.0, 4782.0, 4806.0, 4782.0, 4786.0, 4808.0, 4812.0, 4812.0, 4808.0, 4810.0, 4808.0, 4810.0, 4784.0, 4780.0, 4810.0, 4806.0, 4808.0, 4806.0, 4810.0, 4808.0, 4806.0, 4780.0, 4804.0, 4804.0, 4808.0, 4782.0, 4784.0, 4784.0, 4808.0, 4806.0, 4808.0, 4784.0, 4806.0, 4810.0, 4788.0, 4808.0, 4810.0, 4784.0, 4784.0, 4808.0, 4806.0, 4808.0, 4782.0, 4810.0, 4784.0, 4808.0, 4782.0, 4808.0, 4782.0, 4810.0, 4786.0, 4782.0, 4808.0, 4782.0, 4810.0, 4806.0, 4808.0, 4784.0, 4782.0, 4808.0, 4784.0, 4806.0, 4812.0, 4806.0, 4782.0, 4810.0, 4810.0, 4810.0, 4806.0, 4806.0, 4806.0, 4786.0, 4810.0, 4806.0, 4786.0, 4806.0, 4810.0, 4808.0, 4810.0, 4806.0, 4808.0, 4786.0, 4782.0, 4784.0, 4806.0, 4806.0, 4804.0, 4810.0, 4780.0, 4810.0, 4810.0, 4806.0, 4782.0, 4784.0, 4808.0, 4780.0, 4782.0, 4786.0, 4806.0, 4804.0, 4808.0, 4780.0, 4806.0, 4784.0, 4808.0, 4806.0, 4808.0, 4780.0, 4786.0, 4808.0, 4808.0, 4808.0, 4782.0, 4804.0, 4782.0, 4804.0, 4806.0, 4780.0, 4806.0, 4806.0, 4804.0, 4808.0, 4806.0, 4810.0, 4808.0, 4806.0, 4806.0, 4782.0, 4806.0, 4784.0, 4808.0, 4808.0, 4782.0, 4780.0, 4804.0, 4782.0, 4804.0, 4804.0, 4782.0, 4806.0, 4784.0, 4782.0, 4784.0, 4808.0, 4782.0, 4808.0, 4808.0, 4808.0, 4808.0, 4782.0, 4784.0, 4784.0, 4786.0, 4782.0, 4806.0, 4806.0, 4806.0, 4806.0, 4808.0, 4810.0, 4786.0, 4784.0, 4786.0, 4782.0, 4782.0, 4806.0, 4784.0, 4786.0, 4808.0, 4784.0, 4812.0, 4782.0, 4784.0, 4806.0, 4808.0, 4804.0, 4808.0, 4808.0, 4784.0, 4806.0, 4808.0, 4808.0, 4786.0, 4810.0, 4806.0, 4808.0, 4812.0, 4786.0, 4806.0, 4810.0, 4810.0, 4786.0, 4808.0, 4808.0, 4784.0],
