{
  "AcquisitionMatrixPE": 104,
  "AcquisitionNumber": 1,
  "AcquisitionTime": "18:17:51.727500",
  "BandwidthPerPixelPhaseEncode": 17.17,
  "BaseResolution": 104,
  "BodyPartExamined": "BRAIN",
  "CoilCombinationMethod": "Sum of Squares",
  "ConsistencyInfo": "N4_VE11C_LATEST_20160120",
  "ConversionSoftware": "dcm2niix",
  "ConversionSoftwareVersion": "v1.0.20220505",
  "DerivedVendorReportedEchoSpacing": 0.000560011,
  "DeviceSerialNumber": "167006",
  "DwellTime": 2.1e-06,
  "EchoTime": 0.037,
  "EchoTrainLength": 104,
  "EffectiveEchoSpacing": 0.000560011,
  "FlipAngle": 52,
  "HeudiconvVersion": "0.5.3.post811+g6206e14",
  "ImageComments": "Unaliased MB4/PE3/LB",
  "ImageOrientationPatientDICOM": [0.995648, 0.0881339, 0.0302944, -0.07364, 0.943233, -0.323865],
  "ImageOrientationText": "Tra>Cor(-18.7)>Sag(3.3)",
  "ImageType": [
    "ORIGINAL",
    "PRIMARY",
    "M",
    "MB",
    "ND",
    "MOSAIC"
],
  "ImagingFrequency": 123.26,
  "InPlanePhaseEncodingDirectionDICOM": "COL",
  "InstitutionAddress": "Chemin Queen-Mary 4565,Montreal,District,CA,H3W 1W5",
  "InstitutionName": "IUGM",
  "InstitutionalDepartmentName": "Department",
  "MRAcquisitionType": "2D",
  "MagneticFieldStrength": 3,
  "Manufacturer": "Siemens",
  "ManufacturersModelName": "Prisma_fit",
  "MatrixCoilMode": "SENSE",
  "Modality": "MR",
  "MultibandAccelerationFactor": 4,
  "PartialFourier": 1,
  "PatientPosition": "HFS",
  "PercentPhaseFOV": 100,
  "PercentSampling": 100,
  "PhaseEncodingDirection": "j",
  "PhaseEncodingSteps": 104,
  "PhaseResolution": 1,
  "PixelBandwidth": 2290,
  "ProcedureStepDescription": "games^mario3",
  "ProtocolName": "func_task-mario3_run-01",
  "PulseSequenceDetails": "%CustomerSeq%\\cmrr_mbep2d_bold",
  "ReceiveCoilActiveElements": "HC1-7;NC1,2",
  "ReceiveCoilName": "HeadNeck_64",
  "ReconMatrixPE": 104,
  "RepetitionTime": 1.49,
  "SAR": 0.0671982,
  "ScanOptions": "FS",
  "ScanningSequence": "EP",
  "SequenceName": "epfid2d1_104",
  "SequenceVariant": "SK\\SS",
  "SeriesDescription": "func_task-mario3_run-01",
  "SeriesNumber": 10,
  "ShimSetting": [622, -7203, -8824, 661, 134, -5, -48, 7],
  "SliceThickness": 2,
  "SliceTiming": [0, 0.785, 0.0975, 0.8825, 0.1975, 0.98, 0.295, 1.0775, 0.3925, 1.1775, 0.49, 1.275, 0.5875, 1.3725, 0.6875, 0, 0.785, 0.0975, 0.8825, 0.1975, 0.98, 0.295, 1.0775, 0.3925, 1.1775, 0.49, 1.275, 0.5875, 1.3725, 0.6875, 0, 0.785, 0.0975, 0.8825, 0.1975, 0.98, 0.295, 1.0775, 0.3925, 1.1775, 0.49, 1.275, 0.5875, 1.3725, 0.6875, 0, 0.785, 0.0975, 0.8825, 0.1975, 0.98, 0.295, 1.0775, 0.3925, 1.1775, 0.49, 1.275, 0.5875, 1.3725, 0.6875],
  "SoftwareVersions": "syngo MR E11",
  "SpacingBetweenSlices": 2,
  "StationName": "MRC35049",
  "TaskName": "mario3",
  "TotalReadoutTime": 0.0576811,
  "TxRefAmp": 280.397,
  "WipMemBlock": "af114602-bb98-4dc7-8279-ae04ea97edd0||Sequence: R017 ve11c/master r/75a17815+; Jun 28 2022 16:32:11 by eja",
  "dcmmeta_affine": [
    [-1.9912956953048706, -0.14727991819381714, 0.11423639953136444, 110.41600799560547],
    [-0.17626775801181793, 1.8864659070968628, -0.6404499411582947, -63.15056228637695],
    [0.06058883294463158, 0.6477307081222534, 1.8912360668182373, -66.97634887695312],
    [0.0, 0.0, 0.0, 1.0]
],
  "dcmmeta_reorient_transform": [
    [0.0, -1.0, 0.0, 103.0],
    [1.0, 0.0, 0.0, 0.0],
    [0.0, 0.0, 1.0, 0.0],
    [0.0, 0.0, 0.0, 1.0]
],
  "dcmmeta_shape": [104, 104, 60, 336],
  "dcmmeta_slice_dim": 2,
  "dcmmeta_version": 0.6,
  "global": {
    "const": {
      "AcquisitionMatrix": [104, 0, 0, 104],
      "AngioFlag": "N",
      "BitsAllocated": 16,
      "BitsStored": 16,
      "BodyPartExamined": "BRAIN",
      "Columns": 832,
      "EchoNumbers": 1,
      "EchoTime": 37.0,
      "EchoTrainLength": 104,
      "FlipAngle": 52.0,
      "HighBit": 15,
      "ImageOrientationPatient": [0.99564786341797, 0.08813387749081, 0.03029441713692, -0.0736399566284, 0.9432329496714, -0.3238653415263],
      "ImagePositionPatient": [-766.46793654697, -881.99047450621, 213.45954524005],
      "ImageType": [
        "ORIGINAL",
        "PRIMARY",
        "M",
        "MB",
        "ND",
        "MOSAIC"
],
      "ImagedNucleus": "1H",
      "ImagingFrequency": 123.260273,
      "InPlanePhaseEncodingDirection": "COL",
      "MRAcquisitionType": "2D",
      "MagneticFieldStrength": 3.0,
      "Manufacturer": "SIEMENS",
      "ManufacturerModelName": "Prisma_fit",
      "Modality": "MR",
      "NumberOfAverages": 1.0,
      "NumberOfPhaseEncodingSteps": 104,
      "PercentPhaseFieldOfView": 100.0,
      "PercentSampling": 100.0,
      "PerformedProcedureStepStartTime": "181429.450000",
      "PhotometricInterpretation": "MONOCHROME2",
      "PixelBandwidth": 2290.0,
      "PixelRepresentation": 0,
      "PixelSpacing": [2.0, 2.0],
      "ProtocolName": "func_task-mario3_run-01",
      "RepetitionTime": 1490.0,
      "Rows": 832,
      "SAR": 0.06719820894299,
      "SamplesPerPixel": 1,
      "ScanOptions": "FS",
      "ScanningSequence": "EP",
      "SequenceName": "epfid2d1_104",
      "SequenceVariant": [
        "SK",
        "SS"
],
      "SeriesDescription": "func_task-mario3_run-01",
      "SeriesNumber": 10,
      "SeriesTime": "181857.882000",
      "SliceLocation": -36.804893137182,
      "SliceThickness": 2.0,
      "SmallestImagePixelValue": 0,
      "SoftwareVersions": "syngo MR E11",
      "SpacingBetweenSlices": 2.0000000195549,
      "SpecificCharacterSet": "ISO_IR 100",
      "StudyID": "1",
      "StudyTime": "181429.382000",
      "TransmitCoilName": "Body",
      "VariableFlipAngleFlag": "N",
      "WindowCenterWidthExplanation": "Algo1",
      "dBdt": 0.0},
    "slices": {}
  },
  "time": {
    "samples": {
      "AcquisitionNumber": [1, 2, 3, 4, 5, 6, 7, 8, 9, 10, 11, 12, 13, 14, 15, 16, 17, 18, 19, 20, 21, 22, 23, 24, 25, 26, 27, 28, 29, 30, 31, 32, 33, 34, 35, 36, 37, 38, 39, 40, 41, 42, 43, 44, 45, 46, 47, 48, 49, 50, 51, 52, 53, 54, 55, 56, 57, 58, 59, 60, 61, 62, 63, 64, 65, 66, 67, 68, 69, 70, 71, 72, 73, 74, 75, 76, 77, 78, 79, 80, 81, 82, 83, 84, 85, 86, 87, 88, 89, 90, 91, 92, 93, 94, 95, 96, 97, 98, 99, 100, 101, 102, 103, 104, 105, 106, 107, 108, 109, 110, 111, 112, 113, 114, 115, 116, 117, 118, 119, 120, 121, 122, 123, 124, 125, 126, 127, 128, 129, 130, 131, 132, 133, 134, 135, 136, 137, 138, 139, 140, 141, 142, 143, 144, 145, 146, 147, 148, 149, 150, 151, 152, 153, 154, 155, 156, 157, 158, 159, 160, 161, 162, 163, 164, 165, 166, 167, 168, 169, 170, 171, 172, 173, 174, 175, 176, 177, 178, 179, 180, 181, 182, 183, 184, 185, 186, 187, 188, 189, 190, 191, 192, 193, 194, 195, 196, 197, 198, 199, 200, 201, 202, 203, 204, 205, 206, 207, 208, 209, 210, 211, 212, 213, 214, 215, 216, 217, 218, 219, 220, 221, 222, 223, 224, 225, 226, 227, 228, 229, 230, 231, 232, 233, 234, 235, 236, 237, 238, 239, 240, 241, 242, 243, 244, 245, 246, 247, 248, 249, 250, 251, 252, 253, 254, 255, 256, 257, 258, 259, 260, 261, 262, 263, 264, 265, 266, 267, 268, 269, 270, 271, 272, 273, 274, 275, 276, 277, 278, 279, 280, 281, 282, 283, 284, 285, 286, 287, 288, 289, 290, 291, 292, 293, 294, 295, 296, 297, 298, 299, 300, 301, 302, 303, 304, 305, 306, 307, 308, 309, 310, 311, 312, 313, 314, 315, 316, 317, 318, 319, 320, 321, 322, 323, 324, 325, 326, 327, 328, 329, 330, 331, 332, 333, 334, 335, 336],
      "AcquisitionTime": ["181751.727500", "181753.217500", "181754.707500", "181756.197500", "181757.687500", "181759.177500", "181800.667500", "181802.157500", "181803.647500", "181805.137500", "181806.627500", "181808.117500", "181809.607500", "181811.097500", "181812.587500", "181814.077500", "181815.567500", "181817.057500", "181818.547500", "181820.037500", "181821.527500", "181823.017500", "181824.507500", "181825.997500", "181827.487500", "181828.977500", "181830.467500", "181831.957500", "181833.447500", "181834.937500", "181836.427500", "181837.917500", "181839.407500", "181840.897500", "181842.387500", "181843.877500", "181845.367500", "181846.857500", "181848.347500", "181849.837500", "181851.327500", "181852.817500", "181854.307500", "181855.797500", "181857.287500", "181858.777500", "181900.267500", "181901.757500", "181903.247500", "181904.737500", "181906.227500", "181907.717500", "181909.207500", "181910.697500", "181912.187500", "181913.677500", "181915.167500", "181916.657500", "181918.147500", "181919.637500", "181921.127500", "181922.617500", "181924.107500", "181925.597500", "181927.087500", "181928.577500", "181930.067500", "181931.557500", "181933.047500", "181934.537500", "181936.027500", "181937.517500", "181939.007500", "181940.497500", "181941.987500", "181943.477500", "181944.967500", "181946.457500", "181947.947500", "181949.437500", "181950.927500", "181952.417500", "181953.907500", "181955.397500", "181956.887500", "181958.377500", "181959.867500", "182001.357500", "182002.847500", "182004.337500", "182005.827500", "182007.317500", "182008.807500", "182010.297500", "182011.787500", "182013.277500", "182014.767500", "182016.257500", "182017.747500", "182019.237500", "182020.727500", "182022.217500", "182023.707500", "182025.197500", "182026.687500", "182028.177500", "182029.667500", "182031.157500", "182032.647500", "182034.137500", "182035.627500", "182037.117500", "182038.607500", "182040.097500", "182041.587500", "182043.077500", "182044.567500", "182046.057500", "182047.547500", "182049.037500", "182050.527500", "182052.017500", "182053.507500", "182054.997500", "182056.487500", "182057.977500", "182059.467500", "182100.957500", "182102.447500", "182103.937500", "182105.427500", "182106.917500", "182108.407500", "182109.897500", "182111.387500", "182112.877500", "182114.367500", "182115.857500", "182117.347500", "182118.837500", "182120.327500", "182121.817500", "182123.307500", "182124.797500", "182126.287500", "182127.777500", "182129.267500", "182130.757500", "182132.247500", "182133.737500", "182135.227500", "182136.717500", "182138.207500", "182139.697500", "182141.187500", "182142.677500", "182144.167500", "182145.657500", "182147.147500", "182148.637500", "182150.127500", "182151.617500", "182153.107500", "182154.597500", "182156.087500", "182157.577500", "182159.067500", "182200.557500", "182202.047500", "182203.537500", "182205.027500", "182206.517500", "182208.007500", "182209.497500", "182210.987500", "182212.477500", "182213.967500", "182215.457500", "182216.947500", "182218.437500", "182219.927500", "182221.417500", "182222.907500", "182224.397500", "182225.887500", "182227.377500", "182228.867500", "182230.357500", "182231.847500", "182233.337500", "182234.827500", "182236.317500", "182237.807500", "182239.297500", "182240.787500", "182242.277500", "182243.767500", "182245.257500", "182246.747500", "182248.237500", "182249.727500", "182251.217500", "182252.707500", "182254.197500", "182255.687500", "182257.177500", "182258.667500", "182300.157500", "182301.647500", "182303.137500", "182304.627500", "182306.117500", "182307.607500", "182309.097500", "182310.587500", "182312.077500", "182313.567500", "182315.057500", "182316.547500", "182318.037500", "182319.527500", "182321.017500", "182322.507500", "182323.997500", "182325.487500", "182326.977500", "182328.467500", "182329.957500", "182331.447500", "182332.937500", "182334.427500", "182335.917500", "182337.407500", "182338.897500", "182340.387500", "182341.877500", "182343.367500", "182344.857500", "182346.347500", "182347.837500", "182349.327500", "182350.817500", "182352.307500", "182353.797500", "182355.287500", "182356.777500", "182358.267500", "182359.757500", "182401.247500", "182402.737500", "182404.227500", "182405.717500", "182407.207500", "182408.697500", "182410.187500", "182411.677500", "182413.167500", "182414.657500", "182416.147500", "182417.637500", "182419.127500", "182420.617500", "182422.107500", "182423.597500", "182425.087500", "182426.577500", "182428.067500", "182429.557500", "182431.047500", "182432.537500", "182434.027500", "182435.517500", "182437.007500", "182438.497500", "182439.987500", "182441.477500", "182442.967500", "182444.457500", "182445.947500", "182447.437500", "182448.927500", "182450.417500", "182451.907500", "182453.397500", "182454.887500", "182456.377500", "182457.867500", "182459.357500", "182500.847500", "182502.337500", "182503.827500", "182505.317500", "182506.807500", "182508.297500", "182509.787500", "182511.277500", "182512.767500", "182514.257500", "182515.747500", "182517.237500", "182518.727500", "182520.217500", "182521.707500", "182523.197500", "182524.687500", "182526.177500", "182527.667500", "182529.157500", "182530.647500", "182532.137500", "182533.627500", "182535.117500", "182536.607500", "182538.097500", "182539.587500", "182541.077500", "182542.567500", "182544.057500", "182545.547500", "182547.037500", "182548.527500", "182550.017500", "182551.507500", "182552.997500", "182554.487500", "182555.977500", "182557.467500", "182558.957500", "182600.447500", "182601.937500", "182603.427500", "182604.917500", "182606.407500", "182607.897500", "182609.387500", "182610.877500"],
      "ContentTime": ["181857.886000", "181857.890000", "181857.893000", "181857.897000", "181857.900000", "181857.904000", "181857.932000", "181857.936000", "181857.939000", "181857.943000", "181857.946000", "181857.949000", "181857.955000", "181857.959000", "181857.962000", "181857.965000", "181857.975000", "181857.978000", "181917.834000", "181917.838000", "181917.842000", "181917.845000", "181917.849000", "181917.852000", "181917.855000", "181917.859000", "181917.862000", "181917.865000", "181917.869000", "181917.872000", "181917.875000", "181917.879000", "181917.882000", "181917.885000", "181917.889000", "181917.901000", "181917.904000", "181917.907000", "181917.911000", "181937.834000", "181937.838000", "181937.848000", "181937.852000", "181937.855000", "181937.858000", "181937.862000", "181937.865000", "181937.868000", "181937.872000", "181937.875000", "181937.878000", "181937.882000", "181937.885000", "181937.888000", "181937.892000", "181937.895000", "181937.898000", "181937.902000", "181937.905000", "181957.834000", "181957.838000", "181957.841000", "181957.844000", "181957.848000", "181957.859000", "181957.862000", "181957.866000", "181957.869000", "181957.872000", "181957.876000", "181957.880000", "181957.884000", "181957.888000", "181957.891000", "181957.894000", "181957.898000", "181957.901000", "181957.904000", "181957.908000", "182037.835000", "182037.839000", "182037.842000", "182037.846000", "182037.849000", "182037.852000", "182037.856000", "182037.859000", "182037.862000", "182037.866000", "182037.869000", "182037.873000", "182037.876000", "182037.879000", "182037.883000", "182037.886000", "182037.890000", "182037.893000", "182037.896000", "182037.900000", "182037.903000", "182037.907000", "182037.910000", "182037.913000", "182037.917000", "182037.920000", "182037.923000", "182037.927000", "182037.930000", "182037.934000", "182037.937000", "182117.834000", "182117.838000", "182117.842000", "182117.845000", "182117.848000", "182117.852000", "182117.855000", "182117.864000", "182117.868000", "182117.871000", "182117.875000", "182117.878000", "182117.881000", "182117.885000", "182117.888000", "182117.891000", "182117.895000", "182117.905000", "182117.909000", "182117.912000", "182117.916000", "182117.919000", "182117.923000", "182117.926000", "182117.929000", "182117.933000", "182117.936000", "182157.834000", "182157.838000", "182157.841000", "182157.845000", "182157.848000", "182157.852000", "182157.856000", "182157.860000", "182157.863000", "182157.866000", "182157.870000", "182157.873000", "182157.877000", "182157.880000", "182157.883000", "182157.892000", "182157.896000", "182157.899000", "182157.902000", "182157.906000", "182157.909000", "182157.913000", "182157.916000", "182157.920000", "182157.923000", "182157.926000", "182157.930000", "182237.834000", "182237.838000", "182237.841000", "182237.845000", "182237.848000", "182237.852000", "182237.863000", "182237.866000", "182237.870000", "182237.873000", "182237.876000", "182237.880000", "182237.883000", "182237.886000", "182237.890000", "182237.893000", "182237.896000", "182237.900000", "182237.903000", "182237.907000", "182237.910000", "182237.913000", "182237.917000", "182237.920000", "182237.923000", "182237.927000", "182237.930000", "182317.834000", "182317.838000", "182317.842000", "182317.852000", "182317.856000", "182317.859000", "182317.863000", "182317.866000", "182317.870000", "182317.873000", "182317.876000", "182317.880000", "182317.883000", "182317.886000", "182317.890000", "182317.893000", "182317.896000", "182317.900000", "182317.903000", "182317.907000", "182317.910000", "182317.913000", "182317.917000", "182317.920000", "182317.923000", "182317.927000", "182317.930000", "182357.834000", "182357.838000", "182357.842000", "182357.845000", "182357.848000", "182357.852000", "182357.855000", "182357.859000", "182357.862000", "182357.876000", "182357.880000", "182357.883000", "182357.886000", "182357.896000", "182357.899000", "182357.902000", "182357.906000", "182357.909000", "182357.912000", "182357.916000", "182357.919000", "182357.922000", "182357.926000", "182357.929000", "182357.932000", "182357.936000", "182357.939000", "182437.835000", "182437.838000", "182437.842000", "182437.845000", "182437.849000", "182437.852000", "182437.857000", "182437.860000", "182437.864000", "182437.867000", "182437.871000", "182437.874000", "182437.878000", "182437.881000", "182437.884000", "182437.888000", "182437.891000", "182437.895000", "182437.898000", "182437.901000", "182437.905000", "182437.908000", "182437.911000", "182437.915000", "182437.918000", "182437.921000", "182517.834000", "182517.838000", "182517.841000", "182517.845000", "182517.848000", "182517.851000", "182517.855000", "182517.858000", "182517.862000", "182517.865000", "182517.868000", "182517.872000", "182517.875000", "182517.878000", "182517.882000", "182517.885000", "182517.889000", "182517.892000", "182517.895000", "182517.899000", "182517.902000", "182517.905000", "182517.909000", "182517.912000", "182517.916000", "182517.919000", "182517.922000", "182557.834000", "182557.838000", "182557.842000", "182557.845000", "182557.848000", "182557.852000", "182557.855000", "182557.858000", "182557.862000", "182557.865000", "182557.869000", "182557.872000", "182557.875000", "182557.879000", "182557.882000", "182557.885000", "182557.889000", "182557.892000", "182557.895000", "182557.899000", "182557.902000", "182557.905000", "182557.923000", "182557.926000", "182557.929000", "182557.933000", "182557.936000", "182614.231000", "182614.234000", "182614.238000", "182614.241000", "182614.245000", "182614.248000", "182614.251000", "182614.255000", "182614.258000", "182614.262000", "182614.265000"],
      "InstanceCreationTime": ["181857.886000", "181857.890000", "181857.893000", "181857.897000", "181857.900000", "181857.904000", "181857.932000", "181857.936000", "181857.939000", "181857.943000", "181857.946000", "181857.949000", "181857.955000", "181857.959000", "181857.962000", "181857.965000", "181857.975000", "181857.978000", "181917.834000", "181917.838000", "181917.842000", "181917.845000", "181917.849000", "181917.852000", "181917.855000", "181917.859000", "181917.862000", "181917.865000", "181917.869000", "181917.872000", "181917.875000", "181917.879000", "181917.882000", "181917.885000", "181917.889000", "181917.901000", "181917.904000", "181917.907000", "181917.911000", "181937.834000", "181937.838000", "181937.848000", "181937.852000", "181937.855000", "181937.858000", "181937.862000", "181937.865000", "181937.868000", "181937.872000", "181937.875000", "181937.878000", "181937.882000", "181937.885000", "181937.888000", "181937.892000", "181937.895000", "181937.898000", "181937.902000", "181937.905000", "181957.834000", "181957.838000", "181957.841000", "181957.844000", "181957.848000", "181957.859000", "181957.862000", "181957.866000", "181957.869000", "181957.872000", "181957.876000", "181957.880000", "181957.884000", "181957.888000", "181957.891000", "181957.894000", "181957.898000", "181957.901000", "181957.904000", "181957.908000", "182037.835000", "182037.839000", "182037.842000", "182037.846000", "182037.849000", "182037.852000", "182037.856000", "182037.859000", "182037.862000", "182037.866000", "182037.869000", "182037.873000", "182037.876000", "182037.879000", "182037.883000", "182037.886000", "182037.890000", "182037.893000", "182037.896000", "182037.900000", "182037.903000", "182037.907000", "182037.910000", "182037.913000", "182037.917000", "182037.920000", "182037.923000", "182037.927000", "182037.930000", "182037.934000", "182037.937000", "182117.834000", "182117.838000", "182117.842000", "182117.845000", "182117.848000", "182117.852000", "182117.855000", "182117.864000", "182117.868000", "182117.871000", "182117.875000", "182117.878000", "182117.881000", "182117.885000", "182117.888000", "182117.891000", "182117.895000", "182117.905000", "182117.909000", "182117.912000", "182117.916000", "182117.919000", "182117.923000", "182117.926000", "182117.929000", "182117.933000", "182117.936000", "182157.834000", "182157.838000", "182157.841000", "182157.845000", "182157.848000", "182157.852000", "182157.856000", "182157.860000", "182157.863000", "182157.866000", "182157.870000", "182157.873000", "182157.877000", "182157.880000", "182157.883000", "182157.892000", "182157.896000", "182157.899000", "182157.902000", "182157.906000", "182157.909000", "182157.913000", "182157.916000", "182157.920000", "182157.923000", "182157.926000", "182157.930000", "182237.834000", "182237.838000", "182237.841000", "182237.845000", "182237.848000", "182237.852000", "182237.863000", "182237.866000", "182237.870000", "182237.873000", "182237.876000", "182237.880000", "182237.883000", "182237.886000", "182237.890000", "182237.893000", "182237.896000", "182237.900000", "182237.903000", "182237.907000", "182237.910000", "182237.913000", "182237.917000", "182237.920000", "182237.923000", "182237.927000", "182237.930000", "182317.834000", "182317.838000", "182317.842000", "182317.852000", "182317.856000", "182317.859000", "182317.863000", "182317.866000", "182317.870000", "182317.873000", "182317.876000", "182317.880000", "182317.883000", "182317.886000", "182317.890000", "182317.893000", "182317.896000", "182317.900000", "182317.903000", "182317.907000", "182317.910000", "182317.913000", "182317.917000", "182317.920000", "182317.923000", "182317.927000", "182317.930000", "182357.834000", "182357.838000", "182357.842000", "182357.845000", "182357.848000", "182357.852000", "182357.855000", "182357.859000", "182357.862000", "182357.876000", "182357.880000", "182357.883000", "182357.886000", "182357.896000", "182357.899000", "182357.902000", "182357.906000", "182357.909000", "182357.912000", "182357.916000", "182357.919000", "182357.922000", "182357.926000", "182357.929000", "182357.932000", "182357.936000", "182357.939000", "182437.835000", "182437.838000", "182437.842000", "182437.845000", "182437.849000", "182437.852000", "182437.857000", "182437.860000", "182437.864000", "182437.867000", "182437.871000", "182437.874000", "182437.878000", "182437.881000", "182437.884000", "182437.888000", "182437.891000", "182437.895000", "182437.898000", "182437.901000", "182437.905000", "182437.908000", "182437.911000", "182437.915000", "182437.918000", "182437.921000", "182517.834000", "182517.838000", "182517.841000", "182517.845000", "182517.848000", "182517.851000", "182517.855000", "182517.858000", "182517.862000", "182517.865000", "182517.868000", "182517.872000", "182517.875000", "182517.878000", "182517.882000", "182517.885000", "182517.889000", "182517.892000", "182517.895000", "182517.899000", "182517.902000", "182517.905000", "182517.909000", "182517.912000", "182517.916000", "182517.919000", "182517.922000", "182557.834000", "182557.838000", "182557.842000", "182557.845000", "182557.848000", "182557.852000", "182557.855000", "182557.858000", "182557.862000", "182557.865000", "182557.869000", "182557.872000", "182557.875000", "182557.879000", "182557.882000", "182557.885000", "182557.889000", "182557.892000", "182557.895000", "182557.899000", "182557.902000", "182557.905000", "182557.923000", "182557.926000", "182557.929000", "182557.933000", "182557.936000", "182614.231000", "182614.234000", "182614.238000", "182614.241000", "182614.245000", "182614.248000", "182614.251000", "182614.255000", "182614.258000", "182614.262000", "182614.265000"],
      "InstanceNumber": [1, 2, 3, 4, 5, 6, 7, 8, 9, 10, 11, 12, 13, 14, 15, 16, 17, 18, 19, 20, 21, 22, 23, 24, 25, 26, 27, 28, 29, 30, 31, 32, 33, 34, 35, 36, 37, 38, 39, 40, 41, 42, 43, 44, 45, 46, 47, 48, 49, 50, 51, 52, 53, 54, 55, 56, 57, 58, 59, 60, 61, 62, 63, 64, 65, 66, 67, 68, 69, 70, 71, 72, 73, 74, 75, 76, 77, 78, 79, 80, 81, 82, 83, 84, 85, 86, 87, 88, 89, 90, 91, 92, 93, 94, 95, 96, 97, 98, 99, 100, 101, 102, 103, 104, 105, 106, 107, 108, 109, 110, 111, 112, 113, 114, 115, 116, 117, 118, 119, 120, 121, 122, 123, 124, 125, 126, 127, 128, 129, 130, 131, 132, 133, 134, 135, 136, 137, 138, 139, 140, 141, 142, 143, 144, 145, 146, 147, 148, 149, 150, 151, 152, 153, 154, 155, 156, 157, 158, 159, 160, 161, 162, 163, 164, 165, 166, 167, 168, 169, 170, 171, 172, 173, 174, 175, 176, 177, 178, 179, 180, 181, 182, 183, 184, 185, 186, 187, 188, 189, 190, 191, 192, 193, 194, 195, 196, 197, 198, 199, 200, 201, 202, 203, 204, 205, 206, 207, 208, 209, 210, 211, 212, 213, 214, 215, 216, 217, 218, 219, 220, 221, 222, 223, 224, 225, 226, 227, 228, 229, 230, 231, 232, 233, 234, 235, 236, 237, 238, 239, 240, 241, 242, 243, 244, 245, 246, 247, 248, 249, 250, 251, 252, 253, 254, 255, 256, 257, 258, 259, 260, 261, 262, 263, 264, 265, 266, 267, 268, 269, 270, 271, 272, 273, 274, 275, 276, 277, 278, 279, 280, 281, 282, 283, 284, 285, 286, 287, 288, 289, 290, 291, 292, 293, 294, 295, 296, 297, 298, 299, 300, 301, 302, 303, 304, 305, 306, 307, 308, 309, 310, 311, 312, 313, 314, 315, 316, 317, 318, 319, 320, 321, 322, 323, 324, 325, 326, 327, 328, 329, 330, 331, 332, 333, 334, 335, 336],
      "LargestImagePixelValue": [44437, 43685, 43274, 44335, 42751, 42912, 43082, 42611, 42149, 42033, 41785, 41418, 41586, 41858, 41188, 42022, 40463, 42578, 41826, 41806, 42094, 42076, 42016, 41691, 41925, 42211, 41286, 42113, 42886, 42419, 43739, 43498, 43352, 44014, 43335, 43443, 43922, 44268, 49021, 42976, 43364, 42994, 42125, 42963, 42805, 43402, 44121, 43970, 43747, 43617, 43083, 43079, 43517, 43044, 43469, 42962, 42814, 41392, 41370, 41368, 41612, 41857, 43144, 43901, 42768, 44743, 43467, 45384, 44168, 43756, 44625, 43901, 44482, 44003, 44342, 44279, 43854, 44172, 43578, 43556, 42991, 43136, 43961, 42587, 42707, 42053, 41594, 42361, 41174, 41735, 40886, 42423, 40726, 48164, 41456, 41196, 42211, 40616, 47452, 41194, 39698, 39412, 40880, 39389, 39834, 39285, 38783, 39052, 38976, 39570, 38970, 39105, 39910, 39686, 40650, 39558, 39887, 40123, 39904, 40462, 39764, 40333, 40685, 40380, 41216, 39903, 41436, 40614, 40457, 40679, 40805, 40809, 39956, 40942, 39571, 39886, 39177, 39446, 39238, 39418, 40500, 39962, 40770, 40905, 41151, 41543, 41482, 41971, 40930, 41173, 41568, 40851, 41390, 40894, 41319, 40700, 40534, 40887, 40372, 40941, 40541, 40825, 40831, 40943, 40228, 40720, 40918, 40382, 41103, 40233, 41355, 40366, 40226, 42499, 40804, 41526, 41084, 41969, 41825, 40687, 42195, 40270, 41280, 42145, 40781, 41093, 39942, 41118, 40245, 40106, 40092, 39850, 40598, 40074, 40774, 40681, 40111, 41086, 40475, 41479, 40948, 41169, 40696, 41990, 41691, 40815, 41058, 42369, 43501, 42498, 43048, 43357, 42824, 42175, 42413, 43334, 42016, 42668, 43888, 41865, 42147, 43511, 43786, 42378, 44414, 42804, 42900, 42939, 41917, 42472, 41560, 43139, 42213, 41486, 42350, 40936, 41144, 40701, 40855, 41737, 41513, 40117, 40003, 40107, 39614, 41044, 39827, 41192, 40741, 42103, 41067, 41418, 40998, 42915, 41182, 43413, 44452, 41908, 44525, 43051, 43282, 43567, 44171, 42799, 44783, 43136, 42954, 43560, 43309, 43612, 41736, 42544, 43073, 40752, 44297, 42669, 43608, 43055, 42579, 43752, 42200, 43317, 42772, 42630, 43983, 42811, 43447, 43639, 43627, 42377, 43660, 43007, 42627, 43416, 43253, 42647, 42808, 44010, 42819, 43412, 43282, 43182, 43818, 43520, 43156, 42991, 43575, 44762, 42840, 42149, 44522, 42856, 41017, 41412, 43249, 41055, 42415, 42350, 42425, 42477, 42855, 42388, 41120, 41910, 42198, 42424, 41459, 41183, 40724, 40890, 41223, 40594, 39732, 40186, 40178, 41449],
