{
  "AcquisitionMatrixPE": 104,
  "AcquisitionNumber": 1,
  "AcquisitionTime": "18:41:48.062500",
  "BandwidthPerPixelPhaseEncode": 17.17,
  "BaseResolution": 104,
  "BodyPartExamined": "BRAIN",
  "CoilCombinationMethod": "Sum of Squares",
  "ConsistencyInfo": "N4_VE11C_LATEST_20160120",
  "ConversionSoftware": "dcm2niix",
  "ConversionSoftwareVersion": "v1.0.20220505",
  "DerivedVendorReportedEchoSpacing": 0.000560011,
  "DeviceSerialNumber": "167006",
  "DwellTime": 2.1e-06,
  "EchoTime": 0.037,
  "EchoTrainLength": 104,
  "EffectiveEchoSpacing": 0.000560011,
  "FlipAngle": 52,
  "HeudiconvVersion": "0.5.3.post811+g6206e14",
  "ImageComments": "Unaliased MB4/PE3/LB",
  "ImageOrientationPatientDICOM": [0.995648, 0.0881339, 0.0302944, -0.07364, 0.943233, -0.323865],
  "ImageOrientationText": "Tra>Cor(-18.7)>Sag(3.3)",
  "ImageType": [
    "ORIGINAL",
    "PRIMARY",
    "M",
    "MB",
    "ND",
    "MOSAIC"
],
  "ImagingFrequency": 123.26,
  "InPlanePhaseEncodingDirectionDICOM": "COL",
  "InstitutionAddress": "Chemin Queen-Mary 4565,Montreal,District,CA,H3W 1W5",
  "InstitutionName": "IUGM",
  "InstitutionalDepartmentName": "Department",
  "MRAcquisitionType": "2D",
  "MagneticFieldStrength": 3,
  "Manufacturer": "Siemens",
  "ManufacturersModelName": "Prisma_fit",
  "MatrixCoilMode": "SENSE",
  "Modality": "MR",
  "MultibandAccelerationFactor": 4,
  "PartialFourier": 1,
  "PatientPosition": "HFS",
  "PercentPhaseFOV": 100,
  "PercentSampling": 100,
  "PhaseEncodingDirection": "j",
  "PhaseEncodingSteps": 104,
  "PhaseResolution": 1,
  "PixelBandwidth": 2290,
  "ProcedureStepDescription": "games^mario3",
  "ProtocolName": "func_task-mario3_run-03",
  "PulseSequenceDetails": "%CustomerSeq%\\cmrr_mbep2d_bold",
  "ReceiveCoilActiveElements": "HC1-7;NC1,2",
  "ReceiveCoilName": "HeadNeck_64",
  "ReconMatrixPE": 104,
  "RepetitionTime": 1.49,
  "SAR": 0.0671982,
  "ScanOptions": "FS",
  "ScanningSequence": "EP",
  "SequenceName": "epfid2d1_104",
  "SequenceVariant": "SK\\SS",
  "SeriesDescription": "func_task-mario3_run-03",
  "SeriesNumber": 16,
  "ShimSetting": [622, -7203, -8824, 661, 134, -5, -48, 7],
  "SliceThickness": 2,
  "SliceTiming": [0, 0.785, 0.0975, 0.8825, 0.195, 0.98, 0.295, 1.0775, 0.3925, 1.175, 0.49, 1.275, 0.5875, 1.3725, 0.685, 0, 0.785, 0.0975, 0.8825, 0.195, 0.98, 0.295, 1.0775, 0.3925, 1.175, 0.49, 1.275, 0.5875, 1.3725, 0.685, 0, 0.785, 0.0975, 0.8825, 0.195, 0.98, 0.295, 1.0775, 0.3925, 1.175, 0.49, 1.275, 0.5875, 1.3725, 0.685, 0, 0.785, 0.0975, 0.8825, 0.195, 0.98, 0.295, 1.0775, 0.3925, 1.175, 0.49, 1.275, 0.5875, 1.3725, 0.685],
  "SoftwareVersions": "syngo MR E11",
  "SpacingBetweenSlices": 2,
  "StationName": "MRC35049",
  "TaskName": "mario3",
  "TotalReadoutTime": 0.0576811,
  "TxRefAmp": 280.397,
  "WipMemBlock": "7b1a4fce-a23c-4183-9314-4fa28a4101ae||Sequence: R017 ve11c/master r/75a17815+; Jun 28 2022 16:32:11 by eja",
  "dcmmeta_affine": [
    [-1.9912956953048706, -0.14727991819381714, 0.11423639953136444, 110.41600799560547],
    [-0.17626775801181793, 1.8864659070968628, -0.6404499411582947, -63.15056228637695],
    [0.06058883294463158, 0.6477307081222534, 1.8912360668182373, -66.97634887695312],
    [0.0, 0.0, 0.0, 1.0]
],
  "dcmmeta_reorient_transform": [
    [0.0, -1.0, 0.0, 103.0],
    [1.0, 0.0, 0.0, 0.0],
    [0.0, 0.0, 1.0, 0.0],
    [0.0, 0.0, 0.0, 1.0]
],
  "dcmmeta_shape": [104, 104, 60, 461],
  "dcmmeta_slice_dim": 2,
  "dcmmeta_version": 0.6,
  "global": {
    "const": {
      "AcquisitionMatrix": [104, 0, 0, 104],
      "AngioFlag": "N",
      "BitsAllocated": 16,
      "BitsStored": 16,
      "BodyPartExamined": "BRAIN",
      "Columns": 832,
      "EchoNumbers": 1,
      "EchoTime": 37.0,
      "EchoTrainLength": 104,
      "FlipAngle": 52.0,
      "HighBit": 15,
      "ImageOrientationPatient": [0.99564786341797, 0.08813387749081, 0.03029441713692, -0.0736399566284, 0.9432329496714, -0.3238653415263],
      "ImagePositionPatient": [-766.46793654697, -881.99047450621, 213.45954524005],
      "ImageType": [
        "ORIGINAL",
        "PRIMARY",
        "M",
        "MB",
        "ND",
        "MOSAIC"
],
      "ImagedNucleus": "1H",
      "ImagingFrequency": 123.260282,
      "InPlanePhaseEncodingDirection": "COL",
      "MRAcquisitionType": "2D",
      "MagneticFieldStrength": 3.0,
      "Manufacturer": "SIEMENS",
      "ManufacturerModelName": "Prisma_fit",
      "Modality": "MR",
      "NumberOfAverages": 1.0,
      "NumberOfPhaseEncodingSteps": 104,
      "PercentPhaseFieldOfView": 100.0,
      "PercentSampling": 100.0,
      "PerformedProcedureStepStartTime": "181429.450000",
      "PhotometricInterpretation": "MONOCHROME2",
      "PixelBandwidth": 2290.0,
      "PixelRepresentation": 0,
      "PixelSpacing": [2.0, 2.0],
      "ProtocolName": "func_task-mario3_run-03",
      "RepetitionTime": 1490.0,
      "Rows": 832,
      "SAR": 0.06719820894299,
      "SamplesPerPixel": 1,
      "ScanOptions": "FS",
      "ScanningSequence": "EP",
      "SequenceName": "epfid2d1_104",
      "SequenceVariant": [
        "SK",
        "SS"
],
      "SeriesDescription": "func_task-mario3_run-03",
      "SeriesNumber": 16,
      "SeriesTime": "184313.094000",
      "SliceLocation": -36.804893137182,
      "SliceThickness": 2.0,
      "SmallestImagePixelValue": 0,
      "SoftwareVersions": "syngo MR E11",
      "SpacingBetweenSlices": 2.0000000195549,
      "SpecificCharacterSet": "ISO_IR 100",
      "StudyID": "1",
      "StudyTime": "181429.382000",
      "TransmitCoilName": "Body",
      "VariableFlipAngleFlag": "N",
      "WindowCenterWidthExplanation": "Algo1",
      "dBdt": 0.0},
    "slices": {}
  },
  "time": {
    "samples": {
      "AcquisitionNumber": [1, 2, 3, 4, 5, 6, 7, 8, 9, 10, 11, 12, 13, 14, 15, 16, 17, 18, 19, 20, 21, 22, 23, 24, 25, 26, 27, 28, 29, 30, 31, 32, 33, 34, 35, 36, 37, 38, 39, 40, 41, 42, 43, 44, 45, 46, 47, 48, 49, 50, 51, 52, 53, 54, 55, 56, 57, 58, 59, 60, 61, 62, 63, 64, 65, 66, 67, 68, 69, 70, 71, 72, 73, 74, 75, 76, 77, 78, 79, 80, 81, 82, 83, 84, 85, 86, 87, 88, 89, 90, 91, 92, 93, 94, 95, 96, 97, 98, 99, 100, 101, 102, 103, 104, 105, 106, 107, 108, 109, 110, 111, 112, 113, 114, 115, 116, 117, 118, 119, 120, 121, 122, 123, 124, 125, 126, 127, 128, 129, 130, 131, 132, 133, 134, 135, 136, 137, 138, 139, 140, 141, 142, 143, 144, 145, 146, 147, 148, 149, 150, 151, 152, 153, 154, 155, 156, 157, 158, 159, 160, 161, 162, 163, 164, 165, 166, 167, 168, 169, 170, 171, 172, 173, 174, 175, 176, 177, 178, 179, 180, 181, 182, 183, 184, 185, 186, 187, 188, 189, 190, 191, 192, 193, 194, 195, 196, 197, 198, 199, 200, 201, 202, 203, 204, 205, 206, 207, 208, 209, 210, 211, 212, 213, 214, 215, 216, 217, 218, 219, 220, 221, 222, 223, 224, 225, 226, 227, 228, 229, 230, 231, 232, 233, 234, 235, 236, 237, 238, 239, 240, 241, 242, 243, 244, 245, 246, 247, 248, 249, 250, 251, 252, 253, 254, 255, 256, 257, 258, 259, 260, 261, 262, 263, 264, 265, 266, 267, 268, 269, 270, 271, 272, 273, 274, 275, 276, 277, 278, 279, 280, 281, 282, 283, 284, 285, 286, 287, 288, 289, 290, 291, 292, 293, 294, 295, 296, 297, 298, 299, 300, 301, 302, 303, 304, 305, 306, 307, 308, 309, 310, 311, 312, 313, 314, 315, 316, 317, 318, 319, 320, 321, 322, 323, 324, 325, 326, 327, 328, 329, 330, 331, 332, 333, 334, 335, 336, 337, 338, 339, 340, 341, 342, 343, 344, 345, 346, 347, 348, 349, 350, 351, 352, 353, 354, 355, 356, 357, 358, 359, 360, 361, 362, 363, 364, 365, 366, 367, 368, 369, 370, 371, 372, 373, 374, 375, 376, 377, 378, 379, 380, 381, 382, 383, 384, 385, 386, 387, 388, 389, 390, 391, 392, 393, 394, 395, 396, 397, 398, 399, 400, 401, 402, 403, 404, 405, 406, 407, 408, 409, 410, 411, 412, 413, 414, 415, 416, 417, 418, 419, 420, 421, 422, 423, 424, 425, 426, 427, 428, 429, 430, 431, 432, 433, 434, 435, 436, 437, 438, 439, 440, 441, 442, 443, 444, 445, 446, 447, 448, 449, 450, 451, 452, 453, 454, 455, 456, 457, 458, 459, 460, 461],
      "AcquisitionTime": ["184148.062500", "184149.552500", "184151.042500", "184152.532500", "184154.022500", "184155.512500", "184157.002500", "184158.492500", "184159.982500", "184201.472500", "184202.962500", "184204.452500", "184205.942500", "184207.432500", "184208.922500", "184210.412500", "184211.902500", "184213.392500", "184214.882500", "184216.372500", "184217.862500", "184219.352500", "184220.842500", "184222.332500", "184223.822500", "184225.312500", "184226.802500", "184228.292500", "184229.782500", "184231.272500", "184232.762500", "184234.252500", "184235.742500", "184237.232500", "184238.722500", "184240.212500", "184241.702500", "184243.192500", "184244.682500", "184246.172500", "184247.662500", "184249.152500", "184250.642500", "184252.132500", "184253.622500", "184255.112500", "184256.602500", "184258.092500", "184259.582500", "184301.072500", "184302.562500", "184304.052500", "184305.542500", "184307.032500", "184308.522500", "184310.012500", "184311.502500", "184312.992500", "184314.482500", "184315.972500", "184317.462500", "184318.952500", "184320.442500", "184321.932500", "184323.422500", "184324.912500", "184326.402500", "184327.892500", "184329.382500", "184330.872500", "184332.362500", "184333.852500", "184335.342500", "184336.832500", "184338.322500", "184339.812500", "184341.302500", "184342.792500", "184344.282500", "184345.772500", "184347.262500", "184348.752500", "184350.242500", "184351.732500", "184353.222500", "184354.712500", "184356.202500", "184357.692500", "184359.182500", "184400.672500", "184402.162500", "184403.652500", "184405.142500", "184406.632500", "184408.122500", "184409.612500", "184411.102500", "184412.592500", "184414.082500", "184415.572500", "184417.062500", "184418.552500", "184420.042500", "184421.532500", "184423.022500", "184424.512500", "184426.002500", "184427.492500", "184428.982500", "184430.472500", "184431.962500", "184433.452500", "184434.942500", "184436.432500", "184437.922500", "184439.412500", "184440.902500", "184442.392500", "184443.882500", "184445.372500", "184446.862500", "184448.352500", "184449.842500", "184451.332500", "184452.822500", "184454.312500", "184455.802500", "184457.292500", "184458.782500", "184500.272500", "184501.762500", "184503.252500", "184504.742500", "184506.232500", "184507.722500", "184509.212500", "184510.702500", "184512.192500", "184513.682500", "184515.172500", "184516.662500", "184518.152500", "184519.642500", "184521.132500", "184522.622500", "184524.112500", "184525.602500", "184527.092500", "184528.582500", "184530.072500", "184531.562500", "184533.052500", "184534.542500", "184536.032500", "184537.522500", "184539.012500", "184540.502500", "184541.992500", "184543.482500", "184544.972500", "184546.462500", "184547.952500", "184549.442500", "184550.932500", "184552.422500", "184553.912500", "184555.402500", "184556.892500", "184558.382500", "184559.872500", "184601.362500", "184602.852500", "184604.342500", "184605.832500", "184607.322500", "184608.812500", "184610.302500", "184611.792500", "184613.282500", "184614.772500", "184616.262500", "184617.752500", "184619.242500", "184620.732500", "184622.222500", "184623.712500", "184625.202500", "184626.692500", "184628.182500", "184629.672500", "184631.162500", "184632.652500", "184634.142500", "184635.632500", "184637.122500", "184638.612500", "184640.102500", "184641.592500", "184643.082500", "184644.572500", "184646.062500", "184647.552500", "184649.042500", "184650.532500", "184652.022500", "184653.512500", "184655.002500", "184656.492500", "184657.982500", "184659.472500", "184700.962500", "184702.452500", "184703.942500", "184705.432500", "184706.922500", "184708.412500", "184709.902500", "184711.392500", "184712.882500", "184714.372500", "184715.862500", "184717.352500", "184718.842500", "184720.332500", "184721.822500", "184723.312500", "184724.802500", "184726.292500", "184727.782500", "184729.272500", "184730.762500", "184732.252500", "184733.742500", "184735.232500", "184736.722500", "184738.212500", "184739.702500", "184741.192500", "184742.682500", "184744.172500", "184745.662500", "184747.152500", "184748.642500", "184750.132500", "184751.622500", "184753.112500", "184754.602500", "184756.092500", "184757.582500", "184759.072500", "184800.562500", "184802.052500", "184803.542500", "184805.032500", "184806.522500", "184808.012500", "184809.502500", "184810.992500", "184812.482500", "184813.972500", "184815.462500", "184816.952500", "184818.442500", "184819.932500", "184821.422500", "184822.912500", "184824.402500", "184825.892500", "184827.382500", "184828.872500", "184830.362500", "184831.852500", "184833.342500", "184834.832500", "184836.322500", "184837.812500", "184839.302500", "184840.792500", "184842.282500", "184843.772500", "184845.262500", "184846.752500", "184848.242500", "184849.732500", "184851.222500", "184852.712500", "184854.202500", "184855.692500", "184857.182500", "184858.672500", "184900.162500", "184901.652500", "184903.142500", "184904.632500", "184906.122500", "184907.612500", "184909.102500", "184910.592500", "184912.082500", "184913.572500", "184915.062500", "184916.552500", "184918.042500", "184919.532500", "184921.022500", "184922.512500", "184924.002500", "184925.492500", "184926.982500", "184928.472500", "184929.962500", "184931.452500", "184932.942500", "184934.432500", "184935.922500", "184937.412500", "184938.902500", "184940.392500", "184941.882500", "184943.372500", "184944.862500", "184946.352500", "184947.842500", "184949.332500", "184950.822500", "184952.312500", "184953.802500", "184955.292500", "184956.782500", "184958.272500", "184959.762500", "185001.252500", "185002.742500", "185004.232500", "185005.722500", "185007.212500", "185008.702500", "185010.192500", "185011.682500", "185013.172500", "185014.662500", "185016.152500", "185017.642500", "185019.132500", "185020.622500", "185022.112500", "185023.602500", "185025.092500", "185026.582500", "185028.072500", "185029.562500", "185031.052500", "185032.542500", "185034.032500", "185035.522500", "185037.012500", "185038.502500", "185039.992500", "185041.482500", "185042.972500", "185044.462500", "185045.952500", "185047.442500", "185048.932500", "185050.422500", "185051.912500", "185053.402500", "185054.892500", "185056.382500", "185057.872500", "185059.362500", "185100.852500", "185102.342500", "185103.832500", "185105.322500", "185106.812500", "185108.302500", "185109.792500", "185111.282500", "185112.772500", "185114.262500", "185115.752500", "185117.242500", "185118.732500", "185120.222500", "185121.712500", "185123.202500", "185124.692500", "185126.182500", "185127.672500", "185129.162500", "185130.652500", "185132.142500", "185133.632500", "185135.122500", "185136.612500", "185138.102500", "185139.592500", "185141.082500", "185142.572500", "185144.062500", "185145.552500", "185147.042500", "185148.532500", "185150.022500", "185151.512500", "185153.002500", "185154.492500", "185155.982500", "185157.472500", "185158.962500", "185200.452500", "185201.942500", "185203.432500", "185204.922500", "185206.412500", "185207.902500", "185209.392500", "185210.882500", "185212.372500", "185213.862500", "185215.352500", "185216.842500", "185218.332500", "185219.822500", "185221.312500", "185222.802500", "185224.292500", "185225.782500", "185227.272500", "185228.762500", "185230.252500", "185231.742500", "185233.232500", "185234.722500", "185236.212500", "185237.702500", "185239.192500", "185240.682500", "185242.172500", "185243.662500", "185245.152500", "185246.642500", "185248.132500", "185249.622500", "185251.112500", "185252.602500", "185254.092500", "185255.582500", "185257.072500", "185258.562500", "185300.052500", "185301.542500", "185303.032500", "185304.522500", "185306.012500", "185307.502500", "185308.992500", "185310.482500", "185311.972500", "185313.462500"],
      "ContentTime": ["184313.097000", "184313.101000", "184313.105000", "184313.108000", "184313.111000", "184313.115000", "184313.118000", "184313.121000", "184313.125000", "184313.128000", "184313.131000", "184313.135000", "184313.138000", "184313.142000", "184313.145000", "184313.148000", "184313.152000", "184313.155000", "184313.158000", "184313.162000", "184313.165000", "184313.168000", "184313.172000", "184313.175000", "184313.178000", "184313.182000", "184313.185000", "184313.197000", "184313.201000", "184313.204000", "184313.208000", "184313.211000", "184313.214000", "184313.218000", "184313.221000", "184313.224000", "184333.063000", "184333.067000", "184333.071000", "184333.075000", "184333.087000", "184333.090000", "184333.093000", "184333.097000", "184333.100000", "184333.103000", "184333.107000", "184333.110000", "184333.113000", "184333.117000", "184333.120000", "184333.123000", "184333.127000", "184333.130000", "184333.134000", "184333.137000", "184353.063000", "184353.081000", "184353.084000", "184353.087000", "184353.091000", "184353.094000", "184353.097000", "184353.101000", "184353.104000", "184353.107000", "184353.111000", "184353.114000", "184353.117000", "184353.121000", "184353.124000", "184353.127000", "184353.131000", "184353.134000", "184353.137000", "184353.141000", "184353.144000", "184433.063000", "184433.067000", "184433.070000", "184433.074000", "184433.077000", "184433.080000", "184433.084000", "184433.087000", "184433.090000", "184433.094000", "184433.097000", "184433.100000", "184433.104000", "184433.107000", "184433.110000", "184433.114000", "184433.117000", "184433.121000", "184433.124000", "184433.127000", "184433.131000", "184433.134000", "184433.138000", "184433.141000", "184433.144000", "184433.148000", "184433.151000", "184433.154000", "184433.158000", "184433.161000", "184433.165000", "184433.168000", "184433.171000", "184513.063000", "184513.067000", "184513.070000", "184513.074000", "184513.086000", "184513.090000", "184513.093000", "184513.097000", "184513.100000", "184513.103000", "184513.107000", "184513.110000", "184513.113000", "184513.117000", "184513.120000", "184513.124000", "184513.127000", "184513.130000", "184513.134000", "184513.137000", "184513.141000", "184513.144000", "184513.147000", "184513.151000", "184513.154000", "184513.157000", "184513.161000", "184553.063000", "184553.067000", "184553.071000", "184553.074000", "184553.077000", "184553.081000", "184553.084000", "184553.088000", "184553.091000", "184553.095000", "184553.098000", "184553.101000", "184553.105000", "184553.108000", "184553.112000", "184553.115000", "184553.118000", "184553.122000", "184553.127000", "184553.130000", "184553.134000", "184553.137000", "184553.141000", "184553.144000", "184553.147000", "184553.151000", "184633.063000", "184633.067000", "184633.070000", "184633.074000", "184633.077000", "184633.081000", "184633.084000", "184633.087000", "184633.091000", "184633.094000", "184633.097000", "184633.101000", "184633.104000", "184633.107000", "184633.111000", "184633.114000", "184633.118000", "184633.121000", "184633.124000", "184633.128000", "184633.131000", "184633.135000", "184633.138000", "184633.141000", "184633.145000", "184633.148000", "184633.151000", "184713.063000", "184713.067000", "184713.071000", "184713.074000", "184713.078000", "184713.081000", "184713.084000", "184713.088000", "184713.091000", "184713.095000", "184713.098000", "184713.102000", "184713.105000", "184713.109000", "184713.112000", "184713.115000", "184713.119000", "184713.122000", "184713.126000", "184713.129000", "184713.133000", "184713.136000", "184713.139000", "184713.143000", "184713.146000", "184713.150000", "184713.153000", "184753.063000", "184753.069000", "184753.073000", "184753.076000", "184753.079000", "184753.083000", "184753.086000", "184753.090000", "184753.093000", "184753.097000", "184753.100000", "184753.103000", "184753.107000", "184753.110000", "184753.114000", "184753.117000", "184753.120000", "184753.124000", "184753.127000", "184753.131000", "184753.134000", "184753.137000", "184753.141000", "184753.144000", "184753.147000", "184753.151000", "184753.154000", "184813.063000", "184813.067000", "184813.071000", "184813.074000", "184813.077000", "184813.081000", "184813.084000", "184813.088000", "184813.091000", "184813.094000", "184813.106000", "184813.109000", "184813.112000", "184853.063000", "184853.067000", "184853.071000", "184853.074000", "184853.077000", "184853.081000", "184853.084000", "184853.088000", "184853.091000", "184853.094000", "184853.098000", "184853.101000", "184853.105000", "184853.108000", "184853.112000", "184853.115000", "184853.119000", "184853.122000", "184853.126000", "184853.129000", "184853.132000", "184853.136000", "184853.139000", "184853.142000", "184853.146000", "184853.149000", "184853.153000", "184933.063000", "184933.067000", "184933.071000", "184933.074000", "184933.077000", "184933.081000", "184933.084000", "184933.087000", "184933.091000", "184933.094000", "184933.098000", "184933.101000", "184933.104000", "184933.108000", "184933.111000", "184933.114000", "184933.118000", "184933.121000", "184933.125000", "184933.128000", "184933.131000", "184933.135000", "184933.138000", "184933.141000", "184933.145000", "184933.148000", "184933.151000", "185013.063000", "185013.067000", "185013.071000", "185013.074000", "185013.077000", "185013.081000", "185013.084000", "185013.088000", "185013.091000", "185013.095000", "185013.098000", "185013.101000", "185013.105000", "185013.108000", "185013.111000", "185013.115000", "185013.118000", "185013.122000", "185013.125000", "185013.128000", "185013.132000", "185013.135000", "185013.138000", "185013.142000", "185013.145000", "185013.149000", "185013.152000", "185053.063000", "185053.067000", "185053.070000", "185053.074000", "185053.077000", "185053.081000", "185053.084000", "185053.087000", "185053.091000", "185053.094000", "185053.097000", "185053.101000", "185053.104000", "185053.108000", "185053.111000", "185053.114000", "185053.118000", "185053.121000", "185053.125000", "185053.128000", "185053.131000", "185053.135000", "185053.138000", "185053.141000", "185053.145000", "185053.148000", "185053.152000", "185133.063000", "185133.067000", "185133.070000", "185133.074000", "185133.077000", "185133.081000", "185133.084000", "185133.087000", "185133.091000", "185133.094000", "185133.097000", "185133.101000", "185133.104000", "185133.108000", "185133.111000", "185133.114000", "185133.118000", "185133.121000", "185133.124000", "185133.128000", "185133.131000", "185133.135000", "185133.138000", "185133.141000", "185133.145000", "185133.148000", "185133.151000", "185213.063000", "185213.067000", "185213.071000", "185213.075000", "185213.078000", "185213.082000", "185213.085000", "185213.088000", "185213.092000", "185213.095000", "185213.098000", "185213.102000", "185213.105000", "185213.109000", "185213.112000", "185213.115000", "185213.119000", "185213.122000", "185213.125000", "185213.129000", "185213.132000", "185213.136000", "185213.139000", "185213.142000", "185213.146000", "185213.149000", "185253.063000", "185253.067000", "185253.070000", "185253.074000", "185253.082000", "185253.085000", "185253.089000", "185253.092000", "185253.096000", "185253.099000", "185253.102000", "185253.106000", "185253.109000", "185253.112000", "185253.116000", "185253.119000", "185253.123000", "185253.126000", "185253.129000", "185253.133000", "185253.136000", "185253.139000", "185253.143000", "185253.146000", "185253.149000", "185253.153000", "185253.156000", "185317.193000", "185317.197000", "185317.200000", "185317.203000", "185317.207000", "185317.210000", "185317.213000", "185317.217000", "185317.220000", "185317.224000", "185317.227000", "185317.230000", "185317.234000", "185317.237000", "185317.240000", "185317.244000"],
