{
  "AcquisitionMatrixPE": 104,
  "AcquisitionNumber": 1,
  "AcquisitionTime": "18:29:52.705000",
  "BandwidthPerPixelPhaseEncode": 17.17,
  "BaseResolution": 104,
  "BodyPartExamined": "BRAIN",
  "CoilCombinationMethod": "Sum of Squares",
  "ConsistencyInfo": "N4_VE11C_LATEST_20160120",
  "ConversionSoftware": "dcm2niix",
  "ConversionSoftwareVersion": "v1.0.20220505",
  "DerivedVendorReportedEchoSpacing": 0.000560011,
  "DeviceSerialNumber": "167006",
  "DwellTime": 2.1e-06,
  "EchoTime": 0.037,
  "EchoTime1": 0.037,
  "EchoTime2": 0.001,
  "EchoTrainLength": 104,
  "EffectiveEchoSpacing": 0.000560011,
  "FlipAngle": 52,
  "HeudiconvVersion": "0.5.3.post811+g6206e14",
  "ImageComments": "Unaliased MB4/PE3/LB",
  "ImageOrientationPatientDICOM": [0.995648, 0.0881339, 0.0302944, -0.07364, 0.943233, -0.323865],
  "ImageOrientationText": "Tra>Cor(-18.7)>Sag(3.3)",
  "ImageType": [
    "ORIGINAL",
    "PRIMARY",
    "P",
    "MB",
    "ND",
    "MOSAIC",
    "PHASE"
],
  "ImagingFrequency": 123.26,
  "InPlanePhaseEncodingDirectionDICOM": "COL",
  "InstitutionAddress": "Chemin Queen-Mary 4565,Montreal,District,CA,H3W 1W5",
  "InstitutionName": "IUGM",
  "InstitutionalDepartmentName": "Department",
  "MRAcquisitionType": "2D",
  "MagneticFieldStrength": 3,
  "Manufacturer": "Siemens",
  "ManufacturersModelName": "Prisma_fit",
  "MatrixCoilMode": "SENSE",
  "Modality": "MR",
  "MultibandAccelerationFactor": 4,
  "PartialFourier": 1,
  "PatientPosition": "HFS",
  "PercentPhaseFOV": 100,
  "PercentSampling": 100,
  "PhaseEncodingDirection": "j",
  "PhaseEncodingSteps": 104,
  "PhaseResolution": 1,
  "PixelBandwidth": 2290,
  "ProcedureStepDescription": "games^mario3",
  "ProtocolName": "func_task-mario3_run-02",
  "PulseSequenceDetails": "%CustomerSeq%\\cmrr_mbep2d_bold",
  "ReceiveCoilActiveElements": "HC1-7;NC1,2",
  "ReceiveCoilName": "HeadNeck_64",
  "ReconMatrixPE": 104,
  "RepetitionTime": 1.49,
  "SAR": 0.0671982,
  "ScanOptions": "FS",
  "ScanningSequence": "EP",
  "SequenceName": "epfid2d1_104",
  "SequenceVariant": "SK\\SS",
  "SeriesDescription": "func_task-mario3_run-02",
  "SeriesNumber": 14,
  "ShimSetting": [622, -7203, -8824, 661, 134, -5, -48, 7],
  "SliceThickness": 2,
  "SliceTiming": [0, 0.785, 0.0975, 0.8825, 0.195, 0.98, 0.295, 1.0775, 0.3925, 1.175, 0.49, 1.275, 0.5875, 1.3725, 0.685, 0, 0.785, 0.0975, 0.8825, 0.195, 0.98, 0.295, 1.0775, 0.3925, 1.175, 0.49, 1.275, 0.5875, 1.3725, 0.685, 0, 0.785, 0.0975, 0.8825, 0.195, 0.98, 0.295, 1.0775, 0.3925, 1.175, 0.49, 1.275, 0.5875, 1.3725, 0.685, 0, 0.785, 0.0975, 0.8825, 0.195, 0.98, 0.295, 1.0775, 0.3925, 1.175, 0.49, 1.275, 0.5875, 1.3725, 0.685],
  "SoftwareVersions": "syngo MR E11",
  "SpacingBetweenSlices": 2,
  "StationName": "MRC35049",
  "TaskName": "mario3",
  "TotalReadoutTime": 0.0576811,
  "TxRefAmp": 280.397,
  "WipMemBlock": "a6a01692-37b8-4cdb-9c61-c6d08a096ff8||Sequence: R017 ve11c/master r/75a17815+; Jun 28 2022 16:32:11 by eja",
  "dcmmeta_affine": [
    [-1.9912956953048706, -0.14727991819381714, 0.11423639953136444, 110.41600799560547],
    [-0.17626775801181793, 1.8864659070968628, -0.6404499411582947, -63.15056228637695],
    [0.06058883294463158, 0.6477307081222534, 1.8912360668182373, -66.97634887695312],
    [0.0, 0.0, 0.0, 1.0]
],
  "dcmmeta_reorient_transform": [
    [0.0, -1.0, 0.0, 103.0],
    [1.0, 0.0, 0.0, 0.0],
    [0.0, 0.0, 1.0, 0.0],
    [0.0, 0.0, 0.0, 1.0]
],
  "dcmmeta_shape": [104, 104, 60, 371],
  "dcmmeta_slice_dim": 2,
  "dcmmeta_version": 0.6,
  "global": {
    "const": {
      "AcquisitionMatrix": [104, 0, 0, 104],
      "AngioFlag": "N",
      "BitsAllocated": 16,
      "BitsStored": 16,
      "BodyPartExamined": "BRAIN",
      "Columns": 832,
      "EchoNumbers": 1,
      "EchoTime": 37.0,
      "EchoTrainLength": 104,
      "FlipAngle": 52.0,
      "HighBit": 15,
      "ImageOrientationPatient": [0.99564786341797, 0.08813387749081, 0.03029441713692, -0.0736399566284, 0.9432329496714, -0.3238653415263],
      "ImagePositionPatient": [-766.46793654697, -881.99047450621, 213.45954524005],
      "ImageType": [
        "ORIGINAL",
        "PRIMARY",
        "P",
        "MB",
        "ND",
        "MOSAIC"
],
      "ImagedNucleus": "1H",
      "ImagingFrequency": 123.260279,
      "InPlanePhaseEncodingDirection": "COL",
      "LargestImagePixelValue": 4095,
      "MRAcquisitionType": "2D",
      "MagneticFieldStrength": 3.0,
      "Manufacturer": "SIEMENS",
      "ManufacturerModelName": "Prisma_fit",
      "Modality": "MR",
      "NumberOfAverages": 1.0,
      "NumberOfPhaseEncodingSteps": 104,
      "PercentPhaseFieldOfView": 100.0,
      "PercentSampling": 100.0,
      "PerformedProcedureStepStartTime": "181429.450000",
      "PhotometricInterpretation": "MONOCHROME2",
      "PixelBandwidth": 2290.0,
      "PixelRepresentation": 0,
      "PixelSpacing": [2.0, 2.0],
      "ProtocolName": "func_task-mario3_run-02",
      "RepetitionTime": 1490.0,
      "RescaleIntercept": -4096.0,
      "RescaleSlope": 2.0,
      "RescaleType": "US",
      "Rows": 832,
      "SAR": 0.06719820894299,
      "SamplesPerPixel": 1,
      "ScanOptions": "FS",
      "ScanningSequence": "EP",
      "SequenceName": "epfid2d1_104",
      "SequenceVariant": [
        "SK",
        "SS"
],
      "SeriesDescription": "func_task-mario3_run-02",
      "SeriesNumber": 14,
      "SeriesTime": "183103.088000",
      "SliceLocation": -36.804893137182,
      "SliceThickness": 2.0,
      "SmallestImagePixelValue": 0,
      "SoftwareVersions": "syngo MR E11",
      "SpacingBetweenSlices": 2.0000000195549,
      "SpecificCharacterSet": "ISO_IR 100",
      "StudyID": "1",
      "StudyTime": "181429.382000",
      "TransmitCoilName": "Body",
      "VariableFlipAngleFlag": "N",
      "WindowCenterWidthExplanation": "Algo1",
      "dBdt": 0.0},
    "slices": {}
  },
  "time": {
    "samples": {
      "AcquisitionNumber": [1, 2, 3, 4, 5, 6, 7, 8, 9, 10, 11, 12, 13, 14, 15, 16, 17, 18, 19, 20, 21, 22, 23, 24, 25, 26, 27, 28, 29, 30, 31, 32, 33, 34, 35, 36, 37, 38, 39, 40, 41, 42, 43, 44, 45, 46, 47, 48, 49, 50, 51, 52, 53, 54, 55, 56, 57, 58, 59, 60, 61, 62, 63, 64, 65, 66, 67, 68, 69, 70, 71, 72, 73, 74, 75, 76, 77, 78, 79, 80, 81, 82, 83, 84, 85, 86, 87, 88, 89, 90, 91, 92, 93, 94, 95, 96, 97, 98, 99, 100, 101, 102, 103, 104, 105, 106, 107, 108, 109, 110, 111, 112, 113, 114, 115, 116, 117, 118, 119, 120, 121, 122, 123, 124, 125, 126, 127, 128, 129, 130, 131, 132, 133, 134, 135, 136, 137, 138, 139, 140, 141, 142, 143, 144, 145, 146, 147, 148, 149, 150, 151, 152, 153, 154, 155, 156, 157, 158, 159, 160, 161, 162, 163, 164, 165, 166, 167, 168, 169, 170, 171, 172, 173, 174, 175, 176, 177, 178, 179, 180, 181, 182, 183, 184, 185, 186, 187, 188, 189, 190, 191, 192, 193, 194, 195, 196, 197, 198, 199, 200, 201, 202, 203, 204, 205, 206, 207, 208, 209, 210, 211, 212, 213, 214, 215, 216, 217, 218, 219, 220, 221, 222, 223, 224, 225, 226, 227, 228, 229, 230, 231, 232, 233, 234, 235, 236, 237, 238, 239, 240, 241, 242, 243, 244, 245, 246, 247, 248, 249, 250, 251, 252, 253, 254, 255, 256, 257, 258, 259, 260, 261, 262, 263, 264, 265, 266, 267, 268, 269, 270, 271, 272, 273, 274, 275, 276, 277, 278, 279, 280, 281, 282, 283, 284, 285, 286, 287, 288, 289, 290, 291, 292, 293, 294, 295, 296, 297, 298, 299, 300, 301, 302, 303, 304, 305, 306, 307, 308, 309, 310, 311, 312, 313, 314, 315, 316, 317, 318, 319, 320, 321, 322, 323, 324, 325, 326, 327, 328, 329, 330, 331, 332, 333, 334, 335, 336, 337, 338, 339, 340, 341, 342, 343, 344, 345, 346, 347, 348, 349, 350, 351, 352, 353, 354, 355, 356, 357, 358, 359, 360, 361, 362, 363, 364, 365, 366, 367, 368, 369, 370, 371],
      "AcquisitionTime": ["182952.705000", "182954.195000", "182955.685000", "182957.175000", "182958.665000", "183000.155000", "183001.645000", "183003.135000", "183004.625000", "183006.115000", "183007.605000", "183009.095000", "183010.585000", "183012.075000", "183013.565000", "183015.055000", "183016.545000", "183018.035000", "183019.525000", "183021.015000", "183022.505000", "183023.995000", "183025.485000", "183026.975000", "183028.465000", "183029.955000", "183031.445000", "183032.935000", "183034.425000", "183035.915000", "183037.405000", "183038.895000", "183040.385000", "183041.875000", "183043.365000", "183044.855000", "183046.345000", "183047.835000", "183049.325000", "183050.815000", "183052.305000", "183053.795000", "183055.285000", "183056.775000", "183058.265000", "183059.755000", "183101.245000", "183102.735000", "183104.225000", "183105.715000", "183107.205000", "183108.695000", "183110.185000", "183111.675000", "183113.165000", "183114.655000", "183116.145000", "183117.635000", "183119.125000", "183120.615000", "183122.105000", "183123.595000", "183125.085000", "183126.575000", "183128.065000", "183129.555000", "183131.045000", "183132.535000", "183134.025000", "183135.515000", "183137.005000", "183138.495000", "183139.985000", "183141.475000", "183142.965000", "183144.455000", "183145.945000", "183147.435000", "183148.925000", "183150.415000", "183151.905000", "183153.395000", "183154.885000", "183156.375000", "183157.865000", "183159.355000", "183200.845000", "183202.335000", "183203.825000", "183205.315000", "183206.805000", "183208.295000", "183209.785000", "183211.275000", "183212.765000", "183214.255000", "183215.745000", "183217.235000", "183218.725000", "183220.215000", "183221.705000", "183223.195000", "183224.685000", "183226.175000", "183227.665000", "183229.155000", "183230.645000", "183232.135000", "183233.625000", "183235.115000", "183236.605000", "183238.095000", "183239.585000", "183241.075000", "183242.565000", "183244.055000", "183245.545000", "183247.035000", "183248.525000", "183250.015000", "183251.505000", "183252.995000", "183254.485000", "183255.975000", "183257.465000", "183258.955000", "183300.445000", "183301.935000", "183303.425000", "183304.915000", "183306.405000", "183307.895000", "183309.385000", "183310.875000", "183312.365000", "183313.855000", "183315.345000", "183316.835000", "183318.325000", "183319.815000", "183321.305000", "183322.795000", "183324.285000", "183325.775000", "183327.265000", "183328.755000", "183330.245000", "183331.735000", "183333.225000", "183334.715000", "183336.205000", "183337.695000", "183339.185000", "183340.675000", "183342.165000", "183343.655000", "183345.145000", "183346.635000", "183348.125000", "183349.615000", "183351.105000", "183352.595000", "183354.085000", "183355.575000", "183357.065000", "183358.555000", "183400.045000", "183401.535000", "183403.025000", "183404.515000", "183406.005000", "183407.495000", "183408.985000", "183410.475000", "183411.965000", "183413.455000", "183414.945000", "183416.435000", "183417.925000", "183419.415000", "183420.905000", "183422.395000", "183423.885000", "183425.375000", "183426.865000", "183428.355000", "183429.845000", "183431.335000", "183432.825000", "183434.315000", "183435.805000", "183437.295000", "183438.785000", "183440.275000", "183441.765000", "183443.255000", "183444.745000", "183446.235000", "183447.725000", "183449.215000", "183450.705000", "183452.195000", "183453.685000", "183455.175000", "183456.665000", "183458.155000", "183459.645000", "183501.135000", "183502.625000", "183504.115000", "183505.605000", "183507.095000", "183508.585000", "183510.075000", "183511.565000", "183513.055000", "183514.545000", "183516.035000", "183517.525000", "183519.015000", "183520.505000", "183521.995000", "183523.485000", "183524.975000", "183526.465000", "183527.955000", "183529.445000", "183530.935000", "183532.425000", "183533.915000", "183535.405000", "183536.895000", "183538.385000", "183539.875000", "183541.365000", "183542.855000", "183544.345000", "183545.835000", "183547.325000", "183548.815000", "183550.305000", "183551.795000", "183553.285000", "183554.775000", "183556.265000", "183557.755000", "183559.245000", "183600.735000", "183602.225000", "183603.715000", "183605.205000", "183606.695000", "183608.185000", "183609.675000", "183611.165000", "183612.655000", "183614.145000", "183615.635000", "183617.125000", "183618.615000", "183620.105000", "183621.595000", "183623.085000", "183624.575000", "183626.065000", "183627.555000", "183629.045000", "183630.535000", "183632.025000", "183633.515000", "183635.005000", "183636.495000", "183637.985000", "183639.475000", "183640.965000", "183642.455000", "183643.945000", "183645.435000", "183646.925000", "183648.415000", "183649.905000", "183651.395000", "183652.885000", "183654.375000", "183655.865000", "183657.355000", "183658.845000", "183700.335000", "183701.825000", "183703.315000", "183704.805000", "183706.295000", "183707.785000", "183709.275000", "183710.765000", "183712.255000", "183713.745000", "183715.235000", "183716.725000", "183718.215000", "183719.705000", "183721.195000", "183722.685000", "183724.175000", "183725.665000", "183727.155000", "183728.645000", "183730.135000", "183731.625000", "183733.115000", "183734.605000", "183736.095000", "183737.585000", "183739.075000", "183740.565000", "183742.055000", "183743.545000", "183745.035000", "183746.525000", "183748.015000", "183749.505000", "183750.995000", "183752.485000", "183753.975000", "183755.465000", "183756.955000", "183758.445000", "183759.935000", "183801.425000", "183802.915000", "183804.405000", "183805.895000", "183807.385000", "183808.875000", "183810.365000", "183811.855000", "183813.345000", "183814.835000", "183816.325000", "183817.815000", "183819.305000", "183820.795000", "183822.285000", "183823.775000", "183825.265000", "183826.755000", "183828.245000", "183829.735000", "183831.225000", "183832.715000", "183834.205000", "183835.695000", "183837.185000", "183838.675000", "183840.165000", "183841.655000", "183843.145000", "183844.635000", "183846.125000", "183847.615000", "183849.105000", "183850.595000", "183852.085000", "183853.575000", "183855.065000", "183856.555000", "183858.045000", "183859.535000", "183901.025000", "183902.515000", "183904.005000"],
      "ContentTime": ["183103.090000", "183103.099000", "183103.101000", "183103.104000", "183103.106000", "183103.109000", "183103.112000", "183103.114000", "183103.117000", "183103.119000", "183103.122000", "183103.124000", "183103.127000", "183103.129000", "183103.132000", "183103.135000", "183103.137000", "183103.140000", "183103.142000", "183103.145000", "183123.048000", "183123.051000", "183123.054000", "183123.056000", "183123.059000", "183123.061000", "183123.064000", "183123.066000", "183123.069000", "183123.071000", "183123.074000", "183123.076000", "183123.079000", "183123.081000", "183123.084000", "183123.086000", "183123.089000", "183123.091000", "183123.094000", "183123.096000", "183143.053000", "183143.056000", "183143.058000", "183143.060000", "183143.063000", "183143.066000", "183143.068000", "183143.071000", "183143.073000", "183143.076000", "183143.078000", "183143.081000", "183143.083000", "183143.086000", "183143.089000", "183143.092000", "183143.095000", "183143.097000", "183143.100000", "183143.102000", "183203.041000", "183203.043000", "183203.046000", "183203.049000", "183203.051000", "183203.054000", "183203.056000", "183203.059000", "183203.061000", "183203.064000", "183203.066000", "183203.069000", "183203.071000", "183203.074000", "183203.076000", "183203.079000", "183203.082000", "183203.084000", "183203.087000", "183203.089000", "183203.092000", "183243.084000", "183243.086000", "183243.089000", "183243.092000", "183243.094000", "183243.097000", "183243.106000", "183243.108000", "183243.111000", "183243.113000", "183243.116000", "183243.118000", "183243.121000", "183243.124000", "183243.126000", "183243.129000", "183243.131000", "183243.134000", "183243.136000", "183243.139000", "183243.142000", "183243.144000", "183243.147000", "183243.149000", "183243.152000", "183243.154000", "183243.157000", "183243.160000", "183243.162000", "183243.165000", "183243.167000", "183243.170000", "183323.474000", "183323.476000", "183323.479000", "183323.481000", "183323.484000", "183323.486000", "183323.489000", "183323.492000", "183323.494000", "183323.497000", "183323.499000", "183323.502000", "183323.504000", "183323.507000", "183323.509000", "183323.512000", "183323.514000", "183323.517000", "183323.520000", "183323.522000", "183323.525000", "183323.527000", "183323.530000", "183323.532000", "183323.535000", "183323.537000", "183323.540000", "183403.059000", "183403.062000", "183403.065000", "183403.080000", "183403.083000", "183403.085000", "183403.088000", "183403.090000", "183403.093000", "183403.096000", "183403.098000", "183403.101000", "183403.103000", "183403.106000", "183403.108000", "183403.111000", "183403.113000", "183403.116000", "183403.118000", "183403.121000", "183403.124000", "183403.126000", "183403.129000", "183403.131000", "183403.134000", "183403.136000", "183403.139000", "183443.074000", "183443.077000", "183443.079000", "183443.082000", "183443.084000", "183443.087000", "183443.089000", "183443.092000", "183443.094000", "183443.097000", "183443.099000", "183443.102000", "183443.104000", "183443.107000", "183443.109000", "183443.112000", "183443.115000", "183443.117000", "183443.120000", "183443.122000", "183443.125000", "183443.128000", "183443.130000", "183443.133000", "183443.135000", "183443.138000", "183443.140000", "183523.081000", "183523.084000", "183523.086000", "183523.089000", "183523.092000", "183523.094000", "183523.097000", "183523.099000", "183523.102000", "183523.104000", "183523.107000", "183523.109000", "183523.112000", "183523.114000", "183523.117000", "183523.119000", "183523.122000", "183523.125000", "183523.127000", "183523.130000", "183523.132000", "183523.135000", "183523.137000", "183523.140000", "183523.142000", "183523.145000", "183603.061000", "183603.064000", "183603.067000", "183603.069000", "183603.072000", "183603.074000", "183603.077000", "183603.080000", "183603.083000", "183603.085000", "183603.088000", "183603.091000", "183603.093000", "183603.096000", "183603.098000", "183603.101000", "183603.103000", "183603.106000", "183603.108000", "183603.111000", "183603.113000", "183603.116000", "183603.119000", "183603.121000", "183603.124000", "183603.126000", "183603.129000", "183643.086000", "183643.089000", "183643.092000", "183643.094000", "183643.097000", "183643.099000", "183643.102000", "183643.104000", "183643.107000", "183643.110000", "183643.112000", "183643.115000", "183643.117000", "183643.120000", "183643.122000", "183643.125000", "183643.128000", "183643.130000", "183643.133000", "183643.135000", "183643.138000", "183643.140000", "183643.143000", "183643.145000", "183643.148000", "183643.151000", "183643.153000", "183723.060000", "183723.063000", "183723.065000", "183723.068000", "183723.070000", "183723.073000", "183723.075000", "183723.078000", "183723.080000", "183723.083000", "183723.085000", "183723.088000", "183723.090000", "183723.093000", "183723.095000", "183723.098000", "183723.101000", "183723.103000", "183723.106000", "183723.108000", "183723.111000", "183723.113000", "183723.116000", "183723.119000", "183723.121000", "183723.124000", "183723.126000", "183803.069000", "183803.072000", "183803.074000", "183803.077000", "183803.079000", "183803.082000", "183803.084000", "183803.087000", "183803.089000", "183803.092000", "183803.095000", "183803.097000", "183803.100000", "183803.102000", "183803.105000", "183803.107000", "183803.110000", "183803.112000", "183803.115000", "183803.117000", "183803.120000", "183803.123000", "183803.125000", "183803.128000", "183803.130000", "183803.133000", "183803.135000", "183843.077000", "183843.080000", "183843.082000", "183843.085000", "183843.087000", "183843.090000", "183843.092000", "183843.095000", "183843.098000", "183843.100000", "183843.103000", "183843.105000", "183843.108000", "183843.110000", "183843.113000", "183843.116000", "183843.118000", "183843.121000", "183843.123000", "183843.126000", "183843.128000", "183843.131000", "183843.133000", "183843.136000", "183843.138000", "183843.141000", "183843.143000", "183907.211000", "183907.214000", "183907.216000", "183907.219000", "183907.221000", "183907.224000", "183907.226000", "183907.229000", "183907.232000", "183907.234000", "183907.237000", "183907.239000", "183907.242000", "183907.244000", "183907.247000", "183907.250000"],
      "InstanceCreationTime": ["183103.090000", "183103.099000", "183103.101000", "183103.104000", "183103.106000", "183103.109000", "183103.112000", "183103.114000", "183103.117000", "183103.119000", "183103.122000", "183103.124000", "183103.127000", "183103.129000", "183103.132000", "183103.135000", "183103.137000", "183103.140000", "183103.142000", "183103.145000", "183123.048000", "183123.051000", "183123.054000", "183123.056000", "183123.059000", "183123.061000", "183123.064000", "183123.066000", "183123.069000", "183123.071000", "183123.074000", "183123.076000", "183123.079000", "183123.081000", "183123.084000", "183123.086000", "183123.089000", "183123.091000", "183123.094000", "183123.096000", "183143.053000", "183143.056000", "183143.058000", "183143.060000", "183143.063000", "183143.066000", "183143.068000", "183143.071000", "183143.073000", "183143.076000", "183143.078000", "183143.081000", "183143.083000", "183143.086000", "183143.089000", "183143.092000", "183143.095000", "183143.097000", "183143.100000", "183143.102000", "183203.041000", "183203.043000", "183203.046000", "183203.049000", "183203.051000", "183203.054000", "183203.056000", "183203.059000", "183203.061000", "183203.064000", "183203.066000", "183203.069000", "183203.071000", "183203.074000", "183203.076000", "183203.079000", "183203.082000", "183203.084000", "183203.087000", "183203.089000", "183203.092000", "183243.084000", "183243.086000", "183243.089000", "183243.092000", "183243.094000", "183243.097000", "183243.106000", "183243.108000", "183243.111000", "183243.113000", "183243.116000", "183243.118000", "183243.121000", "183243.124000", "183243.126000", "183243.129000", "183243.131000", "183243.134000", "183243.136000", "183243.139000", "183243.142000", "183243.144000", "183243.147000", "183243.149000", "183243.152000", "183243.154000", "183243.157000", "183243.160000", "183243.162000", "183243.165000", "183243.167000", "183243.170000", "183323.474000", "183323.476000", "183323.479000", "183323.481000", "183323.484000", "183323.486000", "183323.489000", "183323.492000", "183323.494000", "183323.497000", "183323.499000", "183323.502000", "183323.504000", "183323.507000", "183323.509000", "183323.512000", "183323.514000", "183323.517000", "183323.520000", "183323.522000", "183323.525000", "183323.527000", "183323.530000", "183323.532000", "183323.535000", "183323.537000", "183323.540000", "183403.059000", "183403.062000", "183403.065000", "183403.080000", "183403.083000", "183403.085000", "183403.088000", "183403.090000", "183403.093000", "183403.096000", "183403.098000", "183403.101000", "183403.103000", "183403.106000", "183403.108000", "183403.111000", "183403.113000", "183403.116000", "183403.118000", "183403.121000", "183403.124000", "183403.126000", "183403.129000", "183403.131000", "183403.134000", "183403.136000", "183403.139000", "183443.074000", "183443.077000", "183443.079000", "183443.082000", "183443.084000", "183443.087000", "183443.089000", "183443.092000", "183443.094000", "183443.097000", "183443.099000", "183443.102000", "183443.104000", "183443.107000", "183443.109000", "183443.112000", "183443.115000", "183443.117000", "183443.120000", "183443.122000", "183443.125000", "183443.128000", "183443.130000", "183443.133000", "183443.135000", "183443.138000", "183443.140000", "183523.081000", "183523.084000", "183523.086000", "183523.089000", "183523.092000", "183523.094000", "183523.097000", "183523.099000", "183523.102000", "183523.104000", "183523.107000", "183523.109000", "183523.112000", "183523.114000", "183523.117000", "183523.119000", "183523.122000", "183523.125000", "183523.127000", "183523.130000", "183523.132000", "183523.135000", "183523.137000", "183523.140000", "183523.142000", "183523.145000", "183603.061000", "183603.064000", "183603.067000", "183603.069000", "183603.072000", "183603.074000", "183603.077000", "183603.080000", "183603.083000", "183603.085000", "183603.088000", "183603.091000", "183603.093000", "183603.096000", "183603.098000", "183603.101000", "183603.103000", "183603.106000", "183603.108000", "183603.111000", "183603.113000", "183603.116000", "183603.119000", "183603.121000", "183603.124000", "183603.126000", "183603.129000", "183643.086000", "183643.089000", "183643.092000", "183643.094000", "183643.097000", "183643.099000", "183643.102000", "183643.104000", "183643.107000", "183643.110000", "183643.112000", "183643.115000", "183643.117000", "183643.120000", "183643.122000", "183643.125000", "183643.128000", "183643.130000", "183643.133000", "183643.135000", "183643.138000", "183643.140000", "183643.143000", "183643.145000", "183643.148000", "183643.151000", "183643.153000", "183723.060000", "183723.063000", "183723.065000", "183723.068000", "183723.070000", "183723.073000", "183723.075000", "183723.078000", "183723.080000", "183723.083000", "183723.085000", "183723.088000", "183723.090000", "183723.093000", "183723.095000", "183723.098000", "183723.101000", "183723.103000", "183723.106000", "183723.108000", "183723.111000", "183723.113000", "183723.116000", "183723.119000", "183723.121000", "183723.124000", "183723.126000", "183803.069000", "183803.072000", "183803.074000", "183803.077000", "183803.079000", "183803.082000", "183803.084000", "183803.087000", "183803.089000", "183803.092000", "183803.095000", "183803.097000", "183803.100000", "183803.102000", "183803.105000", "183803.107000", "183803.110000", "183803.112000", "183803.115000", "183803.117000", "183803.120000", "183803.123000", "183803.125000", "183803.128000", "183803.130000", "183803.133000", "183803.135000", "183843.077000", "183843.080000", "183843.082000", "183843.085000", "183843.087000", "183843.090000", "183843.092000", "183843.095000", "183843.098000", "183843.100000", "183843.103000", "183843.105000", "183843.108000", "183843.110000", "183843.113000", "183843.116000", "183843.118000", "183843.121000", "183843.123000", "183843.126000", "183843.128000", "183843.131000", "183843.133000", "183843.136000", "183843.138000", "183843.141000", "183843.143000", "183907.211000", "183907.214000", "183907.216000", "183907.219000", "183907.221000", "183907.224000", "183907.226000", "183907.229000", "183907.232000", "183907.234000", "183907.237000", "183907.239000", "183907.242000", "183907.244000", "183907.247000", "183907.250000"],
      "InstanceNumber": [1, 2, 3, 4, 5, 6, 7, 8, 9, 10, 11, 12, 13, 14, 15, 16, 17, 18, 19, 20, 21, 22, 23, 24, 25, 26, 27, 28, 29, 30, 31, 32, 33, 34, 35, 36, 37, 38, 39, 40, 41, 42, 43, 44, 45, 46, 47, 48, 49, 50, 51, 52, 53, 54, 55, 56, 57, 58, 59, 60, 61, 62, 63, 64, 65, 66, 67, 68, 69, 70, 71, 72, 73, 74, 75, 76, 77, 78, 79, 80, 81, 82, 83, 84, 85, 86, 87, 88, 89, 90, 91, 92, 93, 94, 95, 96, 97, 98, 99, 100, 101, 102, 103, 104, 105, 106, 107, 108, 109, 110, 111, 112, 113, 114, 115, 116, 117, 118, 119, 120, 121, 122, 123, 124, 125, 126, 127, 128, 129, 130, 131, 132, 133, 134, 135, 136, 137, 138, 139, 140, 141, 142, 143, 144, 145, 146, 147, 148, 149, 150, 151, 152, 153, 154, 155, 156, 157, 158, 159, 160, 161, 162, 163, 164, 165, 166, 167, 168, 169, 170, 171, 172, 173, 174, 175, 176, 177, 178, 179, 180, 181, 182, 183, 184, 185, 186, 187, 188, 189, 190, 191, 192, 193, 194, 195, 196, 197, 198, 199, 200, 201, 202, 203, 204, 205, 206, 207, 208, 209, 210, 211, 212, 213, 214, 215, 216, 217, 218, 219, 220, 221, 222, 223, 224, 225, 226, 227, 228, 229, 230, 231, 232, 233, 234, 235, 236, 237, 238, 239, 240, 241, 242, 243, 244, 245, 246, 247, 248, 249, 250, 251, 252, 253, 254, 255, 256, 257, 258, 259, 260, 261, 262, 263, 264, 265, 266, 267, 268, 269, 270, 271, 272, 273, 274, 275, 276, 277, 278, 279, 280, 281, 282, 283, 284, 285, 286, 287, 288, 289, 290, 291, 292, 293, 294, 295, 296, 297, 298, 299, 300, 301, 302, 303, 304, 305, 306, 307, 308, 309, 310, 311, 312, 313, 314, 315, 316, 317, 318, 319, 320, 321, 322, 323, 324, 325, 326, 327, 328, 329, 330, 331, 332, 333, 334, 335, 336, 337, 338, 339, 340, 341, 342, 343, 344, 345, 346, 347, 348, 349, 350, 351, 352, 353, 354, 355, 356, 357, 358, 359, 360, 361, 362, 363, 364, 365, 366, 367, 368, 369, 370, 371],
