{
  "AcquisitionMatrixPE": 104,
  "AcquisitionNumber": 1,
  "AcquisitionTime": "18:29:52.705000",
  "BandwidthPerPixelPhaseEncode": 17.17,
  "BaseResolution": 104,
  "BodyPartExamined": "BRAIN",
  "CoilCombinationMethod": "Sum of Squares",
  "ConsistencyInfo": "N4_VE11C_LATEST_20160120",
  "ConversionSoftware": "dcm2niix",
  "ConversionSoftwareVersion": "v1.0.20220505",
  "DerivedVendorReportedEchoSpacing": 0.000560011,
  "DeviceSerialNumber": "167006",
  "DwellTime": 2.1e-06,
  "EchoTime": 0.037,
  "EchoTrainLength": 104,
  "EffectiveEchoSpacing": 0.000560011,
  "FlipAngle": 52,
  "HeudiconvVersion": "0.5.3.post811+g6206e14",
  "ImageComments": "Unaliased MB4/PE3/LB",
  "ImageOrientationPatientDICOM": [0.995648, 0.0881339, 0.0302944, -0.07364, 0.943233, -0.323865],
  "ImageOrientationText": "Tra>Cor(-18.7)>Sag(3.3)",
  "ImageType": [
    "ORIGINAL",
    "PRIMARY",
    "M",
    "MB",
    "ND",
    "MOSAIC"
],
  "ImagingFrequency": 123.26,
  "InPlanePhaseEncodingDirectionDICOM": "COL",
  "InstitutionAddress": "Chemin Queen-Mary 4565,Montreal,District,CA,H3W 1W5",
  "InstitutionName": "IUGM",
  "InstitutionalDepartmentName": "Department",
  "MRAcquisitionType": "2D",
  "MagneticFieldStrength": 3,
  "Manufacturer": "Siemens",
  "ManufacturersModelName": "Prisma_fit",
  "MatrixCoilMode": "SENSE",
  "Modality": "MR",
  "MultibandAccelerationFactor": 4,
  "PartialFourier": 1,
  "PatientPosition": "HFS",
  "PercentPhaseFOV": 100,
  "PercentSampling": 100,
  "PhaseEncodingDirection": "j",
  "PhaseEncodingSteps": 104,
  "PhaseResolution": 1,
  "PixelBandwidth": 2290,
  "ProcedureStepDescription": "games^mario3",
  "ProtocolName": "func_task-mario3_run-02",
  "PulseSequenceDetails": "%CustomerSeq%\\cmrr_mbep2d_bold",
  "ReceiveCoilActiveElements": "HC1-7;NC1,2",
  "ReceiveCoilName": "HeadNeck_64",
  "ReconMatrixPE": 104,
  "RepetitionTime": 1.49,
  "SAR": 0.0671982,
  "ScanOptions": "FS",
  "ScanningSequence": "EP",
  "SequenceName": "epfid2d1_104",
  "SequenceVariant": "SK\\SS",
  "SeriesDescription": "func_task-mario3_run-02",
  "SeriesNumber": 13,
  "ShimSetting": [622, -7203, -8824, 661, 134, -5, -48, 7],
  "SliceThickness": 2,
  "SliceTiming": [0, 0.785, 0.0975, 0.8825, 0.195, 0.98, 0.295, 1.0775, 0.3925, 1.175, 0.49, 1.275, 0.5875, 1.3725, 0.685, 0, 0.785, 0.0975, 0.8825, 0.195, 0.98, 0.295, 1.0775, 0.3925, 1.175, 0.49, 1.275, 0.5875, 1.3725, 0.685, 0, 0.785, 0.0975, 0.8825, 0.195, 0.98, 0.295, 1.0775, 0.3925, 1.175, 0.49, 1.275, 0.5875, 1.3725, 0.685, 0, 0.785, 0.0975, 0.8825, 0.195, 0.98, 0.295, 1.0775, 0.3925, 1.175, 0.49, 1.275, 0.5875, 1.3725, 0.685],
  "SoftwareVersions": "syngo MR E11",
  "SpacingBetweenSlices": 2,
  "StationName": "MRC35049",
  "TaskName": "mario3",
  "TotalReadoutTime": 0.0576811,
  "TxRefAmp": 280.397,
  "WipMemBlock": "a6a01692-37b8-4cdb-9c61-c6d08a096ff8||Sequence: R017 ve11c/master r/75a17815+; Jun 28 2022 16:32:11 by eja",
  "dcmmeta_affine": [
    [-1.9912956953048706, -0.14727991819381714, 0.11423639953136444, 110.41600799560547],
    [-0.17626775801181793, 1.8864659070968628, -0.6404499411582947, -63.15056228637695],
    [0.06058883294463158, 0.6477307081222534, 1.8912360668182373, -66.97634887695312],
    [0.0, 0.0, 0.0, 1.0]
],
  "dcmmeta_reorient_transform": [
    [0.0, -1.0, 0.0, 103.0],
    [1.0, 0.0, 0.0, 0.0],
    [0.0, 0.0, 1.0, 0.0],
    [0.0, 0.0, 0.0, 1.0]
],
  "dcmmeta_shape": [104, 104, 60, 371],
  "dcmmeta_slice_dim": 2,
  "dcmmeta_version": 0.6,
  "global": {
    "const": {
      "AcquisitionMatrix": [104, 0, 0, 104],
      "AngioFlag": "N",
      "BitsAllocated": 16,
      "BitsStored": 16,
      "BodyPartExamined": "BRAIN",
      "Columns": 832,
      "EchoNumbers": 1,
      "EchoTime": 37.0,
      "EchoTrainLength": 104,
      "FlipAngle": 52.0,
      "HighBit": 15,
      "ImageOrientationPatient": [0.99564786341797, 0.08813387749081, 0.03029441713692, -0.0736399566284, 0.9432329496714, -0.3238653415263],
      "ImagePositionPatient": [-766.46793654697, -881.99047450621, 213.45954524005],
      "ImageType": [
        "ORIGINAL",
        "PRIMARY",
        "M",
        "MB",
        "ND",
        "MOSAIC"
],
      "ImagedNucleus": "1H",
      "ImagingFrequency": 123.260279,
      "InPlanePhaseEncodingDirection": "COL",
      "MRAcquisitionType": "2D",
      "MagneticFieldStrength": 3.0,
      "Manufacturer": "SIEMENS",
      "ManufacturerModelName": "Prisma_fit",
      "Modality": "MR",
      "NumberOfAverages": 1.0,
      "NumberOfPhaseEncodingSteps": 104,
      "PercentPhaseFieldOfView": 100.0,
      "PercentSampling": 100.0,
      "PerformedProcedureStepStartTime": "181429.450000",
      "PhotometricInterpretation": "MONOCHROME2",
      "PixelBandwidth": 2290.0,
      "PixelRepresentation": 0,
      "PixelSpacing": [2.0, 2.0],
      "ProtocolName": "func_task-mario3_run-02",
      "RepetitionTime": 1490.0,
      "Rows": 832,
      "SAR": 0.06719820894299,
      "SamplesPerPixel": 1,
      "ScanOptions": "FS",
      "ScanningSequence": "EP",
      "SequenceName": "epfid2d1_104",
      "SequenceVariant": [
        "SK",
        "SS"
],
      "SeriesDescription": "func_task-mario3_run-02",
      "SeriesNumber": 13,
      "SeriesTime": "183102.954000",
      "SliceLocation": -36.804893137182,
      "SliceThickness": 2.0,
      "SmallestImagePixelValue": 0,
      "SoftwareVersions": "syngo MR E11",
      "SpacingBetweenSlices": 2.0000000195549,
      "SpecificCharacterSet": "ISO_IR 100",
      "StudyID": "1",
      "StudyTime": "181429.382000",
      "TransmitCoilName": "Body",
      "VariableFlipAngleFlag": "N",
      "WindowCenterWidthExplanation": "Algo1",
      "dBdt": 0.0},
    "slices": {}
  },
  "time": {
    "samples": {
      "AcquisitionNumber": [1, 2, 3, 4, 5, 6, 7, 8, 9, 10, 11, 12, 13, 14, 15, 16, 17, 18, 19, 20, 21, 22, 23, 24, 25, 26, 27, 28, 29, 30, 31, 32, 33, 34, 35, 36, 37, 38, 39, 40, 41, 42, 43, 44, 45, 46, 47, 48, 49, 50, 51, 52, 53, 54, 55, 56, 57, 58, 59, 60, 61, 62, 63, 64, 65, 66, 67, 68, 69, 70, 71, 72, 73, 74, 75, 76, 77, 78, 79, 80, 81, 82, 83, 84, 85, 86, 87, 88, 89, 90, 91, 92, 93, 94, 95, 96, 97, 98, 99, 100, 101, 102, 103, 104, 105, 106, 107, 108, 109, 110, 111, 112, 113, 114, 115, 116, 117, 118, 119, 120, 121, 122, 123, 124, 125, 126, 127, 128, 129, 130, 131, 132, 133, 134, 135, 136, 137, 138, 139, 140, 141, 142, 143, 144, 145, 146, 147, 148, 149, 150, 151, 152, 153, 154, 155, 156, 157, 158, 159, 160, 161, 162, 163, 164, 165, 166, 167, 168, 169, 170, 171, 172, 173, 174, 175, 176, 177, 178, 179, 180, 181, 182, 183, 184, 185, 186, 187, 188, 189, 190, 191, 192, 193, 194, 195, 196, 197, 198, 199, 200, 201, 202, 203, 204, 205, 206, 207, 208, 209, 210, 211, 212, 213, 214, 215, 216, 217, 218, 219, 220, 221, 222, 223, 224, 225, 226, 227, 228, 229, 230, 231, 232, 233, 234, 235, 236, 237, 238, 239, 240, 241, 242, 243, 244, 245, 246, 247, 248, 249, 250, 251, 252, 253, 254, 255, 256, 257, 258, 259, 260, 261, 262, 263, 264, 265, 266, 267, 268, 269, 270, 271, 272, 273, 274, 275, 276, 277, 278, 279, 280, 281, 282, 283, 284, 285, 286, 287, 288, 289, 290, 291, 292, 293, 294, 295, 296, 297, 298, 299, 300, 301, 302, 303, 304, 305, 306, 307, 308, 309, 310, 311, 312, 313, 314, 315, 316, 317, 318, 319, 320, 321, 322, 323, 324, 325, 326, 327, 328, 329, 330, 331, 332, 333, 334, 335, 336, 337, 338, 339, 340, 341, 342, 343, 344, 345, 346, 347, 348, 349, 350, 351, 352, 353, 354, 355, 356, 357, 358, 359, 360, 361, 362, 363, 364, 365, 366, 367, 368, 369, 370, 371],
      "AcquisitionTime": ["182952.705000", "182954.195000", "182955.685000", "182957.175000", "182958.665000", "183000.155000", "183001.645000", "183003.135000", "183004.625000", "183006.115000", "183007.605000", "183009.095000", "183010.585000", "183012.075000", "183013.565000", "183015.055000", "183016.545000", "183018.035000", "183019.525000", "183021.015000", "183022.505000", "183023.995000", "183025.485000", "183026.975000", "183028.465000", "183029.955000", "183031.445000", "183032.935000", "183034.425000", "183035.915000", "183037.405000", "183038.895000", "183040.385000", "183041.875000", "183043.365000", "183044.855000", "183046.345000", "183047.835000", "183049.325000", "183050.815000", "183052.305000", "183053.795000", "183055.285000", "183056.775000", "183058.265000", "183059.755000", "183101.245000", "183102.735000", "183104.225000", "183105.715000", "183107.205000", "183108.695000", "183110.185000", "183111.675000", "183113.165000", "183114.655000", "183116.145000", "183117.635000", "183119.125000", "183120.615000", "183122.105000", "183123.595000", "183125.085000", "183126.575000", "183128.065000", "183129.555000", "183131.045000", "183132.535000", "183134.025000", "183135.515000", "183137.005000", "183138.495000", "183139.985000", "183141.475000", "183142.965000", "183144.455000", "183145.945000", "183147.435000", "183148.925000", "183150.415000", "183151.905000", "183153.395000", "183154.885000", "183156.375000", "183157.865000", "183159.355000", "183200.845000", "183202.335000", "183203.825000", "183205.315000", "183206.805000", "183208.295000", "183209.785000", "183211.275000", "183212.765000", "183214.255000", "183215.745000", "183217.235000", "183218.725000", "183220.215000", "183221.705000", "183223.195000", "183224.685000", "183226.175000", "183227.665000", "183229.155000", "183230.645000", "183232.135000", "183233.625000", "183235.115000", "183236.605000", "183238.095000", "183239.585000", "183241.075000", "183242.565000", "183244.055000", "183245.545000", "183247.035000", "183248.525000", "183250.015000", "183251.505000", "183252.995000", "183254.485000", "183255.975000", "183257.465000", "183258.955000", "183300.445000", "183301.935000", "183303.425000", "183304.915000", "183306.405000", "183307.895000", "183309.385000", "183310.875000", "183312.365000", "183313.855000", "183315.345000", "183316.835000", "183318.325000", "183319.815000", "183321.305000", "183322.795000", "183324.285000", "183325.775000", "183327.265000", "183328.755000", "183330.245000", "183331.735000", "183333.225000", "183334.715000", "183336.205000", "183337.695000", "183339.185000", "183340.675000", "183342.165000", "183343.655000", "183345.145000", "183346.635000", "183348.125000", "183349.615000", "183351.105000", "183352.595000", "183354.085000", "183355.575000", "183357.065000", "183358.555000", "183400.045000", "183401.535000", "183403.025000", "183404.515000", "183406.005000", "183407.495000", "183408.985000", "183410.475000", "183411.965000", "183413.455000", "183414.945000", "183416.435000", "183417.925000", "183419.415000", "183420.905000", "183422.395000", "183423.885000", "183425.375000", "183426.865000", "183428.355000", "183429.845000", "183431.335000", "183432.825000", "183434.315000", "183435.805000", "183437.295000", "183438.785000", "183440.275000", "183441.765000", "183443.255000", "183444.745000", "183446.235000", "183447.725000", "183449.215000", "183450.705000", "183452.195000", "183453.685000", "183455.175000", "183456.665000", "183458.155000", "183459.645000", "183501.135000", "183502.625000", "183504.115000", "183505.605000", "183507.095000", "183508.585000", "183510.075000", "183511.565000", "183513.055000", "183514.545000", "183516.035000", "183517.525000", "183519.015000", "183520.505000", "183521.995000", "183523.485000", "183524.975000", "183526.465000", "183527.955000", "183529.445000", "183530.935000", "183532.425000", "183533.915000", "183535.405000", "183536.895000", "183538.385000", "183539.875000", "183541.365000", "183542.855000", "183544.345000", "183545.835000", "183547.325000", "183548.815000", "183550.305000", "183551.795000", "183553.285000", "183554.775000", "183556.265000", "183557.755000", "183559.245000", "183600.735000", "183602.225000", "183603.715000", "183605.205000", "183606.695000", "183608.185000", "183609.675000", "183611.165000", "183612.655000", "183614.145000", "183615.635000", "183617.125000", "183618.615000", "183620.105000", "183621.595000", "183623.085000", "183624.575000", "183626.065000", "183627.555000", "183629.045000", "183630.535000", "183632.025000", "183633.515000", "183635.005000", "183636.495000", "183637.985000", "183639.475000", "183640.965000", "183642.455000", "183643.945000", "183645.435000", "183646.925000", "183648.415000", "183649.905000", "183651.395000", "183652.885000", "183654.375000", "183655.865000", "183657.355000", "183658.845000", "183700.335000", "183701.825000", "183703.315000", "183704.805000", "183706.295000", "183707.785000", "183709.275000", "183710.765000", "183712.255000", "183713.745000", "183715.235000", "183716.725000", "183718.215000", "183719.705000", "183721.195000", "183722.685000", "183724.175000", "183725.665000", "183727.155000", "183728.645000", "183730.135000", "183731.625000", "183733.115000", "183734.605000", "183736.095000", "183737.585000", "183739.075000", "183740.565000", "183742.055000", "183743.545000", "183745.035000", "183746.525000", "183748.015000", "183749.505000", "183750.995000", "183752.485000", "183753.975000", "183755.465000", "183756.955000", "183758.445000", "183759.935000", "183801.425000", "183802.915000", "183804.405000", "183805.895000", "183807.385000", "183808.875000", "183810.365000", "183811.855000", "183813.345000", "183814.835000", "183816.325000", "183817.815000", "183819.305000", "183820.795000", "183822.285000", "183823.775000", "183825.265000", "183826.755000", "183828.245000", "183829.735000", "183831.225000", "183832.715000", "183834.205000", "183835.695000", "183837.185000", "183838.675000", "183840.165000", "183841.655000", "183843.145000", "183844.635000", "183846.125000", "183847.615000", "183849.105000", "183850.595000", "183852.085000", "183853.575000", "183855.065000", "183856.555000", "183858.045000", "183859.535000", "183901.025000", "183902.515000", "183904.005000"],
      "ContentTime": ["183102.957000", "183102.961000", "183102.964000", "183102.968000", "183102.971000", "183102.974000", "183102.978000", "183102.981000", "183102.985000", "183102.988000", "183102.991000", "183102.995000", "183102.998000", "183103.004000", "183103.007000", "183103.011000", "183103.018000", "183103.021000", "183103.024000", "183103.028000", "183122.923000", "183122.927000", "183122.930000", "183122.933000", "183122.937000", "183122.940000", "183122.944000", "183122.947000", "183122.950000", "183122.953000", "183122.957000", "183122.960000", "183122.965000", "183122.968000", "183122.971000", "183122.975000", "183122.978000", "183122.981000", "183122.985000", "183122.988000", "183142.923000", "183142.927000", "183142.930000", "183142.933000", "183142.937000", "183142.940000", "183142.943000", "183142.947000", "183142.957000", "183142.960000", "183142.963000", "183142.975000", "183142.979000", "183142.982000", "183142.985000", "183142.989000", "183142.992000", "183142.995000", "183142.999000", "183143.002000", "183202.923000", "183202.927000", "183202.930000", "183202.934000", "183202.942000", "183202.945000", "183202.948000", "183202.952000", "183202.955000", "183202.958000", "183202.962000", "183202.965000", "183202.968000", "183202.972000", "183202.975000", "183202.978000", "183202.982000", "183202.985000", "183202.989000", "183202.992000", "183202.995000", "183242.922000", "183242.926000", "183242.929000", "183242.933000", "183242.936000", "183242.939000", "183242.943000", "183242.946000", "183242.950000", "183242.953000", "183242.956000", "183242.960000", "183242.963000", "183242.966000", "183242.970000", "183242.973000", "183242.977000", "183242.980000", "183242.983000", "183242.987000", "183242.991000", "183242.994000", "183242.997000", "183243.002000", "183243.005000", "183243.009000", "183243.012000", "183243.015000", "183243.019000", "183243.022000", "183243.025000", "183243.029000", "183322.922000", "183322.926000", "183322.930000", "183322.933000", "183322.936000", "183322.940000", "183322.943000", "183322.946000", "183322.950000", "183322.953000", "183322.956000", "183322.960000", "183322.963000", "183322.966000", "183322.970000", "183322.973000", "183322.976000", "183322.980000", "183322.983000", "183322.987000", "183322.990000", "183322.993000", "183322.997000", "183323.001000", "183323.004000", "183323.008000", "183323.011000", "183402.923000", "183402.927000", "183402.930000", "183402.934000", "183402.937000", "183402.940000", "183402.944000", "183402.947000", "183402.951000", "183402.954000", "183402.957000", "183402.961000", "183402.964000", "183402.967000", "183402.971000", "183402.974000", "183402.977000", "183402.981000", "183402.984000", "183402.987000", "183402.991000", "183402.994000", "183402.997000", "183403.002000", "183403.005000", "183403.009000", "183403.012000", "183442.922000", "183442.941000", "183442.944000", "183442.948000", "183442.951000", "183442.954000", "183442.958000", "183442.961000", "183442.964000", "183442.968000", "183442.971000", "183442.975000", "183442.978000", "183442.981000", "183442.985000", "183442.988000", "183442.992000", "183442.995000", "183442.998000", "183443.003000", "183443.006000", "183443.009000", "183443.013000", "183443.016000", "183443.020000", "183443.023000", "183443.026000", "183522.922000", "183522.926000", "183522.929000", "183522.933000", "183522.936000", "183522.939000", "183522.943000", "183522.946000", "183522.950000", "183522.953000", "183522.956000", "183522.960000", "183522.963000", "183522.966000", "183522.970000", "183522.974000", "183522.977000", "183522.981000", "183522.984000", "183522.987000", "183522.991000", "183522.995000", "183522.999000", "183523.002000", "183523.006000", "183523.009000", "183602.923000", "183602.927000", "183602.930000", "183602.934000", "183602.937000", "183602.940000", "183602.944000", "183602.947000", "183602.951000", "183602.954000", "183602.957000", "183602.961000", "183602.964000", "183602.967000", "183602.971000", "183602.974000", "183602.978000", "183602.981000", "183602.984000", "183602.988000", "183602.991000", "183602.995000", "183602.998000", "183603.001000", "183603.005000", "183603.009000", "183603.012000", "183642.923000", "183642.927000", "183642.930000", "183642.934000", "183642.937000", "183642.940000", "183642.944000", "183642.947000", "183642.951000", "183642.954000", "183642.958000", "183642.961000", "183642.964000", "183642.968000", "183642.983000", "183642.987000", "183642.990000", "183642.993000", "183642.997000", "183643.001000", "183643.005000", "183643.008000", "183643.011000", "183643.015000", "183643.018000", "183643.021000", "183643.025000", "183722.922000", "183722.926000", "183722.929000", "183722.933000", "183722.936000", "183722.939000", "183722.943000", "183722.946000", "183722.950000", "183722.953000", "183722.956000", "183722.960000", "183722.963000", "183722.967000", "183722.970000", "183722.973000", "183722.977000", "183722.980000", "183722.983000", "183722.987000", "183722.990000", "183722.993000", "183722.997000", "183723.000000", "183723.003000", "183723.007000", "183723.010000", "183802.923000", "183802.927000", "183802.930000", "183802.934000", "183802.937000", "183802.941000", "183802.944000", "183802.947000", "183802.951000", "183802.954000", "183802.958000", "183802.961000", "183802.964000", "183802.968000", "183802.971000", "183802.975000", "183802.978000", "183802.981000", "183802.985000", "183802.988000", "183802.992000", "183802.995000", "183802.998000", "183803.006000", "183803.009000", "183803.013000", "183803.016000", "183842.923000", "183842.927000", "183842.930000", "183842.934000", "183842.937000", "183842.941000", "183842.944000", "183842.947000", "183842.951000", "183842.954000", "183842.957000", "183842.961000", "183842.964000", "183842.967000", "183842.971000", "183842.974000", "183842.978000", "183842.981000", "183842.984000", "183842.988000", "183842.991000", "183842.994000", "183842.998000", "183843.001000", "183843.004000", "183843.024000", "183843.027000", "183907.106000", "183907.110000", "183907.114000", "183907.117000", "183907.120000", "183907.124000", "183907.127000", "183907.131000", "183907.134000", "183907.137000", "183907.141000", "183907.144000", "183907.147000", "183907.151000", "183907.154000", "183907.157000"],
      "InstanceCreationTime": ["183102.957000", "183102.961000", "183102.964000", "183102.968000", "183102.971000", "183102.974000", "183102.978000", "183102.981000", "183102.985000", "183102.988000", "183102.991000", "183102.995000", "183102.998000", "183103.004000", "183103.007000", "183103.011000", "183103.018000", "183103.021000", "183103.024000", "183103.028000", "183122.923000", "183122.927000", "183122.930000", "183122.933000", "183122.937000", "183122.940000", "183122.944000", "183122.947000", "183122.950000", "183122.953000", "183122.957000", "183122.960000", "183122.965000", "183122.968000", "183122.971000", "183122.975000", "183122.978000", "183122.981000", "183122.985000", "183122.988000", "183142.923000", "183142.927000", "183142.930000", "183142.933000", "183142.937000", "183142.940000", "183142.943000", "183142.947000", "183142.957000", "183142.960000", "183142.963000", "183142.975000", "183142.979000", "183142.982000", "183142.985000", "183142.989000", "183142.992000", "183142.995000", "183142.999000", "183143.002000", "183202.923000", "183202.927000", "183202.930000", "183202.934000", "183202.942000", "183202.945000", "183202.948000", "183202.952000", "183202.955000", "183202.958000", "183202.962000", "183202.965000", "183202.968000", "183202.972000", "183202.975000", "183202.978000", "183202.982000", "183202.985000", "183202.989000", "183202.992000", "183202.995000", "183242.922000", "183242.926000", "183242.929000", "183242.933000", "183242.936000", "183242.939000", "183242.943000", "183242.946000", "183242.950000", "183242.953000", "183242.956000", "183242.960000", "183242.963000", "183242.966000", "183242.970000", "183242.973000", "183242.977000", "183242.980000", "183242.983000", "183242.987000", "183242.991000", "183242.994000", "183242.997000", "183243.002000", "183243.005000", "183243.009000", "183243.012000", "183243.015000", "183243.019000", "183243.022000", "183243.025000", "183243.029000", "183322.922000", "183322.926000", "183322.930000", "183322.933000", "183322.936000", "183322.940000", "183322.943000", "183322.946000", "183322.950000", "183322.953000", "183322.956000", "183322.960000", "183322.963000", "183322.966000", "183322.970000", "183322.973000", "183322.976000", "183322.980000", "183322.983000", "183322.987000", "183322.990000", "183322.993000", "183322.997000", "183323.001000", "183323.004000", "183323.008000", "183323.011000", "183402.923000", "183402.927000", "183402.930000", "183402.934000", "183402.937000", "183402.940000", "183402.944000", "183402.947000", "183402.951000", "183402.954000", "183402.957000", "183402.961000", "183402.964000", "183402.967000", "183402.971000", "183402.974000", "183402.977000", "183402.981000", "183402.984000", "183402.987000", "183402.991000", "183402.994000", "183402.997000", "183403.002000", "183403.005000", "183403.009000", "183403.012000", "183442.922000", "183442.941000", "183442.944000", "183442.948000", "183442.951000", "183442.954000", "183442.958000", "183442.961000", "183442.964000", "183442.968000", "183442.971000", "183442.975000", "183442.978000", "183442.981000", "183442.985000", "183442.988000", "183442.992000", "183442.995000", "183442.998000", "183443.003000", "183443.006000", "183443.009000", "183443.013000", "183443.016000", "183443.020000", "183443.023000", "183443.026000", "183522.922000", "183522.926000", "183522.929000", "183522.933000", "183522.936000", "183522.939000", "183522.943000", "183522.946000", "183522.950000", "183522.953000", "183522.956000", "183522.960000", "183522.963000", "183522.966000", "183522.970000", "183522.974000", "183522.977000", "183522.981000", "183522.984000", "183522.987000", "183522.991000", "183522.995000", "183522.999000", "183523.002000", "183523.006000", "183523.009000", "183602.923000", "183602.927000", "183602.930000", "183602.934000", "183602.937000", "183602.940000", "183602.944000", "183602.947000", "183602.951000", "183602.954000", "183602.957000", "183602.961000", "183602.964000", "183602.967000", "183602.971000", "183602.974000", "183602.978000", "183602.981000", "183602.984000", "183602.988000", "183602.991000", "183602.995000", "183602.998000", "183603.001000", "183603.005000", "183603.009000", "183603.012000", "183642.923000", "183642.927000", "183642.930000", "183642.934000", "183642.937000", "183642.940000", "183642.944000", "183642.947000", "183642.951000", "183642.954000", "183642.958000", "183642.961000", "183642.964000", "183642.968000", "183642.983000", "183642.987000", "183642.990000", "183642.993000", "183642.997000", "183643.001000", "183643.005000", "183643.008000", "183643.011000", "183643.015000", "183643.018000", "183643.021000", "183643.025000", "183722.922000", "183722.926000", "183722.929000", "183722.933000", "183722.936000", "183722.939000", "183722.943000", "183722.946000", "183722.950000", "183722.953000", "183722.956000", "183722.960000", "183722.963000", "183722.967000", "183722.970000", "183722.973000", "183722.977000", "183722.980000", "183722.983000", "183722.987000", "183722.990000", "183722.993000", "183722.997000", "183723.000000", "183723.003000", "183723.007000", "183723.010000", "183802.923000", "183802.927000", "183802.930000", "183802.934000", "183802.937000", "183802.941000", "183802.944000", "183802.947000", "183802.951000", "183802.954000", "183802.958000", "183802.961000", "183802.964000", "183802.968000", "183802.971000", "183802.975000", "183802.978000", "183802.981000", "183802.985000", "183802.988000", "183802.992000", "183802.995000", "183802.998000", "183803.006000", "183803.009000", "183803.013000", "183803.016000", "183842.923000", "183842.927000", "183842.930000", "183842.934000", "183842.937000", "183842.941000", "183842.944000", "183842.947000", "183842.951000", "183842.954000", "183842.957000", "183842.961000", "183842.964000", "183842.967000", "183842.971000", "183842.974000", "183842.978000", "183842.981000", "183842.984000", "183842.988000", "183842.991000", "183842.994000", "183842.998000", "183843.001000", "183843.004000", "183843.024000", "183843.027000", "183907.106000", "183907.110000", "183907.114000", "183907.117000", "183907.120000", "183907.124000", "183907.127000", "183907.131000", "183907.134000", "183907.137000", "183907.141000", "183907.144000", "183907.147000", "183907.151000", "183907.154000", "183907.157000"],
      "InstanceNumber": [1, 2, 3, 4, 5, 6, 7, 8, 9, 10, 11, 12, 13, 14, 15, 16, 17, 18, 19, 20, 21, 22, 23, 24, 25, 26, 27, 28, 29, 30, 31, 32, 33, 34, 35, 36, 37, 38, 39, 40, 41, 42, 43, 44, 45, 46, 47, 48, 49, 50, 51, 52, 53, 54, 55, 56, 57, 58, 59, 60, 61, 62, 63, 64, 65, 66, 67, 68, 69, 70, 71, 72, 73, 74, 75, 76, 77, 78, 79, 80, 81, 82, 83, 84, 85, 86, 87, 88, 89, 90, 91, 92, 93, 94, 95, 96, 97, 98, 99, 100, 101, 102, 103, 104, 105, 106, 107, 108, 109, 110, 111, 112, 113, 114, 115, 116, 117, 118, 119, 120, 121, 122, 123, 124, 125, 126, 127, 128, 129, 130, 131, 132, 133, 134, 135, 136, 137, 138, 139, 140, 141, 142, 143, 144, 145, 146, 147, 148, 149, 150, 151, 152, 153, 154, 155, 156, 157, 158, 159, 160, 161, 162, 163, 164, 165, 166, 167, 168, 169, 170, 171, 172, 173, 174, 175, 176, 177, 178, 179, 180, 181, 182, 183, 184, 185, 186, 187, 188, 189, 190, 191, 192, 193, 194, 195, 196, 197, 198, 199, 200, 201, 202, 203, 204, 205, 206, 207, 208, 209, 210, 211, 212, 213, 214, 215, 216, 217, 218, 219, 220, 221, 222, 223, 224, 225, 226, 227, 228, 229, 230, 231, 232, 233, 234, 235, 236, 237, 238, 239, 240, 241, 242, 243, 244, 245, 246, 247, 248, 249, 250, 251, 252, 253, 254, 255, 256, 257, 258, 259, 260, 261, 262, 263, 264, 265, 266, 267, 268, 269, 270, 271, 272, 273, 274, 275, 276, 277, 278, 279, 280, 281, 282, 283, 284, 285, 286, 287, 288, 289, 290, 291, 292, 293, 294, 295, 296, 297, 298, 299, 300, 301, 302, 303, 304, 305, 306, 307, 308, 309, 310, 311, 312, 313, 314, 315, 316, 317, 318, 319, 320, 321, 322, 323, 324, 325, 326, 327, 328, 329, 330, 331, 332, 333, 334, 335, 336, 337, 338, 339, 340, 341, 342, 343, 344, 345, 346, 347, 348, 349, 350, 351, 352, 353, 354, 355, 356, 357, 358, 359, 360, 361, 362, 363, 364, 365, 366, 367, 368, 369, 370, 371],
