{
  "AcquisitionMatrixPE": 104,
  "AcquisitionNumber": 1,
  "AcquisitionTime": "18:17:51.727500",
  "BandwidthPerPixelPhaseEncode": 17.17,
  "BaseResolution": 104,
  "BodyPartExamined": "BRAIN",
  "CoilCombinationMethod": "Sum of Squares",
  "ConsistencyInfo": "N4_VE11C_LATEST_20160120",
  "ConversionSoftware": "dcm2niix",
  "ConversionSoftwareVersion": "v1.0.20220505",
  "DerivedVendorReportedEchoSpacing": 0.000560011,
  "DeviceSerialNumber": "167006",
  "DwellTime": 2.1e-06,
  "EchoTime": 0.037,
  "EchoTime1": 0.037,
  "EchoTime2": 0.001,
  "EchoTrainLength": 104,
  "EffectiveEchoSpacing": 0.000560011,
  "FlipAngle": 52,
  "HeudiconvVersion": "0.5.3.post811+g6206e14",
  "ImageComments": "Unaliased MB4/PE3/LB",
  "ImageOrientationPatientDICOM": [0.995648, 0.0881339, 0.0302944, -0.07364, 0.943233, -0.323865],
  "ImageOrientationText": "Tra>Cor(-18.7)>Sag(3.3)",
  "ImageType": [
    "ORIGINAL",
    "PRIMARY",
    "P",
    "MB",
    "ND",
    "MOSAIC",
    "PHASE"
],
  "ImagingFrequency": 123.26,
  "InPlanePhaseEncodingDirectionDICOM": "COL",
  "InstitutionAddress": "Chemin Queen-Mary 4565,Montreal,District,CA,H3W 1W5",
  "InstitutionName": "IUGM",
  "InstitutionalDepartmentName": "Department",
  "MRAcquisitionType": "2D",
  "MagneticFieldStrength": 3,
  "Manufacturer": "Siemens",
  "ManufacturersModelName": "Prisma_fit",
  "MatrixCoilMode": "SENSE",
  "Modality": "MR",
  "MultibandAccelerationFactor": 4,
  "PartialFourier": 1,
  "PatientPosition": "HFS",
  "PercentPhaseFOV": 100,
  "PercentSampling": 100,
  "PhaseEncodingDirection": "j",
  "PhaseEncodingSteps": 104,
  "PhaseResolution": 1,
  "PixelBandwidth": 2290,
  "ProcedureStepDescription": "games^mario3",
  "ProtocolName": "func_task-mario3_run-01",
  "PulseSequenceDetails": "%CustomerSeq%\\cmrr_mbep2d_bold",
  "ReceiveCoilActiveElements": "HC1-7;NC1,2",
  "ReceiveCoilName": "HeadNeck_64",
  "ReconMatrixPE": 104,
  "RepetitionTime": 1.49,
  "SAR": 0.0671982,
  "ScanOptions": "FS",
  "ScanningSequence": "EP",
  "SequenceName": "epfid2d1_104",
  "SequenceVariant": "SK\\SS",
  "SeriesDescription": "func_task-mario3_run-01",
  "SeriesNumber": 11,
  "ShimSetting": [622, -7203, -8824, 661, 134, -5, -48, 7],
  "SliceThickness": 2,
  "SliceTiming": [0, 0.785, 0.0975, 0.8825, 0.1975, 0.98, 0.295, 1.0775, 0.3925, 1.1775, 0.49, 1.275, 0.5875, 1.3725, 0.6875, 0, 0.785, 0.0975, 0.8825, 0.1975, 0.98, 0.295, 1.0775, 0.3925, 1.1775, 0.49, 1.275, 0.5875, 1.3725, 0.6875, 0, 0.785, 0.0975, 0.8825, 0.1975, 0.98, 0.295, 1.0775, 0.3925, 1.1775, 0.49, 1.275, 0.5875, 1.3725, 0.6875, 0, 0.785, 0.0975, 0.8825, 0.1975, 0.98, 0.295, 1.0775, 0.3925, 1.1775, 0.49, 1.275, 0.5875, 1.3725, 0.6875],
  "SoftwareVersions": "syngo MR E11",
  "SpacingBetweenSlices": 2,
  "StationName": "MRC35049",
  "TaskName": "mario3",
  "TotalReadoutTime": 0.0576811,
  "TxRefAmp": 280.397,
  "WipMemBlock": "af114602-bb98-4dc7-8279-ae04ea97edd0||Sequence: R017 ve11c/master r/75a17815+; Jun 28 2022 16:32:11 by eja",
  "dcmmeta_affine": [
    [-1.9912956953048706, -0.14727991819381714, 0.11423639953136444, 110.41600799560547],
    [-0.17626775801181793, 1.8864659070968628, -0.6404499411582947, -63.15056228637695],
    [0.06058883294463158, 0.6477307081222534, 1.8912360668182373, -66.97634887695312],
    [0.0, 0.0, 0.0, 1.0]
],
  "dcmmeta_reorient_transform": [
    [0.0, -1.0, 0.0, 103.0],
    [1.0, 0.0, 0.0, 0.0],
    [0.0, 0.0, 1.0, 0.0],
    [0.0, 0.0, 0.0, 1.0]
],
  "dcmmeta_shape": [104, 104, 60, 336],
  "dcmmeta_slice_dim": 2,
  "dcmmeta_version": 0.6,
  "global": {
    "const": {
      "AcquisitionMatrix": [104, 0, 0, 104],
      "AngioFlag": "N",
      "BitsAllocated": 16,
      "BitsStored": 16,
      "BodyPartExamined": "BRAIN",
      "Columns": 832,
      "EchoNumbers": 1,
      "EchoTime": 37.0,
      "EchoTrainLength": 104,
      "FlipAngle": 52.0,
      "HighBit": 15,
      "ImageOrientationPatient": [0.99564786341797, 0.08813387749081, 0.03029441713692, -0.0736399566284, 0.9432329496714, -0.3238653415263],
      "ImagePositionPatient": [-766.46793654697, -881.99047450621, 213.45954524005],
      "ImageType": [
        "ORIGINAL",
        "PRIMARY",
        "P",
        "MB",
        "ND",
        "MOSAIC"
],
      "ImagedNucleus": "1H",
      "ImagingFrequency": 123.260273,
      "InPlanePhaseEncodingDirection": "COL",
      "LargestImagePixelValue": 4095,
      "MRAcquisitionType": "2D",
      "MagneticFieldStrength": 3.0,
      "Manufacturer": "SIEMENS",
      "ManufacturerModelName": "Prisma_fit",
      "Modality": "MR",
      "NumberOfAverages": 1.0,
      "NumberOfPhaseEncodingSteps": 104,
      "PercentPhaseFieldOfView": 100.0,
      "PercentSampling": 100.0,
      "PerformedProcedureStepStartTime": "181429.450000",
      "PhotometricInterpretation": "MONOCHROME2",
      "PixelBandwidth": 2290.0,
      "PixelRepresentation": 0,
      "PixelSpacing": [2.0, 2.0],
      "ProtocolName": "func_task-mario3_run-01",
      "RepetitionTime": 1490.0,
      "RescaleIntercept": -4096.0,
      "RescaleSlope": 2.0,
      "RescaleType": "US",
      "Rows": 832,
      "SAR": 0.06719820894299,
      "SamplesPerPixel": 1,
      "ScanOptions": "FS",
      "ScanningSequence": "EP",
      "SequenceName": "epfid2d1_104",
      "SequenceVariant": [
        "SK",
        "SS"
],
      "SeriesDescription": "func_task-mario3_run-01",
      "SeriesNumber": 11,
      "SeriesTime": "181858.014000",
      "SliceLocation": -36.804893137182,
      "SliceThickness": 2.0,
      "SmallestImagePixelValue": 0,
      "SoftwareVersions": "syngo MR E11",
      "SpacingBetweenSlices": 2.0000000195549,
      "SpecificCharacterSet": "ISO_IR 100",
      "StudyID": "1",
      "StudyTime": "181429.382000",
      "TransmitCoilName": "Body",
      "VariableFlipAngleFlag": "N",
      "WindowCenterWidthExplanation": "Algo1",
      "dBdt": 0.0},
    "slices": {}
  },
  "time": {
    "samples": {
      "AcquisitionNumber": [1, 2, 3, 4, 5, 6, 7, 8, 9, 10, 11, 12, 13, 14, 15, 16, 17, 18, 19, 20, 21, 22, 23, 24, 25, 26, 27, 28, 29, 30, 31, 32, 33, 34, 35, 36, 37, 38, 39, 40, 41, 42, 43, 44, 45, 46, 47, 48, 49, 50, 51, 52, 53, 54, 55, 56, 57, 58, 59, 60, 61, 62, 63, 64, 65, 66, 67, 68, 69, 70, 71, 72, 73, 74, 75, 76, 77, 78, 79, 80, 81, 82, 83, 84, 85, 86, 87, 88, 89, 90, 91, 92, 93, 94, 95, 96, 97, 98, 99, 100, 101, 102, 103, 104, 105, 106, 107, 108, 109, 110, 111, 112, 113, 114, 115, 116, 117, 118, 119, 120, 121, 122, 123, 124, 125, 126, 127, 128, 129, 130, 131, 132, 133, 134, 135, 136, 137, 138, 139, 140, 141, 142, 143, 144, 145, 146, 147, 148, 149, 150, 151, 152, 153, 154, 155, 156, 157, 158, 159, 160, 161, 162, 163, 164, 165, 166, 167, 168, 169, 170, 171, 172, 173, 174, 175, 176, 177, 178, 179, 180, 181, 182, 183, 184, 185, 186, 187, 188, 189, 190, 191, 192, 193, 194, 195, 196, 197, 198, 199, 200, 201, 202, 203, 204, 205, 206, 207, 208, 209, 210, 211, 212, 213, 214, 215, 216, 217, 218, 219, 220, 221, 222, 223, 224, 225, 226, 227, 228, 229, 230, 231, 232, 233, 234, 235, 236, 237, 238, 239, 240, 241, 242, 243, 244, 245, 246, 247, 248, 249, 250, 251, 252, 253, 254, 255, 256, 257, 258, 259, 260, 261, 262, 263, 264, 265, 266, 267, 268, 269, 270, 271, 272, 273, 274, 275, 276, 277, 278, 279, 280, 281, 282, 283, 284, 285, 286, 287, 288, 289, 290, 291, 292, 293, 294, 295, 296, 297, 298, 299, 300, 301, 302, 303, 304, 305, 306, 307, 308, 309, 310, 311, 312, 313, 314, 315, 316, 317, 318, 319, 320, 321, 322, 323, 324, 325, 326, 327, 328, 329, 330, 331, 332, 333, 334, 335, 336],
      "AcquisitionTime": ["181751.727500", "181753.217500", "181754.707500", "181756.197500", "181757.687500", "181759.177500", "181800.667500", "181802.157500", "181803.647500", "181805.137500", "181806.627500", "181808.117500", "181809.607500", "181811.097500", "181812.587500", "181814.077500", "181815.567500", "181817.057500", "181818.547500", "181820.037500", "181821.527500", "181823.017500", "181824.507500", "181825.997500", "181827.487500", "181828.977500", "181830.467500", "181831.957500", "181833.447500", "181834.937500", "181836.427500", "181837.917500", "181839.407500", "181840.897500", "181842.387500", "181843.877500", "181845.367500", "181846.857500", "181848.347500", "181849.837500", "181851.327500", "181852.817500", "181854.307500", "181855.797500", "181857.287500", "181858.777500", "181900.267500", "181901.757500", "181903.247500", "181904.737500", "181906.227500", "181907.717500", "181909.207500", "181910.697500", "181912.187500", "181913.677500", "181915.167500", "181916.657500", "181918.147500", "181919.637500", "181921.127500", "181922.617500", "181924.107500", "181925.597500", "181927.087500", "181928.577500", "181930.067500", "181931.557500", "181933.047500", "181934.537500", "181936.027500", "181937.517500", "181939.007500", "181940.497500", "181941.987500", "181943.477500", "181944.967500", "181946.457500", "181947.947500", "181949.437500", "181950.927500", "181952.417500", "181953.907500", "181955.397500", "181956.887500", "181958.377500", "181959.867500", "182001.357500", "182002.847500", "182004.337500", "182005.827500", "182007.317500", "182008.807500", "182010.297500", "182011.787500", "182013.277500", "182014.767500", "182016.257500", "182017.747500", "182019.237500", "182020.727500", "182022.217500", "182023.707500", "182025.197500", "182026.687500", "182028.177500", "182029.667500", "182031.157500", "182032.647500", "182034.137500", "182035.627500", "182037.117500", "182038.607500", "182040.097500", "182041.587500", "182043.077500", "182044.567500", "182046.057500", "182047.547500", "182049.037500", "182050.527500", "182052.017500", "182053.507500", "182054.997500", "182056.487500", "182057.977500", "182059.467500", "182100.957500", "182102.447500", "182103.937500", "182105.427500", "182106.917500", "182108.407500", "182109.897500", "182111.387500", "182112.877500", "182114.367500", "182115.857500", "182117.347500", "182118.837500", "182120.327500", "182121.817500", "182123.307500", "182124.797500", "182126.287500", "182127.777500", "182129.267500", "182130.757500", "182132.247500", "182133.737500", "182135.227500", "182136.717500", "182138.207500", "182139.697500", "182141.187500", "182142.677500", "182144.167500", "182145.657500", "182147.147500", "182148.637500", "182150.127500", "182151.617500", "182153.107500", "182154.597500", "182156.087500", "182157.577500", "182159.067500", "182200.557500", "182202.047500", "182203.537500", "182205.027500", "182206.517500", "182208.007500", "182209.497500", "182210.987500", "182212.477500", "182213.967500", "182215.457500", "182216.947500", "182218.437500", "182219.927500", "182221.417500", "182222.907500", "182224.397500", "182225.887500", "182227.377500", "182228.867500", "182230.357500", "182231.847500", "182233.337500", "182234.827500", "182236.317500", "182237.807500", "182239.297500", "182240.787500", "182242.277500", "182243.767500", "182245.257500", "182246.747500", "182248.237500", "182249.727500", "182251.217500", "182252.707500", "182254.197500", "182255.687500", "182257.177500", "182258.667500", "182300.157500", "182301.647500", "182303.137500", "182304.627500", "182306.117500", "182307.607500", "182309.097500", "182310.587500", "182312.077500", "182313.567500", "182315.057500", "182316.547500", "182318.037500", "182319.527500", "182321.017500", "182322.507500", "182323.997500", "182325.487500", "182326.977500", "182328.467500", "182329.957500", "182331.447500", "182332.937500", "182334.427500", "182335.917500", "182337.407500", "182338.897500", "182340.387500", "182341.877500", "182343.367500", "182344.857500", "182346.347500", "182347.837500", "182349.327500", "182350.817500", "182352.307500", "182353.797500", "182355.287500", "182356.777500", "182358.267500", "182359.757500", "182401.247500", "182402.737500", "182404.227500", "182405.717500", "182407.207500", "182408.697500", "182410.187500", "182411.677500", "182413.167500", "182414.657500", "182416.147500", "182417.637500", "182419.127500", "182420.617500", "182422.107500", "182423.597500", "182425.087500", "182426.577500", "182428.067500", "182429.557500", "182431.047500", "182432.537500", "182434.027500", "182435.517500", "182437.007500", "182438.497500", "182439.987500", "182441.477500", "182442.967500", "182444.457500", "182445.947500", "182447.437500", "182448.927500", "182450.417500", "182451.907500", "182453.397500", "182454.887500", "182456.377500", "182457.867500", "182459.357500", "182500.847500", "182502.337500", "182503.827500", "182505.317500", "182506.807500", "182508.297500", "182509.787500", "182511.277500", "182512.767500", "182514.257500", "182515.747500", "182517.237500", "182518.727500", "182520.217500", "182521.707500", "182523.197500", "182524.687500", "182526.177500", "182527.667500", "182529.157500", "182530.647500", "182532.137500", "182533.627500", "182535.117500", "182536.607500", "182538.097500", "182539.587500", "182541.077500", "182542.567500", "182544.057500", "182545.547500", "182547.037500", "182548.527500", "182550.017500", "182551.507500", "182552.997500", "182554.487500", "182555.977500", "182557.467500", "182558.957500", "182600.447500", "182601.937500", "182603.427500", "182604.917500", "182606.407500", "182607.897500", "182609.387500", "182610.877500"],
      "ContentTime": ["181858.016000", "181858.019000", "181858.021000", "181858.024000", "181858.026000", "181858.029000", "181858.031000", "181858.034000", "181858.036000", "181858.039000", "181858.041000", "181858.044000", "181858.046000", "181858.049000", "181858.052000", "181858.054000", "181858.057000", "181858.060000", "181918.479000", "181918.482000", "181918.485000", "181918.488000", "181918.490000", "181918.493000", "181918.495000", "181918.498000", "181918.500000", "181918.503000", "181918.506000", "181918.508000", "181918.511000", "181918.523000", "181918.526000", "181918.528000", "181918.531000", "181918.533000", "181918.536000", "181918.538000", "181918.541000", "181937.973000", "181937.975000", "181937.978000", "181937.981000", "181937.983000", "181937.986000", "181937.994000", "181937.997000", "181938.001000", "181938.003000", "181938.005000", "181938.008000", "181938.011000", "181938.013000", "181938.016000", "181938.018000", "181938.021000", "181938.023000", "181938.026000", "181938.029000", "181957.955000", "181957.957000", "181957.960000", "181957.962000", "181957.965000", "181957.968000", "181957.970000", "181957.973000", "181957.975000", "181957.978000", "181957.981000", "181957.983000", "181957.986000", "181957.988000", "181957.991000", "181957.994000", "181957.996000", "181958.000000", "181958.002000", "181958.005000", "182038.010000", "182038.013000", "182038.015000", "182038.018000", "182038.020000", "182038.023000", "182038.025000", "182038.028000", "182038.031000", "182038.033000", "182038.036000", "182038.038000", "182038.041000", "182038.043000", "182038.046000", "182038.049000", "182038.051000", "182038.054000", "182038.057000", "182038.059000", "182038.062000", "182038.067000", "182038.070000", "182038.073000", "182038.075000", "182038.078000", "182038.080000", "182038.083000", "182038.085000", "182038.088000", "182038.090000", "182117.984000", "182117.987000", "182117.989000", "182117.992000", "182117.995000", "182117.997000", "182118.000000", "182118.002000", "182118.005000", "182118.007000", "182118.010000", "182118.013000", "182118.015000", "182118.018000", "182118.020000", "182118.037000", "182118.040000", "182118.042000", "182118.045000", "182118.047000", "182118.050000", "182118.052000", "182118.055000", "182118.057000", "182118.061000", "182118.064000", "182118.067000", "182157.985000", "182157.988000", "182157.991000", "182157.993000", "182157.996000", "182157.998000", "182158.002000", "182158.005000", "182158.007000", "182158.010000", "182158.013000", "182158.015000", "182158.018000", "182158.021000", "182158.023000", "182158.026000", "182158.028000", "182158.031000", "182158.033000", "182158.036000", "182158.038000", "182158.041000", "182158.043000", "182158.046000", "182158.048000", "182158.051000", "182158.054000", "182237.989000", "182237.991000", "182237.994000", "182237.997000", "182238.000000", "182238.003000", "182238.005000", "182238.008000", "182238.010000", "182238.013000", "182238.016000", "182238.018000", "182238.021000", "182238.023000", "182238.026000", "182238.028000", "182238.031000", "182238.033000", "182238.036000", "182238.038000", "182238.041000", "182238.044000", "182238.046000", "182238.049000", "182238.052000", "182238.054000", "182238.057000", "182317.979000", "182317.982000", "182317.985000", "182317.987000", "182317.990000", "182317.992000", "182317.995000", "182317.997000", "182318.000000", "182318.002000", "182318.005000", "182318.008000", "182318.010000", "182318.013000", "182318.015000", "182318.018000", "182318.020000", "182318.023000", "182318.025000", "182318.028000", "182318.030000", "182318.033000", "182318.035000", "182318.038000", "182318.040000", "182318.043000", "182318.046000", "182357.992000", "182357.995000", "182357.998000", "182358.001000", "182358.004000", "182358.006000", "182358.009000", "182358.011000", "182358.014000", "182358.017000", "182358.019000", "182358.022000", "182358.024000", "182358.027000", "182358.029000", "182358.032000", "182358.034000", "182358.037000", "182358.040000", "182358.042000", "182358.045000", "182358.047000", "182358.050000", "182358.052000", "182358.055000", "182358.058000", "182358.060000", "182437.977000", "182437.980000", "182437.983000", "182437.985000", "182437.988000", "182437.990000", "182437.993000", "182437.995000", "182437.998000", "182438.001000", "182438.004000", "182438.006000", "182438.009000", "182438.012000", "182438.014000", "182438.017000", "182438.019000", "182438.022000", "182438.024000", "182438.027000", "182438.029000", "182438.032000", "182438.034000", "182438.037000", "182438.040000", "182438.042000", "182517.979000", "182517.982000", "182517.985000", "182517.987000", "182517.990000", "182517.992000", "182517.995000", "182517.997000", "182518.001000", "182518.011000", "182518.014000", "182518.016000", "182518.019000", "182518.021000", "182518.024000", "182518.027000", "182518.029000", "182518.032000", "182518.034000", "182518.037000", "182518.039000", "182518.042000", "182518.044000", "182518.047000", "182518.050000", "182518.052000", "182518.055000", "182558.000000", "182558.002000", "182558.005000", "182558.008000", "182558.010000", "182558.013000", "182558.015000", "182558.018000", "182558.020000", "182558.023000", "182558.025000", "182558.028000", "182558.031000", "182558.033000", "182558.036000", "182558.038000", "182558.041000", "182558.044000", "182558.046000", "182558.049000", "182558.051000", "182558.054000", "182558.056000", "182558.059000", "182558.061000", "182558.064000", "182558.067000", "182614.301000", "182614.303000", "182614.306000", "182614.309000", "182614.311000", "182614.314000", "182614.316000", "182614.319000", "182614.322000", "182614.324000", "182614.327000"],
      "InstanceCreationTime": ["181858.016000", "181858.019000", "181858.021000", "181858.024000", "181858.026000", "181858.029000", "181858.031000", "181858.034000", "181858.036000", "181858.039000", "181858.041000", "181858.044000", "181858.046000", "181858.049000", "181858.052000", "181858.054000", "181858.057000", "181858.060000", "181918.479000", "181918.482000", "181918.485000", "181918.488000", "181918.490000", "181918.493000", "181918.495000", "181918.498000", "181918.500000", "181918.503000", "181918.506000", "181918.508000", "181918.511000", "181918.523000", "181918.526000", "181918.528000", "181918.531000", "181918.533000", "181918.536000", "181918.538000", "181918.541000", "181937.973000", "181937.975000", "181937.978000", "181937.981000", "181937.983000", "181937.986000", "181937.994000", "181937.997000", "181938.001000", "181938.003000", "181938.005000", "181938.008000", "181938.011000", "181938.013000", "181938.016000", "181938.018000", "181938.021000", "181938.023000", "181938.026000", "181938.029000", "181957.955000", "181957.957000", "181957.960000", "181957.962000", "181957.965000", "181957.968000", "181957.970000", "181957.973000", "181957.975000", "181957.978000", "181957.981000", "181957.983000", "181957.986000", "181957.988000", "181957.991000", "181957.994000", "181957.996000", "181958.000000", "181958.002000", "181958.005000", "182038.010000", "182038.013000", "182038.015000", "182038.018000", "182038.020000", "182038.023000", "182038.025000", "182038.028000", "182038.031000", "182038.033000", "182038.036000", "182038.038000", "182038.041000", "182038.043000", "182038.046000", "182038.049000", "182038.051000", "182038.054000", "182038.057000", "182038.059000", "182038.062000", "182038.067000", "182038.070000", "182038.073000", "182038.075000", "182038.078000", "182038.080000", "182038.083000", "182038.085000", "182038.088000", "182038.090000", "182117.984000", "182117.987000", "182117.989000", "182117.992000", "182117.995000", "182117.997000", "182118.000000", "182118.002000", "182118.005000", "182118.007000", "182118.010000", "182118.013000", "182118.015000", "182118.018000", "182118.020000", "182118.037000", "182118.040000", "182118.042000", "182118.045000", "182118.047000", "182118.050000", "182118.052000", "182118.055000", "182118.057000", "182118.061000", "182118.064000", "182118.067000", "182157.985000", "182157.988000", "182157.991000", "182157.993000", "182157.996000", "182157.998000", "182158.002000", "182158.005000", "182158.007000", "182158.010000", "182158.013000", "182158.015000", "182158.018000", "182158.021000", "182158.023000", "182158.026000", "182158.028000", "182158.031000", "182158.033000", "182158.036000", "182158.038000", "182158.041000", "182158.043000", "182158.046000", "182158.048000", "182158.051000", "182158.054000", "182237.989000", "182237.991000", "182237.994000", "182237.997000", "182238.000000", "182238.003000", "182238.005000", "182238.008000", "182238.010000", "182238.013000", "182238.016000", "182238.018000", "182238.021000", "182238.023000", "182238.026000", "182238.028000", "182238.031000", "182238.033000", "182238.036000", "182238.038000", "182238.041000", "182238.044000", "182238.046000", "182238.049000", "182238.052000", "182238.054000", "182238.057000", "182317.979000", "182317.982000", "182317.985000", "182317.987000", "182317.990000", "182317.992000", "182317.995000", "182317.997000", "182318.000000", "182318.002000", "182318.005000", "182318.008000", "182318.010000", "182318.013000", "182318.015000", "182318.018000", "182318.020000", "182318.023000", "182318.025000", "182318.028000", "182318.030000", "182318.033000", "182318.035000", "182318.038000", "182318.040000", "182318.043000", "182318.046000", "182357.992000", "182357.995000", "182357.998000", "182358.001000", "182358.004000", "182358.006000", "182358.009000", "182358.011000", "182358.014000", "182358.017000", "182358.019000", "182358.022000", "182358.024000", "182358.027000", "182358.029000", "182358.032000", "182358.034000", "182358.037000", "182358.040000", "182358.042000", "182358.045000", "182358.047000", "182358.050000", "182358.052000", "182358.055000", "182358.058000", "182358.060000", "182437.977000", "182437.980000", "182437.983000", "182437.985000", "182437.988000", "182437.990000", "182437.993000", "182437.995000", "182437.998000", "182438.001000", "182438.004000", "182438.006000", "182438.009000", "182438.012000", "182438.014000", "182438.017000", "182438.019000", "182438.022000", "182438.024000", "182438.027000", "182438.029000", "182438.032000", "182438.034000", "182438.037000", "182438.040000", "182438.042000", "182517.979000", "182517.982000", "182517.985000", "182517.987000", "182517.990000", "182517.992000", "182517.995000", "182517.997000", "182518.001000", "182518.011000", "182518.014000", "182518.016000", "182518.019000", "182518.021000", "182518.024000", "182518.027000", "182518.029000", "182518.032000", "182518.034000", "182518.037000", "182518.039000", "182518.042000", "182518.044000", "182518.047000", "182518.050000", "182518.052000", "182518.055000", "182558.000000", "182558.002000", "182558.005000", "182558.008000", "182558.010000", "182558.013000", "182558.015000", "182558.018000", "182558.020000", "182558.023000", "182558.025000", "182558.028000", "182558.031000", "182558.033000", "182558.036000", "182558.038000", "182558.041000", "182558.044000", "182558.046000", "182558.049000", "182558.051000", "182558.054000", "182558.056000", "182558.059000", "182558.061000", "182558.064000", "182558.067000", "182614.301000", "182614.303000", "182614.306000", "182614.309000", "182614.311000", "182614.314000", "182614.316000", "182614.319000", "182614.322000", "182614.324000", "182614.327000"],
      "InstanceNumber": [1, 2, 3, 4, 5, 6, 7, 8, 9, 10, 11, 12, 13, 14, 15, 16, 17, 18, 19, 20, 21, 22, 23, 24, 25, 26, 27, 28, 29, 30, 31, 32, 33, 34, 35, 36, 37, 38, 39, 40, 41, 42, 43, 44, 45, 46, 47, 48, 49, 50, 51, 52, 53, 54, 55, 56, 57, 58, 59, 60, 61, 62, 63, 64, 65, 66, 67, 68, 69, 70, 71, 72, 73, 74, 75, 76, 77, 78, 79, 80, 81, 82, 83, 84, 85, 86, 87, 88, 89, 90, 91, 92, 93, 94, 95, 96, 97, 98, 99, 100, 101, 102, 103, 104, 105, 106, 107, 108, 109, 110, 111, 112, 113, 114, 115, 116, 117, 118, 119, 120, 121, 122, 123, 124, 125, 126, 127, 128, 129, 130, 131, 132, 133, 134, 135, 136, 137, 138, 139, 140, 141, 142, 143, 144, 145, 146, 147, 148, 149, 150, 151, 152, 153, 154, 155, 156, 157, 158, 159, 160, 161, 162, 163, 164, 165, 166, 167, 168, 169, 170, 171, 172, 173, 174, 175, 176, 177, 178, 179, 180, 181, 182, 183, 184, 185, 186, 187, 188, 189, 190, 191, 192, 193, 194, 195, 196, 197, 198, 199, 200, 201, 202, 203, 204, 205, 206, 207, 208, 209, 210, 211, 212, 213, 214, 215, 216, 217, 218, 219, 220, 221, 222, 223, 224, 225, 226, 227, 228, 229, 230, 231, 232, 233, 234, 235, 236, 237, 238, 239, 240, 241, 242, 243, 244, 245, 246, 247, 248, 249, 250, 251, 252, 253, 254, 255, 256, 257, 258, 259, 260, 261, 262, 263, 264, 265, 266, 267, 268, 269, 270, 271, 272, 273, 274, 275, 276, 277, 278, 279, 280, 281, 282, 283, 284, 285, 286, 287, 288, 289, 290, 291, 292, 293, 294, 295, 296, 297, 298, 299, 300, 301, 302, 303, 304, 305, 306, 307, 308, 309, 310, 311, 312, 313, 314, 315, 316, 317, 318, 319, 320, 321, 322, 323, 324, 325, 326, 327, 328, 329, 330, 331, 332, 333, 334, 335, 336],
      "WindowCenter": [4818.0, 4816.0, 4814.0, 4816.0, 4818.0, 4818.0, 4814.0, 4814.0, 4814.0, 4814.0, 4816.0, 4810.0, 4816.0, 4816.0, 4812.0, 4816.0, 4818.0, 4816.0, 4816.0, 4816.0, 4818.0, 4816.0, 4816.0, 4820.0, 4816.0, 4816.0, 4820.0, 4818.0, 4840.0, 4812.0, 4818.0, 4818.0, 4814.0, 4818.0, 4816.0, 4820.0, 4814.0, 4816.0, 4818.0, 4822.0, 4822.0, 4816.0, 4814.0, 4812.0, 4806.0, 4808.0, 4812.0, 4818.0, 4814.0, 4818.0, 4816.0, 4818.0, 4820.0, 4814.0, 4814.0, 4818.0, 4816.0, 4816.0, 4814.0, 4814.0, 4818.0, 4814.0, 4818.0, 4816.0, 4820.0, 4818.0, 4822.0, 4818.0, 4818.0, 4816.0, 4812.0, 4818.0, 4820.0, 4812.0, 4818.0, 4818.0, 4818.0, 4814.0, 4816.0, 4818.0, 4816.0, 4814.0, 4816.0, 4818.0, 4820.0, 4816.0, 4820.0, 4818.0, 4816.0, 4816.0, 4816.0, 4816.0, 4816.0, 4818.0, 4816.0, 4820.0, 4818.0, 4816.0, 4816.0, 4816.0, 4818.0, 4820.0, 4818.0, 4816.0, 4816.0, 4818.0, 4818.0, 4816.0, 4816.0, 4818.0, 4814.0, 4818.0, 4818.0, 4820.0, 4820.0, 4818.0, 4816.0, 4816.0, 4818.0, 4816.0, 4818.0, 4816.0, 4820.0, 4818.0, 4820.0, 4820.0, 4818.0, 4820.0, 4820.0, 4818.0, 4818.0, 4818.0, 4820.0, 4818.0, 4816.0, 4816.0, 4818.0, 4820.0, 4818.0, 4818.0, 4818.0, 4816.0, 4820.0, 4818.0, 4818.0, 4818.0, 4818.0, 4816.0, 4816.0, 4818.0, 4818.0, 4818.0, 4818.0, 4818.0, 4820.0, 4818.0, 4822.0, 4820.0, 4818.0, 4816.0, 4820.0, 4820.0, 4818.0, 4818.0, 4820.0, 4818.0, 4818.0, 4818.0, 4820.0, 4820.0, 4820.0, 4820.0, 4818.0, 4818.0, 4818.0, 4820.0, 4816.0, 4818.0, 4820.0, 4818.0, 4820.0, 4820.0, 4820.0, 4820.0, 4820.0, 4820.0, 4820.0, 4818.0, 4818.0, 4820.0, 4820.0, 4820.0, 4820.0, 4820.0, 4820.0, 4818.0, 4816.0, 4818.0, 4816.0, 4816.0, 4820.0, 4822.0, 4814.0, 4818.0, 4820.0, 4816.0, 4820.0, 4816.0, 4818.0, 4816.0, 4820.0, 4818.0, 4820.0, 4820.0, 4816.0, 4820.0, 4822.0, 4820.0, 4816.0, 4818.0, 4818.0, 4818.0, 4820.0, 4816.0, 4818.0, 4818.0, 4816.0, 4818.0, 4820.0, 4816.0, 4818.0, 4820.0, 4820.0, 4822.0, 4816.0, 4814.0, 4820.0, 4818.0, 4814.0, 4820.0, 4820.0, 4818.0, 4818.0, 4818.0, 4816.0, 4820.0, 4818.0, 4822.0, 4818.0, 4820.0, 4814.0, 4818.0, 4818.0, 4818.0, 4818.0, 4822.0, 4818.0, 4818.0, 4820.0, 4818.0, 4818.0, 4818.0, 4818.0, 4818.0, 4820.0, 4814.0, 4816.0, 4818.0, 4818.0, 4816.0, 4818.0, 4822.0, 4822.0, 4814.0, 4818.0, 4818.0, 4816.0, 4816.0, 4818.0, 4818.0, 4822.0, 4822.0, 4816.0, 4822.0, 4818.0, 4816.0, 4818.0, 4818.0, 4822.0, 4820.0, 4820.0, 4818.0, 4820.0, 4820.0, 4820.0, 4822.0, 4818.0, 4816.0, 4820.0, 4818.0, 4818.0, 4820.0, 4820.0, 4820.0, 4816.0, 4816.0, 4818.0, 4820.0, 4818.0, 4820.0, 4818.0, 4820.0, 4820.0, 4820.0, 4818.0, 4818.0, 4820.0, 4820.0, 4818.0, 4818.0, 4818.0, 4818.0, 4814.0, 4816.0, 4818.0, 4822.0, 4822.0, 4818.0, 4820.0, 4816.0, 4816.0, 4818.0, 4816.0, 4814.0, 4818.0, 4822.0],
