{
  "AcquisitionMatrixPE": 104,
  "AcquisitionNumber": 1,
  "AcquisitionTime": "16:34:40.075000",
  "BandwidthPerPixelPhaseEncode": 17.17,
  "BaseResolution": 104,
  "BodyPartExamined": "BRAIN",
  "CoilCombinationMethod": "Sum of Squares",
  "ConsistencyInfo": "N4_VE11C_LATEST_20160120",
  "ConversionSoftware": "dcm2niix",
  "ConversionSoftwareVersion": "v1.0.20220505",
  "DerivedVendorReportedEchoSpacing": 0.000560011,
  "DeviceSerialNumber": "167006",
  "DwellTime": 2.1e-06,
  "EchoTime": 0.037,
  "EchoTrainLength": 104,
  "EffectiveEchoSpacing": 0.000560011,
  "FlipAngle": 52,
  "HeudiconvVersion": "0.5.3.post811+g6206e14",
  "ImageComments": "Unaliased MB4/PE3/LB",
  "ImageOrientationPatientDICOM": [0.998428, -0.0492981, 0.0266542, 0.0552964, 0.943927, -0.325491],
  "ImageOrientationText": "Tra>Cor(-19.1)>Sag(0.5)",
  "ImageType": [
    "ORIGINAL",
    "PRIMARY",
    "M",
    "MB",
    "ND",
    "MOSAIC"
],
  "ImagingFrequency": 123.26,
  "InPlanePhaseEncodingDirectionDICOM": "COL",
  "InstitutionAddress": "Chemin Queen-Mary 4565,Montreal,District,CA,H3W 1W5",
  "InstitutionName": "IUGM",
  "InstitutionalDepartmentName": "Department",
  "MRAcquisitionType": "2D",
  "MagneticFieldStrength": 3,
  "Manufacturer": "Siemens",
  "ManufacturersModelName": "Prisma_fit",
  "MatrixCoilMode": "SENSE",
  "Modality": "MR",
  "MultibandAccelerationFactor": 4,
  "PartialFourier": 1,
  "PatientPosition": "HFS",
  "PercentPhaseFOV": 100,
  "PercentSampling": 100,
  "PhaseEncodingDirection": "j",
  "PhaseEncodingSteps": 104,
  "PhaseResolution": 1,
  "PixelBandwidth": 2290,
  "ProcedureStepDescription": "games^mario3",
  "ProtocolName": "func_task-mario3_run-01",
  "PulseSequenceDetails": "%CustomerSeq%\\cmrr_mbep2d_bold",
  "ReceiveCoilActiveElements": "HC1-7;NC1,2",
  "ReceiveCoilName": "HeadNeck_64",
  "ReconMatrixPE": 104,
  "RepetitionTime": 1.49,
  "SAR": 0.0625303,
  "ScanOptions": "FS",
  "ScanningSequence": "EP",
  "SequenceName": "epfid2d1_104",
  "SequenceVariant": "SK\\SS",
  "SeriesDescription": "func_task-mario3_run-01",
  "SeriesNumber": 13,
  "ShimSetting": [620, -7285, -8818, 548, 36, -254, -51, -11],
  "SliceThickness": 2,
  "SliceTiming": [0, 0.785, 0.1, 0.8825, 0.1975, 0.98, 0.295, 1.08, 0.3925, 1.1775, 0.49, 1.275, 0.59, 1.3725, 0.6875, 0, 0.785, 0.1, 0.8825, 0.1975, 0.98, 0.295, 1.08, 0.3925, 1.1775, 0.49, 1.275, 0.59, 1.3725, 0.6875, 0, 0.785, 0.1, 0.8825, 0.1975, 0.98, 0.295, 1.08, 0.3925, 1.1775, 0.49, 1.275, 0.59, 1.3725, 0.6875, 0, 0.785, 0.1, 0.8825, 0.1975, 0.98, 0.295, 1.08, 0.3925, 1.1775, 0.49, 1.275, 0.59, 1.3725, 0.6875],
  "SoftwareVersions": "syngo MR E11",
  "SpacingBetweenSlices": 2,
  "StationName": "MRC35049",
  "TaskName": "mario3",
  "TotalReadoutTime": 0.0576811,
  "TxRefAmp": 261.554,
  "WipMemBlock": "58ea3f7e-919c-4d1e-9148-bf084303d07d||Sequence: R017 ve11c/master r/75a17815+; Jun 28 2022 16:32:11 by eja",
  "dcmmeta_affine": [
    [-1.9968568086624146, 0.1105927973985672, 0.018227169290184975, 100.59275817871094],
    [0.09859614819288254, 1.887853741645813, -0.6529065370559692, -70.2121353149414],
    [0.05330849438905716, 0.6509818434715271, 1.8903387784957886, -64.48714447021484],
    [0.0, 0.0, 0.0, 1.0]
],
  "dcmmeta_reorient_transform": [
    [0.0, -1.0, 0.0, 103.0],
    [1.0, 0.0, 0.0, 0.0],
    [0.0, 0.0, 1.0, 0.0],
    [0.0, 0.0, 0.0, 1.0]
],
  "dcmmeta_shape": [104, 104, 60, 351],
  "dcmmeta_slice_dim": 2,
  "dcmmeta_version": 0.6,
  "global": {
    "const": {
      "AcquisitionMatrix": [104, 0, 0, 104],
      "AngioFlag": "N",
      "BitsAllocated": 16,
      "BitsStored": 16,
      "BodyPartExamined": "BRAIN",
      "Columns": 832,
      "EchoNumbers": 1,
      "EchoTime": 37.0,
      "EchoTrainLength": 104,
      "FlipAngle": 52.0,
      "HighBit": 15,
      "ImageOrientationPatient": [0.99842839044867, -0.0492980753971, 0.02665424747046, 0.05529639878241, 0.94392688678927, -0.3254909225739],
      "ImagePositionPatient": [-879.09546323889, -775.52657703839, 220.11708568619],
      "ImageType": [
        "ORIGINAL",
        "PRIMARY",
        "M",
        "MB",
        "ND",
        "MOSAIC"
],
      "ImagedNucleus": "1H",
      "ImagingFrequency": 123.260308,
      "InPlanePhaseEncodingDirection": "COL",
      "MRAcquisitionType": "2D",
      "MagneticFieldStrength": 3.0,
      "Manufacturer": "SIEMENS",
      "ManufacturerModelName": "Prisma_fit",
      "Modality": "MR",
      "NumberOfAverages": 1.0,
      "NumberOfPhaseEncodingSteps": 104,
      "PercentPhaseFieldOfView": 100.0,
      "PercentSampling": 100.0,
      "PerformedProcedureStepStartTime": "162307.563000",
      "PhotometricInterpretation": "MONOCHROME2",
      "PixelBandwidth": 2290.0,
      "PixelRepresentation": 0,
      "PixelSpacing": [2.0, 2.0],
      "ProtocolName": "func_task-mario3_run-01",
      "RepetitionTime": 1490.0,
      "Rows": 832,
      "SAR": 0.06253026015978,
      "SamplesPerPixel": 1,
      "ScanOptions": "FS",
      "ScanningSequence": "EP",
      "SequenceName": "epfid2d1_104",
      "SequenceVariant": [
        "SK",
        "SS"
],
      "SeriesDescription": "func_task-mario3_run-01",
      "SeriesNumber": 13,
      "SeriesTime": "163607.508000",
      "SliceLocation": -37.113534026083,
      "SliceThickness": 2.0,
      "SmallestImagePixelValue": 0,
      "SoftwareVersions": "syngo MR E11",
      "SpacingBetweenSlices": 1.9999999793661,
      "SpecificCharacterSet": "ISO_IR 100",
      "StudyID": "1",
      "StudyTime": "162307.488000",
      "TransmitCoilName": "Body",
      "VariableFlipAngleFlag": "N",
      "WindowCenterWidthExplanation": "Algo1",
      "dBdt": 0.0},
    "slices": {}
  },
  "time": {
    "samples": {
      "AcquisitionNumber": [1, 2, 3, 4, 5, 6, 7, 8, 9, 10, 11, 12, 13, 14, 15, 16, 17, 18, 19, 20, 21, 22, 23, 24, 25, 26, 27, 28, 29, 30, 31, 32, 33, 34, 35, 36, 37, 38, 39, 40, 41, 42, 43, 44, 45, 46, 47, 48, 49, 50, 51, 52, 53, 54, 55, 56, 57, 58, 59, 60, 61, 62, 63, 64, 65, 66, 67, 68, 69, 70, 71, 72, 73, 74, 75, 76, 77, 78, 79, 80, 81, 82, 83, 84, 85, 86, 87, 88, 89, 90, 91, 92, 93, 94, 95, 96, 97, 98, 99, 100, 101, 102, 103, 104, 105, 106, 107, 108, 109, 110, 111, 112, 113, 114, 115, 116, 117, 118, 119, 120, 121, 122, 123, 124, 125, 126, 127, 128, 129, 130, 131, 132, 133, 134, 135, 136, 137, 138, 139, 140, 141, 142, 143, 144, 145, 146, 147, 148, 149, 150, 151, 152, 153, 154, 155, 156, 157, 158, 159, 160, 161, 162, 163, 164, 165, 166, 167, 168, 169, 170, 171, 172, 173, 174, 175, 176, 177, 178, 179, 180, 181, 182, 183, 184, 185, 186, 187, 188, 189, 190, 191, 192, 193, 194, 195, 196, 197, 198, 199, 200, 201, 202, 203, 204, 205, 206, 207, 208, 209, 210, 211, 212, 213, 214, 215, 216, 217, 218, 219, 220, 221, 222, 223, 224, 225, 226, 227, 228, 229, 230, 231, 232, 233, 234, 235, 236, 237, 238, 239, 240, 241, 242, 243, 244, 245, 246, 247, 248, 249, 250, 251, 252, 253, 254, 255, 256, 257, 258, 259, 260, 261, 262, 263, 264, 265, 266, 267, 268, 269, 270, 271, 272, 273, 274, 275, 276, 277, 278, 279, 280, 281, 282, 283, 284, 285, 286, 287, 288, 289, 290, 291, 292, 293, 294, 295, 296, 297, 298, 299, 300, 301, 302, 303, 304, 305, 306, 307, 308, 309, 310, 311, 312, 313, 314, 315, 316, 317, 318, 319, 320, 321, 322, 323, 324, 325, 326, 327, 328, 329, 330, 331, 332, 333, 334, 335, 336, 337, 338, 339, 340, 341, 342, 343, 344, 345, 346, 347, 348, 349, 350, 351],
      "AcquisitionTime": ["163440.075000", "163441.565000", "163443.055000", "163444.545000", "163446.035000", "163447.525000", "163449.015000", "163450.505000", "163451.995000", "163453.485000", "163454.975000", "163456.465000", "163457.955000", "163459.445000", "163500.935000", "163502.425000", "163503.915000", "163505.405000", "163506.895000", "163508.385000", "163509.875000", "163511.365000", "163512.855000", "163514.345000", "163515.835000", "163517.325000", "163518.815000", "163520.305000", "163521.795000", "163523.285000", "163524.775000", "163526.265000", "163527.755000", "163529.245000", "163530.735000", "163532.225000", "163533.715000", "163535.205000", "163536.695000", "163538.185000", "163539.675000", "163541.165000", "163542.655000", "163544.145000", "163545.635000", "163547.125000", "163548.615000", "163550.105000", "163551.595000", "163553.085000", "163554.575000", "163556.065000", "163557.555000", "163559.045000", "163600.535000", "163602.025000", "163603.515000", "163605.005000", "163606.495000", "163607.985000", "163609.475000", "163610.965000", "163612.455000", "163613.945000", "163615.435000", "163616.925000", "163618.415000", "163619.905000", "163621.395000", "163622.885000", "163624.375000", "163625.865000", "163627.355000", "163628.845000", "163630.335000", "163631.825000", "163633.315000", "163634.805000", "163636.295000", "163637.785000", "163639.275000", "163640.765000", "163642.255000", "163643.745000", "163645.235000", "163646.725000", "163648.215000", "163649.705000", "163651.195000", "163652.685000", "163654.175000", "163655.665000", "163657.155000", "163658.645000", "163700.135000", "163701.625000", "163703.115000", "163704.605000", "163706.095000", "163707.585000", "163709.075000", "163710.565000", "163712.055000", "163713.545000", "163715.035000", "163716.525000", "163718.015000", "163719.505000", "163720.995000", "163722.485000", "163723.975000", "163725.465000", "163726.955000", "163728.445000", "163729.935000", "163731.425000", "163732.915000", "163734.405000", "163735.895000", "163737.385000", "163738.875000", "163740.365000", "163741.855000", "163743.345000", "163744.835000", "163746.325000", "163747.815000", "163749.305000", "163750.795000", "163752.285000", "163753.775000", "163755.265000", "163756.755000", "163758.245000", "163759.735000", "163801.225000", "163802.715000", "163804.205000", "163805.695000", "163807.185000", "163808.675000", "163810.165000", "163811.655000", "163813.145000", "163814.635000", "163816.125000", "163817.615000", "163819.105000", "163820.595000", "163822.085000", "163823.575000", "163825.065000", "163826.555000", "163828.045000", "163829.535000", "163831.025000", "163832.515000", "163834.005000", "163835.495000", "163836.985000", "163838.475000", "163839.965000", "163841.455000", "163842.945000", "163844.435000", "163845.925000", "163847.415000", "163848.905000", "163850.395000", "163851.885000", "163853.375000", "163854.865000", "163856.355000", "163857.845000", "163859.335000", "163900.825000", "163902.315000", "163903.805000", "163905.295000", "163906.785000", "163908.275000", "163909.765000", "163911.255000", "163912.745000", "163914.235000", "163915.725000", "163917.215000", "163918.705000", "163920.195000", "163921.685000", "163923.175000", "163924.665000", "163926.155000", "163927.645000", "163929.135000", "163930.625000", "163932.115000", "163933.605000", "163935.095000", "163936.585000", "163938.075000", "163939.565000", "163941.055000", "163942.545000", "163944.035000", "163945.525000", "163947.015000", "163948.505000", "163949.995000", "163951.485000", "163952.975000", "163954.465000", "163955.955000", "163957.445000", "163958.935000", "164000.425000", "164001.915000", "164003.405000", "164004.895000", "164006.385000", "164007.875000", "164009.365000", "164010.855000", "164012.345000", "164013.835000", "164015.325000", "164016.815000", "164018.305000", "164019.795000", "164021.285000", "164022.775000", "164024.265000", "164025.755000", "164027.245000", "164028.735000", "164030.225000", "164031.715000", "164033.205000", "164034.695000", "164036.185000", "164037.675000", "164039.165000", "164040.655000", "164042.145000", "164043.635000", "164045.125000", "164046.615000", "164048.105000", "164049.595000", "164051.085000", "164052.575000", "164054.065000", "164055.555000", "164057.045000", "164058.535000", "164100.025000", "164101.515000", "164103.005000", "164104.495000", "164105.985000", "164107.475000", "164108.965000", "164110.455000", "164111.945000", "164113.435000", "164114.925000", "164116.415000", "164117.905000", "164119.395000", "164120.885000", "164122.375000", "164123.865000", "164125.355000", "164126.845000", "164128.335000", "164129.825000", "164131.315000", "164132.805000", "164134.295000", "164135.785000", "164137.275000", "164138.765000", "164140.255000", "164141.745000", "164143.235000", "164144.725000", "164146.215000", "164147.705000", "164149.195000", "164150.685000", "164152.175000", "164153.665000", "164155.155000", "164156.645000", "164158.135000", "164159.625000", "164201.115000", "164202.605000", "164204.095000", "164205.585000", "164207.075000", "164208.565000", "164210.055000", "164211.545000", "164213.035000", "164214.525000", "164216.015000", "164217.505000", "164218.995000", "164220.485000", "164221.975000", "164223.465000", "164224.955000", "164226.445000", "164227.935000", "164229.425000", "164230.915000", "164232.405000", "164233.895000", "164235.385000", "164236.875000", "164238.365000", "164239.855000", "164241.345000", "164242.835000", "164244.325000", "164245.815000", "164247.305000", "164248.795000", "164250.285000", "164251.775000", "164253.265000", "164254.755000", "164256.245000", "164257.735000", "164259.225000", "164300.715000", "164302.205000", "164303.695000", "164305.185000", "164306.675000", "164308.165000", "164309.655000", "164311.145000", "164312.635000", "164314.125000", "164315.615000", "164317.105000", "164318.595000", "164320.085000", "164321.575000"],
      "ContentTime": ["163607.511000", "163607.515000", "163607.519000", "163607.522000", "163607.526000", "163607.529000", "163607.533000", "163607.536000", "163607.540000", "163607.543000", "163607.547000", "163607.550000", "163607.553000", "163607.557000", "163607.567000", "163607.571000", "163607.574000", "163607.578000", "163607.581000", "163607.584000", "163607.588000", "163607.592000", "163607.595000", "163607.598000", "163607.602000", "163607.605000", "163607.609000", "163607.612000", "163607.616000", "163607.619000", "163607.623000", "163607.626000", "163607.629000", "163607.633000", "163607.636000", "163607.640000", "163607.643000", "163607.647000", "163627.476000", "163627.480000", "163627.484000", "163627.493000", "163627.497000", "163627.500000", "163627.503000", "163627.507000", "163627.510000", "163627.514000", "163627.517000", "163627.521000", "163627.524000", "163627.528000", "163627.531000", "163627.535000", "163627.538000", "163627.541000", "163627.545000", "163627.548000", "163647.476000", "163647.480000", "163647.483000", "163647.487000", "163647.490000", "163647.494000", "163647.497000", "163647.501000", "163647.504000", "163647.508000", "163647.511000", "163647.515000", "163647.518000", "163647.521000", "163647.525000", "163647.528000", "163647.532000", "163647.535000", "163647.539000", "163647.542000", "163707.476000", "163707.480000", "163707.484000", "163707.487000", "163707.490000", "163707.494000", "163707.497000", "163707.501000", "163707.504000", "163707.508000", "163707.511000", "163707.514000", "163707.518000", "163707.521000", "163707.525000", "163707.528000", "163707.531000", "163707.535000", "163707.538000", "163707.542000", "163747.475000", "163747.479000", "163747.483000", "163747.486000", "163747.489000", "163747.493000", "163747.496000", "163747.500000", "163747.503000", "163747.507000", "163747.510000", "163747.513000", "163747.517000", "163747.520000", "163747.524000", "163747.527000", "163747.530000", "163747.534000", "163747.537000", "163747.541000", "163747.544000", "163747.548000", "163747.551000", "163747.555000", "163747.558000", "163747.561000", "163747.565000", "163827.476000", "163827.480000", "163827.484000", "163827.487000", "163827.491000", "163827.494000", "163827.497000", "163827.501000", "163827.504000", "163827.508000", "163827.511000", "163827.514000", "163827.518000", "163827.521000", "163827.525000", "163827.528000", "163827.532000", "163827.535000", "163827.539000", "163827.542000", "163827.545000", "163827.549000", "163827.552000", "163827.556000", "163827.559000", "163827.563000", "163827.566000", "163907.476000", "163907.480000", "163907.484000", "163907.487000", "163907.491000", "163907.494000", "163907.497000", "163907.501000", "163907.504000", "163907.508000", "163907.511000", "163907.529000", "163907.532000", "163907.535000", "163907.539000", "163907.542000", "163907.546000", "163907.549000", "163907.553000", "163907.556000", "163907.559000", "163907.563000", "163907.566000", "163907.570000", "163907.573000", "163907.577000", "163907.580000", "163947.475000", "163947.479000", "163947.483000", "163947.486000", "163947.489000", "163947.493000", "163947.496000", "163947.500000", "163947.503000", "163947.507000", "163947.510000", "163947.514000", "163947.517000", "163947.520000", "163947.524000", "163947.527000", "163947.531000", "163947.534000", "163947.538000", "163947.541000", "163947.545000", "163947.548000", "163947.551000", "163947.555000", "163947.558000", "163947.562000", "163947.565000", "164007.475000", "164007.479000", "164007.483000", "164007.486000", "164007.490000", "164007.494000", "164007.498000", "164007.501000", "164007.505000", "164007.508000", "164007.512000", "164007.515000", "164007.518000", "164047.476000", "164047.480000", "164047.484000", "164047.487000", "164047.491000", "164047.494000", "164047.497000", "164047.501000", "164047.504000", "164047.508000", "164047.512000", "164047.515000", "164047.519000", "164047.522000", "164047.526000", "164047.529000", "164047.533000", "164047.537000", "164047.540000", "164047.544000", "164047.547000", "164047.551000", "164047.554000", "164047.578000", "164047.582000", "164047.585000", "164047.589000", "164127.476000", "164127.480000", "164127.483000", "164127.487000", "164127.490000", "164127.494000", "164127.505000", "164127.509000", "164127.512000", "164127.516000", "164127.519000", "164127.523000", "164127.526000", "164127.530000", "164127.541000", "164127.544000", "164127.547000", "164127.551000", "164127.554000", "164127.558000", "164127.561000", "164127.565000", "164127.568000", "164127.572000", "164127.575000", "164127.578000", "164127.582000", "164207.475000", "164207.479000", "164207.483000", "164207.486000", "164207.490000", "164207.493000", "164207.497000", "164207.500000", "164207.503000", "164207.507000", "164207.510000", "164207.514000", "164207.517000", "164207.521000", "164207.524000", "164207.528000", "164207.531000", "164207.534000", "164207.538000", "164207.541000", "164207.545000", "164207.562000", "164207.565000", "164207.569000", "164207.572000", "164207.576000", "164207.579000", "164247.476000", "164247.479000", "164247.483000", "164247.486000", "164247.490000", "164247.493000", "164247.497000", "164247.500000", "164247.504000", "164247.508000", "164247.512000", "164247.519000", "164247.523000", "164247.527000", "164247.531000", "164247.534000", "164247.544000", "164247.547000", "164247.550000", "164247.554000", "164247.557000", "164247.561000", "164247.564000", "164247.568000", "164247.571000", "164247.575000", "164324.275000", "164324.279000", "164324.283000", "164324.286000", "164324.290000", "164324.294000", "164324.297000", "164324.301000", "164324.305000", "164324.309000", "164324.313000", "164324.317000", "164324.320000", "164324.324000", "164324.328000", "164324.331000", "164324.335000", "164324.338000", "164324.342000", "164324.345000", "164324.355000", "164324.359000", "164324.362000", "164324.366000", "164324.369000"],
      "InstanceCreationTime": ["163607.511000", "163607.515000", "163607.519000", "163607.522000", "163607.526000", "163607.529000", "163607.533000", "163607.536000", "163607.540000", "163607.543000", "163607.547000", "163607.550000", "163607.553000", "163607.557000", "163607.567000", "163607.571000", "163607.574000", "163607.578000", "163607.581000", "163607.584000", "163607.588000", "163607.592000", "163607.595000", "163607.598000", "163607.602000", "163607.605000", "163607.609000", "163607.612000", "163607.616000", "163607.619000", "163607.623000", "163607.626000", "163607.629000", "163607.633000", "163607.636000", "163607.640000", "163607.643000", "163607.647000", "163627.476000", "163627.480000", "163627.484000", "163627.493000", "163627.497000", "163627.500000", "163627.503000", "163627.507000", "163627.510000", "163627.514000", "163627.517000", "163627.521000", "163627.524000", "163627.528000", "163627.531000", "163627.535000", "163627.538000", "163627.541000", "163627.545000", "163627.548000", "163647.476000", "163647.480000", "163647.483000", "163647.487000", "163647.490000", "163647.494000", "163647.497000", "163647.501000", "163647.504000", "163647.508000", "163647.511000", "163647.515000", "163647.518000", "163647.521000", "163647.525000", "163647.528000", "163647.532000", "163647.535000", "163647.539000", "163647.542000", "163707.476000", "163707.480000", "163707.484000", "163707.487000", "163707.490000", "163707.494000", "163707.497000", "163707.501000", "163707.504000", "163707.508000", "163707.511000", "163707.514000", "163707.518000", "163707.521000", "163707.525000", "163707.528000", "163707.531000", "163707.535000", "163707.538000", "163707.542000", "163747.475000", "163747.479000", "163747.483000", "163747.486000", "163747.489000", "163747.493000", "163747.496000", "163747.500000", "163747.503000", "163747.507000", "163747.510000", "163747.513000", "163747.517000", "163747.520000", "163747.524000", "163747.527000", "163747.530000", "163747.534000", "163747.537000", "163747.541000", "163747.544000", "163747.548000", "163747.551000", "163747.555000", "163747.558000", "163747.561000", "163747.565000", "163827.476000", "163827.480000", "163827.484000", "163827.487000", "163827.491000", "163827.494000", "163827.497000", "163827.501000", "163827.504000", "163827.508000", "163827.511000", "163827.514000", "163827.518000", "163827.521000", "163827.525000", "163827.528000", "163827.532000", "163827.535000", "163827.539000", "163827.542000", "163827.545000", "163827.549000", "163827.552000", "163827.556000", "163827.559000", "163827.563000", "163827.566000", "163907.476000", "163907.480000", "163907.484000", "163907.487000", "163907.491000", "163907.494000", "163907.497000", "163907.501000", "163907.504000", "163907.508000", "163907.511000", "163907.529000", "163907.532000", "163907.535000", "163907.539000", "163907.542000", "163907.546000", "163907.549000", "163907.553000", "163907.556000", "163907.559000", "163907.563000", "163907.566000", "163907.570000", "163907.573000", "163907.577000", "163907.580000", "163947.475000", "163947.479000", "163947.483000", "163947.486000", "163947.489000", "163947.493000", "163947.496000", "163947.500000", "163947.503000", "163947.507000", "163947.510000", "163947.514000", "163947.517000", "163947.520000", "163947.524000", "163947.527000", "163947.531000", "163947.534000", "163947.538000", "163947.541000", "163947.545000", "163947.548000", "163947.551000", "163947.555000", "163947.558000", "163947.562000", "163947.565000", "164007.475000", "164007.479000", "164007.483000", "164007.486000", "164007.490000", "164007.494000", "164007.498000", "164007.501000", "164007.505000", "164007.508000", "164007.512000", "164007.515000", "164007.518000", "164047.476000", "164047.480000", "164047.484000", "164047.487000", "164047.491000", "164047.494000", "164047.497000", "164047.501000", "164047.504000", "164047.508000", "164047.512000", "164047.515000", "164047.519000", "164047.522000", "164047.526000", "164047.529000", "164047.533000", "164047.537000", "164047.540000", "164047.544000", "164047.547000", "164047.551000", "164047.554000", "164047.578000", "164047.582000", "164047.585000", "164047.589000", "164127.476000", "164127.480000", "164127.483000", "164127.487000", "164127.490000", "164127.494000", "164127.505000", "164127.509000", "164127.512000", "164127.516000", "164127.519000", "164127.523000", "164127.526000", "164127.530000", "164127.541000", "164127.544000", "164127.547000", "164127.551000", "164127.554000", "164127.558000", "164127.561000", "164127.565000", "164127.568000", "164127.572000", "164127.575000", "164127.578000", "164127.582000", "164207.475000", "164207.479000", "164207.483000", "164207.486000", "164207.490000", "164207.493000", "164207.497000", "164207.500000", "164207.503000", "164207.507000", "164207.510000", "164207.514000", "164207.517000", "164207.521000", "164207.524000", "164207.528000", "164207.531000", "164207.534000", "164207.538000", "164207.541000", "164207.545000", "164207.562000", "164207.565000", "164207.569000", "164207.572000", "164207.576000", "164207.579000", "164247.476000", "164247.479000", "164247.483000", "164247.486000", "164247.490000", "164247.493000", "164247.497000", "164247.500000", "164247.504000", "164247.508000", "164247.512000", "164247.519000", "164247.523000", "164247.527000", "164247.531000", "164247.534000", "164247.544000", "164247.547000", "164247.550000", "164247.554000", "164247.557000", "164247.561000", "164247.564000", "164247.568000", "164247.571000", "164247.575000", "164324.275000", "164324.279000", "164324.283000", "164324.286000", "164324.290000", "164324.294000", "164324.297000", "164324.301000", "164324.305000", "164324.309000", "164324.313000", "164324.317000", "164324.320000", "164324.324000", "164324.328000", "164324.331000", "164324.335000", "164324.338000", "164324.342000", "164324.345000", "164324.355000", "164324.359000", "164324.362000", "164324.366000", "164324.369000"],
      "InstanceNumber": [1, 2, 3, 4, 5, 6, 7, 8, 9, 10, 11, 12, 13, 14, 15, 16, 17, 18, 19, 20, 21, 22, 23, 24, 25, 26, 27, 28, 29, 30, 31, 32, 33, 34, 35, 36, 37, 38, 39, 40, 41, 42, 43, 44, 45, 46, 47, 48, 49, 50, 51, 52, 53, 54, 55, 56, 57, 58, 59, 60, 61, 62, 63, 64, 65, 66, 67, 68, 69, 70, 71, 72, 73, 74, 75, 76, 77, 78, 79, 80, 81, 82, 83, 84, 85, 86, 87, 88, 89, 90, 91, 92, 93, 94, 95, 96, 97, 98, 99, 100, 101, 102, 103, 104, 105, 106, 107, 108, 109, 110, 111, 112, 113, 114, 115, 116, 117, 118, 119, 120, 121, 122, 123, 124, 125, 126, 127, 128, 129, 130, 131, 132, 133, 134, 135, 136, 137, 138, 139, 140, 141, 142, 143, 144, 145, 146, 147, 148, 149, 150, 151, 152, 153, 154, 155, 156, 157, 158, 159, 160, 161, 162, 163, 164, 165, 166, 167, 168, 169, 170, 171, 172, 173, 174, 175, 176, 177, 178, 179, 180, 181, 182, 183, 184, 185, 186, 187, 188, 189, 190, 191, 192, 193, 194, 195, 196, 197, 198, 199, 200, 201, 202, 203, 204, 205, 206, 207, 208, 209, 210, 211, 212, 213, 214, 215, 216, 217, 218, 219, 220, 221, 222, 223, 224, 225, 226, 227, 228, 229, 230, 231, 232, 233, 234, 235, 236, 237, 238, 239, 240, 241, 242, 243, 244, 245, 246, 247, 248, 249, 250, 251, 252, 253, 254, 255, 256, 257, 258, 259, 260, 261, 262, 263, 264, 265, 266, 267, 268, 269, 270, 271, 272, 273, 274, 275, 276, 277, 278, 279, 280, 281, 282, 283, 284, 285, 286, 287, 288, 289, 290, 291, 292, 293, 294, 295, 296, 297, 298, 299, 300, 301, 302, 303, 304, 305, 306, 307, 308, 309, 310, 311, 312, 313, 314, 315, 316, 317, 318, 319, 320, 321, 322, 323, 324, 325, 326, 327, 328, 329, 330, 331, 332, 333, 334, 335, 336, 337, 338, 339, 340, 341, 342, 343, 344, 345, 346, 347, 348, 349, 350, 351],
      "LargestImagePixelValue": [39033, 37628, 37726, 37336, 37306, 36555, 36975, 36286, 36772, 37039, 35342, 37301, 37441, 36353, 36243, 36334, 35914, 35718, 36997, 36876, 36152, 35516, 36662, 36552, 36223, 36403, 36188, 36452, 36202, 35572, 34885, 34816, 35599, 35162, 35721, 35300, 36314, 35541, 35336, 35180, 34843, 35989, 34568, 35019, 34856, 35331, 34642, 35278, 34923, 35280, 35497, 35325, 34789, 35337, 35062, 34741, 34828, 34710, 35378, 34778, 35187, 34636, 35216, 35303, 35625, 36778, 35469, 34834, 35070, 34739, 34896, 34444, 35023, 34874, 34922, 35833, 35102, 35033, 35187, 34717, 34862, 34807, 34983, 35885, 34732, 35272, 35112, 35358, 34898, 34992, 35309, 34950, 34964, 34817, 35439, 35097, 35784, 35606, 36308, 35455, 35736, 36389, 35244, 35260, 37663, 36651, 35118, 35719, 35553, 36267, 36000, 36255, 36335, 36419, 36581, 35847, 35354, 36449, 35734, 36124, 36616, 36862, 34906, 34492, 35816, 35662, 35938, 36085, 36326, 36568, 35744, 36265, 35392, 36043, 35625, 36253, 36373, 37113, 35596, 36137, 37156, 34950, 35274, 35570, 35387, 34674, 34963, 34856, 35253, 35030, 35524, 35532, 35199, 35201, 35138, 35688, 35682, 36254, 35412, 36105, 35829, 35965, 35090, 35440, 35572, 35200, 35678, 35827, 36010, 35572, 35315, 34694, 35649, 35643, 35360, 36123, 36372, 35996, 36436, 35861, 36430, 36447, 35824, 36604, 36758, 36251, 36588, 36125, 34472, 35761, 36375, 36459, 36558, 36752, 36626, 36467, 36166, 36162, 35800, 36679, 36151, 36889, 37267, 37242, 37034, 36611, 37305, 36261, 36861, 36316, 36968, 36703, 37129, 36660, 36876, 36848, 35604, 35560, 36503, 36191, 36502, 35562, 36109, 36403, 35125, 36149, 34916, 35378, 36143, 35936, 36387, 36054, 36150, 35585, 36534, 37484, 36087, 35205, 36677, 36951, 36791, 37177, 36669, 36953, 36561, 36781, 36963, 36577, 37656, 36265, 37251, 37456, 36636, 36928, 37048, 36466, 37489, 37102, 37268, 37865, 36086, 35333, 36043, 36398, 36988, 36937, 36213, 36409, 36500, 36309, 36290, 36775, 36247, 35339, 35592, 36408, 35737, 36116, 36297, 35241, 35181, 35370, 35871, 35097, 34984, 34709, 35584, 35046, 35215, 35499, 35565, 35531, 35492, 35346, 35589, 35298, 35808, 35017, 35697, 35431, 35323, 35101, 35286, 36893, 36730, 35273, 35266, 35724, 35577, 36063, 35951, 35867, 35705, 35701, 35282, 34735, 34187, 34879, 35467, 35848, 36016, 35998, 36208, 36277, 35622, 35326, 35279, 35359, 35412, 35571, 35423, 35835, 35715, 36088, 35570, 36001, 35499, 35706, 35649, 35466, 35157, 35216, 35044, 35117, 34931, 35968, 35292, 35321, 36171, 35779, 35658],
