{
  "AcquisitionMatrixPE": 104,
  "AcquisitionNumber": 1,
  "AcquisitionTime": "16:44:49.467500",
  "BandwidthPerPixelPhaseEncode": 17.17,
  "BaseResolution": 104,
  "BodyPartExamined": "BRAIN",
  "CoilCombinationMethod": "Sum of Squares",
  "ConsistencyInfo": "N4_VE11C_LATEST_20160120",
  "ConversionSoftware": "dcm2niix",
  "ConversionSoftwareVersion": "v1.0.20220505",
  "DerivedVendorReportedEchoSpacing": 0.000560011,
  "DeviceSerialNumber": "167006",
  "DwellTime": 2.1e-06,
  "EchoTime": 0.037,
  "EchoTrainLength": 104,
  "EffectiveEchoSpacing": 0.000560011,
  "FlipAngle": 52,
  "HeudiconvVersion": "0.5.3.post811+g6206e14",
  "ImageComments": "Unaliased MB4/PE3/LB",
  "ImageOrientationPatientDICOM": [0.998428, -0.0492981, 0.0266542, 0.0552964, 0.943927, -0.325491],
  "ImageOrientationText": "Tra>Cor(-19.1)>Sag(0.5)",
  "ImageType": [
    "ORIGINAL",
    "PRIMARY",
    "M",
    "MB",
    "ND",
    "MOSAIC"
],
  "ImagingFrequency": 123.26,
  "InPlanePhaseEncodingDirectionDICOM": "COL",
  "InstitutionAddress": "Chemin Queen-Mary 4565,Montreal,District,CA,H3W 1W5",
  "InstitutionName": "IUGM",
  "InstitutionalDepartmentName": "Department",
  "MRAcquisitionType": "2D",
  "MagneticFieldStrength": 3,
  "Manufacturer": "Siemens",
  "ManufacturersModelName": "Prisma_fit",
  "MatrixCoilMode": "SENSE",
  "Modality": "MR",
  "MultibandAccelerationFactor": 4,
  "PartialFourier": 1,
  "PatientPosition": "HFS",
  "PercentPhaseFOV": 100,
  "PercentSampling": 100,
  "PhaseEncodingDirection": "j",
  "PhaseEncodingSteps": 104,
  "PhaseResolution": 1,
  "PixelBandwidth": 2290,
  "ProcedureStepDescription": "games^mario3",
  "ProtocolName": "func_task-mario3_run-02",
  "PulseSequenceDetails": "%CustomerSeq%\\cmrr_mbep2d_bold",
  "ReceiveCoilActiveElements": "HC1-7;NC1,2",
  "ReceiveCoilName": "HeadNeck_64",
  "ReconMatrixPE": 104,
  "RepetitionTime": 1.49,
  "SAR": 0.0625303,
  "ScanOptions": "FS",
  "ScanningSequence": "EP",
  "SequenceName": "epfid2d1_104",
  "SequenceVariant": "SK\\SS",
  "SeriesDescription": "func_task-mario3_run-02",
  "SeriesNumber": 16,
  "ShimSetting": [620, -7285, -8818, 548, 36, -254, -51, -11],
  "SliceThickness": 2,
  "SliceTiming": [0, 0.785, 0.0975, 0.8825, 0.195, 0.98, 0.295, 1.0775, 0.3925, 1.175, 0.49, 1.275, 0.5875, 1.3725, 0.685, 0, 0.785, 0.0975, 0.8825, 0.195, 0.98, 0.295, 1.0775, 0.3925, 1.175, 0.49, 1.275, 0.5875, 1.3725, 0.685, 0, 0.785, 0.0975, 0.8825, 0.195, 0.98, 0.295, 1.0775, 0.3925, 1.175, 0.49, 1.275, 0.5875, 1.3725, 0.685, 0, 0.785, 0.0975, 0.8825, 0.195, 0.98, 0.295, 1.0775, 0.3925, 1.175, 0.49, 1.275, 0.5875, 1.3725, 0.685],
  "SoftwareVersions": "syngo MR E11",
  "SpacingBetweenSlices": 2,
  "StationName": "MRC35049",
  "TaskName": "mario3",
  "TotalReadoutTime": 0.0576811,
  "TxRefAmp": 261.554,
  "WipMemBlock": "376c8bbb-77de-4d7b-9660-a7a814dabd1e||Sequence: R017 ve11c/master r/75a17815+; Jun 28 2022 16:32:11 by eja",
  "dcmmeta_affine": [
    [-1.9968568086624146, 0.1105927973985672, 0.018227169290184975, 100.59275817871094],
    [0.09859614819288254, 1.887853741645813, -0.6529065370559692, -70.2121353149414],
    [0.05330849438905716, 0.6509818434715271, 1.8903387784957886, -64.48714447021484],
    [0.0, 0.0, 0.0, 1.0]
],
  "dcmmeta_reorient_transform": [
    [0.0, -1.0, 0.0, 103.0],
    [1.0, 0.0, 0.0, 0.0],
    [0.0, 0.0, 1.0, 0.0],
    [0.0, 0.0, 0.0, 1.0]
],
  "dcmmeta_shape": [104, 104, 60, 343],
  "dcmmeta_slice_dim": 2,
  "dcmmeta_version": 0.6,
  "global": {
    "const": {
      "AcquisitionMatrix": [104, 0, 0, 104],
      "AngioFlag": "N",
      "BitsAllocated": 16,
      "BitsStored": 16,
      "BodyPartExamined": "BRAIN",
      "Columns": 832,
      "EchoNumbers": 1,
      "EchoTime": 37.0,
      "EchoTrainLength": 104,
      "FlipAngle": 52.0,
      "HighBit": 15,
      "ImageOrientationPatient": [0.99842839044867, -0.0492980753971, 0.02665424747046, 0.05529639878241, 0.94392688678927, -0.3254909225739],
      "ImagePositionPatient": [-879.09546323889, -775.52657703839, 220.11708568619],
      "ImageType": [
        "ORIGINAL",
        "PRIMARY",
        "M",
        "MB",
        "ND",
        "MOSAIC"
],
      "ImagedNucleus": "1H",
      "ImagingFrequency": 123.260314,
      "InPlanePhaseEncodingDirection": "COL",
      "MRAcquisitionType": "2D",
      "MagneticFieldStrength": 3.0,
      "Manufacturer": "SIEMENS",
      "ManufacturerModelName": "Prisma_fit",
      "Modality": "MR",
      "NumberOfAverages": 1.0,
      "NumberOfPhaseEncodingSteps": 104,
      "PercentPhaseFieldOfView": 100.0,
      "PercentSampling": 100.0,
      "PerformedProcedureStepStartTime": "162307.563000",
      "PhotometricInterpretation": "MONOCHROME2",
      "PixelBandwidth": 2290.0,
      "PixelRepresentation": 0,
      "PixelSpacing": [2.0, 2.0],
      "ProtocolName": "func_task-mario3_run-02",
      "RepetitionTime": 1490.0,
      "Rows": 832,
      "SAR": 0.06253026015978,
      "SamplesPerPixel": 1,
      "ScanOptions": "FS",
      "ScanningSequence": "EP",
      "SequenceName": "epfid2d1_104",
      "SequenceVariant": [
        "SK",
        "SS"
],
      "SeriesDescription": "func_task-mario3_run-02",
      "SeriesNumber": 16,
      "SeriesTime": "164608.120000",
      "SliceLocation": -37.113534026083,
      "SliceThickness": 2.0,
      "SmallestImagePixelValue": 0,
      "SoftwareVersions": "syngo MR E11",
      "SpacingBetweenSlices": 1.9999999793661,
      "SpecificCharacterSet": "ISO_IR 100",
      "StudyID": "1",
      "StudyTime": "162307.488000",
      "TransmitCoilName": "Body",
      "VariableFlipAngleFlag": "N",
      "WindowCenterWidthExplanation": "Algo1",
      "dBdt": 0.0},
    "slices": {}
  },
  "time": {
    "samples": {
      "AcquisitionNumber": [1, 2, 3, 4, 5, 6, 7, 8, 9, 10, 11, 12, 13, 14, 15, 16, 17, 18, 19, 20, 21, 22, 23, 24, 25, 26, 27, 28, 29, 30, 31, 32, 33, 34, 35, 36, 37, 38, 39, 40, 41, 42, 43, 44, 45, 46, 47, 48, 49, 50, 51, 52, 53, 54, 55, 56, 57, 58, 59, 60, 61, 62, 63, 64, 65, 66, 67, 68, 69, 70, 71, 72, 73, 74, 75, 76, 77, 78, 79, 80, 81, 82, 83, 84, 85, 86, 87, 88, 89, 90, 91, 92, 93, 94, 95, 96, 97, 98, 99, 100, 101, 102, 103, 104, 105, 106, 107, 108, 109, 110, 111, 112, 113, 114, 115, 116, 117, 118, 119, 120, 121, 122, 123, 124, 125, 126, 127, 128, 129, 130, 131, 132, 133, 134, 135, 136, 137, 138, 139, 140, 141, 142, 143, 144, 145, 146, 147, 148, 149, 150, 151, 152, 153, 154, 155, 156, 157, 158, 159, 160, 161, 162, 163, 164, 165, 166, 167, 168, 169, 170, 171, 172, 173, 174, 175, 176, 177, 178, 179, 180, 181, 182, 183, 184, 185, 186, 187, 188, 189, 190, 191, 192, 193, 194, 195, 196, 197, 198, 199, 200, 201, 202, 203, 204, 205, 206, 207, 208, 209, 210, 211, 212, 213, 214, 215, 216, 217, 218, 219, 220, 221, 222, 223, 224, 225, 226, 227, 228, 229, 230, 231, 232, 233, 234, 235, 236, 237, 238, 239, 240, 241, 242, 243, 244, 245, 246, 247, 248, 249, 250, 251, 252, 253, 254, 255, 256, 257, 258, 259, 260, 261, 262, 263, 264, 265, 266, 267, 268, 269, 270, 271, 272, 273, 274, 275, 276, 277, 278, 279, 280, 281, 282, 283, 284, 285, 286, 287, 288, 289, 290, 291, 292, 293, 294, 295, 296, 297, 298, 299, 300, 301, 302, 303, 304, 305, 306, 307, 308, 309, 310, 311, 312, 313, 314, 315, 316, 317, 318, 319, 320, 321, 322, 323, 324, 325, 326, 327, 328, 329, 330, 331, 332, 333, 334, 335, 336, 337, 338, 339, 340, 341, 342, 343],
      "AcquisitionTime": ["164449.467500", "164450.957500", "164452.447500", "164453.937500", "164455.427500", "164456.917500", "164458.407500", "164459.897500", "164501.387500", "164502.877500", "164504.367500", "164505.857500", "164507.347500", "164508.837500", "164510.327500", "164511.817500", "164513.307500", "164514.797500", "164516.287500", "164517.777500", "164519.267500", "164520.757500", "164522.247500", "164523.737500", "164525.227500", "164526.717500", "164528.207500", "164529.697500", "164531.187500", "164532.677500", "164534.167500", "164535.657500", "164537.147500", "164538.637500", "164540.127500", "164541.617500", "164543.107500", "164544.597500", "164546.087500", "164547.577500", "164549.067500", "164550.557500", "164552.047500", "164553.537500", "164555.027500", "164556.517500", "164558.007500", "164559.497500", "164600.987500", "164602.477500", "164603.967500", "164605.457500", "164606.947500", "164608.437500", "164609.927500", "164611.417500", "164612.907500", "164614.397500", "164615.887500", "164617.377500", "164618.867500", "164620.357500", "164621.847500", "164623.337500", "164624.827500", "164626.317500", "164627.807500", "164629.297500", "164630.787500", "164632.277500", "164633.767500", "164635.257500", "164636.747500", "164638.237500", "164639.727500", "164641.217500", "164642.707500", "164644.197500", "164645.687500", "164647.177500", "164648.667500", "164650.157500", "164651.647500", "164653.137500", "164654.627500", "164656.117500", "164657.607500", "164659.097500", "164700.587500", "164702.077500", "164703.567500", "164705.057500", "164706.547500", "164708.037500", "164709.527500", "164711.017500", "164712.507500", "164713.997500", "164715.487500", "164716.977500", "164718.467500", "164719.957500", "164721.447500", "164722.937500", "164724.427500", "164725.917500", "164727.407500", "164728.897500", "164730.387500", "164731.877500", "164733.367500", "164734.857500", "164736.347500", "164737.837500", "164739.327500", "164740.817500", "164742.307500", "164743.797500", "164745.287500", "164746.777500", "164748.267500", "164749.757500", "164751.247500", "164752.737500", "164754.227500", "164755.717500", "164757.207500", "164758.697500", "164800.187500", "164801.677500", "164803.167500", "164804.657500", "164806.147500", "164807.637500", "164809.127500", "164810.617500", "164812.107500", "164813.597500", "164815.087500", "164816.577500", "164818.067500", "164819.557500", "164821.047500", "164822.537500", "164824.027500", "164825.517500", "164827.007500", "164828.497500", "164829.987500", "164831.477500", "164832.967500", "164834.457500", "164835.947500", "164837.437500", "164838.927500", "164840.417500", "164841.907500", "164843.397500", "164844.887500", "164846.377500", "164847.867500", "164849.357500", "164850.847500", "164852.337500", "164853.827500", "164855.317500", "164856.807500", "164858.297500", "164859.787500", "164901.277500", "164902.767500", "164904.257500", "164905.747500", "164907.237500", "164908.727500", "164910.217500", "164911.707500", "164913.197500", "164914.687500", "164916.177500", "164917.667500", "164919.157500", "164920.647500", "164922.137500", "164923.627500", "164925.117500", "164926.607500", "164928.097500", "164929.587500", "164931.077500", "164932.567500", "164934.057500", "164935.547500", "164937.037500", "164938.527500", "164940.017500", "164941.507500", "164942.997500", "164944.487500", "164945.977500", "164947.467500", "164948.957500", "164950.447500", "164951.937500", "164953.427500", "164954.917500", "164956.407500", "164957.897500", "164959.387500", "165000.877500", "165002.367500", "165003.857500", "165005.347500", "165006.837500", "165008.327500", "165009.817500", "165011.307500", "165012.797500", "165014.287500", "165015.777500", "165017.267500", "165018.757500", "165020.247500", "165021.737500", "165023.227500", "165024.717500", "165026.207500", "165027.697500", "165029.187500", "165030.677500", "165032.167500", "165033.657500", "165035.147500", "165036.637500", "165038.127500", "165039.617500", "165041.107500", "165042.597500", "165044.087500", "165045.577500", "165047.067500", "165048.557500", "165050.047500", "165051.537500", "165053.027500", "165054.517500", "165056.007500", "165057.497500", "165058.987500", "165100.477500", "165101.967500", "165103.457500", "165104.947500", "165106.437500", "165107.927500", "165109.417500", "165110.907500", "165112.397500", "165113.887500", "165115.377500", "165116.867500", "165118.357500", "165119.847500", "165121.337500", "165122.827500", "165124.317500", "165125.807500", "165127.297500", "165128.787500", "165130.277500", "165131.767500", "165133.257500", "165134.747500", "165136.237500", "165137.727500", "165139.217500", "165140.707500", "165142.197500", "165143.687500", "165145.177500", "165146.667500", "165148.157500", "165149.647500", "165151.137500", "165152.627500", "165154.117500", "165155.607500", "165157.097500", "165158.587500", "165200.077500", "165201.567500", "165203.057500", "165204.547500", "165206.037500", "165207.527500", "165209.017500", "165210.507500", "165211.997500", "165213.487500", "165214.977500", "165216.467500", "165217.957500", "165219.447500", "165220.937500", "165222.427500", "165223.917500", "165225.407500", "165226.897500", "165228.387500", "165229.877500", "165231.367500", "165232.857500", "165234.347500", "165235.837500", "165237.327500", "165238.817500", "165240.307500", "165241.797500", "165243.287500", "165244.777500", "165246.267500", "165247.757500", "165249.247500", "165250.737500", "165252.227500", "165253.717500", "165255.207500", "165256.697500", "165258.187500", "165259.677500", "165301.167500", "165302.657500", "165304.147500", "165305.637500", "165307.127500", "165308.617500", "165310.107500", "165311.597500", "165313.087500", "165314.577500", "165316.067500", "165317.557500", "165319.047500"],
      "ContentTime": ["164608.123000", "164608.127000", "164608.131000", "164608.134000", "164608.137000", "164608.141000", "164608.157000", "164608.161000", "164608.164000", "164608.168000", "164608.171000", "164608.174000", "164608.178000", "164608.181000", "164608.185000", "164608.188000", "164608.191000", "164608.195000", "164608.198000", "164608.202000", "164608.205000", "164608.216000", "164608.219000", "164608.223000", "164608.226000", "164608.229000", "164608.233000", "164608.236000", "164628.075000", "164628.079000", "164628.083000", "164628.086000", "164628.089000", "164628.093000", "164628.096000", "164628.100000", "164628.103000", "164628.106000", "164628.110000", "164628.113000", "164628.117000", "164628.120000", "164628.124000", "164628.127000", "164628.130000", "164628.134000", "164628.137000", "164628.141000", "164648.076000", "164648.079000", "164648.083000", "164648.086000", "164648.090000", "164648.093000", "164648.096000", "164648.100000", "164648.103000", "164648.107000", "164648.110000", "164648.114000", "164648.117000", "164648.120000", "164648.124000", "164648.127000", "164648.131000", "164648.134000", "164648.138000", "164648.141000", "164648.145000", "164708.075000", "164708.079000", "164708.083000", "164708.087000", "164708.091000", "164708.095000", "164708.098000", "164708.102000", "164708.105000", "164708.110000", "164708.114000", "164708.117000", "164708.120000", "164708.124000", "164708.127000", "164708.131000", "164708.134000", "164708.137000", "164708.141000", "164748.075000", "164748.079000", "164748.083000", "164748.086000", "164748.090000", "164748.093000", "164748.097000", "164748.100000", "164748.103000", "164748.107000", "164748.110000", "164748.114000", "164748.117000", "164748.121000", "164748.124000", "164748.128000", "164748.131000", "164748.152000", "164748.155000", "164748.159000", "164748.162000", "164748.166000", "164748.169000", "164748.173000", "164748.176000", "164748.180000", "164748.183000", "164748.186000", "164748.190000", "164748.193000", "164748.197000", "164828.075000", "164828.079000", "164828.083000", "164828.086000", "164828.089000", "164828.093000", "164828.096000", "164828.100000", "164828.103000", "164828.107000", "164828.110000", "164828.114000", "164828.117000", "164828.120000", "164828.124000", "164828.127000", "164828.131000", "164828.134000", "164828.138000", "164828.141000", "164828.145000", "164828.148000", "164828.152000", "164828.155000", "164828.159000", "164828.162000", "164828.165000", "164908.075000", "164908.079000", "164908.083000", "164908.086000", "164908.090000", "164908.093000", "164908.096000", "164908.100000", "164908.103000", "164908.107000", "164908.110000", "164908.114000", "164908.117000", "164908.121000", "164908.124000", "164908.127000", "164908.131000", "164908.134000", "164908.138000", "164908.141000", "164908.145000", "164908.148000", "164908.152000", "164908.155000", "164908.158000", "164908.162000", "164908.165000", "164948.075000", "164948.079000", "164948.083000", "164948.086000", "164948.090000", "164948.093000", "164948.096000", "164948.100000", "164948.103000", "164948.107000", "164948.110000", "164948.114000", "164948.117000", "164948.121000", "164948.124000", "164948.127000", "164948.131000", "164948.134000", "164948.138000", "164948.141000", "164948.145000", "164948.148000", "164948.152000", "164948.155000", "164948.159000", "164948.162000", "164948.165000", "165008.085000", "165008.089000", "165008.093000", "165008.096000", "165008.099000", "165008.103000", "165008.106000", "165008.110000", "165008.113000", "165008.117000", "165008.120000", "165008.124000", "165008.127000", "165048.075000", "165048.079000", "165048.083000", "165048.086000", "165048.097000", "165048.100000", "165048.104000", "165048.107000", "165048.111000", "165048.114000", "165048.118000", "165048.121000", "165048.125000", "165048.128000", "165048.131000", "165048.135000", "165048.138000", "165048.142000", "165048.145000", "165048.149000", "165048.152000", "165048.156000", "165048.159000", "165048.163000", "165048.166000", "165048.169000", "165048.173000", "165128.075000", "165128.079000", "165128.083000", "165128.086000", "165128.089000", "165128.093000", "165128.096000", "165128.100000", "165128.103000", "165128.107000", "165128.110000", "165128.114000", "165128.117000", "165128.120000", "165128.124000", "165128.127000", "165128.131000", "165128.134000", "165128.138000", "165128.141000", "165128.145000", "165128.148000", "165128.152000", "165128.155000", "165128.158000", "165128.162000", "165128.165000", "165208.075000", "165208.079000", "165208.083000", "165208.086000", "165208.090000", "165208.093000", "165208.097000", "165208.100000", "165208.103000", "165208.107000", "165208.110000", "165208.114000", "165208.117000", "165208.121000", "165208.124000", "165208.128000", "165208.131000", "165208.135000", "165208.138000", "165208.141000", "165208.145000", "165208.148000", "165208.152000", "165208.155000", "165208.159000", "165208.162000", "165208.166000", "165248.075000", "165248.079000", "165248.083000", "165248.086000", "165248.090000", "165248.093000", "165248.096000", "165248.100000", "165248.103000", "165248.107000", "165248.110000", "165248.119000", "165248.122000", "165248.126000", "165248.129000", "165248.132000", "165248.136000", "165248.139000", "165248.143000", "165248.146000", "165248.150000", "165248.153000", "165248.156000", "165248.160000", "165248.163000", "165248.167000", "165248.170000", "165321.272000", "165321.276000", "165321.280000", "165321.283000", "165321.287000", "165321.290000", "165321.294000", "165321.297000", "165321.301000", "165321.304000", "165321.308000", "165321.311000", "165321.314000", "165321.318000", "165321.321000", "165321.325000", "165321.328000", "165321.332000", "165321.336000", "165321.339000", "165321.343000", "165321.346000"],
      "InstanceCreationTime": ["164608.123000", "164608.127000", "164608.131000", "164608.134000", "164608.137000", "164608.141000", "164608.157000", "164608.161000", "164608.164000", "164608.168000", "164608.171000", "164608.174000", "164608.178000", "164608.181000", "164608.185000", "164608.188000", "164608.191000", "164608.195000", "164608.198000", "164608.202000", "164608.205000", "164608.216000", "164608.219000", "164608.223000", "164608.226000", "164608.229000", "164608.233000", "164608.236000", "164628.075000", "164628.079000", "164628.083000", "164628.086000", "164628.089000", "164628.093000", "164628.096000", "164628.100000", "164628.103000", "164628.106000", "164628.110000", "164628.113000", "164628.117000", "164628.120000", "164628.124000", "164628.127000", "164628.130000", "164628.134000", "164628.137000", "164628.141000", "164648.076000", "164648.079000", "164648.083000", "164648.086000", "164648.090000", "164648.093000", "164648.096000", "164648.100000", "164648.103000", "164648.107000", "164648.110000", "164648.114000", "164648.117000", "164648.120000", "164648.124000", "164648.127000", "164648.131000", "164648.134000", "164648.138000", "164648.141000", "164648.145000", "164708.075000", "164708.079000", "164708.083000", "164708.087000", "164708.091000", "164708.095000", "164708.098000", "164708.102000", "164708.105000", "164708.110000", "164708.114000", "164708.117000", "164708.120000", "164708.124000", "164708.127000", "164708.131000", "164708.134000", "164708.137000", "164708.141000", "164748.075000", "164748.079000", "164748.083000", "164748.086000", "164748.090000", "164748.093000", "164748.097000", "164748.100000", "164748.103000", "164748.107000", "164748.110000", "164748.114000", "164748.117000", "164748.121000", "164748.124000", "164748.128000", "164748.131000", "164748.152000", "164748.155000", "164748.159000", "164748.162000", "164748.166000", "164748.169000", "164748.173000", "164748.176000", "164748.180000", "164748.183000", "164748.186000", "164748.190000", "164748.193000", "164748.197000", "164828.075000", "164828.079000", "164828.083000", "164828.086000", "164828.089000", "164828.093000", "164828.096000", "164828.100000", "164828.103000", "164828.107000", "164828.110000", "164828.114000", "164828.117000", "164828.120000", "164828.124000", "164828.127000", "164828.131000", "164828.134000", "164828.138000", "164828.141000", "164828.145000", "164828.148000", "164828.152000", "164828.155000", "164828.159000", "164828.162000", "164828.165000", "164908.075000", "164908.079000", "164908.083000", "164908.086000", "164908.090000", "164908.093000", "164908.096000", "164908.100000", "164908.103000", "164908.107000", "164908.110000", "164908.114000", "164908.117000", "164908.121000", "164908.124000", "164908.127000", "164908.131000", "164908.134000", "164908.138000", "164908.141000", "164908.145000", "164908.148000", "164908.152000", "164908.155000", "164908.158000", "164908.162000", "164908.165000", "164948.075000", "164948.079000", "164948.083000", "164948.086000", "164948.090000", "164948.093000", "164948.096000", "164948.100000", "164948.103000", "164948.107000", "164948.110000", "164948.114000", "164948.117000", "164948.121000", "164948.124000", "164948.127000", "164948.131000", "164948.134000", "164948.138000", "164948.141000", "164948.145000", "164948.148000", "164948.152000", "164948.155000", "164948.159000", "164948.162000", "164948.165000", "165008.085000", "165008.089000", "165008.093000", "165008.096000", "165008.099000", "165008.103000", "165008.106000", "165008.110000", "165008.113000", "165008.117000", "165008.120000", "165008.124000", "165008.127000", "165048.075000", "165048.079000", "165048.083000", "165048.086000", "165048.097000", "165048.100000", "165048.104000", "165048.107000", "165048.111000", "165048.114000", "165048.118000", "165048.121000", "165048.125000", "165048.128000", "165048.131000", "165048.135000", "165048.138000", "165048.142000", "165048.145000", "165048.149000", "165048.152000", "165048.156000", "165048.159000", "165048.163000", "165048.166000", "165048.169000", "165048.173000", "165128.075000", "165128.079000", "165128.083000", "165128.086000", "165128.089000", "165128.093000", "165128.096000", "165128.100000", "165128.103000", "165128.107000", "165128.110000", "165128.114000", "165128.117000", "165128.120000", "165128.124000", "165128.127000", "165128.131000", "165128.134000", "165128.138000", "165128.141000", "165128.145000", "165128.148000", "165128.152000", "165128.155000", "165128.158000", "165128.162000", "165128.165000", "165208.075000", "165208.079000", "165208.083000", "165208.086000", "165208.090000", "165208.093000", "165208.097000", "165208.100000", "165208.103000", "165208.107000", "165208.110000", "165208.114000", "165208.117000", "165208.121000", "165208.124000", "165208.128000", "165208.131000", "165208.135000", "165208.138000", "165208.141000", "165208.145000", "165208.148000", "165208.152000", "165208.155000", "165208.159000", "165208.162000", "165208.166000", "165248.075000", "165248.079000", "165248.083000", "165248.086000", "165248.090000", "165248.093000", "165248.096000", "165248.100000", "165248.103000", "165248.107000", "165248.110000", "165248.119000", "165248.122000", "165248.126000", "165248.129000", "165248.132000", "165248.136000", "165248.139000", "165248.143000", "165248.146000", "165248.150000", "165248.153000", "165248.156000", "165248.160000", "165248.163000", "165248.167000", "165248.170000", "165321.272000", "165321.276000", "165321.280000", "165321.283000", "165321.287000", "165321.290000", "165321.294000", "165321.297000", "165321.301000", "165321.304000", "165321.308000", "165321.311000", "165321.314000", "165321.318000", "165321.321000", "165321.325000", "165321.328000", "165321.332000", "165321.336000", "165321.339000", "165321.343000", "165321.346000"],
      "InstanceNumber": [1, 2, 3, 4, 5, 6, 7, 8, 9, 10, 11, 12, 13, 14, 15, 16, 17, 18, 19, 20, 21, 22, 23, 24, 25, 26, 27, 28, 29, 30, 31, 32, 33, 34, 35, 36, 37, 38, 39, 40, 41, 42, 43, 44, 45, 46, 47, 48, 49, 50, 51, 52, 53, 54, 55, 56, 57, 58, 59, 60, 61, 62, 63, 64, 65, 66, 67, 68, 69, 70, 71, 72, 73, 74, 75, 76, 77, 78, 79, 80, 81, 82, 83, 84, 85, 86, 87, 88, 89, 90, 91, 92, 93, 94, 95, 96, 97, 98, 99, 100, 101, 102, 103, 104, 105, 106, 107, 108, 109, 110, 111, 112, 113, 114, 115, 116, 117, 118, 119, 120, 121, 122, 123, 124, 125, 126, 127, 128, 129, 130, 131, 132, 133, 134, 135, 136, 137, 138, 139, 140, 141, 142, 143, 144, 145, 146, 147, 148, 149, 150, 151, 152, 153, 154, 155, 156, 157, 158, 159, 160, 161, 162, 163, 164, 165, 166, 167, 168, 169, 170, 171, 172, 173, 174, 175, 176, 177, 178, 179, 180, 181, 182, 183, 184, 185, 186, 187, 188, 189, 190, 191, 192, 193, 194, 195, 196, 197, 198, 199, 200, 201, 202, 203, 204, 205, 206, 207, 208, 209, 210, 211, 212, 213, 214, 215, 216, 217, 218, 219, 220, 221, 222, 223, 224, 225, 226, 227, 228, 229, 230, 231, 232, 233, 234, 235, 236, 237, 238, 239, 240, 241, 242, 243, 244, 245, 246, 247, 248, 249, 250, 251, 252, 253, 254, 255, 256, 257, 258, 259, 260, 261, 262, 263, 264, 265, 266, 267, 268, 269, 270, 271, 272, 273, 274, 275, 276, 277, 278, 279, 280, 281, 282, 283, 284, 285, 286, 287, 288, 289, 290, 291, 292, 293, 294, 295, 296, 297, 298, 299, 300, 301, 302, 303, 304, 305, 306, 307, 308, 309, 310, 311, 312, 313, 314, 315, 316, 317, 318, 319, 320, 321, 322, 323, 324, 325, 326, 327, 328, 329, 330, 331, 332, 333, 334, 335, 336, 337, 338, 339, 340, 341, 342, 343],
      "LargestImagePixelValue": [39046, 36856, 36384, 36003, 35859, 35761, 35758, 35415, 35430, 35674, 35486, 35478, 35275, 35344, 35349, 34850, 35255, 35105, 35428, 35038, 35852, 35338, 34933, 36007, 36743, 34871, 36737, 35921, 35686, 35430, 35671, 36180, 36137, 35705, 36346, 36290, 35654, 36781, 35712, 36938, 35903, 36156, 35737, 36265, 35823, 35898, 35920, 35295, 35655, 35503, 35647, 35396, 35442, 35765, 37149, 36814, 37161, 35796, 35645, 35393, 35151, 34958, 34916, 35429, 36753, 35307, 35094, 34881, 34763, 35122, 35083, 34759, 34844, 34802, 34696, 35214, 35312, 34825, 34836, 34990, 35298, 35463, 35358, 35298, 35313, 35186, 35366, 35234, 35480, 35652, 35965, 35208, 35496, 35015, 36813, 36243, 35802, 35639, 35690, 34881, 35607, 35968, 35637, 36352, 35237, 35145, 35724, 35559, 35422, 35294, 35285, 35570, 35937, 36201, 36561, 35262, 35739, 35313, 35276, 35368, 34891, 35741, 35228, 35095, 35043, 35032, 35595, 35720, 35455, 34968, 35589, 35417, 35513, 35211, 34982, 35391, 35133, 35761, 35304, 35133, 35890, 35931, 35947, 36052, 36615, 36393, 36449, 36130, 36136, 35618, 36139, 35490, 35723, 36341, 36348, 36541, 36759, 37066, 36807, 36317, 35456, 35236, 35786, 36728, 36165, 36988, 36829, 36406, 36112, 36083, 35975, 36504, 36840, 35980, 36560, 36189, 36254, 36899, 36899, 36165, 36774, 36118, 36498, 36861, 36472, 36802, 36553, 36493, 37331, 36937, 37259, 37216, 37445, 37196, 37651, 37068, 37446, 37207, 37446, 37716, 37641, 38067, 36988, 35935, 35561, 36817, 35918, 35433, 35665, 35489, 36372, 36649, 36335, 35045, 35109, 35407, 36326, 36173, 36336, 35931, 35164, 34914, 35562, 36369, 35959, 36554, 37044, 35452, 35376, 36379, 35696, 36118, 35328, 37579, 37385, 35751, 35435, 36073, 36796, 36640, 36335, 36656, 36903, 36717, 37144, 36430, 36657, 36075, 36967, 36968, 36826, 37110, 36795, 37144, 36581, 36472, 37200, 37309, 36854, 36414, 36851, 36737, 37147, 37065, 35799, 36671, 36991, 36483, 38109, 36215, 35896, 35368, 34979, 35598, 35144, 34582, 34679, 35441, 36900, 36397, 38885, 38637, 37549, 35810, 35725, 35217, 35585, 36089, 36248, 36352, 36436, 36033, 34697, 36629, 35618, 36309, 36890, 36007, 36108, 36964, 36657, 37123, 36923, 36559, 36620, 36156, 36429, 36730, 36550, 36154, 36798, 36842, 36655, 36528, 37000, 36606, 37108, 36630, 37569, 36827, 36608, 36908, 36533, 36651, 36355, 36476, 36491, 36545, 36686, 36368, 36980, 36743, 36015, 35413, 35868, 35995, 35695, 36121, 36296, 35874, 35442, 35932, 35430],
