{
  "AcquisitionMatrixPE": 104,
  "AcquisitionNumber": 1,
  "AcquisitionTime": "16:26:17.995000",
  "BandwidthPerPixelPhaseEncode": 17.17,
  "BaseResolution": 104,
  "BodyPartExamined": "BRAIN",
  "CoilCombinationMethod": "Sum of Squares",
  "ConsistencyInfo": "N4_VE11C_LATEST_20160120",
  "ConversionSoftware": "dcm2niix",
  "ConversionSoftwareVersion": "v1.0.20220505",
  "DerivedVendorReportedEchoSpacing": 0.000560011,
  "DeviceSerialNumber": "167006",
  "DwellTime": 2.1e-06,
  "EchoTime": 0.037,
  "EchoTrainLength": 104,
  "EffectiveEchoSpacing": 0.000560011,
  "FlipAngle": 52,
  "HeudiconvVersion": "0.5.3.post811+g6206e14",
  "ImageComments": "Unaliased MB4/PE3/LB",
  "ImageOrientationPatientDICOM": [0.998428, -0.0492981, 0.0266542, 0.0552964, 0.943927, -0.325491],
  "ImageOrientationText": "Tra>Cor(-19.1)>Sag(0.5)",
  "ImageType": [
    "ORIGINAL",
    "PRIMARY",
    "M",
    "MB",
    "ND",
    "MOSAIC"
],
  "ImagingFrequency": 123.26,
  "InPlanePhaseEncodingDirectionDICOM": "COL",
  "InstitutionAddress": "Chemin Queen-Mary 4565,Montreal,District,CA,H3W 1W5",
  "InstitutionName": "IUGM",
  "InstitutionalDepartmentName": "Department",
  "MRAcquisitionType": "2D",
  "MagneticFieldStrength": 3,
  "Manufacturer": "Siemens",
  "ManufacturersModelName": "Prisma_fit",
  "MatrixCoilMode": "SENSE",
  "Modality": "MR",
  "MultibandAccelerationFactor": 4,
  "PartialFourier": 1,
  "PatientPosition": "HFS",
  "PercentPhaseFOV": 100,
  "PercentSampling": 100,
  "PhaseEncodingDirection": "j",
  "PhaseEncodingSteps": 104,
  "PhaseResolution": 1,
  "PixelBandwidth": 2290,
  "ProcedureStepDescription": "games^mario3",
  "ProtocolName": "func_task-mario3_run-01",
  "PulseSequenceDetails": "%CustomerSeq%\\cmrr_mbep2d_bold",
  "ReceiveCoilActiveElements": "HC1-7;NC1,2",
  "ReceiveCoilName": "HeadNeck_64",
  "ReconMatrixPE": 104,
  "RepetitionTime": 1.49,
  "SAR": 0.0625303,
  "ScanOptions": "FS",
  "ScanningSequence": "EP",
  "SequenceName": "epfid2d1_104",
  "SequenceVariant": "SK\\SS",
  "SeriesDescription": "func_task-mario3_run-01",
  "SeriesNumber": 10,
  "ShimSetting": [620, -7285, -8818, 548, 36, -254, -51, -11],
  "SliceThickness": 2,
  "SliceTiming": [0, 0.785, 0.0975, 0.8825, 0.1975, 0.98, 0.295, 1.0775, 0.3925, 1.1775, 0.49, 1.275, 0.5875, 1.3725, 0.6875, 0, 0.785, 0.0975, 0.8825, 0.1975, 0.98, 0.295, 1.0775, 0.3925, 1.1775, 0.49, 1.275, 0.5875, 1.3725, 0.6875, 0, 0.785, 0.0975, 0.8825, 0.1975, 0.98, 0.295, 1.0775, 0.3925, 1.1775, 0.49, 1.275, 0.5875, 1.3725, 0.6875, 0, 0.785, 0.0975, 0.8825, 0.1975, 0.98, 0.295, 1.0775, 0.3925, 1.1775, 0.49, 1.275, 0.5875, 1.3725, 0.6875],
  "SoftwareVersions": "syngo MR E11",
  "SpacingBetweenSlices": 2,
  "StationName": "MRC35049",
  "TaskName": "mario3",
  "TotalReadoutTime": 0.0576811,
  "TxRefAmp": 261.554,
  "WipMemBlock": "c4c7ab6f-8fb5-4610-be17-242d0b37c993||Sequence: R017 ve11c/master r/75a17815+; Jun 28 2022 16:32:11 by eja",
  "dcmmeta_affine": [
    [-1.9968568086624146, 0.1105927973985672, 0.018227169290184975, 100.59275817871094],
    [0.09859614819288254, 1.887853741645813, -0.6529065370559692, -70.2121353149414],
    [0.05330849438905716, 0.6509818434715271, 1.8903387784957886, -64.48714447021484],
    [0.0, 0.0, 0.0, 1.0]
],
  "dcmmeta_reorient_transform": [
    [0.0, -1.0, 0.0, 103.0],
    [1.0, 0.0, 0.0, 0.0],
    [0.0, 0.0, 1.0, 0.0],
    [0.0, 0.0, 0.0, 1.0]
],
  "dcmmeta_shape": [104, 104, 60, 175],
  "dcmmeta_slice_dim": 2,
  "dcmmeta_version": 0.6,
  "global": {
    "const": {
      "AcquisitionMatrix": [104, 0, 0, 104],
      "AngioFlag": "N",
      "BitsAllocated": 16,
      "BitsStored": 16,
      "BodyPartExamined": "BRAIN",
      "Columns": 832,
      "EchoNumbers": 1,
      "EchoTime": 37.0,
      "EchoTrainLength": 104,
      "FlipAngle": 52.0,
      "HighBit": 15,
      "ImageOrientationPatient": [0.99842839044867, -0.0492980753971, 0.02665424747046, 0.05529639878241, 0.94392688678927, -0.3254909225739],
      "ImagePositionPatient": [-879.09546323889, -775.52657703839, 220.11708568619],
      "ImageType": [
        "ORIGINAL",
        "PRIMARY",
        "M",
        "MB",
        "ND",
        "MOSAIC"
],
      "ImagedNucleus": "1H",
      "ImagingFrequency": 123.260309,
      "InPlanePhaseEncodingDirection": "COL",
      "MRAcquisitionType": "2D",
      "MagneticFieldStrength": 3.0,
      "Manufacturer": "SIEMENS",
      "ManufacturerModelName": "Prisma_fit",
      "Modality": "MR",
      "NumberOfAverages": 1.0,
      "NumberOfPhaseEncodingSteps": 104,
      "PercentPhaseFieldOfView": 100.0,
      "PercentSampling": 100.0,
      "PerformedProcedureStepStartTime": "162307.563000",
      "PhotometricInterpretation": "MONOCHROME2",
      "PixelBandwidth": 2290.0,
      "PixelRepresentation": 0,
      "PixelSpacing": [2.0, 2.0],
      "ProtocolName": "func_task-mario3_run-01",
      "RepetitionTime": 1490.0,
      "Rows": 832,
      "SAR": 0.06253026015978,
      "SamplesPerPixel": 1,
      "ScanOptions": "FS",
      "ScanningSequence": "EP",
      "SequenceName": "epfid2d1_104",
      "SequenceVariant": [
        "SK",
        "SS"
],
      "SeriesDescription": "func_task-mario3_run-01",
      "SeriesNumber": 10,
      "SeriesTime": "162730.304000",
      "SliceLocation": -37.113534026083,
      "SliceThickness": 2.0,
      "SmallestImagePixelValue": 0,
      "SoftwareVersions": "syngo MR E11",
      "SpacingBetweenSlices": 1.9999999793661,
      "SpecificCharacterSet": "ISO_IR 100",
      "StudyID": "1",
      "StudyTime": "162307.488000",
      "TransmitCoilName": "Body",
      "VariableFlipAngleFlag": "N",
      "WindowCenterWidthExplanation": "Algo1",
      "dBdt": 0.0},
    "slices": {}
  },
  "time": {
    "samples": {
      "AcquisitionNumber": [1, 2, 3, 4, 5, 6, 7, 8, 9, 10, 11, 12, 13, 14, 15, 16, 17, 18, 19, 20, 21, 22, 23, 24, 25, 26, 27, 28, 29, 30, 31, 32, 33, 34, 35, 36, 37, 38, 39, 40, 41, 42, 43, 44, 45, 46, 47, 48, 49, 50, 51, 52, 53, 54, 55, 56, 57, 58, 59, 60, 61, 62, 63, 64, 65, 66, 67, 68, 69, 70, 71, 72, 73, 74, 75, 76, 77, 78, 79, 80, 81, 82, 83, 84, 85, 86, 87, 88, 89, 90, 91, 92, 93, 94, 95, 96, 97, 98, 99, 100, 101, 102, 103, 104, 105, 106, 107, 108, 109, 110, 111, 112, 113, 114, 115, 116, 117, 118, 119, 120, 121, 122, 123, 124, 125, 126, 127, 128, 129, 130, 131, 132, 133, 134, 135, 136, 137, 138, 139, 140, 141, 142, 143, 144, 145, 146, 147, 148, 149, 150, 151, 152, 153, 154, 155, 156, 157, 158, 159, 160, 161, 162, 163, 164, 165, 166, 167, 168, 169, 170, 171, 172, 173, 174, 175],
      "AcquisitionTime": ["162617.995000", "162619.485000", "162620.975000", "162622.465000", "162623.955000", "162625.445000", "162626.935000", "162628.425000", "162629.915000", "162631.405000", "162632.895000", "162634.385000", "162635.875000", "162637.365000", "162638.855000", "162640.345000", "162641.835000", "162643.325000", "162644.815000", "162646.305000", "162647.795000", "162649.285000", "162650.775000", "162652.265000", "162653.755000", "162655.245000", "162656.735000", "162658.225000", "162659.715000", "162701.205000", "162702.695000", "162704.185000", "162705.675000", "162707.165000", "162708.655000", "162710.145000", "162711.635000", "162713.125000", "162714.615000", "162716.105000", "162717.595000", "162719.085000", "162720.575000", "162722.065000", "162723.555000", "162725.045000", "162726.535000", "162728.025000", "162729.515000", "162731.005000", "162732.495000", "162733.985000", "162735.475000", "162736.965000", "162738.455000", "162739.945000", "162741.435000", "162742.925000", "162744.415000", "162745.905000", "162747.395000", "162748.885000", "162750.375000", "162751.865000", "162753.355000", "162754.845000", "162756.335000", "162757.825000", "162759.315000", "162800.805000", "162802.295000", "162803.785000", "162805.275000", "162806.765000", "162808.255000", "162809.745000", "162811.235000", "162812.725000", "162814.215000", "162815.705000", "162817.195000", "162818.685000", "162820.175000", "162821.665000", "162823.155000", "162824.645000", "162826.135000", "162827.625000", "162829.115000", "162830.605000", "162832.095000", "162833.585000", "162835.075000", "162836.565000", "162838.055000", "162839.545000", "162841.035000", "162842.525000", "162844.015000", "162845.505000", "162846.995000", "162848.485000", "162849.975000", "162851.465000", "162852.955000", "162854.445000", "162855.935000", "162857.425000", "162858.915000", "162900.405000", "162901.895000", "162903.385000", "162904.875000", "162906.365000", "162907.855000", "162909.345000", "162910.835000", "162912.325000", "162913.815000", "162915.305000", "162916.795000", "162918.285000", "162919.775000", "162921.265000", "162922.755000", "162924.245000", "162925.735000", "162927.225000", "162928.715000", "162930.205000", "162931.695000", "162933.185000", "162934.675000", "162936.165000", "162937.655000", "162939.145000", "162940.635000", "162942.125000", "162943.615000", "162945.105000", "162946.595000", "162948.085000", "162949.575000", "162951.065000", "162952.555000", "162954.045000", "162955.535000", "162957.025000", "162958.515000", "163000.005000", "163001.495000", "163002.985000", "163004.475000", "163005.965000", "163007.455000", "163008.945000", "163010.435000", "163011.925000", "163013.415000", "163014.905000", "163016.395000", "163017.885000", "163019.375000", "163020.865000", "163022.355000", "163023.845000", "163025.335000", "163026.825000", "163028.315000", "163029.805000", "163031.295000", "163032.785000", "163034.275000", "163035.765000", "163037.255000"],
      "ContentTime": ["162730.308000", "162730.312000", "162730.316000", "162730.319000", "162730.322000", "162730.326000", "162730.329000", "162730.333000", "162730.336000", "162730.339000", "162730.343000", "162730.346000", "162730.350000", "162730.353000", "162730.356000", "162730.360000", "162730.363000", "162730.367000", "162730.370000", "162730.373000", "162730.377000", "162730.380000", "162730.384000", "162730.387000", "162730.390000", "162750.267000", "162750.271000", "162750.274000", "162750.278000", "162750.281000", "162750.284000", "162750.288000", "162750.291000", "162750.295000", "162750.298000", "162750.302000", "162750.305000", "162750.308000", "162750.312000", "162750.315000", "162750.319000", "162750.322000", "162750.325000", "162750.329000", "162750.332000", "162810.267000", "162810.271000", "162810.274000", "162810.278000", "162810.281000", "162810.284000", "162810.288000", "162810.291000", "162810.295000", "162810.298000", "162810.302000", "162810.305000", "162810.308000", "162810.312000", "162810.315000", "162810.319000", "162810.322000", "162810.332000", "162810.335000", "162810.339000", "162830.267000", "162830.271000", "162830.274000", "162830.278000", "162830.281000", "162830.285000", "162830.288000", "162830.291000", "162830.295000", "162830.298000", "162830.302000", "162830.305000", "162830.309000", "162830.312000", "162830.315000", "162830.319000", "162830.323000", "162830.326000", "162830.330000", "162830.333000", "162910.267000", "162910.271000", "162910.274000", "162910.286000", "162910.289000", "162910.301000", "162910.304000", "162910.308000", "162910.311000", "162910.315000", "162910.318000", "162910.322000", "162910.325000", "162910.329000", "162910.332000", "162910.335000", "162910.339000", "162910.342000", "162910.346000", "162910.349000", "162910.353000", "162910.356000", "162910.359000", "162910.363000", "162910.366000", "162910.370000", "162910.373000", "162910.377000", "162910.380000", "162910.383000", "162950.267000", "162950.271000", "162950.275000", "162950.278000", "162950.282000", "162950.285000", "162950.289000", "162950.292000", "162950.295000", "162950.299000", "162950.303000", "162950.306000", "162950.309000", "162950.313000", "162950.316000", "162950.320000", "162950.323000", "162950.326000", "162950.330000", "162950.333000", "162950.337000", "162950.340000", "162950.344000", "162950.347000", "162950.350000", "162950.354000", "162950.357000", "163010.281000", "163010.285000", "163010.288000", "163010.292000", "163010.295000", "163010.299000", "163010.302000", "163010.306000", "163010.309000", "163010.312000", "163010.316000", "163010.319000", "163010.323000", "163040.233000", "163040.237000", "163040.240000", "163040.244000", "163040.247000", "163040.251000", "163040.254000", "163040.257000", "163040.261000", "163040.264000", "163040.268000", "163040.271000", "163040.275000", "163040.278000", "163040.282000", "163040.285000", "163040.288000", "163040.292000", "163040.295000", "163040.299000"],
      "InstanceCreationTime": ["162730.308000", "162730.312000", "162730.316000", "162730.319000", "162730.322000", "162730.326000", "162730.329000", "162730.333000", "162730.336000", "162730.339000", "162730.343000", "162730.346000", "162730.350000", "162730.353000", "162730.356000", "162730.360000", "162730.363000", "162730.367000", "162730.370000", "162730.373000", "162730.377000", "162730.380000", "162730.384000", "162730.387000", "162730.390000", "162750.267000", "162750.271000", "162750.274000", "162750.278000", "162750.281000", "162750.284000", "162750.288000", "162750.291000", "162750.295000", "162750.298000", "162750.302000", "162750.305000", "162750.308000", "162750.312000", "162750.315000", "162750.319000", "162750.322000", "162750.325000", "162750.329000", "162750.332000", "162810.267000", "162810.271000", "162810.274000", "162810.278000", "162810.281000", "162810.284000", "162810.288000", "162810.291000", "162810.295000", "162810.298000", "162810.302000", "162810.305000", "162810.308000", "162810.312000", "162810.315000", "162810.319000", "162810.322000", "162810.332000", "162810.335000", "162810.339000", "162830.267000", "162830.271000", "162830.274000", "162830.278000", "162830.281000", "162830.285000", "162830.288000", "162830.291000", "162830.295000", "162830.298000", "162830.302000", "162830.305000", "162830.309000", "162830.312000", "162830.315000", "162830.319000", "162830.323000", "162830.326000", "162830.330000", "162830.333000", "162910.267000", "162910.271000", "162910.274000", "162910.286000", "162910.289000", "162910.301000", "162910.304000", "162910.308000", "162910.311000", "162910.315000", "162910.318000", "162910.322000", "162910.325000", "162910.329000", "162910.332000", "162910.335000", "162910.339000", "162910.342000", "162910.346000", "162910.349000", "162910.353000", "162910.356000", "162910.359000", "162910.363000", "162910.366000", "162910.370000", "162910.373000", "162910.377000", "162910.380000", "162910.383000", "162950.267000", "162950.271000", "162950.275000", "162950.278000", "162950.282000", "162950.285000", "162950.289000", "162950.292000", "162950.295000", "162950.299000", "162950.303000", "162950.306000", "162950.309000", "162950.313000", "162950.316000", "162950.320000", "162950.323000", "162950.326000", "162950.330000", "162950.333000", "162950.337000", "162950.340000", "162950.344000", "162950.347000", "162950.350000", "162950.354000", "162950.357000", "163010.281000", "163010.285000", "163010.288000", "163010.292000", "163010.295000", "163010.299000", "163010.302000", "163010.306000", "163010.309000", "163010.312000", "163010.316000", "163010.319000", "163010.323000", "163040.233000", "163040.237000", "163040.240000", "163040.244000", "163040.247000", "163040.251000", "163040.254000", "163040.257000", "163040.261000", "163040.264000", "163040.268000", "163040.271000", "163040.275000", "163040.278000", "163040.282000", "163040.285000", "163040.288000", "163040.292000", "163040.295000", "163040.299000"],
      "InstanceNumber": [1, 2, 3, 4, 5, 6, 7, 8, 9, 10, 11, 12, 13, 14, 15, 16, 17, 18, 19, 20, 21, 22, 23, 24, 25, 26, 27, 28, 29, 30, 31, 32, 33, 34, 35, 36, 37, 38, 39, 40, 41, 42, 43, 44, 45, 46, 47, 48, 49, 50, 51, 52, 53, 54, 55, 56, 57, 58, 59, 60, 61, 62, 63, 64, 65, 66, 67, 68, 69, 70, 71, 72, 73, 74, 75, 76, 77, 78, 79, 80, 81, 82, 83, 84, 85, 86, 87, 88, 89, 90, 91, 92, 93, 94, 95, 96, 97, 98, 99, 100, 101, 102, 103, 104, 105, 106, 107, 108, 109, 110, 111, 112, 113, 114, 115, 116, 117, 118, 119, 120, 121, 122, 123, 124, 125, 126, 127, 128, 129, 130, 131, 132, 133, 134, 135, 136, 137, 138, 139, 140, 141, 142, 143, 144, 145, 146, 147, 148, 149, 150, 151, 152, 153, 154, 155, 156, 157, 158, 159, 160, 161, 162, 163, 164, 165, 166, 167, 168, 169, 170, 171, 172, 173, 174, 175],
      "LargestImagePixelValue": [40472, 39009, 38853, 38848, 37781, 37789, 38147, 37259, 37687, 37744, 38157, 38312, 38092, 37154, 37290, 38083, 38196, 37777, 38626, 38209, 38261, 37981, 38346, 37778, 37956, 38230, 37717, 37837, 38165, 37959, 37993, 37849, 38176, 37979, 38115, 38190, 38417, 38370, 37921, 38288, 38405, 38522, 38404, 38438, 37707, 37690, 38034, 38513, 38102, 37803, 38199, 38402, 38379, 37814, 38060, 38092, 38266, 37996, 38287, 37569, 37867, 38136, 37785, 37215, 37511, 37740, 38119, 37701, 37923, 37790, 37576, 37479, 37730, 37709, 37309, 37676, 38095, 37392, 37742, 37616, 37803, 37756, 36960, 38066, 36907, 37588, 36992, 37871, 37272, 37414, 36920, 37356, 36432, 36962, 36719, 36975, 36275, 36840, 37215, 36657, 37406, 36039, 37572, 36972, 36466, 36428, 36055, 37102, 36440, 36084, 37036, 36903, 36222, 36573, 37229, 35615, 36692, 36559, 37142, 36314, 36680, 35832, 36566, 35702, 35612, 35708, 35315, 35734, 35243, 35397, 35059, 35665, 35389, 36249, 35798, 35480, 34757, 34967, 35386, 35102, 35880, 35434, 34886, 34825, 35301, 35490, 35694, 35193, 34881, 34796, 35460, 35247, 34851, 35251, 35836, 34709, 34599, 34908, 34878, 35058, 34829, 34930, 35041, 35329, 34927, 35863, 35136, 34582, 35206, 35644, 37191, 36961, 37658, 37780, 37350],
      "WindowCenter": [9983.0, 9944.0, 9909.0, 9893.0, 9874.0, 9879.0, 9904.0, 9916.0, 9932.0, 9931.0, 9924.0, 9935.0, 9935.0, 9921.0, 9943.0, 9924.0, 9915.0, 9897.0, 9883.0, 9853.0, 9849.0, 9868.0, 9892.0, 9881.0, 9880.0, 9869.0, 9872.0, 9887.0, 9895.0, 9896.0, 9897.0, 9891.0, 9886.0, 9885.0, 9894.0, 9904.0, 9903.0, 9895.0, 9888.0, 9902.0, 9901.0, 9912.0, 9921.0, 9916.0, 9906.0, 9868.0, 9856.0, 9876.0, 9861.0, 9840.0, 9820.0, 9809.0, 9834.0, 9849.0, 9869.0, 9872.0, 9878.0, 9889.0, 9902.0, 9891.0, 9890.0, 9890.0, 9890.0, 9892.0, 9902.0, 9917.0, 9915.0, 9911.0, 9899.0, 9901.0, 9903.0, 9894.0, 9885.0, 9884.0, 9891.0, 9900.0, 9899.0, 9885.0, 9886.0, 9876.0, 9884.0, 9885.0, 9880.0, 9891.0, 9877.0, 9879.0, 9876.0, 9891.0, 9896.0, 9887.0, 9872.0, 9876.0, 9867.0, 9879.0, 9880.0, 9880.0, 9861.0, 9857.0, 9872.0, 9874.0, 9887.0, 9894.0, 9920.0, 9916.0, 9880.0, 9868.0, 9858.0, 9897.0, 9886.0, 9862.0, 9854.0, 9853.0, 9837.0, 9835.0, 9846.0, 9829.0, 9849.0, 9859.0, 9868.0, 9863.0, 9876.0, 9873.0, 9869.0, 9863.0, 9873.0, 9883.0, 9878.0, 9883.0, 9878.0, 9886.0, 9894.0, 9892.0, 9868.0, 9858.0, 9892.0, 9893.0, 9880.0, 9873.0, 9867.0, 9851.0, 9842.0, 9844.0, 9808.0, 9843.0, 9852.0, 9886.0, 9893.0, 9872.0, 9863.0, 9864.0, 9859.0, 9837.0, 9844.0, 9843.0, 9857.0, 9881.0, 9871.0, 9842.0, 9808.0, 9813.0, 9804.0, 9803.0, 9810.0, 9817.0, 9837.0, 9877.0, 9864.0, 9850.0, 9870.0, 9884.0, 9911.0, 9659.0, 9840.0, 9818.0, 9839.0],
      "WindowWidth": [21440.0, 21317.0, 21221.0, 21169.0, 21123.0, 21129.0, 21181.0, 21208.0, 21244.0, 21241.0, 21227.0, 21244.0, 21252.0, 21222.0, 21273.0, 21226.0, 21205.0, 21165.0, 21129.0, 21066.0, 21052.0, 21095.0, 21151.0, 21133.0, 21132.0, 21105.0, 21115.0, 21145.0, 21161.0, 21165.0, 21163.0, 21152.0, 21136.0, 21136.0, 21157.0, 21183.0, 21177.0, 21161.0, 21145.0, 21175.0, 21174.0, 21197.0, 21217.0, 21206.0, 21189.0, 21108.0, 21079.0, 21116.0, 21085.0, 21040.0, 20993.0, 20968.0, 21022.0, 21064.0, 21105.0, 21113.0, 21122.0, 21146.0, 21173.0, 21155.0, 21149.0, 21152.0, 21147.0, 21157.0, 21178.0, 21209.0, 21206.0, 21200.0, 21171.0, 21173.0, 21180.0, 21160.0, 21143.0, 21136.0, 21150.0, 21172.0, 21170.0, 21144.0, 21143.0, 21121.0, 21138.0, 21142.0, 21134.0, 21154.0, 21130.0, 21131.0, 21124.0, 21153.0, 21168.0, 21146.0, 21119.0, 21119.0, 21108.0, 21130.0, 21134.0, 21133.0, 21094.0, 21084.0, 21113.0, 21120.0, 21148.0, 21166.0, 21216.0, 21212.0, 21133.0, 21108.0, 21088.0, 21168.0, 21149.0, 21096.0, 21070.0, 21072.0, 21044.0, 21037.0, 21054.0, 21027.0, 21065.0, 21088.0, 21109.0, 21099.0, 21125.0, 21124.0, 21110.0, 21098.0, 21121.0, 21144.0, 21140.0, 21146.0, 21140.0, 21153.0, 21173.0, 21167.0, 21116.0, 21085.0, 21166.0, 21167.0, 21141.0, 21125.0, 21107.0, 21073.0, 21052.0, 21063.0, 20985.0, 21061.0, 21081.0, 21156.0, 21163.0, 21121.0, 21103.0, 21108.0, 21088.0, 21044.0, 21059.0, 21056.0, 21084.0, 21141.0, 21126.0, 21058.0, 20985.0, 20993.0, 20974.0, 20968.0, 20983.0, 21002.0, 21050.0, 21133.0, 21106.0, 21075.0, 21112.0, 21145.0, 21213.0, 20639.0, 21054.0, 20982.0, 21027.0]
    },
    "slices": {}
  }
}