{
  "AcquisitionMatrixPE": 104,
  "AcquisitionNumber": 1,
  "AcquisitionTime": "16:34:40.075000",
  "BandwidthPerPixelPhaseEncode": 17.17,
  "BaseResolution": 104,
  "BodyPartExamined": "BRAIN",
  "CoilCombinationMethod": "Sum of Squares",
  "ConsistencyInfo": "N4_VE11C_LATEST_20160120",
  "ConversionSoftware": "dcm2niix",
  "ConversionSoftwareVersion": "v1.0.20220505",
  "DerivedVendorReportedEchoSpacing": 0.000560011,
  "DeviceSerialNumber": "167006",
  "DwellTime": 2.1e-06,
  "EchoTime": 0.037,
  "EchoTime1": 0.037,
  "EchoTime2": 0.001,
  "EchoTrainLength": 104,
  "EffectiveEchoSpacing": 0.000560011,
  "FlipAngle": 52,
  "HeudiconvVersion": "0.5.3.post811+g6206e14",
  "ImageComments": "Unaliased MB4/PE3/LB",
  "ImageOrientationPatientDICOM": [0.998428, -0.0492981, 0.0266542, 0.0552964, 0.943927, -0.325491],
  "ImageOrientationText": "Tra>Cor(-19.1)>Sag(0.5)",
  "ImageType": [
    "ORIGINAL",
    "PRIMARY",
    "P",
    "MB",
    "ND",
    "MOSAIC",
    "PHASE"
],
  "ImagingFrequency": 123.26,
  "InPlanePhaseEncodingDirectionDICOM": "COL",
  "InstitutionAddress": "Chemin Queen-Mary 4565,Montreal,District,CA,H3W 1W5",
  "InstitutionName": "IUGM",
  "InstitutionalDepartmentName": "Department",
  "MRAcquisitionType": "2D",
  "MagneticFieldStrength": 3,
  "Manufacturer": "Siemens",
  "ManufacturersModelName": "Prisma_fit",
  "MatrixCoilMode": "SENSE",
  "Modality": "MR",
  "MultibandAccelerationFactor": 4,
  "PartialFourier": 1,
  "PatientPosition": "HFS",
  "PercentPhaseFOV": 100,
  "PercentSampling": 100,
  "PhaseEncodingDirection": "j",
  "PhaseEncodingSteps": 104,
  "PhaseResolution": 1,
  "PixelBandwidth": 2290,
  "ProcedureStepDescription": "games^mario3",
  "ProtocolName": "func_task-mario3_run-01",
  "PulseSequenceDetails": "%CustomerSeq%\\cmrr_mbep2d_bold",
  "ReceiveCoilActiveElements": "HC1-7;NC1,2",
  "ReceiveCoilName": "HeadNeck_64",
  "ReconMatrixPE": 104,
  "RepetitionTime": 1.49,
  "SAR": 0.0625303,
  "ScanOptions": "FS",
  "ScanningSequence": "EP",
  "SequenceName": "epfid2d1_104",
  "SequenceVariant": "SK\\SS",
  "SeriesDescription": "func_task-mario3_run-01",
  "SeriesNumber": 14,
  "ShimSetting": [620, -7285, -8818, 548, 36, -254, -51, -11],
  "SliceThickness": 2,
  "SliceTiming": [0, 0.785, 0.1, 0.8825, 0.1975, 0.98, 0.295, 1.08, 0.3925, 1.1775, 0.49, 1.275, 0.59, 1.3725, 0.6875, 0, 0.785, 0.1, 0.8825, 0.1975, 0.98, 0.295, 1.08, 0.3925, 1.1775, 0.49, 1.275, 0.59, 1.3725, 0.6875, 0, 0.785, 0.1, 0.8825, 0.1975, 0.98, 0.295, 1.08, 0.3925, 1.1775, 0.49, 1.275, 0.59, 1.3725, 0.6875, 0, 0.785, 0.1, 0.8825, 0.1975, 0.98, 0.295, 1.08, 0.3925, 1.1775, 0.49, 1.275, 0.59, 1.3725, 0.6875],
  "SoftwareVersions": "syngo MR E11",
  "SpacingBetweenSlices": 2,
  "StationName": "MRC35049",
  "TaskName": "mario3",
  "TotalReadoutTime": 0.0576811,
  "TxRefAmp": 261.554,
  "WipMemBlock": "58ea3f7e-919c-4d1e-9148-bf084303d07d||Sequence: R017 ve11c/master r/75a17815+; Jun 28 2022 16:32:11 by eja",
  "dcmmeta_affine": [
    [-1.9968568086624146, 0.1105927973985672, 0.018227169290184975, 100.59275817871094],
    [0.09859614819288254, 1.887853741645813, -0.6529065370559692, -70.2121353149414],
    [0.05330849438905716, 0.6509818434715271, 1.8903387784957886, -64.48714447021484],
    [0.0, 0.0, 0.0, 1.0]
],
  "dcmmeta_reorient_transform": [
    [0.0, -1.0, 0.0, 103.0],
    [1.0, 0.0, 0.0, 0.0],
    [0.0, 0.0, 1.0, 0.0],
    [0.0, 0.0, 0.0, 1.0]
],
  "dcmmeta_shape": [104, 104, 60, 351],
  "dcmmeta_slice_dim": 2,
  "dcmmeta_version": 0.6,
  "global": {
    "const": {
      "AcquisitionMatrix": [104, 0, 0, 104],
      "AngioFlag": "N",
      "BitsAllocated": 16,
      "BitsStored": 16,
      "BodyPartExamined": "BRAIN",
      "Columns": 832,
      "EchoNumbers": 1,
      "EchoTime": 37.0,
      "EchoTrainLength": 104,
      "FlipAngle": 52.0,
      "HighBit": 15,
      "ImageOrientationPatient": [0.99842839044867, -0.0492980753971, 0.02665424747046, 0.05529639878241, 0.94392688678927, -0.3254909225739],
      "ImagePositionPatient": [-879.09546323889, -775.52657703839, 220.11708568619],
      "ImageType": [
        "ORIGINAL",
        "PRIMARY",
        "P",
        "MB",
        "ND",
        "MOSAIC"
],
      "ImagedNucleus": "1H",
      "ImagingFrequency": 123.260308,
      "InPlanePhaseEncodingDirection": "COL",
      "LargestImagePixelValue": 4095,
      "MRAcquisitionType": "2D",
      "MagneticFieldStrength": 3.0,
      "Manufacturer": "SIEMENS",
      "ManufacturerModelName": "Prisma_fit",
      "Modality": "MR",
      "NumberOfAverages": 1.0,
      "NumberOfPhaseEncodingSteps": 104,
      "PercentPhaseFieldOfView": 100.0,
      "PercentSampling": 100.0,
      "PerformedProcedureStepStartTime": "162307.563000",
      "PhotometricInterpretation": "MONOCHROME2",
      "PixelBandwidth": 2290.0,
      "PixelRepresentation": 0,
      "PixelSpacing": [2.0, 2.0],
      "ProtocolName": "func_task-mario3_run-01",
      "RepetitionTime": 1490.0,
      "RescaleIntercept": -4096.0,
      "RescaleSlope": 2.0,
      "RescaleType": "US",
      "Rows": 832,
      "SAR": 0.06253026015978,
      "SamplesPerPixel": 1,
      "ScanOptions": "FS",
      "ScanningSequence": "EP",
      "SequenceName": "epfid2d1_104",
      "SequenceVariant": [
        "SK",
        "SS"
],
      "SeriesDescription": "func_task-mario3_run-01",
      "SeriesNumber": 14,
      "SeriesTime": "163607.701000",
      "SliceLocation": -37.113534026083,
      "SliceThickness": 2.0,
      "SmallestImagePixelValue": 0,
      "SoftwareVersions": "syngo MR E11",
      "SpacingBetweenSlices": 1.9999999793661,
      "SpecificCharacterSet": "ISO_IR 100",
      "StudyID": "1",
      "StudyTime": "162307.488000",
      "TransmitCoilName": "Body",
      "VariableFlipAngleFlag": "N",
      "WindowCenterWidthExplanation": "Algo1",
      "dBdt": 0.0},
    "slices": {}
  },
  "time": {
    "samples": {
      "AcquisitionNumber": [1, 2, 3, 4, 5, 6, 7, 8, 9, 10, 11, 12, 13, 14, 15, 16, 17, 18, 19, 20, 21, 22, 23, 24, 25, 26, 27, 28, 29, 30, 31, 32, 33, 34, 35, 36, 37, 38, 39, 40, 41, 42, 43, 44, 45, 46, 47, 48, 49, 50, 51, 52, 53, 54, 55, 56, 57, 58, 59, 60, 61, 62, 63, 64, 65, 66, 67, 68, 69, 70, 71, 72, 73, 74, 75, 76, 77, 78, 79, 80, 81, 82, 83, 84, 85, 86, 87, 88, 89, 90, 91, 92, 93, 94, 95, 96, 97, 98, 99, 100, 101, 102, 103, 104, 105, 106, 107, 108, 109, 110, 111, 112, 113, 114, 115, 116, 117, 118, 119, 120, 121, 122, 123, 124, 125, 126, 127, 128, 129, 130, 131, 132, 133, 134, 135, 136, 137, 138, 139, 140, 141, 142, 143, 144, 145, 146, 147, 148, 149, 150, 151, 152, 153, 154, 155, 156, 157, 158, 159, 160, 161, 162, 163, 164, 165, 166, 167, 168, 169, 170, 171, 172, 173, 174, 175, 176, 177, 178, 179, 180, 181, 182, 183, 184, 185, 186, 187, 188, 189, 190, 191, 192, 193, 194, 195, 196, 197, 198, 199, 200, 201, 202, 203, 204, 205, 206, 207, 208, 209, 210, 211, 212, 213, 214, 215, 216, 217, 218, 219, 220, 221, 222, 223, 224, 225, 226, 227, 228, 229, 230, 231, 232, 233, 234, 235, 236, 237, 238, 239, 240, 241, 242, 243, 244, 245, 246, 247, 248, 249, 250, 251, 252, 253, 254, 255, 256, 257, 258, 259, 260, 261, 262, 263, 264, 265, 266, 267, 268, 269, 270, 271, 272, 273, 274, 275, 276, 277, 278, 279, 280, 281, 282, 283, 284, 285, 286, 287, 288, 289, 290, 291, 292, 293, 294, 295, 296, 297, 298, 299, 300, 301, 302, 303, 304, 305, 306, 307, 308, 309, 310, 311, 312, 313, 314, 315, 316, 317, 318, 319, 320, 321, 322, 323, 324, 325, 326, 327, 328, 329, 330, 331, 332, 333, 334, 335, 336, 337, 338, 339, 340, 341, 342, 343, 344, 345, 346, 347, 348, 349, 350, 351],
      "AcquisitionTime": ["163440.075000", "163441.565000", "163443.055000", "163444.545000", "163446.035000", "163447.525000", "163449.015000", "163450.505000", "163451.995000", "163453.485000", "163454.975000", "163456.465000", "163457.955000", "163459.445000", "163500.935000", "163502.425000", "163503.915000", "163505.405000", "163506.895000", "163508.385000", "163509.875000", "163511.365000", "163512.855000", "163514.345000", "163515.835000", "163517.325000", "163518.815000", "163520.305000", "163521.795000", "163523.285000", "163524.775000", "163526.265000", "163527.755000", "163529.245000", "163530.735000", "163532.225000", "163533.715000", "163535.205000", "163536.695000", "163538.185000", "163539.675000", "163541.165000", "163542.655000", "163544.145000", "163545.635000", "163547.125000", "163548.615000", "163550.105000", "163551.595000", "163553.085000", "163554.575000", "163556.065000", "163557.555000", "163559.045000", "163600.535000", "163602.025000", "163603.515000", "163605.005000", "163606.495000", "163607.985000", "163609.475000", "163610.965000", "163612.455000", "163613.945000", "163615.435000", "163616.925000", "163618.415000", "163619.905000", "163621.395000", "163622.885000", "163624.375000", "163625.865000", "163627.355000", "163628.845000", "163630.335000", "163631.825000", "163633.315000", "163634.805000", "163636.295000", "163637.785000", "163639.275000", "163640.765000", "163642.255000", "163643.745000", "163645.235000", "163646.725000", "163648.215000", "163649.705000", "163651.195000", "163652.685000", "163654.175000", "163655.665000", "163657.155000", "163658.645000", "163700.135000", "163701.625000", "163703.115000", "163704.605000", "163706.095000", "163707.585000", "163709.075000", "163710.565000", "163712.055000", "163713.545000", "163715.035000", "163716.525000", "163718.015000", "163719.505000", "163720.995000", "163722.485000", "163723.975000", "163725.465000", "163726.955000", "163728.445000", "163729.935000", "163731.425000", "163732.915000", "163734.405000", "163735.895000", "163737.385000", "163738.875000", "163740.365000", "163741.855000", "163743.345000", "163744.835000", "163746.325000", "163747.815000", "163749.305000", "163750.795000", "163752.285000", "163753.775000", "163755.265000", "163756.755000", "163758.245000", "163759.735000", "163801.225000", "163802.715000", "163804.205000", "163805.695000", "163807.185000", "163808.675000", "163810.165000", "163811.655000", "163813.145000", "163814.635000", "163816.125000", "163817.615000", "163819.105000", "163820.595000", "163822.085000", "163823.575000", "163825.065000", "163826.555000", "163828.045000", "163829.535000", "163831.025000", "163832.515000", "163834.005000", "163835.495000", "163836.985000", "163838.475000", "163839.965000", "163841.455000", "163842.945000", "163844.435000", "163845.925000", "163847.415000", "163848.905000", "163850.395000", "163851.885000", "163853.375000", "163854.865000", "163856.355000", "163857.845000", "163859.335000", "163900.825000", "163902.315000", "163903.805000", "163905.295000", "163906.785000", "163908.275000", "163909.765000", "163911.255000", "163912.745000", "163914.235000", "163915.725000", "163917.215000", "163918.705000", "163920.195000", "163921.685000", "163923.175000", "163924.665000", "163926.155000", "163927.645000", "163929.135000", "163930.625000", "163932.115000", "163933.605000", "163935.095000", "163936.585000", "163938.075000", "163939.565000", "163941.055000", "163942.545000", "163944.035000", "163945.525000", "163947.015000", "163948.505000", "163949.995000", "163951.485000", "163952.975000", "163954.465000", "163955.955000", "163957.445000", "163958.935000", "164000.425000", "164001.915000", "164003.405000", "164004.895000", "164006.385000", "164007.875000", "164009.365000", "164010.855000", "164012.345000", "164013.835000", "164015.325000", "164016.815000", "164018.305000", "164019.795000", "164021.285000", "164022.775000", "164024.265000", "164025.755000", "164027.245000", "164028.735000", "164030.225000", "164031.715000", "164033.205000", "164034.695000", "164036.185000", "164037.675000", "164039.165000", "164040.655000", "164042.145000", "164043.635000", "164045.125000", "164046.615000", "164048.105000", "164049.595000", "164051.085000", "164052.575000", "164054.065000", "164055.555000", "164057.045000", "164058.535000", "164100.025000", "164101.515000", "164103.005000", "164104.495000", "164105.985000", "164107.475000", "164108.965000", "164110.455000", "164111.945000", "164113.435000", "164114.925000", "164116.415000", "164117.905000", "164119.395000", "164120.885000", "164122.375000", "164123.865000", "164125.355000", "164126.845000", "164128.335000", "164129.825000", "164131.315000", "164132.805000", "164134.295000", "164135.785000", "164137.275000", "164138.765000", "164140.255000", "164141.745000", "164143.235000", "164144.725000", "164146.215000", "164147.705000", "164149.195000", "164150.685000", "164152.175000", "164153.665000", "164155.155000", "164156.645000", "164158.135000", "164159.625000", "164201.115000", "164202.605000", "164204.095000", "164205.585000", "164207.075000", "164208.565000", "164210.055000", "164211.545000", "164213.035000", "164214.525000", "164216.015000", "164217.505000", "164218.995000", "164220.485000", "164221.975000", "164223.465000", "164224.955000", "164226.445000", "164227.935000", "164229.425000", "164230.915000", "164232.405000", "164233.895000", "164235.385000", "164236.875000", "164238.365000", "164239.855000", "164241.345000", "164242.835000", "164244.325000", "164245.815000", "164247.305000", "164248.795000", "164250.285000", "164251.775000", "164253.265000", "164254.755000", "164256.245000", "164257.735000", "164259.225000", "164300.715000", "164302.205000", "164303.695000", "164305.185000", "164306.675000", "164308.165000", "164309.655000", "164311.145000", "164312.635000", "164314.125000", "164315.615000", "164317.105000", "164318.595000", "164320.085000", "164321.575000"],
      "ContentTime": ["163607.703000", "163607.706000", "163607.709000", "163607.711000", "163607.714000", "163607.716000", "163607.719000", "163607.722000", "163607.724000", "163607.727000", "163607.729000", "163607.735000", "163607.738000", "163607.740000", "163607.743000", "163607.745000", "163607.748000", "163607.750000", "163607.753000", "163607.755000", "163607.758000", "163607.760000", "163607.763000", "163607.766000", "163607.768000", "163607.771000", "163607.773000", "163607.776000", "163607.778000", "163607.781000", "163607.784000", "163607.786000", "163607.789000", "163607.791000", "163607.794000", "163607.797000", "163607.799000", "163607.802000", "163627.592000", "163627.594000", "163627.597000", "163627.600000", "163627.602000", "163627.605000", "163627.608000", "163627.610000", "163627.613000", "163627.615000", "163627.629000", "163627.632000", "163627.635000", "163627.637000", "163627.640000", "163627.652000", "163627.654000", "163627.657000", "163627.659000", "163627.662000", "163647.579000", "163647.582000", "163647.585000", "163647.587000", "163647.590000", "163647.592000", "163647.595000", "163647.597000", "163647.600000", "163647.603000", "163647.605000", "163647.608000", "163647.610000", "163647.613000", "163647.615000", "163647.618000", "163647.621000", "163647.623000", "163647.626000", "163647.628000", "163707.590000", "163707.593000", "163707.595000", "163707.598000", "163707.600000", "163707.603000", "163707.606000", "163707.608000", "163707.611000", "163707.613000", "163707.616000", "163707.619000", "163707.621000", "163707.624000", "163707.626000", "163707.629000", "163707.631000", "163707.634000", "163707.637000", "163707.640000", "163747.614000", "163747.617000", "163747.620000", "163747.622000", "163747.625000", "163747.628000", "163747.630000", "163747.633000", "163747.635000", "163747.638000", "163747.641000", "163747.643000", "163747.646000", "163747.648000", "163747.651000", "163747.653000", "163747.656000", "163747.658000", "163747.661000", "163747.663000", "163747.666000", "163747.669000", "163747.671000", "163747.674000", "163747.676000", "163747.679000", "163747.682000", "163827.617000", "163827.620000", "163827.622000", "163827.625000", "163827.627000", "163827.630000", "163827.632000", "163827.635000", "163827.638000", "163827.640000", "163827.643000", "163827.645000", "163827.648000", "163827.650000", "163827.653000", "163827.655000", "163827.658000", "163827.661000", "163827.663000", "163827.666000", "163827.669000", "163827.671000", "163827.674000", "163827.676000", "163827.679000", "163827.682000", "163827.684000", "163907.642000", "163907.645000", "163907.647000", "163907.650000", "163907.652000", "163907.655000", "163907.657000", "163907.660000", "163907.662000", "163907.665000", "163907.668000", "163907.670000", "163907.673000", "163907.675000", "163907.678000", "163907.680000", "163907.683000", "163907.686000", "163907.688000", "163907.691000", "163907.693000", "163907.696000", "163907.698000", "163907.701000", "163907.704000", "163907.706000", "163907.709000", "163947.621000", "163947.624000", "163947.626000", "163947.629000", "163947.631000", "163947.634000", "163947.636000", "163947.639000", "163947.642000", "163947.644000", "163947.653000", "163947.656000", "163947.658000", "163947.661000", "163947.664000", "163947.666000", "163947.669000", "163947.671000", "163947.674000", "163947.676000", "163947.679000", "163947.681000", "163947.684000", "163947.686000", "163947.689000", "163947.692000", "163947.694000", "164007.562000", "164007.564000", "164007.567000", "164007.570000", "164007.572000", "164007.575000", "164007.577000", "164007.580000", "164007.583000", "164007.585000", "164007.588000", "164007.590000", "164007.593000", "164047.660000", "164047.663000", "164047.666000", "164047.668000", "164047.671000", "164047.674000", "164047.677000", "164047.679000", "164047.682000", "164047.685000", "164047.687000", "164047.690000", "164047.692000", "164047.695000", "164047.697000", "164047.700000", "164047.703000", "164047.705000", "164047.708000", "164047.710000", "164047.713000", "164047.715000", "164047.718000", "164047.721000", "164047.723000", "164047.726000", "164047.730000", "164127.647000", "164127.650000", "164127.652000", "164127.655000", "164127.657000", "164127.660000", "164127.662000", "164127.665000", "164127.668000", "164127.670000", "164127.673000", "164127.675000", "164127.678000", "164127.680000", "164127.683000", "164127.686000", "164127.688000", "164127.691000", "164127.693000", "164127.696000", "164127.698000", "164127.701000", "164127.704000", "164127.706000", "164127.709000", "164127.711000", "164127.714000", "164207.649000", "164207.652000", "164207.654000", "164207.657000", "164207.659000", "164207.662000", "164207.665000", "164207.668000", "164207.670000", "164207.681000", "164207.683000", "164207.686000", "164207.688000", "164207.691000", "164207.694000", "164207.696000", "164207.699000", "164207.702000", "164207.704000", "164207.707000", "164207.709000", "164207.712000", "164207.715000", "164207.717000", "164207.720000", "164207.722000", "164207.725000", "164247.628000", "164247.631000", "164247.633000", "164247.636000", "164247.639000", "164247.641000", "164247.644000", "164247.646000", "164247.649000", "164247.651000", "164247.654000", "164247.657000", "164247.659000", "164247.662000", "164247.664000", "164247.667000", "164247.669000", "164247.672000", "164247.675000", "164247.677000", "164247.680000", "164247.682000", "164247.685000", "164247.687000", "164247.690000", "164247.693000", "164324.421000", "164324.424000", "164324.427000", "164324.429000", "164324.432000", "164324.435000", "164324.438000", "164324.440000", "164324.443000", "164324.446000", "164324.449000", "164324.452000", "164324.455000", "164324.458000", "164324.461000", "164324.464000", "164324.466000", "164324.469000", "164324.472000", "164324.475000", "164324.478000", "164324.481000", "164324.483000", "164324.486000", "164324.489000"],
      "InstanceCreationTime": ["163607.703000", "163607.706000", "163607.709000", "163607.711000", "163607.714000", "163607.716000", "163607.719000", "163607.722000", "163607.724000", "163607.727000", "163607.729000", "163607.735000", "163607.738000", "163607.740000", "163607.743000", "163607.745000", "163607.748000", "163607.750000", "163607.753000", "163607.755000", "163607.758000", "163607.760000", "163607.763000", "163607.766000", "163607.768000", "163607.771000", "163607.773000", "163607.776000", "163607.778000", "163607.781000", "163607.784000", "163607.786000", "163607.789000", "163607.791000", "163607.794000", "163607.797000", "163607.799000", "163607.802000", "163627.592000", "163627.594000", "163627.597000", "163627.600000", "163627.602000", "163627.605000", "163627.608000", "163627.610000", "163627.613000", "163627.615000", "163627.629000", "163627.632000", "163627.635000", "163627.637000", "163627.640000", "163627.652000", "163627.654000", "163627.657000", "163627.659000", "163627.662000", "163647.579000", "163647.582000", "163647.585000", "163647.587000", "163647.590000", "163647.592000", "163647.595000", "163647.597000", "163647.600000", "163647.603000", "163647.605000", "163647.608000", "163647.610000", "163647.613000", "163647.615000", "163647.618000", "163647.621000", "163647.623000", "163647.626000", "163647.628000", "163707.590000", "163707.593000", "163707.595000", "163707.598000", "163707.600000", "163707.603000", "163707.606000", "163707.608000", "163707.611000", "163707.613000", "163707.616000", "163707.619000", "163707.621000", "163707.624000", "163707.626000", "163707.629000", "163707.631000", "163707.634000", "163707.637000", "163707.640000", "163747.614000", "163747.617000", "163747.620000", "163747.622000", "163747.625000", "163747.628000", "163747.630000", "163747.633000", "163747.635000", "163747.638000", "163747.641000", "163747.643000", "163747.646000", "163747.648000", "163747.651000", "163747.653000", "163747.656000", "163747.658000", "163747.661000", "163747.663000", "163747.666000", "163747.669000", "163747.671000", "163747.674000", "163747.676000", "163747.679000", "163747.682000", "163827.617000", "163827.620000", "163827.622000", "163827.625000", "163827.627000", "163827.630000", "163827.632000", "163827.635000", "163827.638000", "163827.640000", "163827.643000", "163827.645000", "163827.648000", "163827.650000", "163827.653000", "163827.655000", "163827.658000", "163827.661000", "163827.663000", "163827.666000", "163827.669000", "163827.671000", "163827.674000", "163827.676000", "163827.679000", "163827.682000", "163827.684000", "163907.642000", "163907.645000", "163907.647000", "163907.650000", "163907.652000", "163907.655000", "163907.657000", "163907.660000", "163907.662000", "163907.665000", "163907.668000", "163907.670000", "163907.673000", "163907.675000", "163907.678000", "163907.680000", "163907.683000", "163907.686000", "163907.688000", "163907.691000", "163907.693000", "163907.696000", "163907.698000", "163907.701000", "163907.704000", "163907.706000", "163907.709000", "163947.621000", "163947.624000", "163947.626000", "163947.629000", "163947.631000", "163947.634000", "163947.636000", "163947.639000", "163947.642000", "163947.644000", "163947.653000", "163947.656000", "163947.658000", "163947.661000", "163947.664000", "163947.666000", "163947.669000", "163947.671000", "163947.674000", "163947.676000", "163947.679000", "163947.681000", "163947.684000", "163947.686000", "163947.689000", "163947.692000", "163947.694000", "164007.562000", "164007.564000", "164007.567000", "164007.570000", "164007.572000", "164007.575000", "164007.577000", "164007.580000", "164007.583000", "164007.585000", "164007.588000", "164007.590000", "164007.593000", "164047.660000", "164047.663000", "164047.666000", "164047.668000", "164047.671000", "164047.674000", "164047.677000", "164047.679000", "164047.682000", "164047.685000", "164047.687000", "164047.690000", "164047.692000", "164047.695000", "164047.697000", "164047.700000", "164047.703000", "164047.705000", "164047.708000", "164047.710000", "164047.713000", "164047.715000", "164047.718000", "164047.721000", "164047.723000", "164047.726000", "164047.730000", "164127.647000", "164127.650000", "164127.652000", "164127.655000", "164127.657000", "164127.660000", "164127.662000", "164127.665000", "164127.668000", "164127.670000", "164127.673000", "164127.675000", "164127.678000", "164127.680000", "164127.683000", "164127.686000", "164127.688000", "164127.691000", "164127.693000", "164127.696000", "164127.698000", "164127.701000", "164127.704000", "164127.706000", "164127.709000", "164127.711000", "164127.714000", "164207.649000", "164207.652000", "164207.654000", "164207.657000", "164207.659000", "164207.662000", "164207.665000", "164207.668000", "164207.670000", "164207.681000", "164207.683000", "164207.686000", "164207.688000", "164207.691000", "164207.694000", "164207.696000", "164207.699000", "164207.702000", "164207.704000", "164207.707000", "164207.709000", "164207.712000", "164207.715000", "164207.717000", "164207.720000", "164207.722000", "164207.725000", "164247.628000", "164247.631000", "164247.633000", "164247.636000", "164247.639000", "164247.641000", "164247.644000", "164247.646000", "164247.649000", "164247.651000", "164247.654000", "164247.657000", "164247.659000", "164247.662000", "164247.664000", "164247.667000", "164247.669000", "164247.672000", "164247.675000", "164247.677000", "164247.680000", "164247.682000", "164247.685000", "164247.687000", "164247.690000", "164247.693000", "164324.421000", "164324.424000", "164324.427000", "164324.429000", "164324.432000", "164324.435000", "164324.438000", "164324.440000", "164324.443000", "164324.446000", "164324.449000", "164324.452000", "164324.455000", "164324.458000", "164324.461000", "164324.464000", "164324.466000", "164324.469000", "164324.472000", "164324.475000", "164324.478000", "164324.481000", "164324.483000", "164324.486000", "164324.489000"],
      "InstanceNumber": [1, 2, 3, 4, 5, 6, 7, 8, 9, 10, 11, 12, 13, 14, 15, 16, 17, 18, 19, 20, 21, 22, 23, 24, 25, 26, 27, 28, 29, 30, 31, 32, 33, 34, 35, 36, 37, 38, 39, 40, 41, 42, 43, 44, 45, 46, 47, 48, 49, 50, 51, 52, 53, 54, 55, 56, 57, 58, 59, 60, 61, 62, 63, 64, 65, 66, 67, 68, 69, 70, 71, 72, 73, 74, 75, 76, 77, 78, 79, 80, 81, 82, 83, 84, 85, 86, 87, 88, 89, 90, 91, 92, 93, 94, 95, 96, 97, 98, 99, 100, 101, 102, 103, 104, 105, 106, 107, 108, 109, 110, 111, 112, 113, 114, 115, 116, 117, 118, 119, 120, 121, 122, 123, 124, 125, 126, 127, 128, 129, 130, 131, 132, 133, 134, 135, 136, 137, 138, 139, 140, 141, 142, 143, 144, 145, 146, 147, 148, 149, 150, 151, 152, 153, 154, 155, 156, 157, 158, 159, 160, 161, 162, 163, 164, 165, 166, 167, 168, 169, 170, 171, 172, 173, 174, 175, 176, 177, 178, 179, 180, 181, 182, 183, 184, 185, 186, 187, 188, 189, 190, 191, 192, 193, 194, 195, 196, 197, 198, 199, 200, 201, 202, 203, 204, 205, 206, 207, 208, 209, 210, 211, 212, 213, 214, 215, 216, 217, 218, 219, 220, 221, 222, 223, 224, 225, 226, 227, 228, 229, 230, 231, 232, 233, 234, 235, 236, 237, 238, 239, 240, 241, 242, 243, 244, 245, 246, 247, 248, 249, 250, 251, 252, 253, 254, 255, 256, 257, 258, 259, 260, 261, 262, 263, 264, 265, 266, 267, 268, 269, 270, 271, 272, 273, 274, 275, 276, 277, 278, 279, 280, 281, 282, 283, 284, 285, 286, 287, 288, 289, 290, 291, 292, 293, 294, 295, 296, 297, 298, 299, 300, 301, 302, 303, 304, 305, 306, 307, 308, 309, 310, 311, 312, 313, 314, 315, 316, 317, 318, 319, 320, 321, 322, 323, 324, 325, 326, 327, 328, 329, 330, 331, 332, 333, 334, 335, 336, 337, 338, 339, 340, 341, 342, 343, 344, 345, 346, 347, 348, 349, 350, 351],
