{
  "AcquisitionMatrixPE": 104,
  "AcquisitionNumber": 1,
  "AcquisitionTime": "11:41:23.425000",
  "BandwidthPerPixelPhaseEncode": 17.17,
  "BaseResolution": 104,
  "BodyPartExamined": "BRAIN",
  "CoilCombinationMethod": "Sum of Squares",
  "ConsistencyInfo": "N4_VE11C_LATEST_20160120",
  "ConversionSoftware": "dcm2niix",
  "ConversionSoftwareVersion": "v1.0.20220505",
  "DerivedVendorReportedEchoSpacing": 0.000560011,
  "DeviceSerialNumber": "167006",
  "DwellTime": 2.1e-06,
  "EchoTime": 0.037,
  "EchoTime1": 0.037,
  "EchoTime2": 0.001,
  "EchoTrainLength": 104,
  "EffectiveEchoSpacing": 0.000560011,
  "FlipAngle": 52,
  "HeudiconvVersion": "0.5.3.post811+g6206e14",
  "ImageComments": "Unaliased MB4/PE3/LB",
  "ImageOrientationPatientDICOM": [0.999198, -0.00676972, 0.0394533, 0.026863, 0.84411, -0.535497],
  "ImageOrientationText": "Tra>Cor(-32.4)>Sag(1.7)",
  "ImageType": [
    "ORIGINAL",
    "PRIMARY",
    "P",
    "MB",
    "ND",
    "MOSAIC",
    "PHASE"
],
  "ImagingFrequency": 123.259,
  "InPlanePhaseEncodingDirectionDICOM": "COL",
  "InstitutionAddress": "Chemin Queen-Mary 4565,Montreal,District,CA,H3W 1W5",
  "InstitutionName": "IUGM",
  "InstitutionalDepartmentName": "Department",
  "MRAcquisitionType": "2D",
  "MagneticFieldStrength": 3,
  "Manufacturer": "Siemens",
  "ManufacturersModelName": "Prisma_fit",
  "MatrixCoilMode": "SENSE",
  "Modality": "MR",
  "MultibandAccelerationFactor": 4,
  "PartialFourier": 1,
  "PatientPosition": "HFS",
  "PercentPhaseFOV": 100,
  "PercentSampling": 100,
  "PhaseEncodingDirection": "j",
  "PhaseEncodingSteps": 104,
  "PhaseResolution": 1,
  "PixelBandwidth": 2290,
  "ProcedureStepDescription": "games^mario3",
  "ProtocolName": "func_task-mario3_run-03",
  "PulseSequenceDetails": "%CustomerSeq%\\cmrr_mbep2d_bold",
  "ReceiveCoilActiveElements": "HC1-7;NC1,2",
  "ReceiveCoilName": "HeadNeck_64",
  "ReconMatrixPE": 104,
  "RepetitionTime": 1.49,
  "SAR": 0.0624453,
  "ScanOptions": "FS",
  "ScanningSequence": "EP",
  "SequenceName": "epfid2d1_104",
  "SequenceVariant": "SK\\SS",
  "SeriesDescription": "func_task-mario3_run-03",
  "SeriesNumber": 17,
  "ShimSetting": [632, -7187, -8870, 249, 58, -245, -58, 31],
  "SliceThickness": 2,
  "SliceTiming": [0, 0.7825, 0.0975, 0.8825, 0.195, 0.98, 0.2925, 1.0775, 0.3925, 1.175, 0.49, 1.2725, 0.5875, 1.3725, 0.685, 0, 0.7825, 0.0975, 0.8825, 0.195, 0.98, 0.2925, 1.0775, 0.3925, 1.175, 0.49, 1.2725, 0.5875, 1.3725, 0.685, 0, 0.7825, 0.0975, 0.8825, 0.195, 0.98, 0.2925, 1.0775, 0.3925, 1.175, 0.49, 1.2725, 0.5875, 1.3725, 0.685, 0, 0.7825, 0.0975, 0.8825, 0.195, 0.98, 0.2925, 1.0775, 0.3925, 1.175, 0.49, 1.2725, 0.5875, 1.3725, 0.685],
  "SoftwareVersions": "syngo MR E11",
  "SpacingBetweenSlices": 2,
  "StationName": "MRC35049",
  "TaskName": "mario3",
  "TotalReadoutTime": 0.0576811,
  "TxRefAmp": 287.299,
  "WipMemBlock": "876d34cf-f483-4fe4-ad96-2de2bf03a087||Sequence: R017 ve11c/master r/75a17815+; Jun 28 2022 16:32:11 by eja",
  "dcmmeta_affine": [
    [-1.9983969926834106, 0.053726036101579666, 0.05935544893145561, 103.18023681640625],
    [0.013539445586502552, 1.6882197856903076, -1.0722548961639404, -49.090484619140625],
    [0.07890652865171432, 1.0709936618804932, 1.6872303485870361, -97.43827056884766],
    [0.0, 0.0, 0.0, 1.0]
],
  "dcmmeta_reorient_transform": [
    [0.0, -1.0, 0.0, 103.0],
    [1.0, 0.0, 0.0, 0.0],
    [0.0, 0.0, 1.0, 0.0],
    [0.0, 0.0, 0.0, 1.0]
],
  "dcmmeta_shape": [104, 104, 60, 325],
  "dcmmeta_slice_dim": 2,
  "dcmmeta_version": 0.6,
  "global": {
    "const": {
      "AcquisitionMatrix": [104, 0, 0, 104],
      "AngioFlag": "N",
      "BitsAllocated": 16,
      "BitsStored": 16,
      "BodyPartExamined": "BRAIN",
      "Columns": 832,
      "EchoNumbers": 1,
      "EchoTime": 37.0,
      "EchoTrainLength": 104,
      "FlipAngle": 52.0,
      "HighBit": 15,
      "ImageOrientationPatient": [0.99919848423867, -0.0067697229166, 0.03945326281542, 0.02686301839766, 0.84410990073653, -0.5354968288619],
      "ImagePositionPatient": [-855.68679344057, -734.3798041303, 373.99379229979],
      "ImageType": [
        "ORIGINAL",
        "PRIMARY",
        "P",
        "MB",
        "ND",
        "MOSAIC"
],
      "ImagedNucleus": "1H",
      "ImagingFrequency": 123.258796,
      "InPlanePhaseEncodingDirection": "COL",
      "LargestImagePixelValue": 4095,
      "MRAcquisitionType": "2D",
      "MagneticFieldStrength": 3.0,
      "Manufacturer": "SIEMENS",
      "ManufacturerModelName": "Prisma_fit",
      "Modality": "MR",
      "NumberOfAverages": 1.0,
      "NumberOfPhaseEncodingSteps": 104,
      "PercentPhaseFieldOfView": 100.0,
      "PercentSampling": 100.0,
      "PerformedProcedureStepStartTime": "111756.733000",
      "PhotometricInterpretation": "MONOCHROME2",
      "PixelBandwidth": 2290.0,
      "PixelRepresentation": 0,
      "PixelSpacing": [2.0, 2.0],
      "ProtocolName": "func_task-mario3_run-03",
      "RepetitionTime": 1490.0,
      "RescaleIntercept": -4096.0,
      "RescaleSlope": 2.0,
      "RescaleType": "US",
      "Rows": 832,
      "SAR": 0.06244533552897,
      "SamplesPerPixel": 1,
      "ScanOptions": "FS",
      "ScanningSequence": "EP",
      "SequenceName": "epfid2d1_104",
      "SequenceVariant": [
        "SK",
        "SS"
],
      "SeriesDescription": "func_task-mario3_run-03",
      "SeriesNumber": 17,
      "SeriesTime": "114245.262000",
      "SliceLocation": -52.819493638168,
      "SliceThickness": 2.0,
      "SmallestImagePixelValue": 0,
      "SoftwareVersions": "syngo MR E11",
      "SpacingBetweenSlices": 1.9999999984878,
      "SpecificCharacterSet": "ISO_IR 100",
      "StudyID": "1",
      "StudyTime": "111756.664000",
      "TransmitCoilName": "Body",
      "VariableFlipAngleFlag": "N",
      "WindowCenterWidthExplanation": "Algo1",
      "dBdt": 0.0},
    "slices": {}
  },
  "time": {
    "samples": {
      "AcquisitionNumber": [1, 2, 3, 4, 5, 6, 7, 8, 9, 10, 11, 12, 13, 14, 15, 16, 17, 18, 19, 20, 21, 22, 23, 24, 25, 26, 27, 28, 29, 30, 31, 32, 33, 34, 35, 36, 37, 38, 39, 40, 41, 42, 43, 44, 45, 46, 47, 48, 49, 50, 51, 52, 53, 54, 55, 56, 57, 58, 59, 60, 61, 62, 63, 64, 65, 66, 67, 68, 69, 70, 71, 72, 73, 74, 75, 76, 77, 78, 79, 80, 81, 82, 83, 84, 85, 86, 87, 88, 89, 90, 91, 92, 93, 94, 95, 96, 97, 98, 99, 100, 101, 102, 103, 104, 105, 106, 107, 108, 109, 110, 111, 112, 113, 114, 115, 116, 117, 118, 119, 120, 121, 122, 123, 124, 125, 126, 127, 128, 129, 130, 131, 132, 133, 134, 135, 136, 137, 138, 139, 140, 141, 142, 143, 144, 145, 146, 147, 148, 149, 150, 151, 152, 153, 154, 155, 156, 157, 158, 159, 160, 161, 162, 163, 164, 165, 166, 167, 168, 169, 170, 171, 172, 173, 174, 175, 176, 177, 178, 179, 180, 181, 182, 183, 184, 185, 186, 187, 188, 189, 190, 191, 192, 193, 194, 195, 196, 197, 198, 199, 200, 201, 202, 203, 204, 205, 206, 207, 208, 209, 210, 211, 212, 213, 214, 215, 216, 217, 218, 219, 220, 221, 222, 223, 224, 225, 226, 227, 228, 229, 230, 231, 232, 233, 234, 235, 236, 237, 238, 239, 240, 241, 242, 243, 244, 245, 246, 247, 248, 249, 250, 251, 252, 253, 254, 255, 256, 257, 258, 259, 260, 261, 262, 263, 264, 265, 266, 267, 268, 269, 270, 271, 272, 273, 274, 275, 276, 277, 278, 279, 280, 281, 282, 283, 284, 285, 286, 287, 288, 289, 290, 291, 292, 293, 294, 295, 296, 297, 298, 299, 300, 301, 302, 303, 304, 305, 306, 307, 308, 309, 310, 311, 312, 313, 314, 315, 316, 317, 318, 319, 320, 321, 322, 323, 324, 325],
      "AcquisitionTime": ["114123.425000", "114124.915000", "114126.405000", "114127.895000", "114129.385000", "114130.875000", "114132.365000", "114133.855000", "114135.345000", "114136.835000", "114138.325000", "114139.815000", "114141.305000", "114142.795000", "114144.285000", "114145.775000", "114147.265000", "114148.755000", "114150.245000", "114151.735000", "114153.225000", "114154.715000", "114156.205000", "114157.695000", "114159.185000", "114200.675000", "114202.165000", "114203.655000", "114205.145000", "114206.635000", "114208.125000", "114209.615000", "114211.105000", "114212.595000", "114214.085000", "114215.575000", "114217.065000", "114218.555000", "114220.045000", "114221.535000", "114223.025000", "114224.515000", "114226.005000", "114227.495000", "114228.985000", "114230.475000", "114231.965000", "114233.455000", "114234.945000", "114236.435000", "114237.925000", "114239.415000", "114240.905000", "114242.395000", "114243.885000", "114245.375000", "114246.865000", "114248.355000", "114249.845000", "114251.335000", "114252.825000", "114254.315000", "114255.805000", "114257.295000", "114258.785000", "114300.275000", "114301.765000", "114303.255000", "114304.745000", "114306.235000", "114307.725000", "114309.215000", "114310.705000", "114312.195000", "114313.685000", "114315.175000", "114316.665000", "114318.155000", "114319.645000", "114321.135000", "114322.625000", "114324.115000", "114325.605000", "114327.095000", "114328.585000", "114330.075000", "114331.565000", "114333.055000", "114334.545000", "114336.035000", "114337.525000", "114339.015000", "114340.505000", "114341.995000", "114343.485000", "114344.975000", "114346.465000", "114347.955000", "114349.445000", "114350.935000", "114352.425000", "114353.915000", "114355.405000", "114356.895000", "114358.385000", "114359.875000", "114401.365000", "114402.855000", "114404.345000", "114405.835000", "114407.325000", "114408.815000", "114410.305000", "114411.795000", "114413.285000", "114414.775000", "114416.265000", "114417.755000", "114419.245000", "114420.735000", "114422.225000", "114423.715000", "114425.205000", "114426.695000", "114428.185000", "114429.675000", "114431.165000", "114432.655000", "114434.145000", "114435.635000", "114437.125000", "114438.615000", "114440.105000", "114441.595000", "114443.085000", "114444.575000", "114446.065000", "114447.555000", "114449.045000", "114450.535000", "114452.025000", "114453.515000", "114455.005000", "114456.495000", "114457.985000", "114459.475000", "114500.965000", "114502.455000", "114503.945000", "114505.435000", "114506.925000", "114508.415000", "114509.905000", "114511.395000", "114512.885000", "114514.375000", "114515.865000", "114517.355000", "114518.845000", "114520.335000", "114521.825000", "114523.315000", "114524.805000", "114526.295000", "114527.785000", "114529.275000", "114530.765000", "114532.255000", "114533.745000", "114535.235000", "114536.725000", "114538.215000", "114539.705000", "114541.195000", "114542.685000", "114544.175000", "114545.665000", "114547.155000", "114548.645000", "114550.135000", "114551.625000", "114553.115000", "114554.605000", "114556.095000", "114557.585000", "114559.075000", "114600.565000", "114602.055000", "114603.545000", "114605.035000", "114606.525000", "114608.015000", "114609.505000", "114610.995000", "114612.485000", "114613.975000", "114615.465000", "114616.955000", "114618.445000", "114619.935000", "114621.425000", "114622.915000", "114624.405000", "114625.895000", "114627.385000", "114628.875000", "114630.365000", "114631.855000", "114633.345000", "114634.835000", "114636.325000", "114637.815000", "114639.305000", "114640.795000", "114642.285000", "114643.775000", "114645.265000", "114646.755000", "114648.245000", "114649.735000", "114651.225000", "114652.715000", "114654.205000", "114655.695000", "114657.185000", "114658.675000", "114700.165000", "114701.655000", "114703.145000", "114704.635000", "114706.125000", "114707.615000", "114709.105000", "114710.595000", "114712.085000", "114713.575000", "114715.065000", "114716.555000", "114718.045000", "114719.535000", "114721.025000", "114722.515000", "114724.005000", "114725.495000", "114726.985000", "114728.475000", "114729.965000", "114731.455000", "114732.945000", "114734.435000", "114735.925000", "114737.415000", "114738.905000", "114740.395000", "114741.885000", "114743.375000", "114744.865000", "114746.355000", "114747.845000", "114749.335000", "114750.825000", "114752.315000", "114753.805000", "114755.295000", "114756.785000", "114758.275000", "114759.765000", "114801.255000", "114802.745000", "114804.235000", "114805.725000", "114807.215000", "114808.705000", "114810.195000", "114811.685000", "114813.175000", "114814.665000", "114816.155000", "114817.645000", "114819.135000", "114820.625000", "114822.115000", "114823.605000", "114825.095000", "114826.585000", "114828.075000", "114829.565000", "114831.055000", "114832.545000", "114834.035000", "114835.525000", "114837.015000", "114838.505000", "114839.995000", "114841.485000", "114842.975000", "114844.465000", "114845.955000", "114847.445000", "114848.935000", "114850.425000", "114851.915000", "114853.405000", "114854.895000", "114856.385000", "114857.875000", "114859.365000", "114900.855000", "114902.345000", "114903.835000", "114905.325000", "114906.815000", "114908.305000", "114909.795000", "114911.285000", "114912.775000", "114914.265000", "114915.755000", "114917.245000", "114918.735000", "114920.225000", "114921.715000", "114923.205000", "114924.695000", "114926.185000"],
      "ContentTime": ["114245.264000", "114245.267000", "114245.269000", "114245.272000", "114245.274000", "114245.277000", "114245.279000", "114245.282000", "114245.284000", "114245.287000", "114245.289000", "114245.292000", "114245.294000", "114245.297000", "114245.299000", "114245.302000", "114245.304000", "114245.307000", "114245.309000", "114245.312000", "114245.314000", "114245.317000", "114245.319000", "114245.322000", "114245.324000", "114245.327000", "114245.329000", "114245.332000", "114245.334000", "114245.337000", "114245.339000", "114245.342000", "114305.153000", "114305.155000", "114305.158000", "114305.160000", "114305.163000", "114305.165000", "114305.168000", "114305.170000", "114305.173000", "114305.175000", "114305.178000", "114305.180000", "114305.183000", "114305.185000", "114305.188000", "114305.190000", "114305.193000", "114305.195000", "114305.197000", "114305.200000", "114305.202000", "114325.140000", "114325.143000", "114325.145000", "114325.148000", "114325.150000", "114325.153000", "114325.155000", "114325.158000", "114325.160000", "114325.163000", "114325.165000", "114325.168000", "114325.170000", "114325.173000", "114325.175000", "114325.178000", "114325.180000", "114325.183000", "114325.185000", "114325.188000", "114345.152000", "114345.154000", "114345.157000", "114345.160000", "114345.162000", "114345.165000", "114345.167000", "114345.170000", "114345.172000", "114345.175000", "114345.177000", "114345.180000", "114345.182000", "114345.185000", "114345.187000", "114345.189000", "114345.192000", "114345.194000", "114345.197000", "114345.199000", "114425.199000", "114425.202000", "114425.205000", "114425.207000", "114425.210000", "114425.212000", "114425.214000", "114425.217000", "114425.219000", "114425.222000", "114425.224000", "114425.227000", "114425.229000", "114425.232000", "114425.234000", "114425.237000", "114425.239000", "114425.242000", "114425.244000", "114425.247000", "114425.249000", "114425.252000", "114425.254000", "114425.256000", "114425.259000", "114425.261000", "114425.264000", "114425.266000", "114505.178000", "114505.181000", "114505.184000", "114505.186000", "114505.189000", "114505.191000", "114505.194000", "114505.196000", "114505.199000", "114505.201000", "114505.204000", "114505.206000", "114505.209000", "114505.211000", "114505.214000", "114505.216000", "114505.219000", "114505.221000", "114505.224000", "114505.226000", "114505.229000", "114505.232000", "114505.234000", "114505.236000", "114505.239000", "114505.241000", "114505.244000", "114525.672000", "114525.675000", "114525.678000", "114525.680000", "114525.683000", "114525.685000", "114525.687000", "114525.690000", "114525.692000", "114525.695000", "114525.697000", "114525.700000", "114525.702000", "114605.174000", "114605.177000", "114605.179000", "114605.182000", "114605.184000", "114605.187000", "114605.189000", "114605.192000", "114605.194000", "114605.197000", "114605.199000", "114605.202000", "114605.204000", "114605.207000", "114605.209000", "114605.212000", "114605.214000", "114605.217000", "114605.219000", "114605.222000", "114605.225000", "114605.227000", "114605.230000", "114605.232000", "114605.235000", "114605.237000", "114605.240000", "114645.176000", "114645.178000", "114645.181000", "114645.183000", "114645.186000", "114645.188000", "114645.202000", "114645.205000", "114645.207000", "114645.210000", "114645.212000", "114645.215000", "114645.217000", "114645.220000", "114645.222000", "114645.225000", "114645.227000", "114645.230000", "114645.232000", "114645.235000", "114645.237000", "114645.240000", "114645.242000", "114645.245000", "114645.247000", "114645.250000", "114645.252000", "114725.188000", "114725.191000", "114725.194000", "114725.196000", "114725.199000", "114725.201000", "114725.204000", "114725.206000", "114725.209000", "114725.211000", "114725.214000", "114725.216000", "114725.219000", "114725.221000", "114725.224000", "114725.226000", "114725.229000", "114725.231000", "114725.234000", "114725.236000", "114725.239000", "114725.241000", "114725.243000", "114725.246000", "114725.248000", "114725.251000", "114725.253000", "114805.190000", "114805.193000", "114805.195000", "114805.198000", "114805.200000", "114805.203000", "114805.205000", "114805.208000", "114805.210000", "114805.213000", "114805.215000", "114805.218000", "114805.220000", "114805.223000", "114805.225000", "114805.228000", "114805.230000", "114805.233000", "114805.235000", "114805.238000", "114805.240000", "114805.243000", "114805.245000", "114805.248000", "114805.250000", "114805.253000", "114805.255000", "114845.176000", "114845.179000", "114845.181000", "114845.183000", "114845.186000", "114845.188000", "114845.191000", "114845.193000", "114845.196000", "114845.198000", "114845.201000", "114845.203000", "114845.206000", "114845.209000", "114845.211000", "114845.214000", "114845.216000", "114845.219000", "114845.221000", "114845.224000", "114845.226000", "114845.229000", "114845.231000", "114845.234000", "114845.236000", "114845.239000", "114845.241000", "114925.178000", "114925.181000", "114925.183000", "114925.186000", "114925.188000", "114925.191000", "114925.193000", "114925.196000", "114925.198000", "114925.201000", "114925.203000", "114925.206000", "114925.208000", "114925.211000", "114925.213000", "114925.216000", "114925.218000", "114925.221000", "114925.223000", "114925.226000", "114925.228000", "114925.231000", "114925.233000", "114925.236000", "114925.238000", "114925.241000", "114925.243000", "114929.370000", "114929.373000"],
      "InstanceCreationTime": ["114245.264000", "114245.267000", "114245.269000", "114245.272000", "114245.274000", "114245.277000", "114245.279000", "114245.282000", "114245.284000", "114245.287000", "114245.289000", "114245.292000", "114245.294000", "114245.297000", "114245.299000", "114245.302000", "114245.304000", "114245.307000", "114245.309000", "114245.312000", "114245.314000", "114245.317000", "114245.319000", "114245.322000", "114245.324000", "114245.327000", "114245.329000", "114245.332000", "114245.334000", "114245.337000", "114245.339000", "114245.342000", "114305.153000", "114305.155000", "114305.158000", "114305.160000", "114305.163000", "114305.165000", "114305.168000", "114305.170000", "114305.173000", "114305.175000", "114305.178000", "114305.180000", "114305.183000", "114305.185000", "114305.188000", "114305.190000", "114305.193000", "114305.195000", "114305.197000", "114305.200000", "114305.202000", "114325.140000", "114325.143000", "114325.145000", "114325.148000", "114325.150000", "114325.153000", "114325.155000", "114325.158000", "114325.160000", "114325.163000", "114325.165000", "114325.168000", "114325.170000", "114325.173000", "114325.175000", "114325.178000", "114325.180000", "114325.183000", "114325.185000", "114325.188000", "114345.152000", "114345.154000", "114345.157000", "114345.160000", "114345.162000", "114345.165000", "114345.167000", "114345.170000", "114345.172000", "114345.175000", "114345.177000", "114345.180000", "114345.182000", "114345.185000", "114345.187000", "114345.189000", "114345.192000", "114345.194000", "114345.197000", "114345.199000", "114425.199000", "114425.202000", "114425.205000", "114425.207000", "114425.210000", "114425.212000", "114425.214000", "114425.217000", "114425.219000", "114425.222000", "114425.224000", "114425.227000", "114425.229000", "114425.232000", "114425.234000", "114425.237000", "114425.239000", "114425.242000", "114425.244000", "114425.247000", "114425.249000", "114425.252000", "114425.254000", "114425.256000", "114425.259000", "114425.261000", "114425.264000", "114425.266000", "114505.178000", "114505.181000", "114505.184000", "114505.186000", "114505.189000", "114505.191000", "114505.194000", "114505.196000", "114505.199000", "114505.201000", "114505.204000", "114505.206000", "114505.209000", "114505.211000", "114505.214000", "114505.216000", "114505.219000", "114505.221000", "114505.224000", "114505.226000", "114505.229000", "114505.232000", "114505.234000", "114505.236000", "114505.239000", "114505.241000", "114505.244000", "114525.672000", "114525.675000", "114525.678000", "114525.680000", "114525.683000", "114525.685000", "114525.687000", "114525.690000", "114525.692000", "114525.695000", "114525.697000", "114525.700000", "114525.702000", "114605.174000", "114605.177000", "114605.179000", "114605.182000", "114605.184000", "114605.187000", "114605.189000", "114605.192000", "114605.194000", "114605.197000", "114605.199000", "114605.202000", "114605.204000", "114605.207000", "114605.209000", "114605.212000", "114605.214000", "114605.217000", "114605.219000", "114605.222000", "114605.225000", "114605.227000", "114605.230000", "114605.232000", "114605.235000", "114605.237000", "114605.240000", "114645.176000", "114645.178000", "114645.181000", "114645.183000", "114645.186000", "114645.188000", "114645.202000", "114645.205000", "114645.207000", "114645.210000", "114645.212000", "114645.215000", "114645.217000", "114645.220000", "114645.222000", "114645.225000", "114645.227000", "114645.230000", "114645.232000", "114645.235000", "114645.237000", "114645.240000", "114645.242000", "114645.245000", "114645.247000", "114645.250000", "114645.252000", "114725.188000", "114725.191000", "114725.194000", "114725.196000", "114725.199000", "114725.201000", "114725.204000", "114725.206000", "114725.209000", "114725.211000", "114725.214000", "114725.216000", "114725.219000", "114725.221000", "114725.224000", "114725.226000", "114725.229000", "114725.231000", "114725.234000", "114725.236000", "114725.239000", "114725.241000", "114725.243000", "114725.246000", "114725.248000", "114725.251000", "114725.253000", "114805.190000", "114805.193000", "114805.195000", "114805.198000", "114805.200000", "114805.203000", "114805.205000", "114805.208000", "114805.210000", "114805.213000", "114805.215000", "114805.218000", "114805.220000", "114805.223000", "114805.225000", "114805.228000", "114805.230000", "114805.233000", "114805.235000", "114805.238000", "114805.240000", "114805.243000", "114805.245000", "114805.248000", "114805.250000", "114805.253000", "114805.255000", "114845.176000", "114845.179000", "114845.181000", "114845.183000", "114845.186000", "114845.188000", "114845.191000", "114845.193000", "114845.196000", "114845.198000", "114845.201000", "114845.203000", "114845.206000", "114845.209000", "114845.211000", "114845.214000", "114845.216000", "114845.219000", "114845.221000", "114845.224000", "114845.226000", "114845.229000", "114845.231000", "114845.234000", "114845.236000", "114845.239000", "114845.241000", "114925.178000", "114925.181000", "114925.183000", "114925.186000", "114925.188000", "114925.191000", "114925.193000", "114925.196000", "114925.198000", "114925.201000", "114925.203000", "114925.206000", "114925.208000", "114925.211000", "114925.213000", "114925.216000", "114925.218000", "114925.221000", "114925.223000", "114925.226000", "114925.228000", "114925.231000", "114925.233000", "114925.236000", "114925.238000", "114925.241000", "114925.243000", "114929.370000", "114929.373000"],
      "InstanceNumber": [1, 2, 3, 4, 5, 6, 7, 8, 9, 10, 11, 12, 13, 14, 15, 16, 17, 18, 19, 20, 21, 22, 23, 24, 25, 26, 27, 28, 29, 30, 31, 32, 33, 34, 35, 36, 37, 38, 39, 40, 41, 42, 43, 44, 45, 46, 47, 48, 49, 50, 51, 52, 53, 54, 55, 56, 57, 58, 59, 60, 61, 62, 63, 64, 65, 66, 67, 68, 69, 70, 71, 72, 73, 74, 75, 76, 77, 78, 79, 80, 81, 82, 83, 84, 85, 86, 87, 88, 89, 90, 91, 92, 93, 94, 95, 96, 97, 98, 99, 100, 101, 102, 103, 104, 105, 106, 107, 108, 109, 110, 111, 112, 113, 114, 115, 116, 117, 118, 119, 120, 121, 122, 123, 124, 125, 126, 127, 128, 129, 130, 131, 132, 133, 134, 135, 136, 137, 138, 139, 140, 141, 142, 143, 144, 145, 146, 147, 148, 149, 150, 151, 152, 153, 154, 155, 156, 157, 158, 159, 160, 161, 162, 163, 164, 165, 166, 167, 168, 169, 170, 171, 172, 173, 174, 175, 176, 177, 178, 179, 180, 181, 182, 183, 184, 185, 186, 187, 188, 189, 190, 191, 192, 193, 194, 195, 196, 197, 198, 199, 200, 201, 202, 203, 204, 205, 206, 207, 208, 209, 210, 211, 212, 213, 214, 215, 216, 217, 218, 219, 220, 221, 222, 223, 224, 225, 226, 227, 228, 229, 230, 231, 232, 233, 234, 235, 236, 237, 238, 239, 240, 241, 242, 243, 244, 245, 246, 247, 248, 249, 250, 251, 252, 253, 254, 255, 256, 257, 258, 259, 260, 261, 262, 263, 264, 265, 266, 267, 268, 269, 270, 271, 272, 273, 274, 275, 276, 277, 278, 279, 280, 281, 282, 283, 284, 285, 286, 287, 288, 289, 290, 291, 292, 293, 294, 295, 296, 297, 298, 299, 300, 301, 302, 303, 304, 305, 306, 307, 308, 309, 310, 311, 312, 313, 314, 315, 316, 317, 318, 319, 320, 321, 322, 323, 324, 325],
      "WindowCenter": [4850.0, 4852.0, 4824.0, 4822.0, 4826.0, 4824.0, 4824.0, 4850.0, 4850.0, 4852.0, 4840.0, 4842.0, 4852.0, 4824.0, 4794.0, 4820.0, 4822.0, 4848.0, 4848.0, 4852.0, 4848.0, 4850.0, 4852.0, 4850.0, 4850.0, 4846.0, 4826.0, 4822.0, 4826.0, 4824.0, 4850.0, 4852.0, 4850.0, 4850.0, 4848.0, 4848.0, 4848.0, 4850.0, 4826.0, 4822.0, 4824.0, 4822.0, 4826.0, 4826.0, 4826.0, 4848.0, 4840.0, 4846.0, 4850.0, 4826.0, 4820.0, 4824.0, 4824.0, 4826.0, 4826.0, 4852.0, 4850.0, 4848.0, 4850.0, 4850.0, 4826.0, 4824.0, 4822.0, 4822.0, 4826.0, 4826.0, 4826.0, 4852.0, 4852.0, 4830.0, 4850.0, 4848.0, 4846.0, 4850.0, 4848.0, 4826.0, 4822.0, 4822.0, 4848.0, 4826.0, 4822.0, 4854.0, 4844.0, 4846.0, 4850.0, 4850.0, 4824.0, 4820.0, 4824.0, 4824.0, 4850.0, 4850.0, 4848.0, 4850.0, 4824.0, 4850.0, 4872.0, 4850.0, 4848.0, 4822.0, 4822.0, 4826.0, 4826.0, 4848.0, 4848.0, 4848.0, 4844.0, 4844.0, 4850.0, 4848.0, 4848.0, 4820.0, 4848.0, 4846.0, 4846.0, 4846.0, 4850.0, 4848.0, 4870.0, 4848.0, 4850.0, 4846.0, 4850.0, 4852.0, 4848.0, 4822.0, 4846.0, 4846.0, 4846.0, 4850.0, 4850.0, 4850.0, 4848.0, 4846.0, 4846.0, 4848.0, 4844.0, 4842.0, 4846.0, 4846.0, 4848.0, 4848.0, 4846.0, 4846.0, 4844.0, 4820.0, 4850.0, 4848.0, 4844.0, 4846.0, 4846.0, 4846.0, 4850.0, 4848.0, 4846.0, 4850.0, 4850.0, 4824.0, 4848.0, 4826.0, 4848.0, 4846.0, 4848.0, 4848.0, 4852.0, 4848.0, 4844.0, 4846.0, 4846.0, 4824.0, 4820.0, 4844.0, 4824.0, 4848.0, 4826.0, 4852.0, 4850.0, 4850.0, 4848.0, 4850.0, 4822.0, 4824.0, 4826.0, 4824.0, 4848.0, 4848.0, 4846.0, 4850.0, 4854.0, 4848.0, 4846.0, 4846.0, 4822.0, 4826.0, 4826.0, 4846.0, 4846.0, 4850.0, 4846.0, 4848.0, 4848.0, 4848.0, 4848.0, 4822.0, 4848.0, 4822.0, 4822.0, 4826.0, 4844.0, 4804.0, 4846.0, 4828.0, 4822.0, 4820.0, 4818.0, 4846.0, 4844.0, 4846.0, 4846.0, 4846.0, 4850.0, 4848.0, 4848.0, 4824.0, 4850.0, 4826.0, 4846.0, 4848.0, 4848.0, 4846.0, 4848.0, 4844.0, 4846.0, 4826.0, 4850.0, 4852.0, 4846.0, 4848.0, 4848.0, 4846.0, 4846.0, 4848.0, 4844.0, 4846.0, 4848.0, 4844.0, 4824.0, 4822.0, 4838.0, 4802.0, 4848.0, 4844.0, 4848.0, 4850.0, 4844.0, 4846.0, 4848.0, 4846.0, 4848.0, 4844.0, 4844.0, 4842.0, 4844.0, 4846.0, 4822.0, 4820.0, 4846.0, 4846.0, 4844.0, 4814.0, 4842.0, 4844.0, 4866.0, 4822.0, 4820.0, 4818.0, 4818.0, 4844.0, 4846.0, 4844.0, 4846.0, 4818.0, 4842.0, 4846.0, 4846.0, 4822.0, 4822.0, 4820.0, 4824.0, 4850.0, 4846.0, 4840.0, 4842.0, 4846.0, 4844.0, 4848.0, 4846.0, 4848.0, 4824.0, 4846.0, 4844.0, 4846.0, 4846.0, 4844.0, 4844.0, 4844.0, 4846.0, 4848.0, 4846.0, 4844.0, 4848.0, 4842.0, 4822.0, 4846.0, 4846.0, 4846.0, 4846.0, 4846.0, 4850.0, 4822.0, 4822.0, 4844.0, 4844.0, 4848.0, 4850.0],
