{
  "AcquisitionMatrixPE": 104,
  "AcquisitionNumber": 1,
  "AcquisitionTime": "11:21:43.995000",
  "BandwidthPerPixelPhaseEncode": 17.17,
  "BaseResolution": 104,
  "BodyPartExamined": "BRAIN",
  "CoilCombinationMethod": "Sum of Squares",
  "ConsistencyInfo": "N4_VE11C_LATEST_20160120",
  "ConversionSoftware": "dcm2niix",
  "ConversionSoftwareVersion": "v1.0.20220505",
  "DerivedVendorReportedEchoSpacing": 0.000560011,
  "DeviceSerialNumber": "167006",
  "DwellTime": 2.1e-06,
  "EchoTime": 0.037,
  "EchoTrainLength": 104,
  "EffectiveEchoSpacing": 0.000560011,
  "FlipAngle": 52,
  "HeudiconvVersion": "0.5.3.post811+g6206e14",
  "ImageComments": "Unaliased MB4/PE3/LB",
  "ImageOrientationPatientDICOM": [0.999198, -0.00676972, 0.0394533, 0.026863, 0.84411, -0.535497],
  "ImageOrientationText": "Tra>Cor(-32.4)>Sag(1.7)",
  "ImageType": [
    "ORIGINAL",
    "PRIMARY",
    "M",
    "MB",
    "ND",
    "MOSAIC"
],
  "ImagingFrequency": 123.259,
  "InPlanePhaseEncodingDirectionDICOM": "COL",
  "InstitutionAddress": "Chemin Queen-Mary 4565,Montreal,District,CA,H3W 1W5",
  "InstitutionName": "IUGM",
  "InstitutionalDepartmentName": "Department",
  "MRAcquisitionType": "2D",
  "MagneticFieldStrength": 3,
  "Manufacturer": "Siemens",
  "ManufacturersModelName": "Prisma_fit",
  "MatrixCoilMode": "SENSE",
  "Modality": "MR",
  "MultibandAccelerationFactor": 4,
  "PartialFourier": 1,
  "PatientPosition": "HFS",
  "PercentPhaseFOV": 100,
  "PercentSampling": 100,
  "PhaseEncodingDirection": "j",
  "PhaseEncodingSteps": 104,
  "PhaseResolution": 1,
  "PixelBandwidth": 2290,
  "ProcedureStepDescription": "games^mario3",
  "ProtocolName": "func_task-mario3_run-01",
  "PulseSequenceDetails": "%CustomerSeq%\\cmrr_mbep2d_bold",
  "ReceiveCoilActiveElements": "HC1-7;NC1,2",
  "ReceiveCoilName": "HeadNeck_64",
  "ReconMatrixPE": 104,
  "RepetitionTime": 1.49,
  "SAR": 0.0624453,
  "ScanOptions": "FS",
  "ScanningSequence": "EP",
  "SequenceName": "epfid2d1_104",
  "SequenceVariant": "SK\\SS",
  "SeriesDescription": "func_task-mario3_run-01",
  "SeriesNumber": 10,
  "ShimSetting": [632, -7187, -8870, 249, 58, -245, -58, 31],
  "SliceThickness": 2,
  "SliceTiming": [0, 0.785, 0.0975, 0.8825, 0.1975, 0.98, 0.295, 1.0775, 0.3925, 1.1775, 0.49, 1.275, 0.5875, 1.3725, 0.6875, 0, 0.785, 0.0975, 0.8825, 0.1975, 0.98, 0.295, 1.0775, 0.3925, 1.1775, 0.49, 1.275, 0.5875, 1.3725, 0.6875, 0, 0.785, 0.0975, 0.8825, 0.1975, 0.98, 0.295, 1.0775, 0.3925, 1.1775, 0.49, 1.275, 0.5875, 1.3725, 0.6875, 0, 0.785, 0.0975, 0.8825, 0.1975, 0.98, 0.295, 1.0775, 0.3925, 1.1775, 0.49, 1.275, 0.5875, 1.3725, 0.6875],
  "SoftwareVersions": "syngo MR E11",
  "SpacingBetweenSlices": 2,
  "StationName": "MRC35049",
  "TaskName": "mario3",
  "TotalReadoutTime": 0.0576811,
  "TxRefAmp": 287.299,
  "WipMemBlock": "dfabfed9-297b-471b-91ca-d9a6739948c4||Sequence: R017 ve11c/master r/75a17815+; Jun 28 2022 16:32:11 by eja",
  "dcmmeta_affine": [
    [-1.9983969926834106, 0.053726036101579666, 0.05935544893145561, 103.18023681640625],
    [0.013539445586502552, 1.6882197856903076, -1.0722548961639404, -49.090484619140625],
    [0.07890652865171432, 1.0709936618804932, 1.6872303485870361, -97.43827056884766],
    [0.0, 0.0, 0.0, 1.0]
],
  "dcmmeta_reorient_transform": [
    [0.0, -1.0, 0.0, 103.0],
    [1.0, 0.0, 0.0, 0.0],
    [0.0, 0.0, 1.0, 0.0],
    [0.0, 0.0, 0.0, 1.0]
],
  "dcmmeta_shape": [104, 104, 60, 323],
  "dcmmeta_slice_dim": 2,
  "dcmmeta_version": 0.6,
  "global": {
    "const": {
      "AcquisitionMatrix": [104, 0, 0, 104],
      "AngioFlag": "N",
      "BitsAllocated": 16,
      "BitsStored": 16,
      "BodyPartExamined": "BRAIN",
      "Columns": 832,
      "EchoNumbers": 1,
      "EchoTime": 37.0,
      "EchoTrainLength": 104,
      "FlipAngle": 52.0,
      "HighBit": 15,
      "ImageOrientationPatient": [0.99919848423867, -0.0067697229166, 0.03945326281542, 0.02686301839766, 0.84410990073653, -0.5354968288619],
      "ImagePositionPatient": [-855.68679344057, -734.3798041303, 373.99379229979],
      "ImageType": [
        "ORIGINAL",
        "PRIMARY",
        "M",
        "MB",
        "ND",
        "MOSAIC"
],
      "ImagedNucleus": "1H",
      "ImagingFrequency": 123.258789,
      "InPlanePhaseEncodingDirection": "COL",
      "MRAcquisitionType": "2D",
      "MagneticFieldStrength": 3.0,
      "Manufacturer": "SIEMENS",
      "ManufacturerModelName": "Prisma_fit",
      "Modality": "MR",
      "NumberOfAverages": 1.0,
      "NumberOfPhaseEncodingSteps": 104,
      "PercentPhaseFieldOfView": 100.0,
      "PercentSampling": 100.0,
      "PerformedProcedureStepStartTime": "111756.733000",
      "PhotometricInterpretation": "MONOCHROME2",
      "PixelBandwidth": 2290.0,
      "PixelRepresentation": 0,
      "PixelSpacing": [2.0, 2.0],
      "ProtocolName": "func_task-mario3_run-01",
      "RepetitionTime": 1490.0,
      "Rows": 832,
      "SAR": 0.06244533552897,
      "SamplesPerPixel": 1,
      "ScanOptions": "FS",
      "ScanningSequence": "EP",
      "SequenceName": "epfid2d1_104",
      "SequenceVariant": [
        "SK",
        "SS"
],
      "SeriesDescription": "func_task-mario3_run-01",
      "SeriesNumber": 10,
      "SeriesTime": "112255.048000",
      "SliceLocation": -52.819493638168,
      "SliceThickness": 2.0,
      "SmallestImagePixelValue": 0,
      "SoftwareVersions": "syngo MR E11",
      "SpacingBetweenSlices": 1.9999999984878,
      "SpecificCharacterSet": "ISO_IR 100",
      "StudyID": "1",
      "StudyTime": "111756.664000",
      "TransmitCoilName": "Body",
      "VariableFlipAngleFlag": "N",
      "WindowCenterWidthExplanation": "Algo1",
      "dBdt": 0.0},
    "slices": {}
  },
  "time": {
    "samples": {
      "AcquisitionNumber": [1, 2, 3, 4, 5, 6, 7, 8, 9, 10, 11, 12, 13, 14, 15, 16, 17, 18, 19, 20, 21, 22, 23, 24, 25, 26, 27, 28, 29, 30, 31, 32, 33, 34, 35, 36, 37, 38, 39, 40, 41, 42, 43, 44, 45, 46, 47, 48, 49, 50, 51, 52, 53, 54, 55, 56, 57, 58, 59, 60, 61, 62, 63, 64, 65, 66, 67, 68, 69, 70, 71, 72, 73, 74, 75, 76, 77, 78, 79, 80, 81, 82, 83, 84, 85, 86, 87, 88, 89, 90, 91, 92, 93, 94, 95, 96, 97, 98, 99, 100, 101, 102, 103, 104, 105, 106, 107, 108, 109, 110, 111, 112, 113, 114, 115, 116, 117, 118, 119, 120, 121, 122, 123, 124, 125, 126, 127, 128, 129, 130, 131, 132, 133, 134, 135, 136, 137, 138, 139, 140, 141, 142, 143, 144, 145, 146, 147, 148, 149, 150, 151, 152, 153, 154, 155, 156, 157, 158, 159, 160, 161, 162, 163, 164, 165, 166, 167, 168, 169, 170, 171, 172, 173, 174, 175, 176, 177, 178, 179, 180, 181, 182, 183, 184, 185, 186, 187, 188, 189, 190, 191, 192, 193, 194, 195, 196, 197, 198, 199, 200, 201, 202, 203, 204, 205, 206, 207, 208, 209, 210, 211, 212, 213, 214, 215, 216, 217, 218, 219, 220, 221, 222, 223, 224, 225, 226, 227, 228, 229, 230, 231, 232, 233, 234, 235, 236, 237, 238, 239, 240, 241, 242, 243, 244, 245, 246, 247, 248, 249, 250, 251, 252, 253, 254, 255, 256, 257, 258, 259, 260, 261, 262, 263, 264, 265, 266, 267, 268, 269, 270, 271, 272, 273, 274, 275, 276, 277, 278, 279, 280, 281, 282, 283, 284, 285, 286, 287, 288, 289, 290, 291, 292, 293, 294, 295, 296, 297, 298, 299, 300, 301, 302, 303, 304, 305, 306, 307, 308, 309, 310, 311, 312, 313, 314, 315, 316, 317, 318, 319, 320, 321, 322, 323],
      "AcquisitionTime": ["112143.995000", "112145.485000", "112146.975000", "112148.465000", "112149.955000", "112151.445000", "112152.935000", "112154.425000", "112155.915000", "112157.405000", "112158.895000", "112200.385000", "112201.875000", "112203.365000", "112204.855000", "112206.345000", "112207.835000", "112209.325000", "112210.815000", "112212.305000", "112213.795000", "112215.285000", "112216.775000", "112218.265000", "112219.755000", "112221.245000", "112222.735000", "112224.225000", "112225.715000", "112227.205000", "112228.695000", "112230.185000", "112231.675000", "112233.165000", "112234.655000", "112236.145000", "112237.635000", "112239.125000", "112240.615000", "112242.105000", "112243.595000", "112245.085000", "112246.575000", "112248.065000", "112249.555000", "112251.045000", "112252.535000", "112254.025000", "112255.515000", "112257.005000", "112258.495000", "112259.985000", "112301.475000", "112302.965000", "112304.455000", "112305.945000", "112307.435000", "112308.925000", "112310.415000", "112311.905000", "112313.395000", "112314.885000", "112316.375000", "112317.865000", "112319.355000", "112320.845000", "112322.335000", "112323.825000", "112325.315000", "112326.805000", "112328.295000", "112329.785000", "112331.275000", "112332.765000", "112334.255000", "112335.745000", "112337.235000", "112338.725000", "112340.215000", "112341.705000", "112343.195000", "112344.685000", "112346.175000", "112347.665000", "112349.155000", "112350.645000", "112352.135000", "112353.625000", "112355.115000", "112356.605000", "112358.095000", "112359.585000", "112401.075000", "112402.565000", "112404.055000", "112405.545000", "112407.035000", "112408.525000", "112410.015000", "112411.505000", "112412.995000", "112414.485000", "112415.975000", "112417.465000", "112418.955000", "112420.445000", "112421.935000", "112423.425000", "112424.915000", "112426.405000", "112427.895000", "112429.385000", "112430.875000", "112432.365000", "112433.855000", "112435.345000", "112436.835000", "112438.325000", "112439.815000", "112441.305000", "112442.795000", "112444.285000", "112445.775000", "112447.265000", "112448.755000", "112450.245000", "112451.735000", "112453.225000", "112454.715000", "112456.205000", "112457.695000", "112459.185000", "112500.675000", "112502.165000", "112503.655000", "112505.145000", "112506.635000", "112508.125000", "112509.615000", "112511.105000", "112512.595000", "112514.085000", "112515.575000", "112517.065000", "112518.555000", "112520.045000", "112521.535000", "112523.025000", "112524.515000", "112526.005000", "112527.495000", "112528.985000", "112530.475000", "112531.965000", "112533.455000", "112534.945000", "112536.435000", "112537.925000", "112539.415000", "112540.905000", "112542.395000", "112543.885000", "112545.375000", "112546.865000", "112548.355000", "112549.845000", "112551.335000", "112552.825000", "112554.315000", "112555.805000", "112557.295000", "112558.785000", "112600.275000", "112601.765000", "112603.255000", "112604.745000", "112606.235000", "112607.725000", "112609.215000", "112610.705000", "112612.195000", "112613.685000", "112615.175000", "112616.665000", "112618.155000", "112619.645000", "112621.135000", "112622.625000", "112624.115000", "112625.605000", "112627.095000", "112628.585000", "112630.075000", "112631.565000", "112633.055000", "112634.545000", "112636.035000", "112637.525000", "112639.015000", "112640.505000", "112641.995000", "112643.485000", "112644.975000", "112646.465000", "112647.955000", "112649.445000", "112650.935000", "112652.425000", "112653.915000", "112655.405000", "112656.895000", "112658.385000", "112659.875000", "112701.365000", "112702.855000", "112704.345000", "112705.835000", "112707.325000", "112708.815000", "112710.305000", "112711.795000", "112713.285000", "112714.775000", "112716.265000", "112717.755000", "112719.245000", "112720.735000", "112722.225000", "112723.715000", "112725.205000", "112726.695000", "112728.185000", "112729.675000", "112731.165000", "112732.655000", "112734.145000", "112735.635000", "112737.125000", "112738.615000", "112740.105000", "112741.595000", "112743.085000", "112744.575000", "112746.065000", "112747.555000", "112749.045000", "112750.535000", "112752.025000", "112753.515000", "112755.005000", "112756.495000", "112757.985000", "112759.475000", "112800.965000", "112802.455000", "112803.945000", "112805.435000", "112806.925000", "112808.415000", "112809.905000", "112811.395000", "112812.885000", "112814.375000", "112815.865000", "112817.355000", "112818.845000", "112820.335000", "112821.825000", "112823.315000", "112824.805000", "112826.295000", "112827.785000", "112829.275000", "112830.765000", "112832.255000", "112833.745000", "112835.235000", "112836.725000", "112838.215000", "112839.705000", "112841.195000", "112842.685000", "112844.175000", "112845.665000", "112847.155000", "112848.645000", "112850.135000", "112851.625000", "112853.115000", "112854.605000", "112856.095000", "112857.585000", "112859.075000", "112900.565000", "112902.055000", "112903.545000", "112905.035000", "112906.525000", "112908.015000", "112909.505000", "112910.995000", "112912.485000", "112913.975000", "112915.465000", "112916.955000", "112918.445000", "112919.935000", "112921.425000", "112922.915000", "112924.405000", "112925.895000", "112927.385000", "112928.875000", "112930.365000", "112931.855000", "112933.345000", "112934.835000", "112936.325000", "112937.815000", "112939.305000", "112940.795000", "112942.285000", "112943.775000"],
      "ContentTime": ["112255.051000", "112255.055000", "112255.058000", "112255.061000", "112255.065000", "112255.068000", "112255.084000", "112255.087000", "112255.091000", "112255.103000", "112255.106000", "112255.109000", "112255.113000", "112255.116000", "112255.119000", "112255.122000", "112255.139000", "112255.143000", "112255.146000", "112255.149000", "112255.153000", "112255.156000", "112315.014000", "112315.018000", "112315.021000", "112315.024000", "112315.028000", "112315.031000", "112315.034000", "112315.038000", "112315.041000", "112315.044000", "112315.047000", "112315.051000", "112315.054000", "112315.057000", "112315.060000", "112315.064000", "112315.067000", "112315.070000", "112315.074000", "112315.077000", "112335.014000", "112335.018000", "112335.021000", "112335.024000", "112335.028000", "112335.031000", "112335.034000", "112335.038000", "112335.041000", "112335.044000", "112335.048000", "112335.051000", "112335.054000", "112335.057000", "112335.061000", "112335.064000", "112335.067000", "112335.071000", "112335.074000", "112335.077000", "112355.014000", "112355.018000", "112355.021000", "112355.024000", "112355.028000", "112355.031000", "112355.034000", "112355.037000", "112355.041000", "112355.044000", "112355.047000", "112355.050000", "112355.054000", "112355.057000", "112355.060000", "112355.063000", "112355.067000", "112355.070000", "112355.073000", "112355.077000", "112435.014000", "112435.018000", "112435.021000", "112435.024000", "112435.028000", "112435.031000", "112435.040000", "112435.043000", "112435.047000", "112435.050000", "112435.053000", "112435.057000", "112435.060000", "112435.063000", "112435.067000", "112435.070000", "112435.073000", "112435.076000", "112435.080000", "112435.083000", "112435.086000", "112435.089000", "112435.093000", "112435.096000", "112435.099000", "112435.103000", "112435.106000", "112435.110000", "112435.113000", "112435.117000", "112435.120000", "112435.124000", "112515.014000", "112515.018000", "112515.021000", "112515.025000", "112515.028000", "112515.031000", "112515.035000", "112515.038000", "112515.041000", "112515.045000", "112515.048000", "112515.051000", "112515.055000", "112515.058000", "112515.061000", "112515.064000", "112515.068000", "112515.071000", "112515.074000", "112515.078000", "112515.081000", "112515.084000", "112515.088000", "112515.091000", "112515.095000", "112515.098000", "112515.102000", "112535.014000", "112535.034000", "112535.038000", "112535.041000", "112535.044000", "112535.054000", "112535.057000", "112535.061000", "112535.064000", "112535.067000", "112535.071000", "112535.074000", "112535.077000", "112615.014000", "112615.018000", "112615.021000", "112615.025000", "112615.028000", "112615.031000", "112615.034000", "112615.038000", "112615.041000", "112615.044000", "112615.047000", "112615.051000", "112615.054000", "112615.057000", "112615.066000", "112615.069000", "112615.073000", "112615.076000", "112615.079000", "112615.083000", "112615.086000", "112615.089000", "112615.093000", "112615.096000", "112615.100000", "112615.103000", "112615.107000", "112655.014000", "112655.018000", "112655.021000", "112655.032000", "112655.035000", "112655.039000", "112655.042000", "112655.045000", "112655.049000", "112655.052000", "112655.055000", "112655.058000", "112655.062000", "112655.065000", "112655.068000", "112655.072000", "112655.075000", "112655.078000", "112655.082000", "112655.085000", "112655.088000", "112655.091000", "112655.095000", "112655.098000", "112655.101000", "112655.105000", "112655.108000", "112735.014000", "112735.018000", "112735.021000", "112735.025000", "112735.028000", "112735.031000", "112735.034000", "112735.038000", "112735.041000", "112735.044000", "112735.048000", "112735.051000", "112735.054000", "112735.057000", "112735.061000", "112735.064000", "112735.067000", "112735.071000", "112735.074000", "112735.077000", "112735.080000", "112735.084000", "112735.087000", "112735.090000", "112735.094000", "112735.097000", "112735.100000", "112815.014000", "112815.018000", "112815.021000", "112815.025000", "112815.028000", "112815.031000", "112815.034000", "112815.038000", "112815.041000", "112815.044000", "112815.048000", "112815.051000", "112815.054000", "112815.058000", "112815.061000", "112815.064000", "112815.068000", "112815.071000", "112815.082000", "112815.086000", "112815.089000", "112815.092000", "112815.095000", "112815.099000", "112815.102000", "112815.105000", "112815.109000", "112855.014000", "112855.018000", "112855.021000", "112855.025000", "112855.028000", "112855.031000", "112855.035000", "112855.038000", "112855.041000", "112855.044000", "112855.048000", "112855.051000", "112855.054000", "112855.058000", "112855.061000", "112855.064000", "112855.068000", "112855.071000", "112855.074000", "112855.077000", "112855.081000", "112855.084000", "112855.087000", "112855.091000", "112855.094000", "112855.097000", "112855.100000", "112935.014000", "112935.018000", "112935.021000", "112935.025000", "112935.028000", "112935.031000", "112935.035000", "112935.039000", "112935.042000", "112935.045000", "112935.049000", "112935.052000", "112935.055000", "112935.059000", "112935.062000", "112935.065000", "112935.069000", "112935.072000", "112935.075000", "112935.079000", "112935.082000", "112935.085000", "112935.089000", "112935.092000", "112935.095000", "112935.099000", "112946.908000", "112946.912000", "112946.916000", "112946.919000", "112946.923000", "112946.926000", "112946.930000", "112946.945000"],
      "InstanceCreationTime": ["112255.051000", "112255.055000", "112255.058000", "112255.061000", "112255.065000", "112255.068000", "112255.084000", "112255.087000", "112255.091000", "112255.103000", "112255.106000", "112255.109000", "112255.113000", "112255.116000", "112255.119000", "112255.122000", "112255.139000", "112255.143000", "112255.146000", "112255.149000", "112255.153000", "112255.156000", "112315.014000", "112315.018000", "112315.021000", "112315.024000", "112315.028000", "112315.031000", "112315.034000", "112315.038000", "112315.041000", "112315.044000", "112315.047000", "112315.051000", "112315.054000", "112315.057000", "112315.060000", "112315.064000", "112315.067000", "112315.070000", "112315.074000", "112315.077000", "112335.014000", "112335.018000", "112335.021000", "112335.024000", "112335.028000", "112335.031000", "112335.034000", "112335.038000", "112335.041000", "112335.044000", "112335.048000", "112335.051000", "112335.054000", "112335.057000", "112335.061000", "112335.064000", "112335.067000", "112335.071000", "112335.074000", "112335.077000", "112355.014000", "112355.018000", "112355.021000", "112355.024000", "112355.028000", "112355.031000", "112355.034000", "112355.037000", "112355.041000", "112355.044000", "112355.047000", "112355.050000", "112355.054000", "112355.057000", "112355.060000", "112355.063000", "112355.067000", "112355.070000", "112355.073000", "112355.077000", "112435.014000", "112435.018000", "112435.021000", "112435.024000", "112435.028000", "112435.031000", "112435.040000", "112435.043000", "112435.047000", "112435.050000", "112435.053000", "112435.057000", "112435.060000", "112435.063000", "112435.067000", "112435.070000", "112435.073000", "112435.076000", "112435.080000", "112435.083000", "112435.086000", "112435.089000", "112435.093000", "112435.096000", "112435.099000", "112435.103000", "112435.106000", "112435.110000", "112435.113000", "112435.117000", "112435.120000", "112435.124000", "112515.014000", "112515.018000", "112515.021000", "112515.025000", "112515.028000", "112515.031000", "112515.035000", "112515.038000", "112515.041000", "112515.045000", "112515.048000", "112515.051000", "112515.055000", "112515.058000", "112515.061000", "112515.064000", "112515.068000", "112515.071000", "112515.074000", "112515.078000", "112515.081000", "112515.084000", "112515.088000", "112515.091000", "112515.095000", "112515.098000", "112515.102000", "112535.014000", "112535.034000", "112535.038000", "112535.041000", "112535.044000", "112535.054000", "112535.057000", "112535.061000", "112535.064000", "112535.067000", "112535.071000", "112535.074000", "112535.077000", "112615.014000", "112615.018000", "112615.021000", "112615.025000", "112615.028000", "112615.031000", "112615.034000", "112615.038000", "112615.041000", "112615.044000", "112615.047000", "112615.051000", "112615.054000", "112615.057000", "112615.066000", "112615.069000", "112615.073000", "112615.076000", "112615.079000", "112615.083000", "112615.086000", "112615.089000", "112615.093000", "112615.096000", "112615.100000", "112615.103000", "112615.107000", "112655.014000", "112655.018000", "112655.021000", "112655.032000", "112655.035000", "112655.039000", "112655.042000", "112655.045000", "112655.049000", "112655.052000", "112655.055000", "112655.058000", "112655.062000", "112655.065000", "112655.068000", "112655.072000", "112655.075000", "112655.078000", "112655.082000", "112655.085000", "112655.088000", "112655.091000", "112655.095000", "112655.098000", "112655.101000", "112655.105000", "112655.108000", "112735.014000", "112735.018000", "112735.021000", "112735.025000", "112735.028000", "112735.031000", "112735.034000", "112735.038000", "112735.041000", "112735.044000", "112735.048000", "112735.051000", "112735.054000", "112735.057000", "112735.061000", "112735.064000", "112735.067000", "112735.071000", "112735.074000", "112735.077000", "112735.080000", "112735.084000", "112735.087000", "112735.090000", "112735.094000", "112735.097000", "112735.100000", "112815.014000", "112815.018000", "112815.021000", "112815.025000", "112815.028000", "112815.031000", "112815.034000", "112815.038000", "112815.041000", "112815.044000", "112815.048000", "112815.051000", "112815.054000", "112815.058000", "112815.061000", "112815.064000", "112815.068000", "112815.071000", "112815.082000", "112815.086000", "112815.089000", "112815.092000", "112815.095000", "112815.099000", "112815.102000", "112815.105000", "112815.109000", "112855.014000", "112855.018000", "112855.021000", "112855.025000", "112855.028000", "112855.031000", "112855.035000", "112855.038000", "112855.041000", "112855.044000", "112855.048000", "112855.051000", "112855.054000", "112855.058000", "112855.061000", "112855.064000", "112855.068000", "112855.071000", "112855.074000", "112855.077000", "112855.081000", "112855.084000", "112855.087000", "112855.091000", "112855.094000", "112855.097000", "112855.100000", "112935.014000", "112935.018000", "112935.021000", "112935.025000", "112935.028000", "112935.031000", "112935.035000", "112935.039000", "112935.042000", "112935.045000", "112935.049000", "112935.052000", "112935.055000", "112935.059000", "112935.062000", "112935.065000", "112935.069000", "112935.072000", "112935.075000", "112935.079000", "112935.082000", "112935.085000", "112935.089000", "112935.092000", "112935.095000", "112935.099000", "112946.908000", "112946.912000", "112946.916000", "112946.919000", "112946.923000", "112946.926000", "112946.930000", "112946.945000"],
      "InstanceNumber": [1, 2, 3, 4, 5, 6, 7, 8, 9, 10, 11, 12, 13, 14, 15, 16, 17, 18, 19, 20, 21, 22, 23, 24, 25, 26, 27, 28, 29, 30, 31, 32, 33, 34, 35, 36, 37, 38, 39, 40, 41, 42, 43, 44, 45, 46, 47, 48, 49, 50, 51, 52, 53, 54, 55, 56, 57, 58, 59, 60, 61, 62, 63, 64, 65, 66, 67, 68, 69, 70, 71, 72, 73, 74, 75, 76, 77, 78, 79, 80, 81, 82, 83, 84, 85, 86, 87, 88, 89, 90, 91, 92, 93, 94, 95, 96, 97, 98, 99, 100, 101, 102, 103, 104, 105, 106, 107, 108, 109, 110, 111, 112, 113, 114, 115, 116, 117, 118, 119, 120, 121, 122, 123, 124, 125, 126, 127, 128, 129, 130, 131, 132, 133, 134, 135, 136, 137, 138, 139, 140, 141, 142, 143, 144, 145, 146, 147, 148, 149, 150, 151, 152, 153, 154, 155, 156, 157, 158, 159, 160, 161, 162, 163, 164, 165, 166, 167, 168, 169, 170, 171, 172, 173, 174, 175, 176, 177, 178, 179, 180, 181, 182, 183, 184, 185, 186, 187, 188, 189, 190, 191, 192, 193, 194, 195, 196, 197, 198, 199, 200, 201, 202, 203, 204, 205, 206, 207, 208, 209, 210, 211, 212, 213, 214, 215, 216, 217, 218, 219, 220, 221, 222, 223, 224, 225, 226, 227, 228, 229, 230, 231, 232, 233, 234, 235, 236, 237, 238, 239, 240, 241, 242, 243, 244, 245, 246, 247, 248, 249, 250, 251, 252, 253, 254, 255, 256, 257, 258, 259, 260, 261, 262, 263, 264, 265, 266, 267, 268, 269, 270, 271, 272, 273, 274, 275, 276, 277, 278, 279, 280, 281, 282, 283, 284, 285, 286, 287, 288, 289, 290, 291, 292, 293, 294, 295, 296, 297, 298, 299, 300, 301, 302, 303, 304, 305, 306, 307, 308, 309, 310, 311, 312, 313, 314, 315, 316, 317, 318, 319, 320, 321, 322, 323],
      "LargestImagePixelValue": [42967, 43535, 40587, 40858, 40038, 41530, 40168, 40389, 39568, 39356, 39366, 39800, 40106, 40685, 39710, 39754, 40797, 41449, 39687, 39744, 40532, 41129, 40365, 40135, 40297, 40114, 41095, 40182, 40213, 40629, 39867, 40419, 40197, 39842, 39891, 39855, 42392, 40921, 39990, 40501, 40758, 40357, 41968, 39916, 40001, 40024, 40630, 40384, 40799, 41873, 42218, 41193, 40934, 42262, 42138, 41036, 42537, 42103, 41317, 40639, 39796, 42083, 43417, 42691, 40742, 40535, 40252, 41756, 41320, 42248, 39756, 40527, 41172, 41179, 39593, 43893, 40305, 40345, 40103, 39596, 40319, 40966, 42416, 41091, 40591, 40422, 41414, 40130, 40494, 41480, 43076, 43420, 42774, 42076, 41446, 42813, 40959, 42729, 41997, 42120, 40897, 41661, 41432, 40889, 42909, 41268, 40782, 43107, 41732, 40549, 41312, 40787, 41402, 42040, 41654, 42750, 40697, 41068, 40632, 42384, 44435, 41854, 41322, 41240, 42322, 41877, 42861, 42185, 42920, 43402, 42729, 41797, 42813, 39981, 41149, 41288, 40665, 41064, 42580, 44845, 43958, 41175, 43285, 41210, 41301, 41991, 42104, 43814, 44065, 41789, 43014, 41568, 40728, 43003, 40890, 39942, 40665, 41473, 42498, 41968, 42546, 41919, 41704, 41448, 41117, 41575, 40232, 43675, 44457, 43836, 43705, 43208, 43695, 43295, 41902, 42359, 43141, 44153, 42332, 40267, 41746, 41191, 41619, 40731, 42197, 41743, 42225, 41470, 41398, 41275, 41105, 41361, 41594, 41481, 41762, 41809, 41357, 41368, 40925, 41679, 40942, 41066, 42420, 44297, 42491, 43499, 41360, 41505, 43394, 42824, 42108, 40374, 39907, 40125, 40451, 39937, 41235, 40605, 44215, 43488, 44396, 44093, 44071, 43190, 42733, 43647, 43817, 44214, 43774, 43729, 41940, 42774, 43230, 43490, 40406, 41083, 41164, 41166, 41247, 41787, 41590, 42683, 44253, 45124, 43318, 43519, 43798, 42375, 41071, 42446, 41948, 40032, 44168, 42850, 41411, 41479, 42844, 41303, 41166, 41770, 41560, 41345, 41639, 43767, 44077, 43373, 42182, 43188, 41102, 41508, 42023, 43313, 42358, 41724, 42136, 41942, 41254, 42254, 40791, 41643, 40824, 42434, 41635, 41789, 42071, 42003, 41156, 42675, 42688, 41822, 41254, 40444, 45613, 40502, 42466, 41627, 41044, 42140, 43179, 42687, 41526, 42607, 43586, 42724, 42026, 41534, 42371, 43426, 41738, 41750, 41737, 41814, 41676, 40765, 40801, 41373, 41526, 41566, 42453, 41442, 41465, 41478, 41329],
