{
  "AcquisitionMatrixPE": 104,
  "AcquisitionNumber": 1,
  "AcquisitionTime": "11:21:43.995000",
  "BandwidthPerPixelPhaseEncode": 17.17,
  "BaseResolution": 104,
  "BodyPartExamined": "BRAIN",
  "CoilCombinationMethod": "Sum of Squares",
  "ConsistencyInfo": "N4_VE11C_LATEST_20160120",
  "ConversionSoftware": "dcm2niix",
  "ConversionSoftwareVersion": "v1.0.20220505",
  "DerivedVendorReportedEchoSpacing": 0.000560011,
  "DeviceSerialNumber": "167006",
  "DwellTime": 2.1e-06,
  "EchoTime": 0.037,
  "EchoTime1": 0.037,
  "EchoTime2": 0.001,
  "EchoTrainLength": 104,
  "EffectiveEchoSpacing": 0.000560011,
  "FlipAngle": 52,
  "HeudiconvVersion": "0.5.3.post811+g6206e14",
  "ImageComments": "Unaliased MB4/PE3/LB",
  "ImageOrientationPatientDICOM": [0.999198, -0.00676972, 0.0394533, 0.026863, 0.84411, -0.535497],
  "ImageOrientationText": "Tra>Cor(-32.4)>Sag(1.7)",
  "ImageType": [
    "ORIGINAL",
    "PRIMARY",
    "P",
    "MB",
    "ND",
    "MOSAIC",
    "PHASE"
],
  "ImagingFrequency": 123.259,
  "InPlanePhaseEncodingDirectionDICOM": "COL",
  "InstitutionAddress": "Chemin Queen-Mary 4565,Montreal,District,CA,H3W 1W5",
  "InstitutionName": "IUGM",
  "InstitutionalDepartmentName": "Department",
  "MRAcquisitionType": "2D",
  "MagneticFieldStrength": 3,
  "Manufacturer": "Siemens",
  "ManufacturersModelName": "Prisma_fit",
  "MatrixCoilMode": "SENSE",
  "Modality": "MR",
  "MultibandAccelerationFactor": 4,
  "PartialFourier": 1,
  "PatientPosition": "HFS",
  "PercentPhaseFOV": 100,
  "PercentSampling": 100,
  "PhaseEncodingDirection": "j",
  "PhaseEncodingSteps": 104,
  "PhaseResolution": 1,
  "PixelBandwidth": 2290,
  "ProcedureStepDescription": "games^mario3",
  "ProtocolName": "func_task-mario3_run-01",
  "PulseSequenceDetails": "%CustomerSeq%\\cmrr_mbep2d_bold",
  "ReceiveCoilActiveElements": "HC1-7;NC1,2",
  "ReceiveCoilName": "HeadNeck_64",
  "ReconMatrixPE": 104,
  "RepetitionTime": 1.49,
  "SAR": 0.0624453,
  "ScanOptions": "FS",
  "ScanningSequence": "EP",
  "SequenceName": "epfid2d1_104",
  "SequenceVariant": "SK\\SS",
  "SeriesDescription": "func_task-mario3_run-01",
  "SeriesNumber": 11,
  "ShimSetting": [632, -7187, -8870, 249, 58, -245, -58, 31],
  "SliceThickness": 2,
  "SliceTiming": [0, 0.785, 0.0975, 0.8825, 0.1975, 0.98, 0.295, 1.0775, 0.3925, 1.1775, 0.49, 1.275, 0.5875, 1.3725, 0.6875, 0, 0.785, 0.0975, 0.8825, 0.1975, 0.98, 0.295, 1.0775, 0.3925, 1.1775, 0.49, 1.275, 0.5875, 1.3725, 0.6875, 0, 0.785, 0.0975, 0.8825, 0.1975, 0.98, 0.295, 1.0775, 0.3925, 1.1775, 0.49, 1.275, 0.5875, 1.3725, 0.6875, 0, 0.785, 0.0975, 0.8825, 0.1975, 0.98, 0.295, 1.0775, 0.3925, 1.1775, 0.49, 1.275, 0.5875, 1.3725, 0.6875],
  "SoftwareVersions": "syngo MR E11",
  "SpacingBetweenSlices": 2,
  "StationName": "MRC35049",
  "TaskName": "mario3",
  "TotalReadoutTime": 0.0576811,
  "TxRefAmp": 287.299,
  "WipMemBlock": "dfabfed9-297b-471b-91ca-d9a6739948c4||Sequence: R017 ve11c/master r/75a17815+; Jun 28 2022 16:32:11 by eja",
  "dcmmeta_affine": [
    [-1.9983969926834106, 0.053726036101579666, 0.05935544893145561, 103.18023681640625],
    [0.013539445586502552, 1.6882197856903076, -1.0722548961639404, -49.090484619140625],
    [0.07890652865171432, 1.0709936618804932, 1.6872303485870361, -97.43827056884766],
    [0.0, 0.0, 0.0, 1.0]
],
  "dcmmeta_reorient_transform": [
    [0.0, -1.0, 0.0, 103.0],
    [1.0, 0.0, 0.0, 0.0],
    [0.0, 0.0, 1.0, 0.0],
    [0.0, 0.0, 0.0, 1.0]
],
  "dcmmeta_shape": [104, 104, 60, 323],
  "dcmmeta_slice_dim": 2,
  "dcmmeta_version": 0.6,
  "global": {
    "const": {
      "AcquisitionMatrix": [104, 0, 0, 104],
      "AngioFlag": "N",
      "BitsAllocated": 16,
      "BitsStored": 16,
      "BodyPartExamined": "BRAIN",
      "Columns": 832,
      "EchoNumbers": 1,
      "EchoTime": 37.0,
      "EchoTrainLength": 104,
      "FlipAngle": 52.0,
      "HighBit": 15,
      "ImageOrientationPatient": [0.99919848423867, -0.0067697229166, 0.03945326281542, 0.02686301839766, 0.84410990073653, -0.5354968288619],
      "ImagePositionPatient": [-855.68679344057, -734.3798041303, 373.99379229979],
      "ImageType": [
        "ORIGINAL",
        "PRIMARY",
        "P",
        "MB",
        "ND",
        "MOSAIC"
],
      "ImagedNucleus": "1H",
      "ImagingFrequency": 123.258789,
      "InPlanePhaseEncodingDirection": "COL",
      "LargestImagePixelValue": 4095,
      "MRAcquisitionType": "2D",
      "MagneticFieldStrength": 3.0,
      "Manufacturer": "SIEMENS",
      "ManufacturerModelName": "Prisma_fit",
      "Modality": "MR",
      "NumberOfAverages": 1.0,
      "NumberOfPhaseEncodingSteps": 104,
      "PercentPhaseFieldOfView": 100.0,
      "PercentSampling": 100.0,
      "PerformedProcedureStepStartTime": "111756.733000",
      "PhotometricInterpretation": "MONOCHROME2",
      "PixelBandwidth": 2290.0,
      "PixelRepresentation": 0,
      "PixelSpacing": [2.0, 2.0],
      "ProtocolName": "func_task-mario3_run-01",
      "RepetitionTime": 1490.0,
      "RescaleIntercept": -4096.0,
      "RescaleSlope": 2.0,
      "RescaleType": "US",
      "Rows": 832,
      "SAR": 0.06244533552897,
      "SamplesPerPixel": 1,
      "ScanOptions": "FS",
      "ScanningSequence": "EP",
      "SequenceName": "epfid2d1_104",
      "SequenceVariant": [
        "SK",
        "SS"
],
      "SeriesDescription": "func_task-mario3_run-01",
      "SeriesNumber": 11,
      "SeriesTime": "112255.192000",
      "SliceLocation": -52.819493638168,
      "SliceThickness": 2.0,
      "SmallestImagePixelValue": 0,
      "SoftwareVersions": "syngo MR E11",
      "SpacingBetweenSlices": 1.9999999984878,
      "SpecificCharacterSet": "ISO_IR 100",
      "StudyID": "1",
      "StudyTime": "111756.664000",
      "TransmitCoilName": "Body",
      "VariableFlipAngleFlag": "N",
      "WindowCenterWidthExplanation": "Algo1",
      "dBdt": 0.0},
    "slices": {}
  },
  "time": {
    "samples": {
      "AcquisitionNumber": [1, 2, 3, 4, 5, 6, 7, 8, 9, 10, 11, 12, 13, 14, 15, 16, 17, 18, 19, 20, 21, 22, 23, 24, 25, 26, 27, 28, 29, 30, 31, 32, 33, 34, 35, 36, 37, 38, 39, 40, 41, 42, 43, 44, 45, 46, 47, 48, 49, 50, 51, 52, 53, 54, 55, 56, 57, 58, 59, 60, 61, 62, 63, 64, 65, 66, 67, 68, 69, 70, 71, 72, 73, 74, 75, 76, 77, 78, 79, 80, 81, 82, 83, 84, 85, 86, 87, 88, 89, 90, 91, 92, 93, 94, 95, 96, 97, 98, 99, 100, 101, 102, 103, 104, 105, 106, 107, 108, 109, 110, 111, 112, 113, 114, 115, 116, 117, 118, 119, 120, 121, 122, 123, 124, 125, 126, 127, 128, 129, 130, 131, 132, 133, 134, 135, 136, 137, 138, 139, 140, 141, 142, 143, 144, 145, 146, 147, 148, 149, 150, 151, 152, 153, 154, 155, 156, 157, 158, 159, 160, 161, 162, 163, 164, 165, 166, 167, 168, 169, 170, 171, 172, 173, 174, 175, 176, 177, 178, 179, 180, 181, 182, 183, 184, 185, 186, 187, 188, 189, 190, 191, 192, 193, 194, 195, 196, 197, 198, 199, 200, 201, 202, 203, 204, 205, 206, 207, 208, 209, 210, 211, 212, 213, 214, 215, 216, 217, 218, 219, 220, 221, 222, 223, 224, 225, 226, 227, 228, 229, 230, 231, 232, 233, 234, 235, 236, 237, 238, 239, 240, 241, 242, 243, 244, 245, 246, 247, 248, 249, 250, 251, 252, 253, 254, 255, 256, 257, 258, 259, 260, 261, 262, 263, 264, 265, 266, 267, 268, 269, 270, 271, 272, 273, 274, 275, 276, 277, 278, 279, 280, 281, 282, 283, 284, 285, 286, 287, 288, 289, 290, 291, 292, 293, 294, 295, 296, 297, 298, 299, 300, 301, 302, 303, 304, 305, 306, 307, 308, 309, 310, 311, 312, 313, 314, 315, 316, 317, 318, 319, 320, 321, 322, 323],
      "AcquisitionTime": ["112143.995000", "112145.485000", "112146.975000", "112148.465000", "112149.955000", "112151.445000", "112152.935000", "112154.425000", "112155.915000", "112157.405000", "112158.895000", "112200.385000", "112201.875000", "112203.365000", "112204.855000", "112206.345000", "112207.835000", "112209.325000", "112210.815000", "112212.305000", "112213.795000", "112215.285000", "112216.775000", "112218.265000", "112219.755000", "112221.245000", "112222.735000", "112224.225000", "112225.715000", "112227.205000", "112228.695000", "112230.185000", "112231.675000", "112233.165000", "112234.655000", "112236.145000", "112237.635000", "112239.125000", "112240.615000", "112242.105000", "112243.595000", "112245.085000", "112246.575000", "112248.065000", "112249.555000", "112251.045000", "112252.535000", "112254.025000", "112255.515000", "112257.005000", "112258.495000", "112259.985000", "112301.475000", "112302.965000", "112304.455000", "112305.945000", "112307.435000", "112308.925000", "112310.415000", "112311.905000", "112313.395000", "112314.885000", "112316.375000", "112317.865000", "112319.355000", "112320.845000", "112322.335000", "112323.825000", "112325.315000", "112326.805000", "112328.295000", "112329.785000", "112331.275000", "112332.765000", "112334.255000", "112335.745000", "112337.235000", "112338.725000", "112340.215000", "112341.705000", "112343.195000", "112344.685000", "112346.175000", "112347.665000", "112349.155000", "112350.645000", "112352.135000", "112353.625000", "112355.115000", "112356.605000", "112358.095000", "112359.585000", "112401.075000", "112402.565000", "112404.055000", "112405.545000", "112407.035000", "112408.525000", "112410.015000", "112411.505000", "112412.995000", "112414.485000", "112415.975000", "112417.465000", "112418.955000", "112420.445000", "112421.935000", "112423.425000", "112424.915000", "112426.405000", "112427.895000", "112429.385000", "112430.875000", "112432.365000", "112433.855000", "112435.345000", "112436.835000", "112438.325000", "112439.815000", "112441.305000", "112442.795000", "112444.285000", "112445.775000", "112447.265000", "112448.755000", "112450.245000", "112451.735000", "112453.225000", "112454.715000", "112456.205000", "112457.695000", "112459.185000", "112500.675000", "112502.165000", "112503.655000", "112505.145000", "112506.635000", "112508.125000", "112509.615000", "112511.105000", "112512.595000", "112514.085000", "112515.575000", "112517.065000", "112518.555000", "112520.045000", "112521.535000", "112523.025000", "112524.515000", "112526.005000", "112527.495000", "112528.985000", "112530.475000", "112531.965000", "112533.455000", "112534.945000", "112536.435000", "112537.925000", "112539.415000", "112540.905000", "112542.395000", "112543.885000", "112545.375000", "112546.865000", "112548.355000", "112549.845000", "112551.335000", "112552.825000", "112554.315000", "112555.805000", "112557.295000", "112558.785000", "112600.275000", "112601.765000", "112603.255000", "112604.745000", "112606.235000", "112607.725000", "112609.215000", "112610.705000", "112612.195000", "112613.685000", "112615.175000", "112616.665000", "112618.155000", "112619.645000", "112621.135000", "112622.625000", "112624.115000", "112625.605000", "112627.095000", "112628.585000", "112630.075000", "112631.565000", "112633.055000", "112634.545000", "112636.035000", "112637.525000", "112639.015000", "112640.505000", "112641.995000", "112643.485000", "112644.975000", "112646.465000", "112647.955000", "112649.445000", "112650.935000", "112652.425000", "112653.915000", "112655.405000", "112656.895000", "112658.385000", "112659.875000", "112701.365000", "112702.855000", "112704.345000", "112705.835000", "112707.325000", "112708.815000", "112710.305000", "112711.795000", "112713.285000", "112714.775000", "112716.265000", "112717.755000", "112719.245000", "112720.735000", "112722.225000", "112723.715000", "112725.205000", "112726.695000", "112728.185000", "112729.675000", "112731.165000", "112732.655000", "112734.145000", "112735.635000", "112737.125000", "112738.615000", "112740.105000", "112741.595000", "112743.085000", "112744.575000", "112746.065000", "112747.555000", "112749.045000", "112750.535000", "112752.025000", "112753.515000", "112755.005000", "112756.495000", "112757.985000", "112759.475000", "112800.965000", "112802.455000", "112803.945000", "112805.435000", "112806.925000", "112808.415000", "112809.905000", "112811.395000", "112812.885000", "112814.375000", "112815.865000", "112817.355000", "112818.845000", "112820.335000", "112821.825000", "112823.315000", "112824.805000", "112826.295000", "112827.785000", "112829.275000", "112830.765000", "112832.255000", "112833.745000", "112835.235000", "112836.725000", "112838.215000", "112839.705000", "112841.195000", "112842.685000", "112844.175000", "112845.665000", "112847.155000", "112848.645000", "112850.135000", "112851.625000", "112853.115000", "112854.605000", "112856.095000", "112857.585000", "112859.075000", "112900.565000", "112902.055000", "112903.545000", "112905.035000", "112906.525000", "112908.015000", "112909.505000", "112910.995000", "112912.485000", "112913.975000", "112915.465000", "112916.955000", "112918.445000", "112919.935000", "112921.425000", "112922.915000", "112924.405000", "112925.895000", "112927.385000", "112928.875000", "112930.365000", "112931.855000", "112933.345000", "112934.835000", "112936.325000", "112937.815000", "112939.305000", "112940.795000", "112942.285000", "112943.775000"],
      "ContentTime": ["112255.194000", "112255.197000", "112255.200000", "112255.202000", "112255.205000", "112255.207000", "112255.210000", "112255.212000", "112255.215000", "112255.217000", "112255.220000", "112255.222000", "112255.224000", "112255.227000", "112255.229000", "112255.232000", "112255.234000", "112255.237000", "112255.239000", "112255.242000", "112255.244000", "112255.247000", "112315.141000", "112315.143000", "112315.146000", "112315.149000", "112315.151000", "112315.154000", "112315.156000", "112315.159000", "112315.161000", "112315.164000", "112315.166000", "112315.178000", "112315.180000", "112315.183000", "112315.185000", "112315.188000", "112315.190000", "112315.193000", "112315.195000", "112315.198000", "112335.805000", "112335.808000", "112335.810000", "112335.813000", "112335.815000", "112335.818000", "112335.821000", "112335.823000", "112335.826000", "112335.828000", "112335.831000", "112335.833000", "112335.836000", "112335.838000", "112335.841000", "112335.843000", "112335.846000", "112335.848000", "112335.851000", "112335.853000", "112355.127000", "112355.130000", "112355.132000", "112355.135000", "112355.137000", "112355.140000", "112355.142000", "112355.144000", "112355.147000", "112355.158000", "112355.160000", "112355.163000", "112355.165000", "112355.168000", "112355.170000", "112355.173000", "112355.175000", "112355.178000", "112355.180000", "112355.183000", "112435.170000", "112435.173000", "112435.175000", "112435.178000", "112435.180000", "112435.183000", "112435.185000", "112435.188000", "112435.190000", "112435.193000", "112435.195000", "112435.197000", "112435.200000", "112435.202000", "112435.205000", "112435.207000", "112435.210000", "112435.212000", "112435.215000", "112435.217000", "112435.220000", "112435.222000", "112435.225000", "112435.227000", "112435.230000", "112435.232000", "112435.235000", "112435.237000", "112435.240000", "112435.242000", "112435.245000", "112435.247000", "112515.144000", "112515.147000", "112515.149000", "112515.152000", "112515.154000", "112515.157000", "112515.159000", "112515.162000", "112515.164000", "112515.167000", "112515.173000", "112515.175000", "112515.178000", "112515.180000", "112515.183000", "112515.185000", "112515.188000", "112515.190000", "112515.193000", "112515.195000", "112515.198000", "112515.200000", "112515.203000", "112515.205000", "112515.208000", "112515.210000", "112515.213000", "112535.113000", "112535.116000", "112535.118000", "112535.121000", "112535.123000", "112535.126000", "112535.128000", "112535.131000", "112535.133000", "112535.136000", "112535.138000", "112535.141000", "112535.143000", "112615.156000", "112615.159000", "112615.162000", "112615.164000", "112615.167000", "112615.169000", "112615.172000", "112615.174000", "112615.177000", "112615.179000", "112615.182000", "112615.184000", "112615.186000", "112615.189000", "112615.191000", "112615.194000", "112615.196000", "112615.199000", "112615.201000", "112615.204000", "112615.206000", "112615.209000", "112615.211000", "112615.214000", "112615.216000", "112615.219000", "112615.221000", "112655.176000", "112655.179000", "112655.181000", "112655.184000", "112655.186000", "112655.189000", "112655.191000", "112655.194000", "112655.196000", "112655.199000", "112655.202000", "112655.204000", "112655.207000", "112655.209000", "112655.212000", "112655.214000", "112655.217000", "112655.233000", "112655.236000", "112655.238000", "112655.241000", "112655.243000", "112655.246000", "112655.248000", "112655.251000", "112655.253000", "112655.256000", "112735.161000", "112735.164000", "112735.166000", "112735.169000", "112735.171000", "112735.174000", "112735.176000", "112735.179000", "112735.181000", "112735.184000", "112735.186000", "112735.188000", "112735.191000", "112735.204000", "112735.207000", "112735.209000", "112735.212000", "112735.214000", "112735.217000", "112735.219000", "112735.222000", "112735.224000", "112735.227000", "112735.229000", "112735.232000", "112735.234000", "112735.236000", "112815.158000", "112815.161000", "112815.163000", "112815.166000", "112815.168000", "112815.171000", "112815.173000", "112815.176000", "112815.178000", "112815.181000", "112815.183000", "112815.186000", "112815.188000", "112815.191000", "112815.193000", "112815.196000", "112815.198000", "112815.201000", "112815.203000", "112815.206000", "112815.209000", "112815.211000", "112815.214000", "112815.216000", "112815.219000", "112815.222000", "112815.224000", "112855.155000", "112855.158000", "112855.161000", "112855.163000", "112855.166000", "112855.168000", "112855.171000", "112855.173000", "112855.176000", "112855.178000", "112855.181000", "112855.183000", "112855.186000", "112855.188000", "112855.191000", "112855.193000", "112855.196000", "112855.198000", "112855.201000", "112855.203000", "112855.206000", "112855.209000", "112855.211000", "112855.214000", "112855.216000", "112855.219000", "112855.221000", "112935.152000", "112935.155000", "112935.158000", "112935.162000", "112935.166000", "112935.169000", "112935.172000", "112935.175000", "112935.178000", "112935.189000", "112935.192000", "112935.194000", "112935.197000", "112935.200000", "112935.202000", "112935.205000", "112935.207000", "112935.210000", "112935.213000", "112935.230000", "112935.233000", "112935.235000", "112935.238000", "112935.240000", "112935.243000", "112935.246000", "112946.971000", "112946.974000", "112946.976000", "112946.979000", "112946.981000", "112946.984000", "112946.987000", "112946.989000"],
      "InstanceCreationTime": ["112255.194000", "112255.197000", "112255.200000", "112255.202000", "112255.205000", "112255.207000", "112255.210000", "112255.212000", "112255.215000", "112255.217000", "112255.220000", "112255.222000", "112255.224000", "112255.227000", "112255.229000", "112255.232000", "112255.234000", "112255.237000", "112255.239000", "112255.242000", "112255.244000", "112255.247000", "112315.141000", "112315.143000", "112315.146000", "112315.149000", "112315.151000", "112315.154000", "112315.156000", "112315.159000", "112315.161000", "112315.164000", "112315.166000", "112315.178000", "112315.180000", "112315.183000", "112315.185000", "112315.188000", "112315.190000", "112315.193000", "112315.195000", "112315.198000", "112335.805000", "112335.808000", "112335.810000", "112335.813000", "112335.815000", "112335.818000", "112335.821000", "112335.823000", "112335.826000", "112335.828000", "112335.831000", "112335.833000", "112335.836000", "112335.838000", "112335.841000", "112335.843000", "112335.846000", "112335.848000", "112335.851000", "112335.853000", "112355.127000", "112355.130000", "112355.132000", "112355.135000", "112355.137000", "112355.140000", "112355.142000", "112355.144000", "112355.147000", "112355.158000", "112355.160000", "112355.163000", "112355.165000", "112355.168000", "112355.170000", "112355.173000", "112355.175000", "112355.178000", "112355.180000", "112355.183000", "112435.170000", "112435.173000", "112435.175000", "112435.178000", "112435.180000", "112435.183000", "112435.185000", "112435.188000", "112435.190000", "112435.193000", "112435.195000", "112435.197000", "112435.200000", "112435.202000", "112435.205000", "112435.207000", "112435.210000", "112435.212000", "112435.215000", "112435.217000", "112435.220000", "112435.222000", "112435.225000", "112435.227000", "112435.230000", "112435.232000", "112435.235000", "112435.237000", "112435.240000", "112435.242000", "112435.245000", "112435.247000", "112515.144000", "112515.147000", "112515.149000", "112515.152000", "112515.154000", "112515.157000", "112515.159000", "112515.162000", "112515.164000", "112515.167000", "112515.173000", "112515.175000", "112515.178000", "112515.180000", "112515.183000", "112515.185000", "112515.188000", "112515.190000", "112515.193000", "112515.195000", "112515.198000", "112515.200000", "112515.203000", "112515.205000", "112515.208000", "112515.210000", "112515.213000", "112535.113000", "112535.116000", "112535.118000", "112535.121000", "112535.123000", "112535.126000", "112535.128000", "112535.131000", "112535.133000", "112535.136000", "112535.138000", "112535.141000", "112535.143000", "112615.156000", "112615.159000", "112615.162000", "112615.164000", "112615.167000", "112615.169000", "112615.172000", "112615.174000", "112615.177000", "112615.179000", "112615.182000", "112615.184000", "112615.186000", "112615.189000", "112615.191000", "112615.194000", "112615.196000", "112615.199000", "112615.201000", "112615.204000", "112615.206000", "112615.209000", "112615.211000", "112615.214000", "112615.216000", "112615.219000", "112615.221000", "112655.176000", "112655.179000", "112655.181000", "112655.184000", "112655.186000", "112655.189000", "112655.191000", "112655.194000", "112655.196000", "112655.199000", "112655.202000", "112655.204000", "112655.207000", "112655.209000", "112655.212000", "112655.214000", "112655.217000", "112655.233000", "112655.236000", "112655.238000", "112655.241000", "112655.243000", "112655.246000", "112655.248000", "112655.251000", "112655.253000", "112655.256000", "112735.161000", "112735.164000", "112735.166000", "112735.169000", "112735.171000", "112735.174000", "112735.176000", "112735.179000", "112735.181000", "112735.184000", "112735.186000", "112735.188000", "112735.191000", "112735.204000", "112735.207000", "112735.209000", "112735.212000", "112735.214000", "112735.217000", "112735.219000", "112735.222000", "112735.224000", "112735.227000", "112735.229000", "112735.232000", "112735.234000", "112735.236000", "112815.158000", "112815.161000", "112815.163000", "112815.166000", "112815.168000", "112815.171000", "112815.173000", "112815.176000", "112815.178000", "112815.181000", "112815.183000", "112815.186000", "112815.188000", "112815.191000", "112815.193000", "112815.196000", "112815.198000", "112815.201000", "112815.203000", "112815.206000", "112815.209000", "112815.211000", "112815.214000", "112815.216000", "112815.219000", "112815.222000", "112815.224000", "112855.155000", "112855.158000", "112855.161000", "112855.163000", "112855.166000", "112855.168000", "112855.171000", "112855.173000", "112855.176000", "112855.178000", "112855.181000", "112855.183000", "112855.186000", "112855.188000", "112855.191000", "112855.193000", "112855.196000", "112855.198000", "112855.201000", "112855.203000", "112855.206000", "112855.209000", "112855.211000", "112855.214000", "112855.216000", "112855.219000", "112855.221000", "112935.152000", "112935.155000", "112935.158000", "112935.162000", "112935.166000", "112935.169000", "112935.172000", "112935.175000", "112935.178000", "112935.189000", "112935.192000", "112935.194000", "112935.197000", "112935.200000", "112935.202000", "112935.205000", "112935.207000", "112935.210000", "112935.213000", "112935.230000", "112935.233000", "112935.235000", "112935.238000", "112935.240000", "112935.243000", "112935.246000", "112946.971000", "112946.974000", "112946.976000", "112946.979000", "112946.981000", "112946.984000", "112946.987000", "112946.989000"],
      "InstanceNumber": [1, 2, 3, 4, 5, 6, 7, 8, 9, 10, 11, 12, 13, 14, 15, 16, 17, 18, 19, 20, 21, 22, 23, 24, 25, 26, 27, 28, 29, 30, 31, 32, 33, 34, 35, 36, 37, 38, 39, 40, 41, 42, 43, 44, 45, 46, 47, 48, 49, 50, 51, 52, 53, 54, 55, 56, 57, 58, 59, 60, 61, 62, 63, 64, 65, 66, 67, 68, 69, 70, 71, 72, 73, 74, 75, 76, 77, 78, 79, 80, 81, 82, 83, 84, 85, 86, 87, 88, 89, 90, 91, 92, 93, 94, 95, 96, 97, 98, 99, 100, 101, 102, 103, 104, 105, 106, 107, 108, 109, 110, 111, 112, 113, 114, 115, 116, 117, 118, 119, 120, 121, 122, 123, 124, 125, 126, 127, 128, 129, 130, 131, 132, 133, 134, 135, 136, 137, 138, 139, 140, 141, 142, 143, 144, 145, 146, 147, 148, 149, 150, 151, 152, 153, 154, 155, 156, 157, 158, 159, 160, 161, 162, 163, 164, 165, 166, 167, 168, 169, 170, 171, 172, 173, 174, 175, 176, 177, 178, 179, 180, 181, 182, 183, 184, 185, 186, 187, 188, 189, 190, 191, 192, 193, 194, 195, 196, 197, 198, 199, 200, 201, 202, 203, 204, 205, 206, 207, 208, 209, 210, 211, 212, 213, 214, 215, 216, 217, 218, 219, 220, 221, 222, 223, 224, 225, 226, 227, 228, 229, 230, 231, 232, 233, 234, 235, 236, 237, 238, 239, 240, 241, 242, 243, 244, 245, 246, 247, 248, 249, 250, 251, 252, 253, 254, 255, 256, 257, 258, 259, 260, 261, 262, 263, 264, 265, 266, 267, 268, 269, 270, 271, 272, 273, 274, 275, 276, 277, 278, 279, 280, 281, 282, 283, 284, 285, 286, 287, 288, 289, 290, 291, 292, 293, 294, 295, 296, 297, 298, 299, 300, 301, 302, 303, 304, 305, 306, 307, 308, 309, 310, 311, 312, 313, 314, 315, 316, 317, 318, 319, 320, 321, 322, 323],
      "WindowCenter": [4824.0, 4848.0, 4826.0, 4846.0, 4822.0, 4820.0, 4828.0, 4824.0, 4826.0, 4848.0, 4850.0, 4828.0, 4846.0, 4850.0, 4826.0, 4850.0, 4846.0, 4824.0, 4822.0, 4822.0, 4824.0, 4848.0, 4846.0, 4842.0, 4824.0, 4822.0, 4822.0, 4844.0, 4848.0, 4848.0, 4822.0, 4824.0, 4848.0, 4824.0, 4824.0, 4826.0, 4846.0, 4846.0, 4848.0, 4822.0, 4844.0, 4822.0, 4844.0, 4846.0, 4824.0, 4822.0, 4842.0, 4846.0, 4846.0, 4848.0, 4844.0, 4848.0, 4846.0, 4846.0, 4822.0, 4846.0, 4848.0, 4846.0, 4844.0, 4846.0, 4824.0, 4848.0, 4848.0, 4848.0, 4848.0, 4846.0, 4820.0, 4824.0, 4820.0, 4824.0, 4824.0, 4824.0, 4846.0, 4848.0, 4846.0, 4846.0, 4844.0, 4844.0, 4820.0, 4816.0, 4814.0, 4822.0, 4822.0, 4824.0, 4846.0, 4826.0, 4846.0, 4824.0, 4826.0, 4822.0, 4846.0, 4844.0, 4846.0, 4822.0, 4848.0, 4822.0, 4822.0, 4848.0, 4848.0, 4826.0, 4824.0, 4820.0, 4822.0, 4824.0, 4824.0, 4846.0, 4848.0, 4850.0, 4824.0, 4822.0, 4820.0, 4818.0, 4822.0, 4824.0, 4824.0, 4842.0, 4848.0, 4848.0, 4824.0, 4848.0, 4846.0, 4826.0, 4820.0, 4822.0, 4824.0, 4824.0, 4824.0, 4848.0, 4826.0, 4844.0, 4846.0, 4824.0, 4844.0, 4868.0, 4846.0, 4816.0, 4816.0, 4814.0, 4820.0, 4846.0, 4846.0, 4826.0, 4848.0, 4844.0, 4824.0, 4824.0, 4820.0, 4820.0, 4824.0, 4846.0, 4824.0, 4846.0, 4824.0, 4850.0, 4826.0, 4822.0, 4820.0, 4818.0, 4820.0, 4822.0, 4848.0, 4850.0, 4846.0, 4824.0, 4826.0, 4824.0, 4824.0, 4820.0, 4846.0, 4824.0, 4824.0, 4822.0, 4822.0, 4844.0, 4844.0, 4822.0, 4848.0, 4838.0, 4848.0, 4824.0, 4820.0, 4816.0, 4818.0, 4822.0, 4846.0, 4846.0, 4848.0, 4848.0, 4846.0, 4824.0, 4816.0, 4818.0, 4818.0, 4826.0, 4822.0, 4826.0, 4848.0, 4844.0, 4848.0, 4846.0, 4820.0, 4818.0, 4818.0, 4824.0, 4822.0, 4822.0, 4846.0, 4850.0, 4848.0, 4850.0, 4848.0, 4852.0, 4846.0, 4822.0, 4820.0, 4820.0, 4820.0, 4820.0, 4826.0, 4844.0, 4848.0, 4844.0, 4848.0, 4844.0, 4846.0, 4848.0, 4848.0, 4846.0, 4846.0, 4844.0, 4846.0, 4844.0, 4846.0, 4850.0, 4824.0, 4822.0, 4824.0, 4820.0, 4818.0, 4824.0, 4824.0, 4850.0, 4844.0, 4848.0, 4848.0, 4848.0, 4822.0, 4822.0, 4822.0, 4818.0, 4818.0, 4850.0, 4872.0, 4846.0, 4852.0, 4850.0, 4846.0, 4850.0, 4848.0, 4820.0, 4818.0, 4818.0, 4822.0, 4824.0, 4850.0, 4850.0, 4850.0, 4850.0, 4850.0, 4846.0, 4822.0, 4824.0, 4826.0, 4826.0, 4824.0, 4826.0, 4850.0, 4848.0, 4850.0, 4830.0, 4850.0, 4850.0, 4848.0, 4848.0, 4846.0, 4846.0, 4848.0, 4850.0, 4848.0, 4850.0, 4826.0, 4848.0, 4850.0, 4852.0, 4824.0, 4826.0, 4822.0, 4820.0, 4824.0, 4822.0, 4822.0, 4828.0, 4848.0, 4854.0, 4852.0, 4850.0, 4822.0, 4818.0, 4820.0, 4822.0, 4824.0, 4820.0, 4850.0, 4848.0, 4854.0, 4852.0, 4824.0, 4824.0, 4848.0, 4824.0, 4846.0, 4824.0, 4822.0],
