{
  "AcquisitionMatrixPE": 104,
  "AcquisitionNumber": 1,
  "AcquisitionTime": "11:31:41.175000",
  "BandwidthPerPixelPhaseEncode": 17.17,
  "BaseResolution": 104,
  "BodyPartExamined": "BRAIN",
  "CoilCombinationMethod": "Sum of Squares",
  "ConsistencyInfo": "N4_VE11C_LATEST_20160120",
  "ConversionSoftware": "dcm2niix",
  "ConversionSoftwareVersion": "v1.0.20220505",
  "DerivedVendorReportedEchoSpacing": 0.000560011,
  "DeviceSerialNumber": "167006",
  "DwellTime": 2.1e-06,
  "EchoTime": 0.037,
  "EchoTime1": 0.037,
  "EchoTime2": 0.001,
  "EchoTrainLength": 104,
  "EffectiveEchoSpacing": 0.000560011,
  "FlipAngle": 52,
  "HeudiconvVersion": "0.5.3.post811+g6206e14",
  "ImageComments": "Unaliased MB4/PE3/LB",
  "ImageOrientationPatientDICOM": [0.999198, -0.00676972, 0.0394533, 0.026863, 0.84411, -0.535497],
  "ImageOrientationText": "Tra>Cor(-32.4)>Sag(1.7)",
  "ImageType": [
    "ORIGINAL",
    "PRIMARY",
    "P",
    "MB",
    "ND",
    "MOSAIC",
    "PHASE"
],
  "ImagingFrequency": 123.259,
  "InPlanePhaseEncodingDirectionDICOM": "COL",
  "InstitutionAddress": "Chemin Queen-Mary 4565,Montreal,District,CA,H3W 1W5",
  "InstitutionName": "IUGM",
  "InstitutionalDepartmentName": "Department",
  "MRAcquisitionType": "2D",
  "MagneticFieldStrength": 3,
  "Manufacturer": "Siemens",
  "ManufacturersModelName": "Prisma_fit",
  "MatrixCoilMode": "SENSE",
  "Modality": "MR",
  "MultibandAccelerationFactor": 4,
  "PartialFourier": 1,
  "PatientPosition": "HFS",
  "PercentPhaseFOV": 100,
  "PercentSampling": 100,
  "PhaseEncodingDirection": "j",
  "PhaseEncodingSteps": 104,
  "PhaseResolution": 1,
  "PixelBandwidth": 2290,
  "ProcedureStepDescription": "games^mario3",
  "ProtocolName": "func_task-mario3_run-02",
  "PulseSequenceDetails": "%CustomerSeq%\\cmrr_mbep2d_bold",
  "ReceiveCoilActiveElements": "HC1-7;NC1,2",
  "ReceiveCoilName": "HeadNeck_64",
  "ReconMatrixPE": 104,
  "RepetitionTime": 1.49,
  "SAR": 0.0624453,
  "ScanOptions": "FS",
  "ScanningSequence": "EP",
  "SequenceName": "epfid2d1_104",
  "SequenceVariant": "SK\\SS",
  "SeriesDescription": "func_task-mario3_run-02",
  "SeriesNumber": 14,
  "ShimSetting": [632, -7187, -8870, 249, 58, -245, -58, 31],
  "SliceThickness": 2,
  "SliceTiming": [0, 0.785, 0.0975, 0.8825, 0.1975, 0.98, 0.295, 1.0775, 0.3925, 1.175, 0.49, 1.275, 0.5875, 1.3725, 0.685, 0, 0.785, 0.0975, 0.8825, 0.1975, 0.98, 0.295, 1.0775, 0.3925, 1.175, 0.49, 1.275, 0.5875, 1.3725, 0.685, 0, 0.785, 0.0975, 0.8825, 0.1975, 0.98, 0.295, 1.0775, 0.3925, 1.175, 0.49, 1.275, 0.5875, 1.3725, 0.685, 0, 0.785, 0.0975, 0.8825, 0.1975, 0.98, 0.295, 1.0775, 0.3925, 1.175, 0.49, 1.275, 0.5875, 1.3725, 0.685],
  "SoftwareVersions": "syngo MR E11",
  "SpacingBetweenSlices": 2,
  "StationName": "MRC35049",
  "TaskName": "mario3",
  "TotalReadoutTime": 0.0576811,
  "TxRefAmp": 287.299,
  "WipMemBlock": "77b6d523-8b18-409e-b1b4-64cae8dcfb9b||Sequence: R017 ve11c/master r/75a17815+; Jun 28 2022 16:32:11 by eja",
  "dcmmeta_affine": [
    [-1.9983969926834106, 0.053726036101579666, 0.05935544893145561, 103.18023681640625],
    [0.013539445586502552, 1.6882197856903076, -1.0722548961639404, -49.090484619140625],
    [0.07890652865171432, 1.0709936618804932, 1.6872303485870361, -97.43827056884766],
    [0.0, 0.0, 0.0, 1.0]
],
  "dcmmeta_reorient_transform": [
    [0.0, -1.0, 0.0, 103.0],
    [1.0, 0.0, 0.0, 0.0],
    [0.0, 0.0, 1.0, 0.0],
    [0.0, 0.0, 0.0, 1.0]
],
  "dcmmeta_shape": [104, 104, 60, 305],
  "dcmmeta_slice_dim": 2,
  "dcmmeta_version": 0.6,
  "global": {
    "const": {
      "AcquisitionMatrix": [104, 0, 0, 104],
      "AngioFlag": "N",
      "BitsAllocated": 16,
      "BitsStored": 16,
      "BodyPartExamined": "BRAIN",
      "Columns": 832,
      "EchoNumbers": 1,
      "EchoTime": 37.0,
      "EchoTrainLength": 104,
      "FlipAngle": 52.0,
      "HighBit": 15,
      "ImageOrientationPatient": [0.99919848423867, -0.0067697229166, 0.03945326281542, 0.02686301839766, 0.84410990073653, -0.5354968288619],
      "ImagePositionPatient": [-855.68679344057, -734.3798041303, 373.99379229979],
      "ImageType": [
        "ORIGINAL",
        "PRIMARY",
        "P",
        "MB",
        "ND",
        "MOSAIC"
],
      "ImagedNucleus": "1H",
      "ImagingFrequency": 123.258795,
      "InPlanePhaseEncodingDirection": "COL",
      "LargestImagePixelValue": 4095,
      "MRAcquisitionType": "2D",
      "MagneticFieldStrength": 3.0,
      "Manufacturer": "SIEMENS",
      "ManufacturerModelName": "Prisma_fit",
      "Modality": "MR",
      "NumberOfAverages": 1.0,
      "NumberOfPhaseEncodingSteps": 104,
      "PercentPhaseFieldOfView": 100.0,
      "PercentSampling": 100.0,
      "PerformedProcedureStepStartTime": "111756.733000",
      "PhotometricInterpretation": "MONOCHROME2",
      "PixelBandwidth": 2290.0,
      "PixelRepresentation": 0,
      "PixelSpacing": [2.0, 2.0],
      "ProtocolName": "func_task-mario3_run-02",
      "RepetitionTime": 1490.0,
      "RescaleIntercept": -4096.0,
      "RescaleSlope": 2.0,
      "RescaleType": "US",
      "Rows": 832,
      "SAR": 0.06244533552897,
      "SamplesPerPixel": 1,
      "ScanOptions": "FS",
      "ScanningSequence": "EP",
      "SequenceName": "epfid2d1_104",
      "SequenceVariant": [
        "SK",
        "SS"
],
      "SeriesDescription": "func_task-mario3_run-02",
      "SeriesNumber": 14,
      "SeriesTime": "113301.399000",
      "SliceLocation": -52.819493638168,
      "SliceThickness": 2.0,
      "SmallestImagePixelValue": 0,
      "SoftwareVersions": "syngo MR E11",
      "SpacingBetweenSlices": 1.9999999984878,
      "SpecificCharacterSet": "ISO_IR 100",
      "StudyID": "1",
      "StudyTime": "111756.664000",
      "TransmitCoilName": "Body",
      "VariableFlipAngleFlag": "N",
      "WindowCenterWidthExplanation": "Algo1",
      "dBdt": 0.0},
    "slices": {}
  },
  "time": {
    "samples": {
      "AcquisitionNumber": [1, 2, 3, 4, 5, 6, 7, 8, 9, 10, 11, 12, 13, 14, 15, 16, 17, 18, 19, 20, 21, 22, 23, 24, 25, 26, 27, 28, 29, 30, 31, 32, 33, 34, 35, 36, 37, 38, 39, 40, 41, 42, 43, 44, 45, 46, 47, 48, 49, 50, 51, 52, 53, 54, 55, 56, 57, 58, 59, 60, 61, 62, 63, 64, 65, 66, 67, 68, 69, 70, 71, 72, 73, 74, 75, 76, 77, 78, 79, 80, 81, 82, 83, 84, 85, 86, 87, 88, 89, 90, 91, 92, 93, 94, 95, 96, 97, 98, 99, 100, 101, 102, 103, 104, 105, 106, 107, 108, 109, 110, 111, 112, 113, 114, 115, 116, 117, 118, 119, 120, 121, 122, 123, 124, 125, 126, 127, 128, 129, 130, 131, 132, 133, 134, 135, 136, 137, 138, 139, 140, 141, 142, 143, 144, 145, 146, 147, 148, 149, 150, 151, 152, 153, 154, 155, 156, 157, 158, 159, 160, 161, 162, 163, 164, 165, 166, 167, 168, 169, 170, 171, 172, 173, 174, 175, 176, 177, 178, 179, 180, 181, 182, 183, 184, 185, 186, 187, 188, 189, 190, 191, 192, 193, 194, 195, 196, 197, 198, 199, 200, 201, 202, 203, 204, 205, 206, 207, 208, 209, 210, 211, 212, 213, 214, 215, 216, 217, 218, 219, 220, 221, 222, 223, 224, 225, 226, 227, 228, 229, 230, 231, 232, 233, 234, 235, 236, 237, 238, 239, 240, 241, 242, 243, 244, 245, 246, 247, 248, 249, 250, 251, 252, 253, 254, 255, 256, 257, 258, 259, 260, 261, 262, 263, 264, 265, 266, 267, 268, 269, 270, 271, 272, 273, 274, 275, 276, 277, 278, 279, 280, 281, 282, 283, 284, 285, 286, 287, 288, 289, 290, 291, 292, 293, 294, 295, 296, 297, 298, 299, 300, 301, 302, 303, 304, 305],
      "AcquisitionTime": ["113141.175000", "113142.665000", "113144.155000", "113145.645000", "113147.135000", "113148.625000", "113150.115000", "113151.605000", "113153.095000", "113154.585000", "113156.075000", "113157.565000", "113159.055000", "113200.545000", "113202.035000", "113203.525000", "113205.015000", "113206.505000", "113207.995000", "113209.485000", "113210.975000", "113212.465000", "113213.955000", "113215.445000", "113216.935000", "113218.425000", "113219.915000", "113221.405000", "113222.895000", "113224.385000", "113225.875000", "113227.365000", "113228.855000", "113230.345000", "113231.835000", "113233.325000", "113234.815000", "113236.305000", "113237.795000", "113239.285000", "113240.775000", "113242.265000", "113243.755000", "113245.245000", "113246.735000", "113248.225000", "113249.715000", "113251.205000", "113252.695000", "113254.185000", "113255.675000", "113257.165000", "113258.655000", "113300.145000", "113301.635000", "113303.125000", "113304.615000", "113306.105000", "113307.595000", "113309.085000", "113310.575000", "113312.065000", "113313.555000", "113315.045000", "113316.535000", "113318.025000", "113319.515000", "113321.005000", "113322.495000", "113323.985000", "113325.475000", "113326.965000", "113328.455000", "113329.945000", "113331.435000", "113332.925000", "113334.415000", "113335.905000", "113337.395000", "113338.885000", "113340.375000", "113341.865000", "113343.355000", "113344.845000", "113346.335000", "113347.825000", "113349.315000", "113350.805000", "113352.295000", "113353.785000", "113355.275000", "113356.765000", "113358.255000", "113359.745000", "113401.235000", "113402.725000", "113404.215000", "113405.705000", "113407.195000", "113408.685000", "113410.175000", "113411.665000", "113413.155000", "113414.645000", "113416.135000", "113417.625000", "113419.115000", "113420.605000", "113422.095000", "113423.585000", "113425.075000", "113426.565000", "113428.055000", "113429.545000", "113431.035000", "113432.525000", "113434.015000", "113435.505000", "113436.995000", "113438.485000", "113439.975000", "113441.465000", "113442.955000", "113444.445000", "113445.935000", "113447.425000", "113448.915000", "113450.405000", "113451.895000", "113453.385000", "113454.875000", "113456.365000", "113457.855000", "113459.345000", "113500.835000", "113502.325000", "113503.815000", "113505.305000", "113506.795000", "113508.285000", "113509.775000", "113511.265000", "113512.755000", "113514.245000", "113515.735000", "113517.225000", "113518.715000", "113520.205000", "113521.695000", "113523.185000", "113524.675000", "113526.165000", "113527.655000", "113529.145000", "113530.635000", "113532.125000", "113533.615000", "113535.105000", "113536.595000", "113538.085000", "113539.575000", "113541.065000", "113542.555000", "113544.045000", "113545.535000", "113547.025000", "113548.515000", "113550.005000", "113551.495000", "113552.985000", "113554.475000", "113555.965000", "113557.455000", "113558.945000", "113600.435000", "113601.925000", "113603.415000", "113604.905000", "113606.395000", "113607.885000", "113609.375000", "113610.865000", "113612.355000", "113613.845000", "113615.335000", "113616.825000", "113618.315000", "113619.805000", "113621.295000", "113622.785000", "113624.275000", "113625.765000", "113627.255000", "113628.745000", "113630.235000", "113631.725000", "113633.215000", "113634.705000", "113636.195000", "113637.685000", "113639.175000", "113640.665000", "113642.155000", "113643.645000", "113645.135000", "113646.625000", "113648.115000", "113649.605000", "113651.095000", "113652.585000", "113654.075000", "113655.565000", "113657.055000", "113658.545000", "113700.035000", "113701.525000", "113703.015000", "113704.505000", "113705.995000", "113707.485000", "113708.975000", "113710.465000", "113711.955000", "113713.445000", "113714.935000", "113716.425000", "113717.915000", "113719.405000", "113720.895000", "113722.385000", "113723.875000", "113725.365000", "113726.855000", "113728.345000", "113729.835000", "113731.325000", "113732.815000", "113734.305000", "113735.795000", "113737.285000", "113738.775000", "113740.265000", "113741.755000", "113743.245000", "113744.735000", "113746.225000", "113747.715000", "113749.205000", "113750.695000", "113752.185000", "113753.675000", "113755.165000", "113756.655000", "113758.145000", "113759.635000", "113801.125000", "113802.615000", "113804.105000", "113805.595000", "113807.085000", "113808.575000", "113810.065000", "113811.555000", "113813.045000", "113814.535000", "113816.025000", "113817.515000", "113819.005000", "113820.495000", "113821.985000", "113823.475000", "113824.965000", "113826.455000", "113827.945000", "113829.435000", "113830.925000", "113832.415000", "113833.905000", "113835.395000", "113836.885000", "113838.375000", "113839.865000", "113841.355000", "113842.845000", "113844.335000", "113845.825000", "113847.315000", "113848.805000", "113850.295000", "113851.785000", "113853.275000", "113854.765000", "113856.255000", "113857.745000", "113859.235000", "113900.725000", "113902.215000", "113903.705000", "113905.195000", "113906.685000", "113908.175000", "113909.665000", "113911.155000", "113912.645000", "113914.135000"],
      "ContentTime": ["113301.401000", "113301.404000", "113301.406000", "113301.409000", "113301.411000", "113301.414000", "113301.416000", "113301.419000", "113301.421000", "113301.424000", "113301.426000", "113301.429000", "113301.431000", "113301.434000", "113301.436000", "113301.439000", "113301.441000", "113301.444000", "113301.446000", "113301.449000", "113301.451000", "113301.453000", "113301.456000", "113301.458000", "113301.461000", "113301.463000", "113301.466000", "113301.468000", "113301.471000", "113301.473000", "113301.476000", "113321.318000", "113321.321000", "113321.323000", "113321.326000", "113321.328000", "113321.331000", "113321.333000", "113321.336000", "113321.338000", "113321.341000", "113321.343000", "113321.346000", "113321.348000", "113321.350000", "113321.353000", "113321.355000", "113321.358000", "113321.360000", "113321.363000", "113321.365000", "113341.294000", "113341.297000", "113341.300000", "113341.302000", "113341.305000", "113341.307000", "113341.310000", "113341.312000", "113341.314000", "113341.317000", "113341.319000", "113341.322000", "113341.324000", "113341.327000", "113341.329000", "113341.332000", "113341.334000", "113341.337000", "113341.339000", "113341.342000", "113401.317000", "113401.319000", "113401.322000", "113401.325000", "113401.327000", "113401.329000", "113401.332000", "113401.334000", "113401.337000", "113401.339000", "113401.342000", "113401.352000", "113401.355000", "113401.357000", "113401.360000", "113401.362000", "113401.365000", "113401.367000", "113401.370000", "113401.372000", "113441.335000", "113441.338000", "113441.341000", "113441.343000", "113441.346000", "113441.348000", "113441.351000", "113441.353000", "113441.356000", "113441.358000", "113441.361000", "113441.363000", "113441.366000", "113441.368000", "113441.371000", "113441.373000", "113441.376000", "113441.378000", "113441.381000", "113441.383000", "113441.386000", "113441.388000", "113441.391000", "113441.393000", "113441.396000", "113441.398000", "113441.400000", "113441.403000", "113441.405000", "113521.354000", "113521.357000", "113521.359000", "113521.362000", "113521.364000", "113521.367000", "113521.369000", "113521.372000", "113521.374000", "113521.377000", "113521.379000", "113521.382000", "113521.384000", "113521.387000", "113521.389000", "113521.392000", "113521.394000", "113521.397000", "113521.399000", "113521.402000", "113521.404000", "113521.407000", "113521.409000", "113521.412000", "113521.414000", "113521.417000", "113521.419000", "113541.272000", "113541.275000", "113541.277000", "113541.280000", "113541.282000", "113541.285000", "113541.287000", "113541.290000", "113541.292000", "113541.295000", "113541.297000", "113541.300000", "113541.302000", "113621.343000", "113621.345000", "113621.348000", "113621.350000", "113621.353000", "113621.355000", "113621.358000", "113621.360000", "113621.363000", "113621.365000", "113621.368000", "113621.370000", "113621.373000", "113621.375000", "113621.378000", "113621.380000", "113621.383000", "113621.385000", "113621.388000", "113621.390000", "113621.393000", "113621.395000", "113621.398000", "113621.400000", "113621.403000", "113621.405000", "113621.408000", "113701.380000", "113701.383000", "113701.385000", "113701.388000", "113701.390000", "113701.393000", "113701.395000", "113701.398000", "113701.400000", "113701.403000", "113701.405000", "113701.408000", "113701.410000", "113701.413000", "113701.415000", "113701.418000", "113701.421000", "113701.424000", "113701.426000", "113701.429000", "113701.431000", "113701.434000", "113701.436000", "113701.439000", "113701.441000", "113701.444000", "113701.446000", "113741.359000", "113741.362000", "113741.364000", "113741.367000", "113741.369000", "113741.372000", "113741.374000", "113741.377000", "113741.379000", "113741.382000", "113741.384000", "113741.387000", "113741.389000", "113741.392000", "113741.394000", "113741.397000", "113741.399000", "113741.402000", "113741.404000", "113741.407000", "113741.409000", "113741.412000", "113741.414000", "113741.417000", "113741.419000", "113741.421000", "113741.424000", "113821.350000", "113821.353000", "113821.355000", "113821.358000", "113821.360000", "113821.363000", "113821.365000", "113821.368000", "113821.370000", "113821.373000", "113821.375000", "113821.378000", "113821.380000", "113821.383000", "113821.385000", "113821.388000", "113821.390000", "113821.393000", "113821.395000", "113821.398000", "113821.400000", "113821.403000", "113821.405000", "113821.408000", "113821.410000", "113821.413000", "113901.334000", "113901.337000", "113901.340000", "113901.342000", "113901.345000", "113901.347000", "113901.350000", "113901.352000", "113901.355000", "113901.357000", "113901.360000", "113901.362000", "113901.365000", "113901.367000", "113901.370000", "113901.372000", "113901.375000", "113901.377000", "113901.380000", "113901.382000", "113901.385000", "113901.387000", "113901.390000", "113901.392000", "113901.394000", "113901.397000", "113901.400000", "113917.517000", "113917.520000", "113917.523000", "113917.525000", "113917.528000", "113917.531000", "113917.533000", "113917.540000", "113917.543000", "113917.545000", "113917.548000"],
      "InstanceCreationTime": ["113301.401000", "113301.404000", "113301.406000", "113301.409000", "113301.411000", "113301.414000", "113301.416000", "113301.419000", "113301.421000", "113301.424000", "113301.426000", "113301.429000", "113301.431000", "113301.434000", "113301.436000", "113301.439000", "113301.441000", "113301.444000", "113301.446000", "113301.449000", "113301.451000", "113301.453000", "113301.456000", "113301.458000", "113301.461000", "113301.463000", "113301.466000", "113301.468000", "113301.471000", "113301.473000", "113301.476000", "113321.318000", "113321.321000", "113321.323000", "113321.326000", "113321.328000", "113321.331000", "113321.333000", "113321.336000", "113321.338000", "113321.341000", "113321.343000", "113321.346000", "113321.348000", "113321.350000", "113321.353000", "113321.355000", "113321.358000", "113321.360000", "113321.363000", "113321.365000", "113341.294000", "113341.297000", "113341.300000", "113341.302000", "113341.305000", "113341.307000", "113341.310000", "113341.312000", "113341.314000", "113341.317000", "113341.319000", "113341.322000", "113341.324000", "113341.327000", "113341.329000", "113341.332000", "113341.334000", "113341.337000", "113341.339000", "113341.342000", "113401.317000", "113401.319000", "113401.322000", "113401.325000", "113401.327000", "113401.329000", "113401.332000", "113401.334000", "113401.337000", "113401.339000", "113401.342000", "113401.352000", "113401.355000", "113401.357000", "113401.360000", "113401.362000", "113401.365000", "113401.367000", "113401.370000", "113401.372000", "113441.335000", "113441.338000", "113441.341000", "113441.343000", "113441.346000", "113441.348000", "113441.351000", "113441.353000", "113441.356000", "113441.358000", "113441.361000", "113441.363000", "113441.366000", "113441.368000", "113441.371000", "113441.373000", "113441.376000", "113441.378000", "113441.381000", "113441.383000", "113441.386000", "113441.388000", "113441.391000", "113441.393000", "113441.396000", "113441.398000", "113441.400000", "113441.403000", "113441.405000", "113521.354000", "113521.357000", "113521.359000", "113521.362000", "113521.364000", "113521.367000", "113521.369000", "113521.372000", "113521.374000", "113521.377000", "113521.379000", "113521.382000", "113521.384000", "113521.387000", "113521.389000", "113521.392000", "113521.394000", "113521.397000", "113521.399000", "113521.402000", "113521.404000", "113521.407000", "113521.409000", "113521.412000", "113521.414000", "113521.417000", "113521.419000", "113541.272000", "113541.275000", "113541.277000", "113541.280000", "113541.282000", "113541.285000", "113541.287000", "113541.290000", "113541.292000", "113541.295000", "113541.297000", "113541.300000", "113541.302000", "113621.343000", "113621.345000", "113621.348000", "113621.350000", "113621.353000", "113621.355000", "113621.358000", "113621.360000", "113621.363000", "113621.365000", "113621.368000", "113621.370000", "113621.373000", "113621.375000", "113621.378000", "113621.380000", "113621.383000", "113621.385000", "113621.388000", "113621.390000", "113621.393000", "113621.395000", "113621.398000", "113621.400000", "113621.403000", "113621.405000", "113621.408000", "113701.380000", "113701.383000", "113701.385000", "113701.388000", "113701.390000", "113701.393000", "113701.395000", "113701.398000", "113701.400000", "113701.403000", "113701.405000", "113701.408000", "113701.410000", "113701.413000", "113701.415000", "113701.418000", "113701.421000", "113701.424000", "113701.426000", "113701.429000", "113701.431000", "113701.434000", "113701.436000", "113701.439000", "113701.441000", "113701.444000", "113701.446000", "113741.359000", "113741.362000", "113741.364000", "113741.367000", "113741.369000", "113741.372000", "113741.374000", "113741.377000", "113741.379000", "113741.382000", "113741.384000", "113741.387000", "113741.389000", "113741.392000", "113741.394000", "113741.397000", "113741.399000", "113741.402000", "113741.404000", "113741.407000", "113741.409000", "113741.412000", "113741.414000", "113741.417000", "113741.419000", "113741.421000", "113741.424000", "113821.350000", "113821.353000", "113821.355000", "113821.358000", "113821.360000", "113821.363000", "113821.365000", "113821.368000", "113821.370000", "113821.373000", "113821.375000", "113821.378000", "113821.380000", "113821.383000", "113821.385000", "113821.388000", "113821.390000", "113821.393000", "113821.395000", "113821.398000", "113821.400000", "113821.403000", "113821.405000", "113821.408000", "113821.410000", "113821.413000", "113901.334000", "113901.337000", "113901.340000", "113901.342000", "113901.345000", "113901.347000", "113901.350000", "113901.352000", "113901.355000", "113901.357000", "113901.360000", "113901.362000", "113901.365000", "113901.367000", "113901.370000", "113901.372000", "113901.375000", "113901.377000", "113901.380000", "113901.382000", "113901.385000", "113901.387000", "113901.390000", "113901.392000", "113901.394000", "113901.397000", "113901.400000", "113917.517000", "113917.520000", "113917.523000", "113917.525000", "113917.528000", "113917.531000", "113917.533000", "113917.540000", "113917.543000", "113917.545000", "113917.548000"],
      "InstanceNumber": [1, 2, 3, 4, 5, 6, 7, 8, 9, 10, 11, 12, 13, 14, 15, 16, 17, 18, 19, 20, 21, 22, 23, 24, 25, 26, 27, 28, 29, 30, 31, 32, 33, 34, 35, 36, 37, 38, 39, 40, 41, 42, 43, 44, 45, 46, 47, 48, 49, 50, 51, 52, 53, 54, 55, 56, 57, 58, 59, 60, 61, 62, 63, 64, 65, 66, 67, 68, 69, 70, 71, 72, 73, 74, 75, 76, 77, 78, 79, 80, 81, 82, 83, 84, 85, 86, 87, 88, 89, 90, 91, 92, 93, 94, 95, 96, 97, 98, 99, 100, 101, 102, 103, 104, 105, 106, 107, 108, 109, 110, 111, 112, 113, 114, 115, 116, 117, 118, 119, 120, 121, 122, 123, 124, 125, 126, 127, 128, 129, 130, 131, 132, 133, 134, 135, 136, 137, 138, 139, 140, 141, 142, 143, 144, 145, 146, 147, 148, 149, 150, 151, 152, 153, 154, 155, 156, 157, 158, 159, 160, 161, 162, 163, 164, 165, 166, 167, 168, 169, 170, 171, 172, 173, 174, 175, 176, 177, 178, 179, 180, 181, 182, 183, 184, 185, 186, 187, 188, 189, 190, 191, 192, 193, 194, 195, 196, 197, 198, 199, 200, 201, 202, 203, 204, 205, 206, 207, 208, 209, 210, 211, 212, 213, 214, 215, 216, 217, 218, 219, 220, 221, 222, 223, 224, 225, 226, 227, 228, 229, 230, 231, 232, 233, 234, 235, 236, 237, 238, 239, 240, 241, 242, 243, 244, 245, 246, 247, 248, 249, 250, 251, 252, 253, 254, 255, 256, 257, 258, 259, 260, 261, 262, 263, 264, 265, 266, 267, 268, 269, 270, 271, 272, 273, 274, 275, 276, 277, 278, 279, 280, 281, 282, 283, 284, 285, 286, 287, 288, 289, 290, 291, 292, 293, 294, 295, 296, 297, 298, 299, 300, 301, 302, 303, 304, 305],
      "WindowCenter": [4822.0, 4822.0, 4824.0, 4822.0, 4820.0, 4822.0, 4822.0, 4826.0, 4818.0, 4822.0, 4848.0, 4850.0, 4822.0, 4826.0, 4824.0, 4826.0, 4824.0, 4822.0, 4822.0, 4822.0, 4848.0, 4848.0, 4850.0, 4826.0, 4822.0, 4820.0, 4816.0, 4822.0, 4824.0, 4826.0, 4848.0, 4824.0, 4822.0, 4822.0, 4824.0, 4822.0, 4824.0, 4824.0, 4826.0, 4824.0, 4826.0, 4824.0, 4822.0, 4826.0, 4828.0, 4824.0, 4824.0, 4822.0, 4846.0, 4824.0, 4826.0, 4848.0, 4826.0, 4818.0, 4848.0, 4848.0, 4826.0, 4824.0, 4848.0, 4820.0, 4820.0, 4798.0, 4822.0, 4820.0, 4822.0, 4826.0, 4824.0, 4824.0, 4822.0, 4822.0, 4824.0, 4824.0, 4824.0, 4822.0, 4822.0, 4826.0, 4824.0, 4846.0, 4844.0, 4846.0, 4822.0, 4822.0, 4820.0, 4818.0, 4820.0, 4826.0, 4844.0, 4850.0, 4848.0, 4850.0, 4848.0, 4822.0, 4822.0, 4822.0, 4826.0, 4852.0, 4848.0, 4846.0, 4848.0, 4848.0, 4844.0, 4846.0, 4848.0, 4826.0, 4826.0, 4822.0, 4824.0, 4850.0, 4846.0, 4848.0, 4824.0, 4824.0, 4850.0, 4824.0, 4824.0, 4846.0, 4824.0, 4846.0, 4818.0, 4794.0, 4816.0, 4824.0, 4820.0, 4846.0, 4846.0, 4848.0, 4848.0, 4824.0, 4818.0, 4792.0, 4814.0, 4818.0, 4820.0, 4826.0, 4826.0, 4844.0, 4848.0, 4852.0, 4820.0, 4816.0, 4788.0, 4818.0, 4820.0, 4820.0, 4824.0, 4850.0, 4852.0, 4848.0, 4848.0, 4848.0, 4822.0, 4818.0, 4820.0, 4824.0, 4818.0, 4822.0, 4826.0, 4828.0, 4848.0, 4848.0, 4848.0, 4844.0, 4824.0, 4824.0, 4816.0, 4820.0, 4816.0, 4820.0, 4826.0, 4848.0, 4848.0, 4848.0, 4846.0, 4822.0, 4824.0, 4822.0, 4820.0, 4850.0, 4830.0, 4824.0, 4846.0, 4852.0, 4828.0, 4822.0, 4820.0, 4822.0, 4820.0, 4820.0, 4824.0, 4846.0, 4826.0, 4826.0, 4824.0, 4820.0, 4822.0, 4818.0, 4820.0, 4822.0, 4822.0, 4820.0, 4824.0, 4824.0, 4822.0, 4824.0, 4822.0, 4852.0, 4822.0, 4824.0, 4818.0, 4818.0, 4820.0, 4820.0, 4820.0, 4824.0, 4824.0, 4824.0, 4826.0, 4824.0, 4824.0, 4824.0, 4822.0, 4824.0, 4820.0, 4820.0, 4824.0, 4824.0, 4826.0, 4850.0, 4814.0, 4846.0, 4820.0, 4796.0, 4814.0, 4810.0, 4816.0, 4818.0, 4824.0, 4850.0, 4846.0, 4848.0, 4848.0, 4822.0, 4820.0, 4816.0, 4818.0, 4822.0, 4824.0, 4820.0, 4822.0, 4824.0, 4826.0, 4824.0, 4824.0, 4824.0, 4826.0, 4824.0, 4824.0, 4822.0, 4826.0, 4826.0, 4824.0, 4850.0, 4848.0, 4844.0, 4818.0, 4822.0, 4820.0, 4820.0, 4826.0, 4820.0, 4852.0, 4846.0, 4848.0, 4850.0, 4848.0, 4844.0, 4824.0, 4820.0, 4818.0, 4822.0, 4824.0, 4826.0, 4826.0, 4848.0, 4824.0, 4848.0, 4824.0, 4850.0, 4874.0, 4874.0, 4820.0, 4820.0, 4822.0, 4820.0, 4818.0, 4822.0, 4824.0, 4852.0, 4850.0, 4852.0, 4850.0, 4824.0, 4822.0, 4822.0, 4824.0],
      "WindowWidth": [18594.0, 18596.0, 18594.0, 18592.0, 18592.0, 18592.0, 18596.0, 18596.0, 18594.0, 18596.0, 18630.0, 18628.0, 18596.0, 18590.0, 18598.0, 18594.0, 18590.0, 18594.0, 18594.0, 18594.0, 18630.0, 18630.0, 18634.0, 18604.0, 18598.0, 18594.0, 18596.0, 18600.0, 18600.0, 18604.0, 18636.0, 18600.0, 18604.0, 18598.0, 18596.0, 18596.0, 18598.0, 18596.0, 18600.0, 18600.0, 18608.0, 18598.0, 18594.0, 18602.0, 18604.0, 18602.0, 18598.0, 18604.0, 18634.0, 18604.0, 18604.0, 18634.0, 18598.0, 18594.0, 18632.0, 18642.0, 18600.0, 18602.0, 18636.0, 18596.0, 18598.0, 18564.0, 18590.0, 18592.0, 18590.0, 18590.0, 18596.0, 18598.0, 18596.0, 18600.0, 18600.0, 18600.0, 18594.0, 18596.0, 18600.0, 18600.0, 18596.0, 18636.0, 18648.0, 18636.0, 18598.0, 18600.0, 18588.0, 18590.0, 18596.0, 18602.0, 18636.0, 18644.0, 18644.0, 18642.0, 18630.0, 18596.0, 18594.0, 18600.0, 18604.0, 18638.0, 18632.0, 18644.0, 18636.0, 18638.0, 18632.0, 18632.0, 18638.0, 18602.0, 18602.0, 18600.0, 18606.0, 18632.0, 18636.0, 18632.0, 18600.0, 18604.0, 18632.0, 18598.0, 18604.0, 18636.0, 18606.0, 18632.0, 18594.0, 18566.0, 18592.0, 18602.0, 18598.0, 18634.0, 18628.0, 18648.0, 18648.0, 18602.0, 18600.0, 18566.0, 18602.0, 18598.0, 18596.0, 18598.0, 18592.0, 18632.0, 18640.0, 18622.0, 18596.0, 18600.0, 18562.0, 18596.0, 18598.0, 18588.0, 18586.0, 18626.0, 18634.0, 18630.0, 18628.0, 18636.0, 18598.0, 18592.0, 18596.0, 18600.0, 18594.0, 18588.0, 18598.0, 18590.0, 18626.0, 18628.0, 18636.0, 18636.0, 18604.0, 18600.0, 18598.0, 18600.0, 18600.0, 18594.0, 18596.0, 18638.0, 18634.0, 18636.0, 18638.0, 18600.0, 18600.0, 18598.0, 18600.0, 18634.0, 18602.0, 18596.0, 18626.0, 18634.0, 18594.0, 18600.0, 18586.0, 18594.0, 18592.0, 18592.0, 18596.0, 18636.0, 18596.0, 18598.0, 18596.0, 18596.0, 18598.0, 18594.0, 18600.0, 18592.0, 18598.0, 18598.0, 18594.0, 18592.0, 18594.0, 18598.0, 18596.0, 18638.0, 18598.0, 18596.0, 18590.0, 18594.0, 18596.0, 18598.0, 18594.0, 18598.0, 18594.0, 18600.0, 18598.0, 18600.0, 18600.0, 18610.0, 18598.0, 18604.0, 18598.0, 18602.0, 18596.0, 18602.0, 18602.0, 18632.0, 18604.0, 18632.0, 18594.0, 18558.0, 18600.0, 18598.0, 18598.0, 18596.0, 18598.0, 18628.0, 18630.0, 18626.0, 18628.0, 18592.0, 18590.0, 18596.0, 18600.0, 18596.0, 18600.0, 18588.0, 18592.0, 18596.0, 18600.0, 18598.0, 18600.0, 18594.0, 18602.0, 18604.0, 18600.0, 18602.0, 18602.0, 18602.0, 18594.0, 18640.0, 18636.0, 18634.0, 18600.0, 18598.0, 18600.0, 18596.0, 18600.0, 18592.0, 18630.0, 18632.0, 18630.0, 18636.0, 18632.0, 18630.0, 18606.0, 18598.0, 18596.0, 18596.0, 18602.0, 18598.0, 18598.0, 18634.0, 18604.0, 18640.0, 18602.0, 18640.0, 18688.0, 18674.0, 18596.0, 18594.0, 18596.0, 18590.0, 18596.0, 18600.0, 18592.0, 18634.0, 18626.0, 18630.0, 18638.0, 18592.0, 18596.0, 18598.0, 18598.0]
    },
    "slices": {}
  }
}