{
  "AcquisitionMatrixPE": 104,
  "AcquisitionNumber": 1,
  "AcquisitionTime": "11:31:41.175000",
  "BandwidthPerPixelPhaseEncode": 17.17,
  "BaseResolution": 104,
  "BodyPartExamined": "BRAIN",
  "CoilCombinationMethod": "Sum of Squares",
  "ConsistencyInfo": "N4_VE11C_LATEST_20160120",
  "ConversionSoftware": "dcm2niix",
  "ConversionSoftwareVersion": "v1.0.20220505",
  "DerivedVendorReportedEchoSpacing": 0.000560011,
  "DeviceSerialNumber": "167006",
  "DwellTime": 2.1e-06,
  "EchoTime": 0.037,
  "EchoTrainLength": 104,
  "EffectiveEchoSpacing": 0.000560011,
  "FlipAngle": 52,
  "HeudiconvVersion": "0.5.3.post811+g6206e14",
  "ImageComments": "Unaliased MB4/PE3/LB",
  "ImageOrientationPatientDICOM": [0.999198, -0.00676972, 0.0394533, 0.026863, 0.84411, -0.535497],
  "ImageOrientationText": "Tra>Cor(-32.4)>Sag(1.7)",
  "ImageType": [
    "ORIGINAL",
    "PRIMARY",
    "M",
    "MB",
    "ND",
    "MOSAIC"
],
  "ImagingFrequency": 123.259,
  "InPlanePhaseEncodingDirectionDICOM": "COL",
  "InstitutionAddress": "Chemin Queen-Mary 4565,Montreal,District,CA,H3W 1W5",
  "InstitutionName": "IUGM",
  "InstitutionalDepartmentName": "Department",
  "MRAcquisitionType": "2D",
  "MagneticFieldStrength": 3,
  "Manufacturer": "Siemens",
  "ManufacturersModelName": "Prisma_fit",
  "MatrixCoilMode": "SENSE",
  "Modality": "MR",
  "MultibandAccelerationFactor": 4,
  "PartialFourier": 1,
  "PatientPosition": "HFS",
  "PercentPhaseFOV": 100,
  "PercentSampling": 100,
  "PhaseEncodingDirection": "j",
  "PhaseEncodingSteps": 104,
  "PhaseResolution": 1,
  "PixelBandwidth": 2290,
  "ProcedureStepDescription": "games^mario3",
  "ProtocolName": "func_task-mario3_run-02",
  "PulseSequenceDetails": "%CustomerSeq%\\cmrr_mbep2d_bold",
  "ReceiveCoilActiveElements": "HC1-7;NC1,2",
  "ReceiveCoilName": "HeadNeck_64",
  "ReconMatrixPE": 104,
  "RepetitionTime": 1.49,
  "SAR": 0.0624453,
  "ScanOptions": "FS",
  "ScanningSequence": "EP",
  "SequenceName": "epfid2d1_104",
  "SequenceVariant": "SK\\SS",
  "SeriesDescription": "func_task-mario3_run-02",
  "SeriesNumber": 13,
  "ShimSetting": [632, -7187, -8870, 249, 58, -245, -58, 31],
  "SliceThickness": 2,
  "SliceTiming": [0, 0.785, 0.0975, 0.8825, 0.1975, 0.98, 0.295, 1.0775, 0.3925, 1.175, 0.49, 1.275, 0.5875, 1.3725, 0.685, 0, 0.785, 0.0975, 0.8825, 0.1975, 0.98, 0.295, 1.0775, 0.3925, 1.175, 0.49, 1.275, 0.5875, 1.3725, 0.685, 0, 0.785, 0.0975, 0.8825, 0.1975, 0.98, 0.295, 1.0775, 0.3925, 1.175, 0.49, 1.275, 0.5875, 1.3725, 0.685, 0, 0.785, 0.0975, 0.8825, 0.1975, 0.98, 0.295, 1.0775, 0.3925, 1.175, 0.49, 1.275, 0.5875, 1.3725, 0.685],
  "SoftwareVersions": "syngo MR E11",
  "SpacingBetweenSlices": 2,
  "StationName": "MRC35049",
  "TaskName": "mario3",
  "TotalReadoutTime": 0.0576811,
  "TxRefAmp": 287.299,
  "WipMemBlock": "77b6d523-8b18-409e-b1b4-64cae8dcfb9b||Sequence: R017 ve11c/master r/75a17815+; Jun 28 2022 16:32:11 by eja",
  "dcmmeta_affine": [
    [-1.9983969926834106, 0.053726036101579666, 0.05935544893145561, 103.18023681640625],
    [0.013539445586502552, 1.6882197856903076, -1.0722548961639404, -49.090484619140625],
    [0.07890652865171432, 1.0709936618804932, 1.6872303485870361, -97.43827056884766],
    [0.0, 0.0, 0.0, 1.0]
],
  "dcmmeta_reorient_transform": [
    [0.0, -1.0, 0.0, 103.0],
    [1.0, 0.0, 0.0, 0.0],
    [0.0, 0.0, 1.0, 0.0],
    [0.0, 0.0, 0.0, 1.0]
],
  "dcmmeta_shape": [104, 104, 60, 305],
  "dcmmeta_slice_dim": 2,
  "dcmmeta_version": 0.6,
  "global": {
    "const": {
      "AcquisitionMatrix": [104, 0, 0, 104],
      "AngioFlag": "N",
      "BitsAllocated": 16,
      "BitsStored": 16,
      "BodyPartExamined": "BRAIN",
      "Columns": 832,
      "EchoNumbers": 1,
      "EchoTime": 37.0,
      "EchoTrainLength": 104,
      "FlipAngle": 52.0,
      "HighBit": 15,
      "ImageOrientationPatient": [0.99919848423867, -0.0067697229166, 0.03945326281542, 0.02686301839766, 0.84410990073653, -0.5354968288619],
      "ImagePositionPatient": [-855.68679344057, -734.3798041303, 373.99379229979],
      "ImageType": [
        "ORIGINAL",
        "PRIMARY",
        "M",
        "MB",
        "ND",
        "MOSAIC"
],
      "ImagedNucleus": "1H",
      "ImagingFrequency": 123.258795,
      "InPlanePhaseEncodingDirection": "COL",
      "MRAcquisitionType": "2D",
      "MagneticFieldStrength": 3.0,
      "Manufacturer": "SIEMENS",
      "ManufacturerModelName": "Prisma_fit",
      "Modality": "MR",
      "NumberOfAverages": 1.0,
      "NumberOfPhaseEncodingSteps": 104,
      "PercentPhaseFieldOfView": 100.0,
      "PercentSampling": 100.0,
      "PerformedProcedureStepStartTime": "111756.733000",
      "PhotometricInterpretation": "MONOCHROME2",
      "PixelBandwidth": 2290.0,
      "PixelRepresentation": 0,
      "PixelSpacing": [2.0, 2.0],
      "ProtocolName": "func_task-mario3_run-02",
      "RepetitionTime": 1490.0,
      "Rows": 832,
      "SAR": 0.06244533552897,
      "SamplesPerPixel": 1,
      "ScanOptions": "FS",
      "ScanningSequence": "EP",
      "SequenceName": "epfid2d1_104",
      "SequenceVariant": [
        "SK",
        "SS"
],
      "SeriesDescription": "func_task-mario3_run-02",
      "SeriesNumber": 13,
      "SeriesTime": "113301.229000",
      "SliceLocation": -52.819493638168,
      "SliceThickness": 2.0,
      "SmallestImagePixelValue": 0,
      "SoftwareVersions": "syngo MR E11",
      "SpacingBetweenSlices": 1.9999999984878,
      "SpecificCharacterSet": "ISO_IR 100",
      "StudyID": "1",
      "StudyTime": "111756.664000",
      "TransmitCoilName": "Body",
      "VariableFlipAngleFlag": "N",
      "WindowCenterWidthExplanation": "Algo1",
      "dBdt": 0.0},
    "slices": {}
  },
  "time": {
    "samples": {
      "AcquisitionNumber": [1, 2, 3, 4, 5, 6, 7, 8, 9, 10, 11, 12, 13, 14, 15, 16, 17, 18, 19, 20, 21, 22, 23, 24, 25, 26, 27, 28, 29, 30, 31, 32, 33, 34, 35, 36, 37, 38, 39, 40, 41, 42, 43, 44, 45, 46, 47, 48, 49, 50, 51, 52, 53, 54, 55, 56, 57, 58, 59, 60, 61, 62, 63, 64, 65, 66, 67, 68, 69, 70, 71, 72, 73, 74, 75, 76, 77, 78, 79, 80, 81, 82, 83, 84, 85, 86, 87, 88, 89, 90, 91, 92, 93, 94, 95, 96, 97, 98, 99, 100, 101, 102, 103, 104, 105, 106, 107, 108, 109, 110, 111, 112, 113, 114, 115, 116, 117, 118, 119, 120, 121, 122, 123, 124, 125, 126, 127, 128, 129, 130, 131, 132, 133, 134, 135, 136, 137, 138, 139, 140, 141, 142, 143, 144, 145, 146, 147, 148, 149, 150, 151, 152, 153, 154, 155, 156, 157, 158, 159, 160, 161, 162, 163, 164, 165, 166, 167, 168, 169, 170, 171, 172, 173, 174, 175, 176, 177, 178, 179, 180, 181, 182, 183, 184, 185, 186, 187, 188, 189, 190, 191, 192, 193, 194, 195, 196, 197, 198, 199, 200, 201, 202, 203, 204, 205, 206, 207, 208, 209, 210, 211, 212, 213, 214, 215, 216, 217, 218, 219, 220, 221, 222, 223, 224, 225, 226, 227, 228, 229, 230, 231, 232, 233, 234, 235, 236, 237, 238, 239, 240, 241, 242, 243, 244, 245, 246, 247, 248, 249, 250, 251, 252, 253, 254, 255, 256, 257, 258, 259, 260, 261, 262, 263, 264, 265, 266, 267, 268, 269, 270, 271, 272, 273, 274, 275, 276, 277, 278, 279, 280, 281, 282, 283, 284, 285, 286, 287, 288, 289, 290, 291, 292, 293, 294, 295, 296, 297, 298, 299, 300, 301, 302, 303, 304, 305],
      "AcquisitionTime": ["113141.175000", "113142.665000", "113144.155000", "113145.645000", "113147.135000", "113148.625000", "113150.115000", "113151.605000", "113153.095000", "113154.585000", "113156.075000", "113157.565000", "113159.055000", "113200.545000", "113202.035000", "113203.525000", "113205.015000", "113206.505000", "113207.995000", "113209.485000", "113210.975000", "113212.465000", "113213.955000", "113215.445000", "113216.935000", "113218.425000", "113219.915000", "113221.405000", "113222.895000", "113224.385000", "113225.875000", "113227.365000", "113228.855000", "113230.345000", "113231.835000", "113233.325000", "113234.815000", "113236.305000", "113237.795000", "113239.285000", "113240.775000", "113242.265000", "113243.755000", "113245.245000", "113246.735000", "113248.225000", "113249.715000", "113251.205000", "113252.695000", "113254.185000", "113255.675000", "113257.165000", "113258.655000", "113300.145000", "113301.635000", "113303.125000", "113304.615000", "113306.105000", "113307.595000", "113309.085000", "113310.575000", "113312.065000", "113313.555000", "113315.045000", "113316.535000", "113318.025000", "113319.515000", "113321.005000", "113322.495000", "113323.985000", "113325.475000", "113326.965000", "113328.455000", "113329.945000", "113331.435000", "113332.925000", "113334.415000", "113335.905000", "113337.395000", "113338.885000", "113340.375000", "113341.865000", "113343.355000", "113344.845000", "113346.335000", "113347.825000", "113349.315000", "113350.805000", "113352.295000", "113353.785000", "113355.275000", "113356.765000", "113358.255000", "113359.745000", "113401.235000", "113402.725000", "113404.215000", "113405.705000", "113407.195000", "113408.685000", "113410.175000", "113411.665000", "113413.155000", "113414.645000", "113416.135000", "113417.625000", "113419.115000", "113420.605000", "113422.095000", "113423.585000", "113425.075000", "113426.565000", "113428.055000", "113429.545000", "113431.035000", "113432.525000", "113434.015000", "113435.505000", "113436.995000", "113438.485000", "113439.975000", "113441.465000", "113442.955000", "113444.445000", "113445.935000", "113447.425000", "113448.915000", "113450.405000", "113451.895000", "113453.385000", "113454.875000", "113456.365000", "113457.855000", "113459.345000", "113500.835000", "113502.325000", "113503.815000", "113505.305000", "113506.795000", "113508.285000", "113509.775000", "113511.265000", "113512.755000", "113514.245000", "113515.735000", "113517.225000", "113518.715000", "113520.205000", "113521.695000", "113523.185000", "113524.675000", "113526.165000", "113527.655000", "113529.145000", "113530.635000", "113532.125000", "113533.615000", "113535.105000", "113536.595000", "113538.085000", "113539.575000", "113541.065000", "113542.555000", "113544.045000", "113545.535000", "113547.025000", "113548.515000", "113550.005000", "113551.495000", "113552.985000", "113554.475000", "113555.965000", "113557.455000", "113558.945000", "113600.435000", "113601.925000", "113603.415000", "113604.905000", "113606.395000", "113607.885000", "113609.375000", "113610.865000", "113612.355000", "113613.845000", "113615.335000", "113616.825000", "113618.315000", "113619.805000", "113621.295000", "113622.785000", "113624.275000", "113625.765000", "113627.255000", "113628.745000", "113630.235000", "113631.725000", "113633.215000", "113634.705000", "113636.195000", "113637.685000", "113639.175000", "113640.665000", "113642.155000", "113643.645000", "113645.135000", "113646.625000", "113648.115000", "113649.605000", "113651.095000", "113652.585000", "113654.075000", "113655.565000", "113657.055000", "113658.545000", "113700.035000", "113701.525000", "113703.015000", "113704.505000", "113705.995000", "113707.485000", "113708.975000", "113710.465000", "113711.955000", "113713.445000", "113714.935000", "113716.425000", "113717.915000", "113719.405000", "113720.895000", "113722.385000", "113723.875000", "113725.365000", "113726.855000", "113728.345000", "113729.835000", "113731.325000", "113732.815000", "113734.305000", "113735.795000", "113737.285000", "113738.775000", "113740.265000", "113741.755000", "113743.245000", "113744.735000", "113746.225000", "113747.715000", "113749.205000", "113750.695000", "113752.185000", "113753.675000", "113755.165000", "113756.655000", "113758.145000", "113759.635000", "113801.125000", "113802.615000", "113804.105000", "113805.595000", "113807.085000", "113808.575000", "113810.065000", "113811.555000", "113813.045000", "113814.535000", "113816.025000", "113817.515000", "113819.005000", "113820.495000", "113821.985000", "113823.475000", "113824.965000", "113826.455000", "113827.945000", "113829.435000", "113830.925000", "113832.415000", "113833.905000", "113835.395000", "113836.885000", "113838.375000", "113839.865000", "113841.355000", "113842.845000", "113844.335000", "113845.825000", "113847.315000", "113848.805000", "113850.295000", "113851.785000", "113853.275000", "113854.765000", "113856.255000", "113857.745000", "113859.235000", "113900.725000", "113902.215000", "113903.705000", "113905.195000", "113906.685000", "113908.175000", "113909.665000", "113911.155000", "113912.645000", "113914.135000"],
      "ContentTime": ["113301.232000", "113301.236000", "113301.239000", "113301.242000", "113301.246000", "113301.249000", "113301.252000", "113301.256000", "113301.259000", "113301.262000", "113301.265000", "113301.269000", "113301.272000", "113301.275000", "113301.278000", "113301.282000", "113301.292000", "113301.295000", "113301.298000", "113301.301000", "113301.305000", "113301.308000", "113301.311000", "113301.315000", "113301.318000", "113301.321000", "113301.324000", "113301.336000", "113301.339000", "113301.343000", "113301.346000", "113321.195000", "113321.199000", "113321.202000", "113321.205000", "113321.209000", "113321.212000", "113321.215000", "113321.219000", "113321.222000", "113321.225000", "113321.228000", "113321.232000", "113321.235000", "113321.238000", "113321.241000", "113321.245000", "113321.248000", "113321.262000", "113321.265000", "113321.268000", "113341.195000", "113341.202000", "113341.206000", "113341.209000", "113341.212000", "113341.216000", "113341.219000", "113341.222000", "113341.225000", "113341.229000", "113341.232000", "113341.235000", "113341.239000", "113341.242000", "113341.245000", "113341.248000", "113341.252000", "113341.255000", "113341.258000", "113341.261000", "113401.194000", "113401.204000", "113401.208000", "113401.211000", "113401.214000", "113401.218000", "113401.221000", "113401.224000", "113401.228000", "113401.231000", "113401.234000", "113401.238000", "113401.241000", "113401.244000", "113401.248000", "113401.251000", "113401.254000", "113401.257000", "113401.261000", "113401.264000", "113441.194000", "113441.198000", "113441.201000", "113441.204000", "113441.208000", "113441.211000", "113441.214000", "113441.218000", "113441.221000", "113441.224000", "113441.227000", "113441.231000", "113441.234000", "113441.237000", "113441.241000", "113441.244000", "113441.247000", "113441.250000", "113441.254000", "113441.257000", "113441.260000", "113441.263000", "113441.267000", "113441.270000", "113441.273000", "113441.276000", "113441.280000", "113441.283000", "113441.286000", "113521.195000", "113521.199000", "113521.202000", "113521.206000", "113521.209000", "113521.212000", "113521.216000", "113521.219000", "113521.222000", "113521.225000", "113521.229000", "113521.232000", "113521.235000", "113521.239000", "113521.242000", "113521.245000", "113521.248000", "113521.252000", "113521.255000", "113521.258000", "113521.261000", "113521.265000", "113521.268000", "113521.271000", "113521.274000", "113521.278000", "113521.281000", "113541.195000", "113541.199000", "113541.202000", "113541.206000", "113541.209000", "113541.212000", "113541.216000", "113541.219000", "113541.222000", "113541.225000", "113541.229000", "113541.232000", "113541.235000", "113621.194000", "113621.198000", "113621.201000", "113621.204000", "113621.208000", "113621.211000", "113621.214000", "113621.218000", "113621.221000", "113621.233000", "113621.236000", "113621.240000", "113621.243000", "113621.246000", "113621.249000", "113621.253000", "113621.256000", "113621.259000", "113621.263000", "113621.266000", "113621.269000", "113621.272000", "113621.276000", "113621.279000", "113621.282000", "113621.286000", "113621.289000", "113701.212000", "113701.215000", "113701.219000", "113701.222000", "113701.225000", "113701.229000", "113701.232000", "113701.235000", "113701.239000", "113701.242000", "113701.245000", "113701.248000", "113701.252000", "113701.255000", "113701.258000", "113701.262000", "113701.265000", "113701.268000", "113701.281000", "113701.285000", "113701.296000", "113701.299000", "113701.302000", "113701.305000", "113701.309000", "113701.312000", "113701.315000", "113741.195000", "113741.199000", "113741.202000", "113741.205000", "113741.209000", "113741.212000", "113741.215000", "113741.219000", "113741.222000", "113741.226000", "113741.229000", "113741.232000", "113741.235000", "113741.239000", "113741.252000", "113741.255000", "113741.259000", "113741.262000", "113741.265000", "113741.268000", "113741.272000", "113741.275000", "113741.278000", "113741.282000", "113741.285000", "113741.288000", "113741.291000", "113821.195000", "113821.199000", "113821.202000", "113821.205000", "113821.209000", "113821.212000", "113821.215000", "113821.219000", "113821.222000", "113821.225000", "113821.229000", "113821.232000", "113821.236000", "113821.239000", "113821.242000", "113821.246000", "113821.249000", "113821.252000", "113821.255000", "113821.259000", "113821.262000", "113821.265000", "113821.269000", "113821.272000", "113821.275000", "113821.278000", "113901.194000", "113901.198000", "113901.201000", "113901.205000", "113901.208000", "113901.211000", "113901.215000", "113901.218000", "113901.221000", "113901.224000", "113901.228000", "113901.231000", "113901.234000", "113901.247000", "113901.251000", "113901.254000", "113901.257000", "113901.261000", "113901.264000", "113901.267000", "113901.271000", "113901.274000", "113901.277000", "113901.280000", "113901.284000", "113901.287000", "113901.290000", "113917.373000", "113917.377000", "113917.380000", "113917.383000", "113917.387000", "113917.390000", "113917.393000", "113917.397000", "113917.400000", "113917.404000", "113917.407000"],
      "InstanceCreationTime": ["113301.232000", "113301.236000", "113301.239000", "113301.242000", "113301.246000", "113301.249000", "113301.252000", "113301.256000", "113301.259000", "113301.262000", "113301.265000", "113301.269000", "113301.272000", "113301.275000", "113301.278000", "113301.282000", "113301.292000", "113301.295000", "113301.298000", "113301.301000", "113301.305000", "113301.308000", "113301.311000", "113301.315000", "113301.318000", "113301.321000", "113301.324000", "113301.336000", "113301.339000", "113301.343000", "113301.346000", "113321.195000", "113321.199000", "113321.202000", "113321.205000", "113321.209000", "113321.212000", "113321.215000", "113321.219000", "113321.222000", "113321.225000", "113321.228000", "113321.232000", "113321.235000", "113321.238000", "113321.241000", "113321.245000", "113321.248000", "113321.262000", "113321.265000", "113321.268000", "113341.195000", "113341.202000", "113341.206000", "113341.209000", "113341.212000", "113341.216000", "113341.219000", "113341.222000", "113341.225000", "113341.229000", "113341.232000", "113341.235000", "113341.239000", "113341.242000", "113341.245000", "113341.248000", "113341.252000", "113341.255000", "113341.258000", "113341.261000", "113401.194000", "113401.204000", "113401.208000", "113401.211000", "113401.214000", "113401.218000", "113401.221000", "113401.224000", "113401.228000", "113401.231000", "113401.234000", "113401.238000", "113401.241000", "113401.244000", "113401.248000", "113401.251000", "113401.254000", "113401.257000", "113401.261000", "113401.264000", "113441.194000", "113441.198000", "113441.201000", "113441.204000", "113441.208000", "113441.211000", "113441.214000", "113441.218000", "113441.221000", "113441.224000", "113441.227000", "113441.231000", "113441.234000", "113441.237000", "113441.241000", "113441.244000", "113441.247000", "113441.250000", "113441.254000", "113441.257000", "113441.260000", "113441.263000", "113441.267000", "113441.270000", "113441.273000", "113441.276000", "113441.280000", "113441.283000", "113441.286000", "113521.195000", "113521.199000", "113521.202000", "113521.206000", "113521.209000", "113521.212000", "113521.216000", "113521.219000", "113521.222000", "113521.225000", "113521.229000", "113521.232000", "113521.235000", "113521.239000", "113521.242000", "113521.245000", "113521.248000", "113521.252000", "113521.255000", "113521.258000", "113521.261000", "113521.265000", "113521.268000", "113521.271000", "113521.274000", "113521.278000", "113521.281000", "113541.195000", "113541.199000", "113541.202000", "113541.206000", "113541.209000", "113541.212000", "113541.216000", "113541.219000", "113541.222000", "113541.225000", "113541.229000", "113541.232000", "113541.235000", "113621.194000", "113621.198000", "113621.201000", "113621.204000", "113621.208000", "113621.211000", "113621.214000", "113621.218000", "113621.221000", "113621.233000", "113621.236000", "113621.240000", "113621.243000", "113621.246000", "113621.249000", "113621.253000", "113621.256000", "113621.259000", "113621.263000", "113621.266000", "113621.269000", "113621.272000", "113621.276000", "113621.279000", "113621.282000", "113621.286000", "113621.289000", "113701.212000", "113701.215000", "113701.219000", "113701.222000", "113701.225000", "113701.229000", "113701.232000", "113701.235000", "113701.239000", "113701.242000", "113701.245000", "113701.248000", "113701.252000", "113701.255000", "113701.258000", "113701.262000", "113701.265000", "113701.268000", "113701.281000", "113701.285000", "113701.296000", "113701.299000", "113701.302000", "113701.305000", "113701.309000", "113701.312000", "113701.315000", "113741.195000", "113741.199000", "113741.202000", "113741.205000", "113741.209000", "113741.212000", "113741.215000", "113741.219000", "113741.222000", "113741.226000", "113741.229000", "113741.232000", "113741.235000", "113741.239000", "113741.252000", "113741.255000", "113741.259000", "113741.262000", "113741.265000", "113741.268000", "113741.272000", "113741.275000", "113741.278000", "113741.282000", "113741.285000", "113741.288000", "113741.291000", "113821.195000", "113821.199000", "113821.202000", "113821.205000", "113821.209000", "113821.212000", "113821.215000", "113821.219000", "113821.222000", "113821.225000", "113821.229000", "113821.232000", "113821.236000", "113821.239000", "113821.242000", "113821.246000", "113821.249000", "113821.252000", "113821.255000", "113821.259000", "113821.262000", "113821.265000", "113821.269000", "113821.272000", "113821.275000", "113821.278000", "113901.194000", "113901.198000", "113901.201000", "113901.205000", "113901.208000", "113901.211000", "113901.215000", "113901.218000", "113901.221000", "113901.224000", "113901.228000", "113901.231000", "113901.234000", "113901.247000", "113901.251000", "113901.254000", "113901.257000", "113901.261000", "113901.264000", "113901.267000", "113901.271000", "113901.274000", "113901.277000", "113901.280000", "113901.284000", "113901.287000", "113901.290000", "113917.373000", "113917.377000", "113917.380000", "113917.383000", "113917.387000", "113917.390000", "113917.393000", "113917.397000", "113917.400000", "113917.404000", "113917.407000"],
      "InstanceNumber": [1, 2, 3, 4, 5, 6, 7, 8, 9, 10, 11, 12, 13, 14, 15, 16, 17, 18, 19, 20, 21, 22, 23, 24, 25, 26, 27, 28, 29, 30, 31, 32, 33, 34, 35, 36, 37, 38, 39, 40, 41, 42, 43, 44, 45, 46, 47, 48, 49, 50, 51, 52, 53, 54, 55, 56, 57, 58, 59, 60, 61, 62, 63, 64, 65, 66, 67, 68, 69, 70, 71, 72, 73, 74, 75, 76, 77, 78, 79, 80, 81, 82, 83, 84, 85, 86, 87, 88, 89, 90, 91, 92, 93, 94, 95, 96, 97, 98, 99, 100, 101, 102, 103, 104, 105, 106, 107, 108, 109, 110, 111, 112, 113, 114, 115, 116, 117, 118, 119, 120, 121, 122, 123, 124, 125, 126, 127, 128, 129, 130, 131, 132, 133, 134, 135, 136, 137, 138, 139, 140, 141, 142, 143, 144, 145, 146, 147, 148, 149, 150, 151, 152, 153, 154, 155, 156, 157, 158, 159, 160, 161, 162, 163, 164, 165, 166, 167, 168, 169, 170, 171, 172, 173, 174, 175, 176, 177, 178, 179, 180, 181, 182, 183, 184, 185, 186, 187, 188, 189, 190, 191, 192, 193, 194, 195, 196, 197, 198, 199, 200, 201, 202, 203, 204, 205, 206, 207, 208, 209, 210, 211, 212, 213, 214, 215, 216, 217, 218, 219, 220, 221, 222, 223, 224, 225, 226, 227, 228, 229, 230, 231, 232, 233, 234, 235, 236, 237, 238, 239, 240, 241, 242, 243, 244, 245, 246, 247, 248, 249, 250, 251, 252, 253, 254, 255, 256, 257, 258, 259, 260, 261, 262, 263, 264, 265, 266, 267, 268, 269, 270, 271, 272, 273, 274, 275, 276, 277, 278, 279, 280, 281, 282, 283, 284, 285, 286, 287, 288, 289, 290, 291, 292, 293, 294, 295, 296, 297, 298, 299, 300, 301, 302, 303, 304, 305],
      "LargestImagePixelValue": [43608, 42692, 43231, 42548, 42370, 41522, 40318, 41519, 42067, 41848, 41884, 43605, 41537, 41016, 41125, 41378, 41083, 40786, 41021, 42793, 43810, 41377, 41806, 41439, 42954, 43002, 44457, 43433, 44628, 43147, 42907, 42791, 41521, 44471, 42857, 42946, 43974, 42791, 42421, 43666, 42669, 41809, 43691, 42716, 43043, 42774, 43049, 42874, 42613, 43018, 43301, 42220, 42195, 42132, 42078, 44324, 41376, 41259, 43520, 43106, 42890, 44253, 44958, 42549, 41961, 42499, 43562, 41675, 41727, 41919, 42857, 42729, 43296, 43740, 43156, 42305, 41407, 44905, 42780, 41583, 40775, 41143, 41615, 44780, 44268, 44176, 44417, 43844, 44035, 43901, 44114, 41083, 43201, 41881, 43462, 41867, 41558, 42953, 43698, 45514, 44160, 43880, 45627, 41852, 42320, 41403, 42305, 40196, 41469, 42929, 41268, 45530, 43246, 41969, 41848, 43862, 42673, 43301, 43501, 43372, 41631, 43822, 41873, 41903, 41898, 44658, 42536, 41442, 41883, 40618, 42139, 40899, 43294, 42635, 42330, 43411, 40577, 40978, 40495, 41566, 39843, 42532, 42367, 41608, 41701, 41716, 40651, 39940, 41232, 41273, 40327, 42587, 40547, 40521, 39614, 40780, 40177, 40014, 39738, 42131, 41821, 40260, 40974, 42153, 40981, 41403, 40326, 42608, 41227, 42288, 41353, 41418, 42649, 43111, 41613, 43088, 41435, 43658, 41292, 41065, 40606, 40341, 40693, 43185, 41185, 42819, 41015, 42669, 41756, 41228, 41895, 40914, 41784, 41638, 42767, 41601, 42553, 43265, 42840, 43012, 42486, 42485, 44292, 40507, 41641, 40819, 40649, 41368, 42949, 40945, 40172, 41534, 40787, 40700, 40774, 40551, 42504, 40253, 39974, 39914, 40907, 41126, 41309, 41814, 42461, 42594, 42433, 41891, 43024, 41609, 40159, 41167, 39991, 40521, 41343, 41742, 41167, 41387, 42287, 40511, 40376, 39853, 40244, 41183, 41174, 41448, 40727, 40631, 40858, 41359, 40611, 40777, 41651, 40609, 41208, 40626, 40706, 40324, 41609, 40693, 40508, 42425, 40787, 40984, 40705, 41048, 40584, 39631, 41964, 40574, 42044, 40584, 40785, 38969, 41403, 43988, 41836, 40342, 43071, 41820, 40364, 40723, 42191, 40010, 40179, 40310, 40325, 42297, 41383, 41511, 43133, 42927, 40775, 41691, 43014, 42795, 42068, 42240, 42595, 41914, 42681, 42217, 42341, 42078, 41563],
      "WindowCenter": [10846.0, 10807.0, 10821.0, 10845.0, 10856.0, 10845.0, 10828.0, 10817.0, 10768.0, 10971.0, 10779.0, 10894.0, 10866.0, 10831.0, 10837.0, 10852.0, 10841.0, 10828.0, 10761.0, 10840.0, 10829.0, 10824.0, 10815.0, 10791.0, 10777.0, 10793.0, 10840.0, 10817.0, 10868.0, 10866.0, 10875.0, 10853.0, 10803.0, 10851.0, 10827.0, 10879.0, 10858.0, 10851.0, 10824.0, 10830.0, 10843.0, 10866.0, 10838.0, 10853.0, 10922.0, 10900.0, 10891.0, 10814.0, 10774.0, 10828.0, 10809.0, 10844.0, 10841.0, 10873.0, 10874.0, 10940.0, 10934.0, 10880.0, 10864.0, 10809.0, 10808.0, 10846.0, 10826.0, 10851.0, 10844.0, 10822.0, 10781.0, 10771.0, 10738.0, 10729.0, 10860.0, 10711.0, 10763.0, 10800.0, 10779.0, 10796.0, 10761.0, 10841.0, 10837.0, 10852.0, 10813.0, 10667.0, 10836.0, 10846.0, 10909.0, 10794.0, 10807.0, 10793.0, 10792.0, 10792.0, 10775.0, 10745.0, 10809.0, 10832.0, 10837.0, 10837.0, 10820.0, 10773.0, 10736.0, 10882.0, 10827.0, 10778.0, 10978.0, 10760.0, 10807.0, 10854.0, 10868.0, 10826.0, 10915.0, 10881.0, 10824.0, 10829.0, 10852.0, 10824.0, 10809.0, 10839.0, 10863.0, 10876.0, 10858.0, 10818.0, 10795.0, 10862.0, 10828.0, 10805.0, 10726.0, 10763.0, 10771.0, 10787.0, 10785.0, 10766.0, 10795.0, 10699.0, 10955.0, 10840.0, 10712.0, 10752.0, 10753.0, 10755.0, 10769.0, 10762.0, 10624.0, 10790.0, 10784.0, 10767.0, 10752.0, 10774.0, 10783.0, 10791.0, 10801.0, 10770.0, 10737.0, 10773.0, 10835.0, 10779.0, 10775.0, 10754.0, 10780.0, 10835.0, 10825.0, 10871.0, 10817.0, 10817.0, 10826.0, 10867.0, 10878.0, 10781.0, 10768.0, 10802.0, 10734.0, 10889.0, 10755.0, 10753.0, 10758.0, 10754.0, 10755.0, 10782.0, 10719.0, 10904.0, 10694.0, 10730.0, 10786.0, 10828.0, 10855.0, 10920.0, 10796.0, 10842.0, 10811.0, 10825.0, 10836.0, 10857.0, 10893.0, 10845.0, 10807.0, 10772.0, 10787.0, 10782.0, 10782.0, 10781.0, 10760.0, 10761.0, 10776.0, 10807.0, 10777.0, 10793.0, 10799.0, 10817.0, 10826.0, 10845.0, 10846.0, 10804.0, 10763.0, 10763.0, 10784.0, 10815.0, 10836.0, 10826.0, 10799.0, 10741.0, 10721.0, 10639.0, 10763.0, 10754.0, 10755.0, 10748.0, 10786.0, 10804.0, 10829.0, 10780.0, 10808.0, 10830.0, 10793.0, 10790.0, 10750.0, 10752.0, 10781.0, 10805.0, 10799.0, 10790.0, 10774.0, 10729.0, 10708.0, 10722.0, 10742.0, 10804.0, 10803.0, 10822.0, 10794.0, 10772.0, 10750.0, 10768.0, 10802.0, 10816.0, 10833.0, 10777.0, 10750.0, 10733.0, 10728.0, 10650.0, 10785.0, 10783.0, 10742.0, 10753.0, 10742.0, 10759.0, 10750.0, 10749.0, 10702.0, 10486.0, 10863.0, 10707.0, 10745.0, 10748.0, 10806.0, 10651.0, 10923.0, 10843.0, 10855.0, 10689.0, 10878.0, 10719.0, 10749.0, 10741.0, 10877.0, 10752.0, 10772.0, 10835.0, 10783.0, 10763.0, 10769.0, 10814.0, 10835.0, 10770.0, 10839.0, 10795.0, 10855.0, 10790.0, 10758.0, 10808.0, 10857.0, 10833.0, 10832.0, 10804.0, 10772.0, 10775.0, 10786.0],
