{
  "AcquisitionMatrixPE": 104,
  "AcquisitionNumber": 1,
  "AcquisitionTime": "11:30:33.765000",
  "BandwidthPerPixelPhaseEncode": 17.17,
  "BaseResolution": 104,
  "BodyPartExamined": "BRAIN",
  "CoilCombinationMethod": "Sum of Squares",
  "ConsistencyInfo": "N4_VE11C_LATEST_20160120",
  "ConversionSoftware": "dcm2niix",
  "ConversionSoftwareVersion": "v1.0.20220505",
  "DerivedVendorReportedEchoSpacing": 0.000560011,
  "DeviceSerialNumber": "167006",
  "DwellTime": 2.1e-06,
  "EchoTime": 0.037,
  "EchoTrainLength": 104,
  "EffectiveEchoSpacing": 0.000560011,
  "FlipAngle": 52,
  "HeudiconvVersion": "0.5.3.post811+g6206e14",
  "ImageComments": "Unaliased MB4/PE3/LB",
  "ImageOrientationPatientDICOM": [0.999254, -0.00157163, 0.0385826, 0.0228508, 0.82951, -0.558025],
  "ImageOrientationText": "Tra>Cor(-34.0)>Sag(1.8)",
  "ImageType": [
    "ORIGINAL",
    "PRIMARY",
    "M",
    "MB",
    "ND",
    "MOSAIC"
],
  "ImagingFrequency": 123.259,
  "InPlanePhaseEncodingDirectionDICOM": "COL",
  "InstitutionAddress": "Chemin Queen-Mary 4565,Montreal,District,CA,H3W 1W5",
  "InstitutionName": "IUGM",
  "InstitutionalDepartmentName": "Department",
  "MRAcquisitionType": "2D",
  "MagneticFieldStrength": 3,
  "Manufacturer": "Siemens",
  "ManufacturersModelName": "Prisma_fit",
  "MatrixCoilMode": "SENSE",
  "Modality": "MR",
  "MultibandAccelerationFactor": 4,
  "PartialFourier": 1,
  "PatientPosition": "HFS",
  "PercentPhaseFOV": 100,
  "PercentSampling": 100,
  "PhaseEncodingDirection": "j",
  "PhaseEncodingSteps": 104,
  "PhaseResolution": 1,
  "PixelBandwidth": 2290,
  "ProcedureStepDescription": "games^mario3",
  "ProtocolName": "func_task-mario3_run-01",
  "PulseSequenceDetails": "%CustomerSeq%\\cmrr_mbep2d_bold",
  "ReceiveCoilActiveElements": "HC1-7;NC1,2",
  "ReceiveCoilName": "HeadNeck_64",
  "ReconMatrixPE": 104,
  "RepetitionTime": 1.49,
  "SAR": 0.0808656,
  "ScanOptions": "FS",
  "ScanningSequence": "EP",
  "SequenceName": "epfid2d1_104",
  "SequenceVariant": "SK\\SS",
  "SeriesDescription": "func_task-mario3_run-01",
  "SeriesNumber": 10,
  "ShimSetting": [623, -7169, -8876, 227, 39, -246, -50, 34],
  "SliceThickness": 2,
  "SliceTiming": [0, 0.7825, 0.0975, 0.88, 0.195, 0.98, 0.2925, 1.0775, 0.39, 1.175, 0.49, 1.2725, 0.5875, 1.37, 0.685, 0, 0.7825, 0.0975, 0.88, 0.195, 0.98, 0.2925, 1.0775, 0.39, 1.175, 0.49, 1.2725, 0.5875, 1.37, 0.685, 0, 0.7825, 0.0975, 0.88, 0.195, 0.98, 0.2925, 1.0775, 0.39, 1.175, 0.49, 1.2725, 0.5875, 1.37, 0.685, 0, 0.7825, 0.0975, 0.88, 0.195, 0.98, 0.2925, 1.0775, 0.39, 1.175, 0.49, 1.2725, 0.5875, 1.37, 0.685],
  "SoftwareVersions": "syngo MR E11",
  "SpacingBetweenSlices": 2,
  "StationName": "MRC35049",
  "TaskName": "mario3",
  "TotalReadoutTime": 0.0576811,
  "TxRefAmp": 330.264,
  "WipMemBlock": "62999c95-adc1-401a-b31a-8f89fd6a3609||Sequence: R017 ve11c/master r/75a17815+; Jun 28 2022 16:32:11 by eja",
  "dcmmeta_affine": [
    [-1.998508334159851, 0.045701541006565094, 0.06225527077913284, 103.65025329589844],
    [0.0031432537361979485, 1.6590192317962646, -1.1169804334640503, -46.377525329589844],
    [0.07716520875692368, 1.1160495281219482, 1.6578538417816162, -105.1323471069336],
    [0.0, 0.0, 0.0, 1.0]
],
  "dcmmeta_reorient_transform": [
    [0.0, -1.0, 0.0, 103.0],
    [1.0, 0.0, 0.0, 0.0],
    [0.0, 0.0, 1.0, 0.0],
    [0.0, 0.0, 0.0, 1.0]
],
  "dcmmeta_shape": [104, 104, 60, 297],
  "dcmmeta_slice_dim": 2,
  "dcmmeta_version": 0.6,
  "global": {
    "const": {
      "AcquisitionMatrix": [104, 0, 0, 104],
      "AngioFlag": "N",
      "BitsAllocated": 16,
      "BitsStored": 16,
      "BodyPartExamined": "BRAIN",
      "Columns": 832,
      "EchoNumbers": 1,
      "EchoTime": 37.0,
      "EchoTrainLength": 104,
      "FlipAngle": 52.0,
      "HighBit": 15,
      "ImageOrientationPatient": [0.99925417818172, -0.0015716269099, 0.0385826045678, 0.02285077018806, 0.82950963263627, -0.5580247410872],
      "ImagePositionPatient": [-852.44991675412, -727.24032530536, 387.97462467399],
      "ImageType": [
        "ORIGINAL",
        "PRIMARY",
        "M",
        "MB",
        "ND",
        "MOSAIC"
],
      "ImagedNucleus": "1H",
      "ImagingFrequency": 123.25879,
      "InPlanePhaseEncodingDirection": "COL",
      "MRAcquisitionType": "2D",
      "MagneticFieldStrength": 3.0,
      "Manufacturer": "SIEMENS",
      "ManufacturerModelName": "Prisma_fit",
      "Modality": "MR",
      "NumberOfAverages": 1.0,
      "NumberOfPhaseEncodingSteps": 104,
      "PercentPhaseFieldOfView": 100.0,
      "PercentSampling": 100.0,
      "PerformedProcedureStepStartTime": "112226.303000",
      "PhotometricInterpretation": "MONOCHROME2",
      "PixelBandwidth": 2290.0,
      "PixelRepresentation": 0,
      "PixelSpacing": [2.0, 2.0],
      "ProtocolName": "func_task-mario3_run-01",
      "RepetitionTime": 1490.0,
      "Rows": 832,
      "SAR": 0.08086560306112,
      "SamplesPerPixel": 1,
      "ScanOptions": "FS",
      "ScanningSequence": "EP",
      "SequenceName": "epfid2d1_104",
      "SequenceVariant": [
        "SK",
        "SS"
],
      "SeriesDescription": "func_task-mario3_run-01",
      "SeriesNumber": 10,
      "SeriesTime": "113132.565000",
      "SliceLocation": -58.019246972869,
      "SliceThickness": 2.0,
      "SmallestImagePixelValue": 0,
      "SoftwareVersions": "syngo MR E11",
      "SpacingBetweenSlices": 2.0000000339149,
      "SpecificCharacterSet": "ISO_IR 100",
      "StudyID": "1",
      "StudyTime": "112226.210000",
      "TransmitCoilName": "Body",
      "VariableFlipAngleFlag": "N",
      "WindowCenterWidthExplanation": "Algo1",
      "dBdt": 0.0},
    "slices": {}
  },
  "time": {
    "samples": {
      "AcquisitionNumber": [1, 2, 3, 4, 5, 6, 7, 8, 9, 10, 11, 12, 13, 14, 15, 16, 17, 18, 19, 20, 21, 22, 23, 24, 25, 26, 27, 28, 29, 30, 31, 32, 33, 34, 35, 36, 37, 38, 39, 40, 41, 42, 43, 44, 45, 46, 47, 48, 49, 50, 51, 52, 53, 54, 55, 56, 57, 58, 59, 60, 61, 62, 63, 64, 65, 66, 67, 68, 69, 70, 71, 72, 73, 74, 75, 76, 77, 78, 79, 80, 81, 82, 83, 84, 85, 86, 87, 88, 89, 90, 91, 92, 93, 94, 95, 96, 97, 98, 99, 100, 101, 102, 103, 104, 105, 106, 107, 108, 109, 110, 111, 112, 113, 114, 115, 116, 117, 118, 119, 120, 121, 122, 123, 124, 125, 126, 127, 128, 129, 130, 131, 132, 133, 134, 135, 136, 137, 138, 139, 140, 141, 142, 143, 144, 145, 146, 147, 148, 149, 150, 151, 152, 153, 154, 155, 156, 157, 158, 159, 160, 161, 162, 163, 164, 165, 166, 167, 168, 169, 170, 171, 172, 173, 174, 175, 176, 177, 178, 179, 180, 181, 182, 183, 184, 185, 186, 187, 188, 189, 190, 191, 192, 193, 194, 195, 196, 197, 198, 199, 200, 201, 202, 203, 204, 205, 206, 207, 208, 209, 210, 211, 212, 213, 214, 215, 216, 217, 218, 219, 220, 221, 222, 223, 224, 225, 226, 227, 228, 229, 230, 231, 232, 233, 234, 235, 236, 237, 238, 239, 240, 241, 242, 243, 244, 245, 246, 247, 248, 249, 250, 251, 252, 253, 254, 255, 256, 257, 258, 259, 260, 261, 262, 263, 264, 265, 266, 267, 268, 269, 270, 271, 272, 273, 274, 275, 276, 277, 278, 279, 280, 281, 282, 283, 284, 285, 286, 287, 288, 289, 290, 291, 292, 293, 294, 295, 296, 297],
      "AcquisitionTime": ["113033.765000", "113035.255000", "113036.745000", "113038.235000", "113039.725000", "113041.215000", "113042.705000", "113044.195000", "113045.685000", "113047.175000", "113048.665000", "113050.155000", "113051.645000", "113053.135000", "113054.625000", "113056.115000", "113057.605000", "113059.095000", "113100.585000", "113102.075000", "113103.565000", "113105.055000", "113106.545000", "113108.035000", "113109.525000", "113111.015000", "113112.505000", "113113.995000", "113115.485000", "113116.975000", "113118.465000", "113119.955000", "113121.445000", "113122.935000", "113124.425000", "113125.915000", "113127.405000", "113128.895000", "113130.385000", "113131.875000", "113133.365000", "113134.855000", "113136.345000", "113137.835000", "113139.325000", "113140.815000", "113142.305000", "113143.795000", "113145.285000", "113146.775000", "113148.265000", "113149.755000", "113151.245000", "113152.735000", "113154.225000", "113155.715000", "113157.205000", "113158.695000", "113200.185000", "113201.675000", "113203.165000", "113204.655000", "113206.145000", "113207.635000", "113209.125000", "113210.615000", "113212.105000", "113213.595000", "113215.085000", "113216.575000", "113218.065000", "113219.555000", "113221.045000", "113222.535000", "113224.025000", "113225.515000", "113227.005000", "113228.495000", "113229.985000", "113231.475000", "113232.965000", "113234.455000", "113235.945000", "113237.435000", "113238.925000", "113240.415000", "113241.905000", "113243.395000", "113244.885000", "113246.375000", "113247.865000", "113249.355000", "113250.845000", "113252.335000", "113253.825000", "113255.315000", "113256.805000", "113258.295000", "113259.785000", "113301.275000", "113302.765000", "113304.255000", "113305.745000", "113307.235000", "113308.725000", "113310.215000", "113311.705000", "113313.195000", "113314.685000", "113316.175000", "113317.665000", "113319.155000", "113320.645000", "113322.135000", "113323.625000", "113325.115000", "113326.605000", "113328.095000", "113329.585000", "113331.075000", "113332.565000", "113334.055000", "113335.545000", "113337.035000", "113338.525000", "113340.015000", "113341.505000", "113342.995000", "113344.485000", "113345.975000", "113347.465000", "113348.955000", "113350.445000", "113351.935000", "113353.425000", "113354.915000", "113356.405000", "113357.895000", "113359.385000", "113400.875000", "113402.365000", "113403.855000", "113405.345000", "113406.835000", "113408.325000", "113409.815000", "113411.305000", "113412.795000", "113414.285000", "113415.775000", "113417.265000", "113418.755000", "113420.245000", "113421.735000", "113423.225000", "113424.715000", "113426.205000", "113427.695000", "113429.185000", "113430.675000", "113432.165000", "113433.655000", "113435.145000", "113436.635000", "113438.125000", "113439.615000", "113441.105000", "113442.595000", "113444.085000", "113445.575000", "113447.065000", "113448.555000", "113450.045000", "113451.535000", "113453.025000", "113454.515000", "113456.005000", "113457.495000", "113458.985000", "113500.475000", "113501.965000", "113503.455000", "113504.945000", "113506.435000", "113507.925000", "113509.415000", "113510.905000", "113512.395000", "113513.885000", "113515.375000", "113516.865000", "113518.355000", "113519.845000", "113521.335000", "113522.825000", "113524.315000", "113525.805000", "113527.295000", "113528.785000", "113530.275000", "113531.765000", "113533.255000", "113534.745000", "113536.235000", "113537.725000", "113539.215000", "113540.705000", "113542.195000", "113543.685000", "113545.175000", "113546.665000", "113548.155000", "113549.645000", "113551.135000", "113552.625000", "113554.115000", "113555.605000", "113557.095000", "113558.585000", "113600.075000", "113601.565000", "113603.055000", "113604.545000", "113606.035000", "113607.525000", "113609.015000", "113610.505000", "113611.995000", "113613.485000", "113614.975000", "113616.465000", "113617.955000", "113619.445000", "113620.935000", "113622.425000", "113623.915000", "113625.405000", "113626.895000", "113628.385000", "113629.875000", "113631.365000", "113632.855000", "113634.345000", "113635.835000", "113637.325000", "113638.815000", "113640.305000", "113641.795000", "113643.285000", "113644.775000", "113646.265000", "113647.755000", "113649.245000", "113650.735000", "113652.225000", "113653.715000", "113655.205000", "113656.695000", "113658.185000", "113659.675000", "113701.165000", "113702.655000", "113704.145000", "113705.635000", "113707.125000", "113708.615000", "113710.105000", "113711.595000", "113713.085000", "113714.575000", "113716.065000", "113717.555000", "113719.045000", "113720.535000", "113722.025000", "113723.515000", "113725.005000", "113726.495000", "113727.985000", "113729.475000", "113730.965000", "113732.455000", "113733.945000", "113735.435000", "113736.925000", "113738.415000", "113739.905000", "113741.395000", "113742.885000", "113744.375000", "113745.865000", "113747.355000", "113748.845000", "113750.335000", "113751.825000", "113753.315000", "113754.805000"],
      "ContentTime": ["113132.568000", "113132.572000", "113132.575000", "113132.578000", "113132.581000", "113132.584000", "113132.588000", "113152.505000", "113152.509000", "113152.512000", "113152.515000", "113152.518000", "113152.521000", "113152.525000", "113152.528000", "113152.531000", "113152.534000", "113152.537000", "113152.541000", "113152.544000", "113152.556000", "113152.559000", "113152.562000", "113152.565000", "113152.569000", "113152.572000", "113152.575000", "113212.505000", "113212.515000", "113212.518000", "113212.521000", "113212.524000", "113212.528000", "113212.531000", "113212.534000", "113212.537000", "113212.541000", "113212.544000", "113212.547000", "113212.550000", "113212.553000", "113212.557000", "113212.561000", "113212.564000", "113212.567000", "113212.570000", "113212.574000", "113232.505000", "113232.509000", "113232.512000", "113232.515000", "113232.518000", "113232.522000", "113232.525000", "113232.528000", "113232.531000", "113232.534000", "113232.538000", "113232.541000", "113232.544000", "113232.547000", "113232.551000", "113232.554000", "113232.557000", "113232.560000", "113232.564000", "113232.567000", "113252.505000", "113252.509000", "113252.512000", "113252.515000", "113252.518000", "113252.522000", "113252.525000", "113252.528000", "113252.531000", "113252.535000", "113252.538000", "113252.541000", "113252.544000", "113252.547000", "113252.551000", "113252.554000", "113252.557000", "113252.560000", "113252.564000", "113252.567000", "113332.505000", "113332.509000", "113332.512000", "113332.515000", "113332.519000", "113332.522000", "113332.525000", "113332.528000", "113332.532000", "113332.535000", "113332.538000", "113332.541000", "113332.544000", "113332.548000", "113332.551000", "113332.554000", "113332.567000", "113332.570000", "113332.573000", "113332.577000", "113332.580000", "113332.583000", "113332.587000", "113332.590000", "113332.593000", "113332.596000", "113332.600000", "113332.603000", "113332.606000", "113332.610000", "113332.613000", "113332.616000", "113412.505000", "113412.509000", "113412.512000", "113412.515000", "113412.519000", "113412.522000", "113412.525000", "113412.528000", "113412.532000", "113412.535000", "113412.538000", "113412.541000", "113412.544000", "113412.548000", "113412.551000", "113412.554000", "113412.557000", "113412.561000", "113412.564000", "113412.567000", "113412.570000", "113412.573000", "113412.577000", "113412.580000", "113412.583000", "113412.586000", "113412.590000", "113452.505000", "113452.509000", "113452.512000", "113452.515000", "113452.518000", "113452.521000", "113452.525000", "113452.536000", "113452.540000", "113452.543000", "113452.546000", "113452.549000", "113452.553000", "113452.556000", "113452.559000", "113452.563000", "113452.566000", "113452.569000", "113452.572000", "113452.576000", "113452.579000", "113452.582000", "113452.585000", "113452.589000", "113452.592000", "113452.595000", "113452.598000", "113532.505000", "113532.509000", "113532.512000", "113532.515000", "113532.519000", "113532.522000", "113532.525000", "113532.528000", "113532.532000", "113532.535000", "113532.538000", "113532.541000", "113532.545000", "113532.548000", "113532.551000", "113532.555000", "113532.558000", "113532.561000", "113532.565000", "113532.568000", "113532.571000", "113532.574000", "113532.578000", "113532.581000", "113532.584000", "113532.587000", "113532.590000", "113612.505000", "113612.509000", "113612.512000", "113612.515000", "113612.519000", "113612.522000", "113612.525000", "113612.529000", "113612.532000", "113612.535000", "113612.538000", "113612.541000", "113612.545000", "113612.548000", "113612.551000", "113612.555000", "113612.558000", "113612.561000", "113612.565000", "113612.568000", "113612.572000", "113612.575000", "113612.578000", "113612.582000", "113612.585000", "113612.588000", "113652.505000", "113652.509000", "113652.512000", "113652.515000", "113652.518000", "113652.522000", "113652.525000", "113652.528000", "113652.531000", "113652.535000", "113652.538000", "113652.541000", "113652.544000", "113652.548000", "113652.551000", "113652.554000", "113652.557000", "113652.561000", "113652.564000", "113652.567000", "113652.570000", "113652.574000", "113652.589000", "113652.592000", "113652.595000", "113652.599000", "113652.602000", "113732.505000", "113732.509000", "113732.512000", "113732.515000", "113732.519000", "113732.522000", "113732.525000", "113732.528000", "113732.532000", "113732.535000", "113732.538000", "113732.541000", "113732.545000", "113732.548000", "113732.551000", "113732.554000", "113732.558000", "113732.561000", "113732.564000", "113732.568000", "113732.571000", "113732.574000", "113732.577000", "113732.581000", "113732.584000", "113732.587000", "113732.590000", "113757.974000", "113757.978000", "113757.981000", "113757.984000", "113757.987000", "113757.991000", "113757.994000", "113757.997000", "113758.002000", "113758.005000", "113758.008000", "113758.011000", "113758.015000", "113758.018000", "113758.021000", "113758.025000", "113758.028000"],
      "InstanceCreationTime": ["113132.568000", "113132.572000", "113132.575000", "113132.578000", "113132.581000", "113132.584000", "113132.588000", "113152.505000", "113152.509000", "113152.512000", "113152.515000", "113152.518000", "113152.521000", "113152.525000", "113152.528000", "113152.531000", "113152.534000", "113152.537000", "113152.541000", "113152.544000", "113152.556000", "113152.559000", "113152.562000", "113152.565000", "113152.569000", "113152.572000", "113152.575000", "113212.505000", "113212.515000", "113212.518000", "113212.521000", "113212.524000", "113212.528000", "113212.531000", "113212.534000", "113212.537000", "113212.541000", "113212.544000", "113212.547000", "113212.550000", "113212.553000", "113212.557000", "113212.561000", "113212.564000", "113212.567000", "113212.570000", "113212.574000", "113232.505000", "113232.509000", "113232.512000", "113232.515000", "113232.518000", "113232.522000", "113232.525000", "113232.528000", "113232.531000", "113232.534000", "113232.538000", "113232.541000", "113232.544000", "113232.547000", "113232.551000", "113232.554000", "113232.557000", "113232.560000", "113232.564000", "113232.567000", "113252.505000", "113252.509000", "113252.512000", "113252.515000", "113252.518000", "113252.522000", "113252.525000", "113252.528000", "113252.531000", "113252.535000", "113252.538000", "113252.541000", "113252.544000", "113252.547000", "113252.551000", "113252.554000", "113252.557000", "113252.560000", "113252.564000", "113252.567000", "113332.505000", "113332.509000", "113332.512000", "113332.515000", "113332.519000", "113332.522000", "113332.525000", "113332.528000", "113332.532000", "113332.535000", "113332.538000", "113332.541000", "113332.544000", "113332.548000", "113332.551000", "113332.554000", "113332.567000", "113332.570000", "113332.573000", "113332.577000", "113332.580000", "113332.583000", "113332.587000", "113332.590000", "113332.593000", "113332.596000", "113332.600000", "113332.603000", "113332.606000", "113332.610000", "113332.613000", "113332.616000", "113412.505000", "113412.509000", "113412.512000", "113412.515000", "113412.519000", "113412.522000", "113412.525000", "113412.528000", "113412.532000", "113412.535000", "113412.538000", "113412.541000", "113412.544000", "113412.548000", "113412.551000", "113412.554000", "113412.557000", "113412.561000", "113412.564000", "113412.567000", "113412.570000", "113412.573000", "113412.577000", "113412.580000", "113412.583000", "113412.586000", "113412.590000", "113452.505000", "113452.509000", "113452.512000", "113452.515000", "113452.518000", "113452.521000", "113452.525000", "113452.536000", "113452.540000", "113452.543000", "113452.546000", "113452.549000", "113452.553000", "113452.556000", "113452.559000", "113452.563000", "113452.566000", "113452.569000", "113452.572000", "113452.576000", "113452.579000", "113452.582000", "113452.585000", "113452.589000", "113452.592000", "113452.595000", "113452.598000", "113532.505000", "113532.509000", "113532.512000", "113532.515000", "113532.519000", "113532.522000", "113532.525000", "113532.528000", "113532.532000", "113532.535000", "113532.538000", "113532.541000", "113532.545000", "113532.548000", "113532.551000", "113532.555000", "113532.558000", "113532.561000", "113532.565000", "113532.568000", "113532.571000", "113532.574000", "113532.578000", "113532.581000", "113532.584000", "113532.587000", "113532.590000", "113612.505000", "113612.509000", "113612.512000", "113612.515000", "113612.519000", "113612.522000", "113612.525000", "113612.529000", "113612.532000", "113612.535000", "113612.538000", "113612.541000", "113612.545000", "113612.548000", "113612.551000", "113612.555000", "113612.558000", "113612.561000", "113612.565000", "113612.568000", "113612.572000", "113612.575000", "113612.578000", "113612.582000", "113612.585000", "113612.588000", "113652.505000", "113652.509000", "113652.512000", "113652.515000", "113652.518000", "113652.522000", "113652.525000", "113652.528000", "113652.531000", "113652.535000", "113652.538000", "113652.541000", "113652.544000", "113652.548000", "113652.551000", "113652.554000", "113652.557000", "113652.561000", "113652.564000", "113652.567000", "113652.570000", "113652.574000", "113652.589000", "113652.592000", "113652.595000", "113652.599000", "113652.602000", "113732.505000", "113732.509000", "113732.512000", "113732.515000", "113732.519000", "113732.522000", "113732.525000", "113732.528000", "113732.532000", "113732.535000", "113732.538000", "113732.541000", "113732.545000", "113732.548000", "113732.551000", "113732.554000", "113732.558000", "113732.561000", "113732.564000", "113732.568000", "113732.571000", "113732.574000", "113732.577000", "113732.581000", "113732.584000", "113732.587000", "113732.590000", "113757.974000", "113757.978000", "113757.981000", "113757.984000", "113757.987000", "113757.991000", "113757.994000", "113757.997000", "113758.002000", "113758.005000", "113758.008000", "113758.011000", "113758.015000", "113758.018000", "113758.021000", "113758.025000", "113758.028000"],
      "InstanceNumber": [1, 2, 3, 4, 5, 6, 7, 8, 9, 10, 11, 12, 13, 14, 15, 16, 17, 18, 19, 20, 21, 22, 23, 24, 25, 26, 27, 28, 29, 30, 31, 32, 33, 34, 35, 36, 37, 38, 39, 40, 41, 42, 43, 44, 45, 46, 47, 48, 49, 50, 51, 52, 53, 54, 55, 56, 57, 58, 59, 60, 61, 62, 63, 64, 65, 66, 67, 68, 69, 70, 71, 72, 73, 74, 75, 76, 77, 78, 79, 80, 81, 82, 83, 84, 85, 86, 87, 88, 89, 90, 91, 92, 93, 94, 95, 96, 97, 98, 99, 100, 101, 102, 103, 104, 105, 106, 107, 108, 109, 110, 111, 112, 113, 114, 115, 116, 117, 118, 119, 120, 121, 122, 123, 124, 125, 126, 127, 128, 129, 130, 131, 132, 133, 134, 135, 136, 137, 138, 139, 140, 141, 142, 143, 144, 145, 146, 147, 148, 149, 150, 151, 152, 153, 154, 155, 156, 157, 158, 159, 160, 161, 162, 163, 164, 165, 166, 167, 168, 169, 170, 171, 172, 173, 174, 175, 176, 177, 178, 179, 180, 181, 182, 183, 184, 185, 186, 187, 188, 189, 190, 191, 192, 193, 194, 195, 196, 197, 198, 199, 200, 201, 202, 203, 204, 205, 206, 207, 208, 209, 210, 211, 212, 213, 214, 215, 216, 217, 218, 219, 220, 221, 222, 223, 224, 225, 226, 227, 228, 229, 230, 231, 232, 233, 234, 235, 236, 237, 238, 239, 240, 241, 242, 243, 244, 245, 246, 247, 248, 249, 250, 251, 252, 253, 254, 255, 256, 257, 258, 259, 260, 261, 262, 263, 264, 265, 266, 267, 268, 269, 270, 271, 272, 273, 274, 275, 276, 277, 278, 279, 280, 281, 282, 283, 284, 285, 286, 287, 288, 289, 290, 291, 292, 293, 294, 295, 296, 297],
      "LargestImagePixelValue": [44656, 43272, 42512, 45685, 42445, 41435, 41959, 41203, 40828, 41255, 42872, 40691, 41221, 41104, 41400, 41920, 41339, 41451, 41247, 41514, 41141, 41651, 41768, 41141, 41391, 41107, 41060, 40696, 40993, 41495, 40949, 41099, 41717, 41779, 41440, 41416, 41277, 41368, 41537, 41643, 41775, 41581, 42050, 41817, 42115, 42977, 40818, 41010, 41375, 41632, 41370, 41231, 42999, 42266, 41409, 42982, 42330, 41265, 41658, 41540, 42350, 41782, 41404, 41374, 41054, 41522, 41595, 42331, 40690, 40862, 41842, 41453, 41441, 42213, 41843, 41435, 41368, 43030, 43122, 41473, 41667, 41231, 40829, 41048, 41774, 41638, 41047, 41582, 41146, 41801, 41432, 41268, 40970, 41712, 41186, 40707, 41552, 41449, 40991, 42101, 41160, 42063, 41032, 40821, 40763, 40783, 40795, 41117, 41102, 42858, 41087, 41600, 40448, 40772, 43644, 42134, 42139, 41303, 40240, 41261, 40483, 41895, 40205, 42202, 40279, 40255, 41342, 41449, 39723, 40766, 42341, 41680, 40410, 41101, 43847, 42185, 41200, 40452, 42105, 41250, 41059, 41996, 40782, 41926, 40795, 41547, 40798, 40804, 42355, 40510, 40493, 39913, 40059, 40948, 41140, 40937, 41261, 40876, 42172, 41539, 40042, 41099, 40820, 40827, 42392, 42201, 42568, 42485, 42438, 41590, 40878, 40716, 40984, 40900, 40321, 41616, 41232, 40804, 41740, 40427, 40716, 41882, 40690, 42389, 41151, 41120, 42570, 42407, 41615, 42614, 40915, 41126, 40635, 42063, 40929, 41257, 40615, 40192, 40328, 41042, 42170, 41458, 41848, 43580, 40533, 41762, 49329, 41585, 41616, 40733, 40498, 41536, 40751, 40187, 40863, 41202, 42475, 41639, 39956, 41900, 39856, 42238, 41297, 40533, 40737, 41986, 41576, 41935, 42442, 43384, 41815, 43677, 43970, 42955, 42111, 42883, 43599, 42080, 43347, 43432, 40190, 43494, 40667, 40754, 41422, 41546, 41492, 42542, 44473, 42362, 44631, 44096, 43003, 41963, 41049, 40304, 41434, 43497, 41245, 42216, 41344, 41375, 43222, 43372, 41276, 40986, 40978, 41207, 41012, 43151, 44691, 40901, 41879, 42105, 43285, 41792, 41158, 40998, 41118, 41297, 42329, 41251, 41176, 42298, 40846, 41115, 41212, 40942, 41572, 42119, 41883, 41937, 41105, 42992, 41238, 42974, 41595],
      "WindowCenter": [11052.0, 10970.0, 10927.0, 10927.0, 10905.0, 10883.0, 10914.0, 10908.0, 10915.0, 10923.0, 10919.0, 10892.0, 10898.0, 10903.0, 10909.0, 10912.0, 10902.0, 10916.0, 10922.0, 10952.0, 10949.0, 10953.0, 10925.0, 10891.0, 10873.0, 10870.0, 10868.0, 10868.0, 10858.0, 10910.0, 10894.0, 10896.0, 10893.0, 10907.0, 10911.0, 10902.0, 10910.0, 10900.0, 10886.0, 10897.0, 10909.0, 10884.0, 10973.0, 10948.0, 10924.0, 10899.0, 10843.0, 10860.0, 10872.0, 10842.0, 10870.0, 10857.0, 10901.0, 10892.0, 10875.0, 10919.0, 10886.0, 10871.0, 10875.0, 10886.0, 10916.0, 10903.0, 10900.0, 10870.0, 10838.0, 10839.0, 10841.0, 10878.0, 10834.0, 10867.0, 10889.0, 10890.0, 10851.0, 10976.0, 10921.0, 10893.0, 10857.0, 10948.0, 10922.0, 10901.0, 10924.0, 10930.0, 10905.0, 10870.0, 10874.0, 10857.0, 10845.0, 10863.0, 10858.0, 10871.0, 10858.0, 10854.0, 10856.0, 10902.0, 10916.0, 10890.0, 10866.0, 10863.0, 10871.0, 10903.0, 10914.0, 10911.0, 10909.0, 10908.0, 10894.0, 10892.0, 10883.0, 10864.0, 10846.0, 10867.0, 10891.0, 10920.0, 10908.0, 10890.0, 10892.0, 10865.0, 10904.0, 10909.0, 10902.0, 10899.0, 10919.0, 10918.0, 10881.0, 10885.0, 10876.0, 10868.0, 10848.0, 10902.0, 10845.0, 10861.0, 10846.0, 10854.0, 10861.0, 10901.0, 10917.0, 10899.0, 10901.0, 10854.0, 10840.0, 10816.0, 10876.0, 10945.0, 10918.0, 10935.0, 10919.0, 10881.0, 10868.0, 10881.0, 10907.0, 10900.0, 10913.0, 10854.0, 10878.0, 10822.0, 10857.0, 10899.0, 10906.0, 10900.0, 10916.0, 10903.0, 10932.0, 10951.0, 10913.0, 10885.0, 10893.0, 10899.0, 10901.0, 10935.0, 10963.0, 10945.0, 10875.0, 10853.0, 10823.0, 10854.0, 10861.0, 10854.0, 10862.0, 10862.0, 10860.0, 10830.0, 10814.0, 10847.0, 10870.0, 10871.0, 10898.0, 10914.0, 10930.0, 10890.0, 10898.0, 10968.0, 10935.0, 10918.0, 10845.0, 10871.0, 10830.0, 10880.0, 10903.0, 10900.0, 10874.0, 10864.0, 10849.0, 10825.0, 10819.0, 10868.0, 10817.0, 10861.0, 10895.0, 10969.0, 10959.0, 10900.0, 10900.0, 10940.0, 10916.0, 10935.0, 10919.0, 10891.0, 10884.0, 10893.0, 10891.0, 10924.0, 10879.0, 10882.0, 10854.0, 10854.0, 10863.0, 10867.0, 10888.0, 10920.0, 10852.0, 10861.0, 10831.0, 10860.0, 10921.0, 10919.0, 10887.0, 10844.0, 10849.0, 10872.0, 10898.0, 10912.0, 10875.0, 10922.0, 10898.0, 10917.0, 10896.0, 10897.0, 10881.0, 10865.0, 10885.0, 10826.0, 10860.0, 10890.0, 10920.0, 10881.0, 10870.0, 10810.0, 10803.0, 10873.0, 10901.0, 10935.0, 10889.0, 10852.0, 10851.0, 10857.0, 10861.0, 10871.0, 10878.0, 10882.0, 10875.0, 10895.0, 10903.0, 10832.0, 10867.0, 10890.0, 10902.0, 10896.0, 10868.0, 10831.0, 10803.0, 10822.0, 10881.0, 10855.0, 10852.0, 10834.0, 10849.0, 10898.0, 10868.0, 10835.0, 10798.0, 10789.0, 10796.0, 10817.0, 10820.0, 10880.0, 10877.0, 10895.0, 10875.0],
