{
  "AcquisitionMatrixPE": 104,
  "AcquisitionNumber": 1,
  "AcquisitionTime": "11:47:56.630000",
  "BandwidthPerPixelPhaseEncode": 17.17,
  "BaseResolution": 104,
  "BodyPartExamined": "BRAIN",
  "CoilCombinationMethod": "Sum of Squares",
  "ConsistencyInfo": "N4_VE11C_LATEST_20160120",
  "ConversionSoftware": "dcm2niix",
  "ConversionSoftwareVersion": "v1.0.20220505",
  "DerivedVendorReportedEchoSpacing": 0.000560011,
  "DeviceSerialNumber": "167006",
  "DwellTime": 2.1e-06,
  "EchoTime": 0.037,
  "EchoTime1": 0.037,
  "EchoTime2": 0.001,
  "EchoTrainLength": 104,
  "EffectiveEchoSpacing": 0.000560011,
  "FlipAngle": 52,
  "HeudiconvVersion": "0.5.3.post811+g6206e14",
  "ImageComments": "Unaliased MB4/PE3/LB",
  "ImageOrientationPatientDICOM": [0.999254, -0.00157163, 0.0385826, 0.0228508, 0.82951, -0.558025],
  "ImageOrientationText": "Tra>Cor(-34.0)>Sag(1.8)",
  "ImageType": [
    "ORIGINAL",
    "PRIMARY",
    "P",
    "MB",
    "ND",
    "MOSAIC",
    "PHASE"
],
  "ImagingFrequency": 123.259,
  "InPlanePhaseEncodingDirectionDICOM": "COL",
  "InstitutionAddress": "Chemin Queen-Mary 4565,Montreal,District,CA,H3W 1W5",
  "InstitutionName": "IUGM",
  "InstitutionalDepartmentName": "Department",
  "MRAcquisitionType": "2D",
  "MagneticFieldStrength": 3,
  "Manufacturer": "Siemens",
  "ManufacturersModelName": "Prisma_fit",
  "MatrixCoilMode": "SENSE",
  "Modality": "MR",
  "MultibandAccelerationFactor": 4,
  "PartialFourier": 1,
  "PatientPosition": "HFS",
  "PercentPhaseFOV": 100,
  "PercentSampling": 100,
  "PhaseEncodingDirection": "j",
  "PhaseEncodingSteps": 104,
  "PhaseResolution": 1,
  "PixelBandwidth": 2290,
  "ProcedureStepDescription": "games^mario3",
  "ProtocolName": "func_task-mario3_run-03",
  "PulseSequenceDetails": "%CustomerSeq%\\cmrr_mbep2d_bold",
  "ReceiveCoilActiveElements": "HC1-7;NC1,2",
  "ReceiveCoilName": "HeadNeck_64",
  "ReconMatrixPE": 104,
  "RepetitionTime": 1.49,
  "SAR": 0.0808656,
  "ScanOptions": "FS",
  "ScanningSequence": "EP",
  "SequenceName": "epfid2d1_104",
  "SequenceVariant": "SK\\SS",
  "SeriesDescription": "func_task-mario3_run-03",
  "SeriesNumber": 17,
  "ShimSetting": [623, -7169, -8876, 227, 39, -246, -50, 34],
  "SliceThickness": 2,
  "SliceTiming": [0, 0.785, 0.1, 0.8825, 0.1975, 0.98, 0.295, 1.08, 0.3925, 1.1775, 0.49, 1.275, 0.59, 1.3725, 0.6875, 0, 0.785, 0.1, 0.8825, 0.1975, 0.98, 0.295, 1.08, 0.3925, 1.1775, 0.49, 1.275, 0.59, 1.3725, 0.6875, 0, 0.785, 0.1, 0.8825, 0.1975, 0.98, 0.295, 1.08, 0.3925, 1.1775, 0.49, 1.275, 0.59, 1.3725, 0.6875, 0, 0.785, 0.1, 0.8825, 0.1975, 0.98, 0.295, 1.08, 0.3925, 1.1775, 0.49, 1.275, 0.59, 1.3725, 0.6875],
  "SoftwareVersions": "syngo MR E11",
  "SpacingBetweenSlices": 2,
  "StationName": "MRC35049",
  "TaskName": "mario3",
  "TotalReadoutTime": 0.0576811,
  "TxRefAmp": 330.264,
  "WipMemBlock": "f5941d4a-0b21-40d1-b43c-ffc640ea79ea||Sequence: R017 ve11c/master r/75a17815+; Jun 28 2022 16:32:11 by eja",
  "dcmmeta_affine": [
    [-1.998508334159851, 0.045701541006565094, 0.06225527077913284, 103.65025329589844],
    [0.0031432537361979485, 1.6590192317962646, -1.1169804334640503, -46.377525329589844],
    [0.07716520875692368, 1.1160495281219482, 1.6578538417816162, -105.1323471069336],
    [0.0, 0.0, 0.0, 1.0]
],
  "dcmmeta_reorient_transform": [
    [0.0, -1.0, 0.0, 103.0],
    [1.0, 0.0, 0.0, 0.0],
    [0.0, 0.0, 1.0, 0.0],
    [0.0, 0.0, 0.0, 1.0]
],
  "dcmmeta_shape": [104, 104, 60, 367],
  "dcmmeta_slice_dim": 2,
  "dcmmeta_version": 0.6,
  "global": {
    "const": {
      "AcquisitionMatrix": [104, 0, 0, 104],
      "AngioFlag": "N",
      "BitsAllocated": 16,
      "BitsStored": 16,
      "BodyPartExamined": "BRAIN",
      "Columns": 832,
      "EchoNumbers": 1,
      "EchoTime": 37.0,
      "EchoTrainLength": 104,
      "FlipAngle": 52.0,
      "HighBit": 15,
      "ImageOrientationPatient": [0.99925417818172, -0.0015716269099, 0.0385826045678, 0.02285077018806, 0.82950963263627, -0.5580247410872],
      "ImagePositionPatient": [-852.44991675412, -727.24032530536, 387.97462467399],
      "ImageType": [
        "ORIGINAL",
        "PRIMARY",
        "P",
        "MB",
        "ND",
        "MOSAIC"
],
      "ImagedNucleus": "1H",
      "ImagingFrequency": 123.258803,
      "InPlanePhaseEncodingDirection": "COL",
      "LargestImagePixelValue": 4095,
      "MRAcquisitionType": "2D",
      "MagneticFieldStrength": 3.0,
      "Manufacturer": "SIEMENS",
      "ManufacturerModelName": "Prisma_fit",
      "Modality": "MR",
      "NumberOfAverages": 1.0,
      "NumberOfPhaseEncodingSteps": 104,
      "PercentPhaseFieldOfView": 100.0,
      "PercentSampling": 100.0,
      "PerformedProcedureStepStartTime": "112226.303000",
      "PhotometricInterpretation": "MONOCHROME2",
      "PixelBandwidth": 2290.0,
      "PixelRepresentation": 0,
      "PixelSpacing": [2.0, 2.0],
      "ProtocolName": "func_task-mario3_run-03",
      "RepetitionTime": 1490.0,
      "RescaleIntercept": -4096.0,
      "RescaleSlope": 2.0,
      "RescaleType": "US",
      "Rows": 832,
      "SAR": 0.08086560306112,
      "SamplesPerPixel": 1,
      "ScanOptions": "FS",
      "ScanningSequence": "EP",
      "SequenceName": "epfid2d1_104",
      "SequenceVariant": [
        "SK",
        "SS"
],
      "SeriesDescription": "func_task-mario3_run-03",
      "SeriesNumber": 17,
      "SeriesTime": "114912.124000",
      "SliceLocation": -58.019246972869,
      "SliceThickness": 2.0,
      "SmallestImagePixelValue": 0,
      "SoftwareVersions": "syngo MR E11",
      "SpacingBetweenSlices": 2.0000000339149,
      "SpecificCharacterSet": "ISO_IR 100",
      "StudyID": "1",
      "StudyTime": "112226.210000",
      "TransmitCoilName": "Body",
      "VariableFlipAngleFlag": "N",
      "WindowCenterWidthExplanation": "Algo1",
      "dBdt": 0.0},
    "slices": {}
  },
  "time": {
    "samples": {
      "AcquisitionNumber": [1, 2, 3, 4, 5, 6, 7, 8, 9, 10, 11, 12, 13, 14, 15, 16, 17, 18, 19, 20, 21, 22, 23, 24, 25, 26, 27, 28, 29, 30, 31, 32, 33, 34, 35, 36, 37, 38, 39, 40, 41, 42, 43, 44, 45, 46, 47, 48, 49, 50, 51, 52, 53, 54, 55, 56, 57, 58, 59, 60, 61, 62, 63, 64, 65, 66, 67, 68, 69, 70, 71, 72, 73, 74, 75, 76, 77, 78, 79, 80, 81, 82, 83, 84, 85, 86, 87, 88, 89, 90, 91, 92, 93, 94, 95, 96, 97, 98, 99, 100, 101, 102, 103, 104, 105, 106, 107, 108, 109, 110, 111, 112, 113, 114, 115, 116, 117, 118, 119, 120, 121, 122, 123, 124, 125, 126, 127, 128, 129, 130, 131, 132, 133, 134, 135, 136, 137, 138, 139, 140, 141, 142, 143, 144, 145, 146, 147, 148, 149, 150, 151, 152, 153, 154, 155, 156, 157, 158, 159, 160, 161, 162, 163, 164, 165, 166, 167, 168, 169, 170, 171, 172, 173, 174, 175, 176, 177, 178, 179, 180, 181, 182, 183, 184, 185, 186, 187, 188, 189, 190, 191, 192, 193, 194, 195, 196, 197, 198, 199, 200, 201, 202, 203, 204, 205, 206, 207, 208, 209, 210, 211, 212, 213, 214, 215, 216, 217, 218, 219, 220, 221, 222, 223, 224, 225, 226, 227, 228, 229, 230, 231, 232, 233, 234, 235, 236, 237, 238, 239, 240, 241, 242, 243, 244, 245, 246, 247, 248, 249, 250, 251, 252, 253, 254, 255, 256, 257, 258, 259, 260, 261, 262, 263, 264, 265, 266, 267, 268, 269, 270, 271, 272, 273, 274, 275, 276, 277, 278, 279, 280, 281, 282, 283, 284, 285, 286, 287, 288, 289, 290, 291, 292, 293, 294, 295, 296, 297, 298, 299, 300, 301, 302, 303, 304, 305, 306, 307, 308, 309, 310, 311, 312, 313, 314, 315, 316, 317, 318, 319, 320, 321, 322, 323, 324, 325, 326, 327, 328, 329, 330, 331, 332, 333, 334, 335, 336, 337, 338, 339, 340, 341, 342, 343, 344, 345, 346, 347, 348, 349, 350, 351, 352, 353, 354, 355, 356, 357, 358, 359, 360, 361, 362, 363, 364, 365, 366, 367],
      "AcquisitionTime": ["114756.630000", "114758.120000", "114759.610000", "114801.100000", "114802.590000", "114804.080000", "114805.570000", "114807.060000", "114808.550000", "114810.040000", "114811.530000", "114813.020000", "114814.510000", "114816.000000", "114817.490000", "114818.980000", "114820.470000", "114821.960000", "114823.450000", "114824.940000", "114826.430000", "114827.920000", "114829.410000", "114830.900000", "114832.390000", "114833.880000", "114835.370000", "114836.860000", "114838.350000", "114839.840000", "114841.330000", "114842.820000", "114844.310000", "114845.800000", "114847.290000", "114848.780000", "114850.270000", "114851.760000", "114853.250000", "114854.740000", "114856.230000", "114857.720000", "114859.210000", "114900.700000", "114902.190000", "114903.680000", "114905.170000", "114906.660000", "114908.150000", "114909.640000", "114911.130000", "114912.620000", "114914.110000", "114915.600000", "114917.090000", "114918.580000", "114920.070000", "114921.560000", "114923.050000", "114924.540000", "114926.030000", "114927.520000", "114929.010000", "114930.500000", "114931.990000", "114933.480000", "114934.970000", "114936.460000", "114937.950000", "114939.440000", "114940.930000", "114942.420000", "114943.910000", "114945.400000", "114946.890000", "114948.380000", "114949.870000", "114951.360000", "114952.850000", "114954.340000", "114955.830000", "114957.320000", "114958.810000", "115000.300000", "115001.790000", "115003.280000", "115004.770000", "115006.260000", "115007.750000", "115009.240000", "115010.730000", "115012.220000", "115013.710000", "115015.200000", "115016.690000", "115018.180000", "115019.670000", "115021.160000", "115022.650000", "115024.140000", "115025.630000", "115027.120000", "115028.610000", "115030.100000", "115031.590000", "115033.080000", "115034.570000", "115036.060000", "115037.550000", "115039.040000", "115040.530000", "115042.020000", "115043.510000", "115045.000000", "115046.490000", "115047.980000", "115049.470000", "115050.960000", "115052.450000", "115053.940000", "115055.430000", "115056.920000", "115058.410000", "115059.900000", "115101.390000", "115102.880000", "115104.370000", "115105.860000", "115107.350000", "115108.840000", "115110.330000", "115111.820000", "115113.310000", "115114.800000", "115116.290000", "115117.780000", "115119.270000", "115120.760000", "115122.250000", "115123.740000", "115125.230000", "115126.720000", "115128.210000", "115129.700000", "115131.190000", "115132.680000", "115134.170000", "115135.660000", "115137.150000", "115138.640000", "115140.130000", "115141.620000", "115143.110000", "115144.600000", "115146.090000", "115147.580000", "115149.070000", "115150.560000", "115152.050000", "115153.540000", "115155.030000", "115156.520000", "115158.010000", "115159.500000", "115200.990000", "115202.480000", "115203.970000", "115205.460000", "115206.950000", "115208.440000", "115209.930000", "115211.420000", "115212.910000", "115214.400000", "115215.890000", "115217.380000", "115218.870000", "115220.360000", "115221.850000", "115223.340000", "115224.830000", "115226.320000", "115227.810000", "115229.300000", "115230.790000", "115232.280000", "115233.770000", "115235.260000", "115236.750000", "115238.240000", "115239.730000", "115241.220000", "115242.710000", "115244.200000", "115245.690000", "115247.180000", "115248.670000", "115250.160000", "115251.650000", "115253.140000", "115254.630000", "115256.120000", "115257.610000", "115259.100000", "115300.590000", "115302.080000", "115303.570000", "115305.060000", "115306.550000", "115308.040000", "115309.530000", "115311.020000", "115312.510000", "115314.000000", "115315.490000", "115316.980000", "115318.470000", "115319.960000", "115321.450000", "115322.940000", "115324.430000", "115325.920000", "115327.410000", "115328.900000", "115330.390000", "115331.880000", "115333.370000", "115334.860000", "115336.350000", "115337.840000", "115339.330000", "115340.820000", "115342.310000", "115343.800000", "115345.290000", "115346.780000", "115348.270000", "115349.760000", "115351.250000", "115352.740000", "115354.230000", "115355.720000", "115357.210000", "115358.700000", "115400.190000", "115401.680000", "115403.170000", "115404.660000", "115406.150000", "115407.640000", "115409.130000", "115410.620000", "115412.110000", "115413.600000", "115415.090000", "115416.580000", "115418.070000", "115419.560000", "115421.050000", "115422.540000", "115424.030000", "115425.520000", "115427.010000", "115428.500000", "115429.990000", "115431.480000", "115432.970000", "115434.460000", "115435.950000", "115437.440000", "115438.930000", "115440.420000", "115441.910000", "115443.400000", "115444.890000", "115446.380000", "115447.870000", "115449.360000", "115450.850000", "115452.340000", "115453.830000", "115455.320000", "115456.810000", "115458.300000", "115459.790000", "115501.280000", "115502.770000", "115504.260000", "115505.750000", "115507.240000", "115508.730000", "115510.220000", "115511.710000", "115513.200000", "115514.690000", "115516.180000", "115517.670000", "115519.160000", "115520.650000", "115522.140000", "115523.630000", "115525.120000", "115526.610000", "115528.100000", "115529.590000", "115531.080000", "115532.570000", "115534.060000", "115535.550000", "115537.040000", "115538.530000", "115540.020000", "115541.510000", "115543.000000", "115544.490000", "115545.980000", "115547.470000", "115548.960000", "115550.450000", "115551.940000", "115553.430000", "115554.920000", "115556.410000", "115557.900000", "115559.390000", "115600.880000", "115602.370000", "115603.860000", "115605.350000", "115606.840000", "115608.330000", "115609.820000", "115611.310000", "115612.800000", "115614.290000", "115615.780000", "115617.270000", "115618.760000", "115620.250000", "115621.740000", "115623.230000", "115624.720000", "115626.210000", "115627.700000", "115629.190000", "115630.680000", "115632.170000", "115633.660000", "115635.150000", "115636.640000", "115638.130000", "115639.620000", "115641.110000", "115642.600000", "115644.090000", "115645.580000", "115647.070000", "115648.560000", "115650.050000", "115651.540000", "115653.030000", "115654.520000", "115656.010000", "115657.500000", "115658.990000", "115700.480000", "115701.970000"],
      "ContentTime": ["114912.126000", "114912.129000", "114912.132000", "114912.134000", "114912.136000", "114912.143000", "114912.145000", "114912.148000", "114912.150000", "114912.153000", "114912.155000", "114912.158000", "114912.160000", "114912.163000", "114912.165000", "114912.168000", "114912.176000", "114912.179000", "114912.181000", "114912.184000", "114912.186000", "114912.188000", "114912.191000", "114912.193000", "114912.196000", "114932.044000", "114932.051000", "114932.053000", "114932.056000", "114932.058000", "114932.061000", "114932.063000", "114932.066000", "114932.068000", "114932.070000", "114932.073000", "114932.075000", "114932.078000", "114932.080000", "114932.083000", "114932.085000", "114932.088000", "114932.090000", "114932.092000", "114932.095000", "114952.031000", "114952.034000", "114952.036000", "114952.039000", "114952.041000", "114952.044000", "114952.046000", "114952.049000", "114952.051000", "114952.054000", "114952.056000", "114952.058000", "114952.061000", "114952.063000", "114952.066000", "114952.068000", "114952.071000", "114952.073000", "114952.076000", "114952.078000", "114952.081000", "115012.030000", "115012.033000", "115012.035000", "115012.038000", "115012.040000", "115012.043000", "115012.045000", "115012.048000", "115012.050000", "115012.053000", "115012.055000", "115012.057000", "115012.060000", "115012.062000", "115012.065000", "115012.067000", "115012.070000", "115012.072000", "115012.075000", "115012.077000", "115032.034000", "115032.037000", "115032.039000", "115032.042000", "115032.044000", "115032.047000", "115032.049000", "115032.052000", "115032.054000", "115032.057000", "115032.059000", "115032.061000", "115032.064000", "115032.066000", "115032.069000", "115032.071000", "115032.074000", "115112.065000", "115112.067000", "115112.070000", "115112.072000", "115112.075000", "115112.077000", "115112.080000", "115112.082000", "115112.085000", "115112.087000", "115112.096000", "115112.099000", "115112.101000", "115112.104000", "115112.106000", "115112.109000", "115112.111000", "115112.113000", "115112.116000", "115112.118000", "115112.121000", "115112.123000", "115112.126000", "115112.129000", "115112.131000", "115112.134000", "115112.136000", "115152.067000", "115152.070000", "115152.073000", "115152.075000", "115152.078000", "115152.080000", "115152.082000", "115152.085000", "115152.087000", "115152.090000", "115152.092000", "115152.095000", "115152.097000", "115152.099000", "115152.102000", "115152.104000", "115152.107000", "115152.109000", "115152.112000", "115152.114000", "115152.117000", "115152.119000", "115152.122000", "115152.124000", "115152.127000", "115152.129000", "115152.132000", "115232.064000", "115232.067000", "115232.069000", "115232.072000", "115232.074000", "115232.076000", "115232.079000", "115232.081000", "115232.084000", "115232.086000", "115232.089000", "115232.091000", "115232.094000", "115232.096000", "115232.099000", "115232.101000", "115232.103000", "115232.106000", "115232.108000", "115232.111000", "115232.113000", "115232.116000", "115232.118000", "115232.121000", "115232.123000", "115232.126000", "115232.128000", "115312.060000", "115312.063000", "115312.065000", "115312.068000", "115312.070000", "115312.073000", "115312.075000", "115312.078000", "115312.080000", "115312.083000", "115312.085000", "115312.087000", "115312.090000", "115312.092000", "115312.095000", "115312.097000", "115312.100000", "115312.102000", "115312.105000", "115312.107000", "115312.110000", "115312.112000", "115312.114000", "115312.117000", "115312.119000", "115312.122000", "115312.124000", "115352.063000", "115352.066000", "115352.068000", "115352.071000", "115352.073000", "115352.076000", "115352.078000", "115352.081000", "115352.083000", "115352.085000", "115352.088000", "115352.090000", "115352.093000", "115352.095000", "115352.098000", "115352.100000", "115352.103000", "115352.105000", "115352.108000", "115352.110000", "115352.113000", "115352.115000", "115352.118000", "115352.120000", "115352.122000", "115352.125000", "115432.070000", "115432.073000", "115432.075000", "115432.078000", "115432.080000", "115432.083000", "115432.085000", "115432.088000", "115432.090000", "115432.093000", "115432.095000", "115432.098000", "115432.100000", "115432.103000", "115432.105000", "115432.108000", "115432.110000", "115432.113000", "115432.115000", "115432.118000", "115432.120000", "115432.122000", "115432.125000", "115432.133000", "115432.136000", "115432.138000", "115432.141000", "115512.061000", "115512.064000", "115512.066000", "115512.069000", "115512.071000", "115512.074000", "115512.076000", "115512.078000", "115512.081000", "115512.083000", "115512.086000", "115512.088000", "115512.091000", "115512.094000", "115512.096000", "115512.099000", "115512.101000", "115512.104000", "115512.106000", "115512.109000", "115512.112000", "115512.114000", "115512.117000", "115512.119000", "115512.122000", "115512.124000", "115512.127000", "115552.508000", "115552.511000", "115552.514000", "115552.516000", "115552.519000", "115552.521000", "115552.524000", "115552.526000", "115552.528000", "115552.531000", "115552.533000", "115552.536000", "115552.538000", "115552.541000", "115552.543000", "115552.546000", "115552.548000", "115552.551000", "115552.553000", "115552.555000", "115552.558000", "115552.561000", "115552.563000", "115552.566000", "115552.568000", "115552.570000", "115552.573000", "115632.055000", "115632.058000", "115632.060000", "115632.063000", "115632.065000", "115632.068000", "115632.070000", "115632.073000", "115632.075000", "115632.077000", "115632.080000", "115632.082000", "115632.085000", "115632.087000", "115632.090000", "115632.092000", "115632.095000", "115632.097000", "115632.100000", "115632.102000", "115632.105000", "115632.107000", "115632.110000", "115632.112000", "115632.115000", "115632.117000", "115632.121000", "115704.539000", "115704.542000", "115704.544000", "115704.547000", "115704.549000", "115704.552000", "115704.554000", "115704.557000", "115704.559000", "115704.562000", "115704.564000", "115704.567000", "115704.569000", "115704.572000", "115704.574000", "115704.577000", "115704.579000", "115704.582000", "115704.584000", "115704.587000", "115704.589000", "115704.592000"],
      "InstanceCreationTime": ["114912.126000", "114912.129000", "114912.132000", "114912.134000", "114912.136000", "114912.143000", "114912.145000", "114912.148000", "114912.150000", "114912.153000", "114912.155000", "114912.158000", "114912.160000", "114912.163000", "114912.165000", "114912.168000", "114912.176000", "114912.179000", "114912.181000", "114912.184000", "114912.186000", "114912.188000", "114912.191000", "114912.193000", "114912.196000", "114932.044000", "114932.051000", "114932.053000", "114932.056000", "114932.058000", "114932.061000", "114932.063000", "114932.066000", "114932.068000", "114932.070000", "114932.073000", "114932.075000", "114932.078000", "114932.080000", "114932.083000", "114932.085000", "114932.088000", "114932.090000", "114932.092000", "114932.095000", "114952.031000", "114952.034000", "114952.036000", "114952.039000", "114952.041000", "114952.044000", "114952.046000", "114952.049000", "114952.051000", "114952.054000", "114952.056000", "114952.058000", "114952.061000", "114952.063000", "114952.066000", "114952.068000", "114952.071000", "114952.073000", "114952.076000", "114952.078000", "114952.081000", "115012.030000", "115012.033000", "115012.035000", "115012.038000", "115012.040000", "115012.043000", "115012.045000", "115012.048000", "115012.050000", "115012.053000", "115012.055000", "115012.057000", "115012.060000", "115012.062000", "115012.065000", "115012.067000", "115012.070000", "115012.072000", "115012.075000", "115012.077000", "115032.034000", "115032.037000", "115032.039000", "115032.042000", "115032.044000", "115032.047000", "115032.049000", "115032.052000", "115032.054000", "115032.057000", "115032.059000", "115032.061000", "115032.064000", "115032.066000", "115032.069000", "115032.071000", "115032.074000", "115112.065000", "115112.067000", "115112.070000", "115112.072000", "115112.075000", "115112.077000", "115112.080000", "115112.082000", "115112.085000", "115112.087000", "115112.096000", "115112.099000", "115112.101000", "115112.104000", "115112.106000", "115112.109000", "115112.111000", "115112.113000", "115112.116000", "115112.118000", "115112.121000", "115112.123000", "115112.126000", "115112.129000", "115112.131000", "115112.134000", "115112.136000", "115152.067000", "115152.070000", "115152.073000", "115152.075000", "115152.078000", "115152.080000", "115152.082000", "115152.085000", "115152.087000", "115152.090000", "115152.092000", "115152.095000", "115152.097000", "115152.099000", "115152.102000", "115152.104000", "115152.107000", "115152.109000", "115152.112000", "115152.114000", "115152.117000", "115152.119000", "115152.122000", "115152.124000", "115152.127000", "115152.129000", "115152.132000", "115232.064000", "115232.067000", "115232.069000", "115232.072000", "115232.074000", "115232.076000", "115232.079000", "115232.081000", "115232.084000", "115232.086000", "115232.089000", "115232.091000", "115232.094000", "115232.096000", "115232.099000", "115232.101000", "115232.103000", "115232.106000", "115232.108000", "115232.111000", "115232.113000", "115232.116000", "115232.118000", "115232.121000", "115232.123000", "115232.126000", "115232.128000", "115312.060000", "115312.063000", "115312.065000", "115312.068000", "115312.070000", "115312.073000", "115312.075000", "115312.078000", "115312.080000", "115312.083000", "115312.085000", "115312.087000", "115312.090000", "115312.092000", "115312.095000", "115312.097000", "115312.100000", "115312.102000", "115312.105000", "115312.107000", "115312.110000", "115312.112000", "115312.114000", "115312.117000", "115312.119000", "115312.122000", "115312.124000", "115352.063000", "115352.066000", "115352.068000", "115352.071000", "115352.073000", "115352.076000", "115352.078000", "115352.081000", "115352.083000", "115352.085000", "115352.088000", "115352.090000", "115352.093000", "115352.095000", "115352.098000", "115352.100000", "115352.103000", "115352.105000", "115352.108000", "115352.110000", "115352.113000", "115352.115000", "115352.118000", "115352.120000", "115352.122000", "115352.125000", "115432.070000", "115432.073000", "115432.075000", "115432.078000", "115432.080000", "115432.083000", "115432.085000", "115432.088000", "115432.090000", "115432.093000", "115432.095000", "115432.098000", "115432.100000", "115432.103000", "115432.105000", "115432.108000", "115432.110000", "115432.113000", "115432.115000", "115432.118000", "115432.120000", "115432.122000", "115432.125000", "115432.133000", "115432.136000", "115432.138000", "115432.141000", "115512.061000", "115512.064000", "115512.066000", "115512.069000", "115512.071000", "115512.074000", "115512.076000", "115512.078000", "115512.081000", "115512.083000", "115512.086000", "115512.088000", "115512.091000", "115512.094000", "115512.096000", "115512.099000", "115512.101000", "115512.104000", "115512.106000", "115512.109000", "115512.112000", "115512.114000", "115512.117000", "115512.119000", "115512.122000", "115512.124000", "115512.127000", "115552.508000", "115552.511000", "115552.514000", "115552.516000", "115552.519000", "115552.521000", "115552.524000", "115552.526000", "115552.528000", "115552.531000", "115552.533000", "115552.536000", "115552.538000", "115552.541000", "115552.543000", "115552.546000", "115552.548000", "115552.551000", "115552.553000", "115552.555000", "115552.558000", "115552.561000", "115552.563000", "115552.566000", "115552.568000", "115552.570000", "115552.573000", "115632.055000", "115632.058000", "115632.060000", "115632.063000", "115632.065000", "115632.068000", "115632.070000", "115632.073000", "115632.075000", "115632.077000", "115632.080000", "115632.082000", "115632.085000", "115632.087000", "115632.090000", "115632.092000", "115632.095000", "115632.097000", "115632.100000", "115632.102000", "115632.105000", "115632.107000", "115632.110000", "115632.112000", "115632.115000", "115632.117000", "115632.121000", "115704.539000", "115704.542000", "115704.544000", "115704.547000", "115704.549000", "115704.552000", "115704.554000", "115704.557000", "115704.559000", "115704.562000", "115704.564000", "115704.567000", "115704.569000", "115704.572000", "115704.574000", "115704.577000", "115704.579000", "115704.582000", "115704.584000", "115704.587000", "115704.589000", "115704.592000"],
      "InstanceNumber": [1, 2, 3, 4, 5, 6, 7, 8, 9, 10, 11, 12, 13, 14, 15, 16, 17, 18, 19, 20, 21, 22, 23, 24, 25, 26, 27, 28, 29, 30, 31, 32, 33, 34, 35, 36, 37, 38, 39, 40, 41, 42, 43, 44, 45, 46, 47, 48, 49, 50, 51, 52, 53, 54, 55, 56, 57, 58, 59, 60, 61, 62, 63, 64, 65, 66, 67, 68, 69, 70, 71, 72, 73, 74, 75, 76, 77, 78, 79, 80, 81, 82, 83, 84, 85, 86, 87, 88, 89, 90, 91, 92, 93, 94, 95, 96, 97, 98, 99, 100, 101, 102, 103, 104, 105, 106, 107, 108, 109, 110, 111, 112, 113, 114, 115, 116, 117, 118, 119, 120, 121, 122, 123, 124, 125, 126, 127, 128, 129, 130, 131, 132, 133, 134, 135, 136, 137, 138, 139, 140, 141, 142, 143, 144, 145, 146, 147, 148, 149, 150, 151, 152, 153, 154, 155, 156, 157, 158, 159, 160, 161, 162, 163, 164, 165, 166, 167, 168, 169, 170, 171, 172, 173, 174, 175, 176, 177, 178, 179, 180, 181, 182, 183, 184, 185, 186, 187, 188, 189, 190, 191, 192, 193, 194, 195, 196, 197, 198, 199, 200, 201, 202, 203, 204, 205, 206, 207, 208, 209, 210, 211, 212, 213, 214, 215, 216, 217, 218, 219, 220, 221, 222, 223, 224, 225, 226, 227, 228, 229, 230, 231, 232, 233, 234, 235, 236, 237, 238, 239, 240, 241, 242, 243, 244, 245, 246, 247, 248, 249, 250, 251, 252, 253, 254, 255, 256, 257, 258, 259, 260, 261, 262, 263, 264, 265, 266, 267, 268, 269, 270, 271, 272, 273, 274, 275, 276, 277, 278, 279, 280, 281, 282, 283, 284, 285, 286, 287, 288, 289, 290, 291, 292, 293, 294, 295, 296, 297, 298, 299, 300, 301, 302, 303, 304, 305, 306, 307, 308, 309, 310, 311, 312, 313, 314, 315, 316, 317, 318, 319, 320, 321, 322, 323, 324, 325, 326, 327, 328, 329, 330, 331, 332, 333, 334, 335, 336, 337, 338, 339, 340, 341, 342, 343, 344, 345, 346, 347, 348, 349, 350, 351, 352, 353, 354, 355, 356, 357, 358, 359, 360, 361, 362, 363, 364, 365, 366, 367],
