{
  "AcquisitionMatrixPE": 104,
  "AcquisitionNumber": 1,
  "AcquisitionTime": "11:38:58.212500",
  "BandwidthPerPixelPhaseEncode": 17.17,
  "BaseResolution": 104,
  "BodyPartExamined": "BRAIN",
  "CoilCombinationMethod": "Sum of Squares",
  "ConsistencyInfo": "N4_VE11C_LATEST_20160120",
  "ConversionSoftware": "dcm2niix",
  "ConversionSoftwareVersion": "v1.0.20220505",
  "DerivedVendorReportedEchoSpacing": 0.000560011,
  "DeviceSerialNumber": "167006",
  "DwellTime": 2.1e-06,
  "EchoTime": 0.037,
  "EchoTime1": 0.037,
  "EchoTime2": 0.001,
  "EchoTrainLength": 104,
  "EffectiveEchoSpacing": 0.000560011,
  "FlipAngle": 52,
  "HeudiconvVersion": "0.5.3.post811+g6206e14",
  "ImageComments": "Unaliased MB4/PE3/LB",
  "ImageOrientationPatientDICOM": [0.999254, -0.00157163, 0.0385826, 0.0228508, 0.82951, -0.558025],
  "ImageOrientationText": "Tra>Cor(-34.0)>Sag(1.8)",
  "ImageType": [
    "ORIGINAL",
    "PRIMARY",
    "P",
    "MB",
    "ND",
    "MOSAIC",
    "PHASE"
],
  "ImagingFrequency": 123.259,
  "InPlanePhaseEncodingDirectionDICOM": "COL",
  "InstitutionAddress": "Chemin Queen-Mary 4565,Montreal,District,CA,H3W 1W5",
  "InstitutionName": "IUGM",
  "InstitutionalDepartmentName": "Department",
  "MRAcquisitionType": "2D",
  "MagneticFieldStrength": 3,
  "Manufacturer": "Siemens",
  "ManufacturersModelName": "Prisma_fit",
  "MatrixCoilMode": "SENSE",
  "Modality": "MR",
  "MultibandAccelerationFactor": 4,
  "PartialFourier": 1,
  "PatientPosition": "HFS",
  "PercentPhaseFOV": 100,
  "PercentSampling": 100,
  "PhaseEncodingDirection": "j",
  "PhaseEncodingSteps": 104,
  "PhaseResolution": 1,
  "PixelBandwidth": 2290,
  "ProcedureStepDescription": "games^mario3",
  "ProtocolName": "func_task-mario3_run-02",
  "PulseSequenceDetails": "%CustomerSeq%\\cmrr_mbep2d_bold",
  "ReceiveCoilActiveElements": "HC1-7;NC1,2",
  "ReceiveCoilName": "HeadNeck_64",
  "ReconMatrixPE": 104,
  "RepetitionTime": 1.49,
  "SAR": 0.0808656,
  "ScanOptions": "FS",
  "ScanningSequence": "EP",
  "SequenceName": "epfid2d1_104",
  "SequenceVariant": "SK\\SS",
  "SeriesDescription": "func_task-mario3_run-02",
  "SeriesNumber": 14,
  "ShimSetting": [623, -7169, -8876, 227, 39, -246, -50, 34],
  "SliceThickness": 2,
  "SliceTiming": [0, 0.7825, 0.0975, 0.88, 0.195, 0.98, 0.2925, 1.0775, 0.39, 1.175, 0.49, 1.2725, 0.5875, 1.37, 0.685, 0, 0.7825, 0.0975, 0.88, 0.195, 0.98, 0.2925, 1.0775, 0.39, 1.175, 0.49, 1.2725, 0.5875, 1.37, 0.685, 0, 0.7825, 0.0975, 0.88, 0.195, 0.98, 0.2925, 1.0775, 0.39, 1.175, 0.49, 1.2725, 0.5875, 1.37, 0.685, 0, 0.7825, 0.0975, 0.88, 0.195, 0.98, 0.2925, 1.0775, 0.39, 1.175, 0.49, 1.2725, 0.5875, 1.37, 0.685],
  "SoftwareVersions": "syngo MR E11",
  "SpacingBetweenSlices": 2,
  "StationName": "MRC35049",
  "TaskName": "mario3",
  "TotalReadoutTime": 0.0576811,
  "TxRefAmp": 330.264,
  "WipMemBlock": "3e270137-6b3b-4254-b314-d093a833ddba||Sequence: R017 ve11c/master r/75a17815+; Jun 28 2022 16:32:11 by eja",
  "dcmmeta_affine": [
    [-1.998508334159851, 0.045701541006565094, 0.06225527077913284, 103.65025329589844],
    [0.0031432537361979485, 1.6590192317962646, -1.1169804334640503, -46.377525329589844],
    [0.07716520875692368, 1.1160495281219482, 1.6578538417816162, -105.1323471069336],
    [0.0, 0.0, 0.0, 1.0]
],
  "dcmmeta_reorient_transform": [
    [0.0, -1.0, 0.0, 103.0],
    [1.0, 0.0, 0.0, 0.0],
    [0.0, 0.0, 1.0, 0.0],
    [0.0, 0.0, 0.0, 1.0]
],
  "dcmmeta_shape": [104, 104, 60, 320],
  "dcmmeta_slice_dim": 2,
  "dcmmeta_version": 0.6,
  "global": {
    "const": {
      "AcquisitionMatrix": [104, 0, 0, 104],
      "AngioFlag": "N",
      "BitsAllocated": 16,
      "BitsStored": 16,
      "BodyPartExamined": "BRAIN",
      "Columns": 832,
      "EchoNumbers": 1,
      "EchoTime": 37.0,
      "EchoTrainLength": 104,
      "FlipAngle": 52.0,
      "HighBit": 15,
      "ImageOrientationPatient": [0.99925417818172, -0.0015716269099, 0.0385826045678, 0.02285077018806, 0.82950963263627, -0.5580247410872],
      "ImagePositionPatient": [-852.44991675412, -727.24032530536, 387.97462467399],
      "ImageType": [
        "ORIGINAL",
        "PRIMARY",
        "P",
        "MB",
        "ND",
        "MOSAIC"
],
      "ImagedNucleus": "1H",
      "ImagingFrequency": 123.258798,
      "InPlanePhaseEncodingDirection": "COL",
      "LargestImagePixelValue": 4095,
      "MRAcquisitionType": "2D",
      "MagneticFieldStrength": 3.0,
      "Manufacturer": "SIEMENS",
      "ManufacturerModelName": "Prisma_fit",
      "Modality": "MR",
      "NumberOfAverages": 1.0,
      "NumberOfPhaseEncodingSteps": 104,
      "PercentPhaseFieldOfView": 100.0,
      "PercentSampling": 100.0,
      "PerformedProcedureStepStartTime": "112226.303000",
      "PhotometricInterpretation": "MONOCHROME2",
      "PixelBandwidth": 2290.0,
      "PixelRepresentation": 0,
      "PixelSpacing": [2.0, 2.0],
      "ProtocolName": "func_task-mario3_run-02",
      "RepetitionTime": 1490.0,
      "RescaleIntercept": -4096.0,
      "RescaleSlope": 2.0,
      "RescaleType": "US",
      "Rows": 832,
      "SAR": 0.08086560306112,
      "SamplesPerPixel": 1,
      "ScanOptions": "FS",
      "ScanningSequence": "EP",
      "SequenceName": "epfid2d1_104",
      "SequenceVariant": [
        "SK",
        "SS"
],
      "SeriesDescription": "func_task-mario3_run-02",
      "SeriesNumber": 14,
      "SeriesTime": "114023.926000",
      "SliceLocation": -58.019246972869,
      "SliceThickness": 2.0,
      "SmallestImagePixelValue": 0,
      "SoftwareVersions": "syngo MR E11",
      "SpacingBetweenSlices": 2.0000000339149,
      "SpecificCharacterSet": "ISO_IR 100",
      "StudyID": "1",
      "StudyTime": "112226.210000",
      "TransmitCoilName": "Body",
      "VariableFlipAngleFlag": "N",
      "WindowCenterWidthExplanation": "Algo1",
      "dBdt": 0.0},
    "slices": {}
  },
  "time": {
    "samples": {
      "AcquisitionNumber": [1, 2, 3, 4, 5, 6, 7, 8, 9, 10, 11, 12, 13, 14, 15, 16, 17, 18, 19, 20, 21, 22, 23, 24, 25, 26, 27, 28, 29, 30, 31, 32, 33, 34, 35, 36, 37, 38, 39, 40, 41, 42, 43, 44, 45, 46, 47, 48, 49, 50, 51, 52, 53, 54, 55, 56, 57, 58, 59, 60, 61, 62, 63, 64, 65, 66, 67, 68, 69, 70, 71, 72, 73, 74, 75, 76, 77, 78, 79, 80, 81, 82, 83, 84, 85, 86, 87, 88, 89, 90, 91, 92, 93, 94, 95, 96, 97, 98, 99, 100, 101, 102, 103, 104, 105, 106, 107, 108, 109, 110, 111, 112, 113, 114, 115, 116, 117, 118, 119, 120, 121, 122, 123, 124, 125, 126, 127, 128, 129, 130, 131, 132, 133, 134, 135, 136, 137, 138, 139, 140, 141, 142, 143, 144, 145, 146, 147, 148, 149, 150, 151, 152, 153, 154, 155, 156, 157, 158, 159, 160, 161, 162, 163, 164, 165, 166, 167, 168, 169, 170, 171, 172, 173, 174, 175, 176, 177, 178, 179, 180, 181, 182, 183, 184, 185, 186, 187, 188, 189, 190, 191, 192, 193, 194, 195, 196, 197, 198, 199, 200, 201, 202, 203, 204, 205, 206, 207, 208, 209, 210, 211, 212, 213, 214, 215, 216, 217, 218, 219, 220, 221, 222, 223, 224, 225, 226, 227, 228, 229, 230, 231, 232, 233, 234, 235, 236, 237, 238, 239, 240, 241, 242, 243, 244, 245, 246, 247, 248, 249, 250, 251, 252, 253, 254, 255, 256, 257, 258, 259, 260, 261, 262, 263, 264, 265, 266, 267, 268, 269, 270, 271, 272, 273, 274, 275, 276, 277, 278, 279, 280, 281, 282, 283, 284, 285, 286, 287, 288, 289, 290, 291, 292, 293, 294, 295, 296, 297, 298, 299, 300, 301, 302, 303, 304, 305, 306, 307, 308, 309, 310, 311, 312, 313, 314, 315, 316, 317, 318, 319, 320],
      "AcquisitionTime": ["113858.212500", "113859.702500", "113901.192500", "113902.682500", "113904.172500", "113905.662500", "113907.152500", "113908.642500", "113910.132500", "113911.622500", "113913.112500", "113914.602500", "113916.092500", "113917.582500", "113919.072500", "113920.562500", "113922.052500", "113923.542500", "113925.032500", "113926.522500", "113928.012500", "113929.502500", "113930.992500", "113932.482500", "113933.972500", "113935.462500", "113936.952500", "113938.442500", "113939.932500", "113941.422500", "113942.912500", "113944.402500", "113945.892500", "113947.382500", "113948.872500", "113950.362500", "113951.852500", "113953.342500", "113954.832500", "113956.322500", "113957.812500", "113959.302500", "114000.792500", "114002.282500", "114003.772500", "114005.262500", "114006.752500", "114008.242500", "114009.732500", "114011.222500", "114012.712500", "114014.202500", "114015.692500", "114017.182500", "114018.672500", "114020.162500", "114021.652500", "114023.142500", "114024.632500", "114026.122500", "114027.612500", "114029.102500", "114030.592500", "114032.082500", "114033.572500", "114035.062500", "114036.552500", "114038.042500", "114039.532500", "114041.022500", "114042.512500", "114044.002500", "114045.492500", "114046.982500", "114048.472500", "114049.962500", "114051.452500", "114052.942500", "114054.432500", "114055.922500", "114057.412500", "114058.902500", "114100.392500", "114101.882500", "114103.372500", "114104.862500", "114106.352500", "114107.842500", "114109.332500", "114110.822500", "114112.312500", "114113.802500", "114115.292500", "114116.782500", "114118.272500", "114119.762500", "114121.252500", "114122.742500", "114124.232500", "114125.722500", "114127.212500", "114128.702500", "114130.192500", "114131.682500", "114133.172500", "114134.662500", "114136.152500", "114137.642500", "114139.132500", "114140.622500", "114142.112500", "114143.602500", "114145.092500", "114146.582500", "114148.072500", "114149.562500", "114151.052500", "114152.542500", "114154.032500", "114155.522500", "114157.012500", "114158.502500", "114159.992500", "114201.482500", "114202.972500", "114204.462500", "114205.952500", "114207.442500", "114208.932500", "114210.422500", "114211.912500", "114213.402500", "114214.892500", "114216.382500", "114217.872500", "114219.362500", "114220.852500", "114222.342500", "114223.832500", "114225.322500", "114226.812500", "114228.302500", "114229.792500", "114231.282500", "114232.772500", "114234.262500", "114235.752500", "114237.242500", "114238.732500", "114240.222500", "114241.712500", "114243.202500", "114244.692500", "114246.182500", "114247.672500", "114249.162500", "114250.652500", "114252.142500", "114253.632500", "114255.122500", "114256.612500", "114258.102500", "114259.592500", "114301.082500", "114302.572500", "114304.062500", "114305.552500", "114307.042500", "114308.532500", "114310.022500", "114311.512500", "114313.002500", "114314.492500", "114315.982500", "114317.472500", "114318.962500", "114320.452500", "114321.942500", "114323.432500", "114324.922500", "114326.412500", "114327.902500", "114329.392500", "114330.882500", "114332.372500", "114333.862500", "114335.352500", "114336.842500", "114338.332500", "114339.822500", "114341.312500", "114342.802500", "114344.292500", "114345.782500", "114347.272500", "114348.762500", "114350.252500", "114351.742500", "114353.232500", "114354.722500", "114356.212500", "114357.702500", "114359.192500", "114400.682500", "114402.172500", "114403.662500", "114405.152500", "114406.642500", "114408.132500", "114409.622500", "114411.112500", "114412.602500", "114414.092500", "114415.582500", "114417.072500", "114418.562500", "114420.052500", "114421.542500", "114423.032500", "114424.522500", "114426.012500", "114427.502500", "114428.992500", "114430.482500", "114431.972500", "114433.462500", "114434.952500", "114436.442500", "114437.932500", "114439.422500", "114440.912500", "114442.402500", "114443.892500", "114445.382500", "114446.872500", "114448.362500", "114449.852500", "114451.342500", "114452.832500", "114454.322500", "114455.812500", "114457.302500", "114458.792500", "114500.282500", "114501.772500", "114503.262500", "114504.752500", "114506.242500", "114507.732500", "114509.222500", "114510.712500", "114512.202500", "114513.692500", "114515.182500", "114516.672500", "114518.162500", "114519.652500", "114521.142500", "114522.632500", "114524.122500", "114525.612500", "114527.102500", "114528.592500", "114530.082500", "114531.572500", "114533.062500", "114534.552500", "114536.042500", "114537.532500", "114539.022500", "114540.512500", "114542.002500", "114543.492500", "114544.982500", "114546.472500", "114547.962500", "114549.452500", "114550.942500", "114552.432500", "114553.922500", "114555.412500", "114556.902500", "114558.392500", "114559.882500", "114601.372500", "114602.862500", "114604.352500", "114605.842500", "114607.332500", "114608.822500", "114610.312500", "114611.802500", "114613.292500", "114614.782500", "114616.272500", "114617.762500", "114619.252500", "114620.742500", "114622.232500", "114623.722500", "114625.212500", "114626.702500", "114628.192500", "114629.682500", "114631.172500", "114632.662500", "114634.152500", "114635.642500", "114637.132500", "114638.622500", "114640.112500", "114641.602500", "114643.092500", "114644.582500", "114646.072500", "114647.562500", "114649.052500", "114650.542500", "114652.032500", "114653.522500"],
      "ContentTime": ["114023.928000", "114023.930000", "114023.933000", "114023.935000", "114023.938000", "114023.940000", "114023.943000", "114023.945000", "114023.947000", "114023.950000", "114023.952000", "114023.955000", "114023.957000", "114023.960000", "114023.962000", "114023.965000", "114023.967000", "114023.976000", "114023.979000", "114023.981000", "114023.984000", "114023.986000", "114023.988000", "114023.991000", "114023.994000", "114023.996000", "114024.000000", "114024.002000", "114024.004000", "114024.007000", "114024.009000", "114024.012000", "114024.014000", "114024.016000", "114024.019000", "114024.021000", "114024.024000", "114043.833000", "114043.836000", "114043.838000", "114043.841000", "114043.843000", "114043.846000", "114043.848000", "114043.851000", "114043.853000", "114043.865000", "114043.867000", "114043.870000", "114043.872000", "114043.874000", "114043.877000", "114043.879000", "114043.882000", "114043.884000", "114043.887000", "114043.889000", "114103.851000", "114103.853000", "114103.856000", "114103.858000", "114103.861000", "114103.863000", "114103.865000", "114103.868000", "114103.870000", "114103.873000", "114103.875000", "114103.878000", "114103.880000", "114103.883000", "114103.885000", "114103.888000", "114103.890000", "114103.892000", "114103.895000", "114103.897000", "114123.815000", "114123.818000", "114123.820000", "114123.823000", "114123.825000", "114123.828000", "114123.830000", "114123.832000", "114123.835000", "114123.837000", "114123.840000", "114123.842000", "114123.845000", "114123.847000", "114123.850000", "114123.852000", "114123.855000", "114123.857000", "114123.859000", "114123.862000", "114203.851000", "114203.854000", "114203.856000", "114203.859000", "114203.861000", "114203.864000", "114203.866000", "114203.869000", "114203.871000", "114203.874000", "114203.876000", "114203.878000", "114203.881000", "114203.883000", "114203.886000", "114203.888000", "114203.891000", "114203.893000", "114203.896000", "114203.898000", "114203.900000", "114203.903000", "114203.905000", "114203.908000", "114203.910000", "114203.913000", "114203.915000", "114243.870000", "114243.872000", "114243.875000", "114243.877000", "114243.880000", "114243.882000", "114243.885000", "114243.887000", "114243.890000", "114243.892000", "114243.895000", "114243.897000", "114243.900000", "114243.902000", "114243.904000", "114243.907000", "114243.909000", "114243.912000", "114243.914000", "114243.917000", "114243.919000", "114243.922000", "114243.924000", "114243.926000", "114243.929000", "114243.931000", "114323.855000", "114323.858000", "114323.861000", "114323.863000", "114323.866000", "114323.868000", "114323.871000", "114323.873000", "114323.875000", "114323.878000", "114323.880000", "114323.883000", "114323.885000", "114323.888000", "114323.890000", "114323.893000", "114323.895000", "114323.898000", "114323.900000", "114323.902000", "114323.905000", "114323.907000", "114323.910000", "114323.912000", "114323.915000", "114323.917000", "114323.920000", "114404.234000", "114404.237000", "114404.240000", "114404.242000", "114404.245000", "114404.247000", "114404.250000", "114404.252000", "114404.255000", "114404.257000", "114404.260000", "114404.262000", "114404.265000", "114404.267000", "114404.270000", "114404.272000", "114404.289000", "114404.291000", "114404.294000", "114404.297000", "114404.299000", "114404.302000", "114404.304000", "114404.307000", "114404.309000", "114404.312000", "114404.314000", "114443.842000", "114443.845000", "114443.848000", "114443.850000", "114443.853000", "114443.855000", "114443.858000", "114443.860000", "114443.862000", "114443.865000", "114443.867000", "114443.870000", "114443.872000", "114443.875000", "114443.877000", "114443.880000", "114443.882000", "114443.885000", "114443.887000", "114443.890000", "114443.892000", "114443.895000", "114443.897000", "114443.899000", "114443.902000", "114443.905000", "114443.907000", "114523.855000", "114523.857000", "114523.860000", "114523.862000", "114523.865000", "114523.867000", "114523.870000", "114523.872000", "114523.875000", "114523.877000", "114523.880000", "114523.882000", "114523.884000", "114523.887000", "114523.889000", "114523.892000", "114523.894000", "114523.897000", "114523.899000", "114523.902000", "114523.904000", "114523.906000", "114523.909000", "114523.911000", "114523.914000", "114523.916000", "114523.919000", "114603.851000", "114603.854000", "114603.856000", "114603.859000", "114603.861000", "114603.864000", "114603.866000", "114603.869000", "114603.872000", "114603.874000", "114603.877000", "114603.879000", "114603.881000", "114603.884000", "114603.886000", "114603.889000", "114603.891000", "114603.894000", "114603.896000", "114603.899000", "114603.901000", "114603.904000", "114603.906000", "114603.909000", "114603.911000", "114603.914000", "114603.916000", "114643.842000", "114643.845000", "114643.847000", "114643.850000", "114643.852000", "114643.855000", "114643.857000", "114643.860000", "114643.862000", "114643.865000", "114643.867000", "114643.870000", "114643.872000", "114643.874000", "114643.877000", "114643.879000", "114643.882000", "114643.884000", "114643.887000", "114643.889000", "114643.892000", "114643.894000", "114643.896000", "114643.899000", "114643.902000", "114643.904000", "114643.907000", "114656.403000", "114656.406000", "114656.408000", "114656.411000", "114656.413000", "114656.416000", "114656.418000", "114656.421000"],
      "InstanceCreationTime": ["114023.928000", "114023.930000", "114023.933000", "114023.935000", "114023.938000", "114023.940000", "114023.943000", "114023.945000", "114023.947000", "114023.950000", "114023.952000", "114023.955000", "114023.957000", "114023.960000", "114023.962000", "114023.965000", "114023.967000", "114023.976000", "114023.979000", "114023.981000", "114023.984000", "114023.986000", "114023.988000", "114023.991000", "114023.994000", "114023.996000", "114024.000000", "114024.002000", "114024.004000", "114024.007000", "114024.009000", "114024.012000", "114024.014000", "114024.016000", "114024.019000", "114024.021000", "114024.024000", "114043.833000", "114043.836000", "114043.838000", "114043.841000", "114043.843000", "114043.846000", "114043.848000", "114043.851000", "114043.853000", "114043.865000", "114043.867000", "114043.870000", "114043.872000", "114043.874000", "114043.877000", "114043.879000", "114043.882000", "114043.884000", "114043.887000", "114043.889000", "114103.851000", "114103.853000", "114103.856000", "114103.858000", "114103.861000", "114103.863000", "114103.865000", "114103.868000", "114103.870000", "114103.873000", "114103.875000", "114103.878000", "114103.880000", "114103.883000", "114103.885000", "114103.888000", "114103.890000", "114103.892000", "114103.895000", "114103.897000", "114123.815000", "114123.818000", "114123.820000", "114123.823000", "114123.825000", "114123.828000", "114123.830000", "114123.832000", "114123.835000", "114123.837000", "114123.840000", "114123.842000", "114123.845000", "114123.847000", "114123.850000", "114123.852000", "114123.855000", "114123.857000", "114123.859000", "114123.862000", "114203.851000", "114203.854000", "114203.856000", "114203.859000", "114203.861000", "114203.864000", "114203.866000", "114203.869000", "114203.871000", "114203.874000", "114203.876000", "114203.878000", "114203.881000", "114203.883000", "114203.886000", "114203.888000", "114203.891000", "114203.893000", "114203.896000", "114203.898000", "114203.900000", "114203.903000", "114203.905000", "114203.908000", "114203.910000", "114203.913000", "114203.915000", "114243.870000", "114243.872000", "114243.875000", "114243.877000", "114243.880000", "114243.882000", "114243.885000", "114243.887000", "114243.890000", "114243.892000", "114243.895000", "114243.897000", "114243.900000", "114243.902000", "114243.904000", "114243.907000", "114243.909000", "114243.912000", "114243.914000", "114243.917000", "114243.919000", "114243.922000", "114243.924000", "114243.926000", "114243.929000", "114243.931000", "114323.855000", "114323.858000", "114323.861000", "114323.863000", "114323.866000", "114323.868000", "114323.871000", "114323.873000", "114323.875000", "114323.878000", "114323.880000", "114323.883000", "114323.885000", "114323.888000", "114323.890000", "114323.893000", "114323.895000", "114323.898000", "114323.900000", "114323.902000", "114323.905000", "114323.907000", "114323.910000", "114323.912000", "114323.915000", "114323.917000", "114323.920000", "114404.234000", "114404.237000", "114404.240000", "114404.242000", "114404.245000", "114404.247000", "114404.250000", "114404.252000", "114404.255000", "114404.257000", "114404.260000", "114404.262000", "114404.265000", "114404.267000", "114404.270000", "114404.272000", "114404.289000", "114404.291000", "114404.294000", "114404.297000", "114404.299000", "114404.302000", "114404.304000", "114404.307000", "114404.309000", "114404.312000", "114404.314000", "114443.842000", "114443.845000", "114443.848000", "114443.850000", "114443.853000", "114443.855000", "114443.858000", "114443.860000", "114443.862000", "114443.865000", "114443.867000", "114443.870000", "114443.872000", "114443.875000", "114443.877000", "114443.880000", "114443.882000", "114443.885000", "114443.887000", "114443.890000", "114443.892000", "114443.895000", "114443.897000", "114443.899000", "114443.902000", "114443.905000", "114443.907000", "114523.855000", "114523.857000", "114523.860000", "114523.862000", "114523.865000", "114523.867000", "114523.870000", "114523.872000", "114523.875000", "114523.877000", "114523.880000", "114523.882000", "114523.884000", "114523.887000", "114523.889000", "114523.892000", "114523.894000", "114523.897000", "114523.899000", "114523.902000", "114523.904000", "114523.906000", "114523.909000", "114523.911000", "114523.914000", "114523.916000", "114523.919000", "114603.851000", "114603.854000", "114603.856000", "114603.859000", "114603.861000", "114603.864000", "114603.866000", "114603.869000", "114603.872000", "114603.874000", "114603.877000", "114603.879000", "114603.881000", "114603.884000", "114603.886000", "114603.889000", "114603.891000", "114603.894000", "114603.896000", "114603.899000", "114603.901000", "114603.904000", "114603.906000", "114603.909000", "114603.911000", "114603.914000", "114603.916000", "114643.842000", "114643.845000", "114643.847000", "114643.850000", "114643.852000", "114643.855000", "114643.857000", "114643.860000", "114643.862000", "114643.865000", "114643.867000", "114643.870000", "114643.872000", "114643.874000", "114643.877000", "114643.879000", "114643.882000", "114643.884000", "114643.887000", "114643.889000", "114643.892000", "114643.894000", "114643.896000", "114643.899000", "114643.902000", "114643.904000", "114643.907000", "114656.403000", "114656.406000", "114656.408000", "114656.411000", "114656.413000", "114656.416000", "114656.418000", "114656.421000"],
      "InstanceNumber": [1, 2, 3, 4, 5, 6, 7, 8, 9, 10, 11, 12, 13, 14, 15, 16, 17, 18, 19, 20, 21, 22, 23, 24, 25, 26, 27, 28, 29, 30, 31, 32, 33, 34, 35, 36, 37, 38, 39, 40, 41, 42, 43, 44, 45, 46, 47, 48, 49, 50, 51, 52, 53, 54, 55, 56, 57, 58, 59, 60, 61, 62, 63, 64, 65, 66, 67, 68, 69, 70, 71, 72, 73, 74, 75, 76, 77, 78, 79, 80, 81, 82, 83, 84, 85, 86, 87, 88, 89, 90, 91, 92, 93, 94, 95, 96, 97, 98, 99, 100, 101, 102, 103, 104, 105, 106, 107, 108, 109, 110, 111, 112, 113, 114, 115, 116, 117, 118, 119, 120, 121, 122, 123, 124, 125, 126, 127, 128, 129, 130, 131, 132, 133, 134, 135, 136, 137, 138, 139, 140, 141, 142, 143, 144, 145, 146, 147, 148, 149, 150, 151, 152, 153, 154, 155, 156, 157, 158, 159, 160, 161, 162, 163, 164, 165, 166, 167, 168, 169, 170, 171, 172, 173, 174, 175, 176, 177, 178, 179, 180, 181, 182, 183, 184, 185, 186, 187, 188, 189, 190, 191, 192, 193, 194, 195, 196, 197, 198, 199, 200, 201, 202, 203, 204, 205, 206, 207, 208, 209, 210, 211, 212, 213, 214, 215, 216, 217, 218, 219, 220, 221, 222, 223, 224, 225, 226, 227, 228, 229, 230, 231, 232, 233, 234, 235, 236, 237, 238, 239, 240, 241, 242, 243, 244, 245, 246, 247, 248, 249, 250, 251, 252, 253, 254, 255, 256, 257, 258, 259, 260, 261, 262, 263, 264, 265, 266, 267, 268, 269, 270, 271, 272, 273, 274, 275, 276, 277, 278, 279, 280, 281, 282, 283, 284, 285, 286, 287, 288, 289, 290, 291, 292, 293, 294, 295, 296, 297, 298, 299, 300, 301, 302, 303, 304, 305, 306, 307, 308, 309, 310, 311, 312, 313, 314, 315, 316, 317, 318, 319, 320],
      "WindowCenter": [4760.0, 4790.0, 4786.0, 4784.0, 4784.0, 4784.0, 4786.0, 4788.0, 4786.0, 4788.0, 4784.0, 4790.0, 4788.0, 4786.0, 4788.0, 4788.0, 4786.0, 4794.0, 4786.0, 4784.0, 4794.0, 4788.0, 4792.0, 4796.0, 4798.0, 4820.0, 4822.0, 4792.0, 4792.0, 4794.0, 4794.0, 4796.0, 4822.0, 4796.0, 4818.0, 4798.0, 4798.0, 4792.0, 4792.0, 4788.0, 4794.0, 4786.0, 4784.0, 4792.0, 4818.0, 4794.0, 4782.0, 4788.0, 4786.0, 4786.0, 4792.0, 4820.0, 4794.0, 4788.0, 4784.0, 4794.0, 4794.0, 4792.0, 4790.0, 4788.0, 4790.0, 4792.0, 4798.0, 4822.0, 4822.0, 4794.0, 4820.0, 4796.0, 4792.0, 4780.0, 4822.0, 4824.0, 4786.0, 4796.0, 4824.0, 4816.0, 4810.0, 4788.0, 4794.0, 4796.0, 4796.0, 4788.0, 4784.0, 4784.0, 4784.0, 4784.0, 4786.0, 4788.0, 4790.0, 4786.0, 4782.0, 4790.0, 4788.0, 4788.0, 4786.0, 4784.0, 4784.0, 4776.0, 4756.0, 4782.0, 4760.0, 4758.0, 4796.0, 4792.0, 4792.0, 4782.0, 4794.0, 4826.0, 4796.0, 4792.0, 4808.0, 4786.0, 4784.0, 4798.0, 4802.0, 4798.0, 4796.0, 4818.0, 4826.0, 4826.0, 4820.0, 4828.0, 4830.0, 4824.0, 4790.0, 4786.0, 4784.0, 4790.0, 4788.0, 4780.0, 4786.0, 4786.0, 4784.0, 4782.0, 4784.0, 4780.0, 4790.0, 4790.0, 4758.0, 4786.0, 4792.0, 4786.0, 4788.0, 4758.0, 4756.0, 4780.0, 4778.0, 4784.0, 4780.0, 4782.0, 4784.0, 4780.0, 4784.0, 4792.0, 4790.0, 4798.0, 4822.0, 4822.0, 4826.0, 4820.0, 4822.0, 4790.0, 4792.0, 4792.0, 4788.0, 4784.0, 4786.0, 4782.0, 4786.0, 4782.0, 4782.0, 4780.0, 4790.0, 4822.0, 4800.0, 4798.0, 4822.0, 4826.0, 4826.0, 4816.0, 4806.0, 4780.0, 4756.0, 4762.0, 4796.0, 4824.0, 4798.0, 4786.0, 4822.0, 4796.0, 4796.0, 4818.0, 4816.0, 4816.0, 4822.0, 4824.0, 4824.0, 4800.0, 4792.0, 4790.0, 4790.0, 4796.0, 4790.0, 4788.0, 4788.0, 4788.0, 4782.0, 4784.0, 4786.0, 4790.0, 4796.0, 4792.0, 4786.0, 4784.0, 4788.0, 4784.0, 4784.0, 4784.0, 4760.0, 4782.0, 4764.0, 4784.0, 4786.0, 4784.0, 4782.0, 4788.0, 4784.0, 4784.0, 4784.0, 4778.0, 4798.0, 4854.0, 4792.0, 4790.0, 4808.0, 4814.0, 4816.0, 4796.0, 4790.0, 4790.0, 4796.0, 4796.0, 4794.0, 4790.0, 4796.0, 4788.0, 4788.0, 4788.0, 4784.0, 4784.0, 4784.0, 4788.0, 4782.0, 4756.0, 4758.0, 4778.0, 4760.0, 4784.0, 4786.0, 4784.0, 4786.0, 4786.0, 4790.0, 4782.0, 4784.0, 4782.0, 4780.0, 4790.0, 4788.0, 4782.0, 4790.0, 4784.0, 4792.0, 4788.0, 4784.0, 4788.0, 4784.0, 4786.0, 4788.0, 4788.0, 4822.0, 4818.0, 4794.0, 4786.0, 4794.0, 4810.0, 4816.0, 4792.0, 4818.0, 4822.0, 4826.0, 4826.0, 4826.0, 4824.0, 4812.0, 4796.0, 4816.0, 4798.0, 4788.0, 4794.0, 4822.0, 4818.0, 4784.0, 4792.0, 4784.0, 4784.0, 4786.0, 4786.0, 4794.0, 4788.0, 4822.0, 4826.0, 4828.0, 4834.0, 4828.0, 4826.0, 4828.0, 4830.0, 4832.0, 4834.0],
