{
  "AcquisitionMatrixPE": 104,
  "AcquisitionNumber": 1,
  "AcquisitionTime": "11:30:33.765000",
  "BandwidthPerPixelPhaseEncode": 17.17,
  "BaseResolution": 104,
  "BodyPartExamined": "BRAIN",
  "CoilCombinationMethod": "Sum of Squares",
  "ConsistencyInfo": "N4_VE11C_LATEST_20160120",
  "ConversionSoftware": "dcm2niix",
  "ConversionSoftwareVersion": "v1.0.20220505",
  "DerivedVendorReportedEchoSpacing": 0.000560011,
  "DeviceSerialNumber": "167006",
  "DwellTime": 2.1e-06,
  "EchoTime": 0.037,
  "EchoTime1": 0.037,
  "EchoTime2": 0.001,
  "EchoTrainLength": 104,
  "EffectiveEchoSpacing": 0.000560011,
  "FlipAngle": 52,
  "HeudiconvVersion": "0.5.3.post811+g6206e14",
  "ImageComments": "Unaliased MB4/PE3/LB",
  "ImageOrientationPatientDICOM": [0.999254, -0.00157163, 0.0385826, 0.0228508, 0.82951, -0.558025],
  "ImageOrientationText": "Tra>Cor(-34.0)>Sag(1.8)",
  "ImageType": [
    "ORIGINAL",
    "PRIMARY",
    "P",
    "MB",
    "ND",
    "MOSAIC",
    "PHASE"
],
  "ImagingFrequency": 123.259,
  "InPlanePhaseEncodingDirectionDICOM": "COL",
  "InstitutionAddress": "Chemin Queen-Mary 4565,Montreal,District,CA,H3W 1W5",
  "InstitutionName": "IUGM",
  "InstitutionalDepartmentName": "Department",
  "MRAcquisitionType": "2D",
  "MagneticFieldStrength": 3,
  "Manufacturer": "Siemens",
  "ManufacturersModelName": "Prisma_fit",
  "MatrixCoilMode": "SENSE",
  "Modality": "MR",
  "MultibandAccelerationFactor": 4,
  "PartialFourier": 1,
  "PatientPosition": "HFS",
  "PercentPhaseFOV": 100,
  "PercentSampling": 100,
  "PhaseEncodingDirection": "j",
  "PhaseEncodingSteps": 104,
  "PhaseResolution": 1,
  "PixelBandwidth": 2290,
  "ProcedureStepDescription": "games^mario3",
  "ProtocolName": "func_task-mario3_run-01",
  "PulseSequenceDetails": "%CustomerSeq%\\cmrr_mbep2d_bold",
  "ReceiveCoilActiveElements": "HC1-7;NC1,2",
  "ReceiveCoilName": "HeadNeck_64",
  "ReconMatrixPE": 104,
  "RepetitionTime": 1.49,
  "SAR": 0.0808656,
  "ScanOptions": "FS",
  "ScanningSequence": "EP",
  "SequenceName": "epfid2d1_104",
  "SequenceVariant": "SK\\SS",
  "SeriesDescription": "func_task-mario3_run-01",
  "SeriesNumber": 11,
  "ShimSetting": [623, -7169, -8876, 227, 39, -246, -50, 34],
  "SliceThickness": 2,
  "SliceTiming": [0, 0.7825, 0.0975, 0.88, 0.195, 0.98, 0.2925, 1.0775, 0.39, 1.175, 0.49, 1.2725, 0.5875, 1.37, 0.685, 0, 0.7825, 0.0975, 0.88, 0.195, 0.98, 0.2925, 1.0775, 0.39, 1.175, 0.49, 1.2725, 0.5875, 1.37, 0.685, 0, 0.7825, 0.0975, 0.88, 0.195, 0.98, 0.2925, 1.0775, 0.39, 1.175, 0.49, 1.2725, 0.5875, 1.37, 0.685, 0, 0.7825, 0.0975, 0.88, 0.195, 0.98, 0.2925, 1.0775, 0.39, 1.175, 0.49, 1.2725, 0.5875, 1.37, 0.685],
  "SoftwareVersions": "syngo MR E11",
  "SpacingBetweenSlices": 2,
  "StationName": "MRC35049",
  "TaskName": "mario3",
  "TotalReadoutTime": 0.0576811,
  "TxRefAmp": 330.264,
  "WipMemBlock": "62999c95-adc1-401a-b31a-8f89fd6a3609||Sequence: R017 ve11c/master r/75a17815+; Jun 28 2022 16:32:11 by eja",
  "dcmmeta_affine": [
    [-1.998508334159851, 0.045701541006565094, 0.06225527077913284, 103.65025329589844],
    [0.0031432537361979485, 1.6590192317962646, -1.1169804334640503, -46.377525329589844],
    [0.07716520875692368, 1.1160495281219482, 1.6578538417816162, -105.1323471069336],
    [0.0, 0.0, 0.0, 1.0]
],
  "dcmmeta_reorient_transform": [
    [0.0, -1.0, 0.0, 103.0],
    [1.0, 0.0, 0.0, 0.0],
    [0.0, 0.0, 1.0, 0.0],
    [0.0, 0.0, 0.0, 1.0]
],
  "dcmmeta_shape": [104, 104, 60, 297],
  "dcmmeta_slice_dim": 2,
  "dcmmeta_version": 0.6,
  "global": {
    "const": {
      "AcquisitionMatrix": [104, 0, 0, 104],
      "AngioFlag": "N",
      "BitsAllocated": 16,
      "BitsStored": 16,
      "BodyPartExamined": "BRAIN",
      "Columns": 832,
      "EchoNumbers": 1,
      "EchoTime": 37.0,
      "EchoTrainLength": 104,
      "FlipAngle": 52.0,
      "HighBit": 15,
      "ImageOrientationPatient": [0.99925417818172, -0.0015716269099, 0.0385826045678, 0.02285077018806, 0.82950963263627, -0.5580247410872],
      "ImagePositionPatient": [-852.44991675412, -727.24032530536, 387.97462467399],
      "ImageType": [
        "ORIGINAL",
        "PRIMARY",
        "P",
        "MB",
        "ND",
        "MOSAIC"
],
      "ImagedNucleus": "1H",
      "ImagingFrequency": 123.25879,
      "InPlanePhaseEncodingDirection": "COL",
      "LargestImagePixelValue": 4095,
      "MRAcquisitionType": "2D",
      "MagneticFieldStrength": 3.0,
      "Manufacturer": "SIEMENS",
      "ManufacturerModelName": "Prisma_fit",
      "Modality": "MR",
      "NumberOfAverages": 1.0,
      "NumberOfPhaseEncodingSteps": 104,
      "PercentPhaseFieldOfView": 100.0,
      "PercentSampling": 100.0,
      "PerformedProcedureStepStartTime": "112226.303000",
      "PhotometricInterpretation": "MONOCHROME2",
      "PixelBandwidth": 2290.0,
      "PixelRepresentation": 0,
      "PixelSpacing": [2.0, 2.0],
      "ProtocolName": "func_task-mario3_run-01",
      "RepetitionTime": 1490.0,
      "RescaleIntercept": -4096.0,
      "RescaleSlope": 2.0,
      "RescaleType": "US",
      "Rows": 832,
      "SAR": 0.08086560306112,
      "SamplesPerPixel": 1,
      "ScanOptions": "FS",
      "ScanningSequence": "EP",
      "SequenceName": "epfid2d1_104",
      "SequenceVariant": [
        "SK",
        "SS"
],
      "SeriesDescription": "func_task-mario3_run-01",
      "SeriesNumber": 11,
      "SeriesTime": "113132.610000",
      "SliceLocation": -58.019246972869,
      "SliceThickness": 2.0,
      "SmallestImagePixelValue": 0,
      "SoftwareVersions": "syngo MR E11",
      "SpacingBetweenSlices": 2.0000000339149,
      "SpecificCharacterSet": "ISO_IR 100",
      "StudyID": "1",
      "StudyTime": "112226.210000",
      "TransmitCoilName": "Body",
      "VariableFlipAngleFlag": "N",
      "WindowCenterWidthExplanation": "Algo1",
      "dBdt": 0.0},
    "slices": {}
  },
  "time": {
    "samples": {
      "AcquisitionNumber": [1, 2, 3, 4, 5, 6, 7, 8, 9, 10, 11, 12, 13, 14, 15, 16, 17, 18, 19, 20, 21, 22, 23, 24, 25, 26, 27, 28, 29, 30, 31, 32, 33, 34, 35, 36, 37, 38, 39, 40, 41, 42, 43, 44, 45, 46, 47, 48, 49, 50, 51, 52, 53, 54, 55, 56, 57, 58, 59, 60, 61, 62, 63, 64, 65, 66, 67, 68, 69, 70, 71, 72, 73, 74, 75, 76, 77, 78, 79, 80, 81, 82, 83, 84, 85, 86, 87, 88, 89, 90, 91, 92, 93, 94, 95, 96, 97, 98, 99, 100, 101, 102, 103, 104, 105, 106, 107, 108, 109, 110, 111, 112, 113, 114, 115, 116, 117, 118, 119, 120, 121, 122, 123, 124, 125, 126, 127, 128, 129, 130, 131, 132, 133, 134, 135, 136, 137, 138, 139, 140, 141, 142, 143, 144, 145, 146, 147, 148, 149, 150, 151, 152, 153, 154, 155, 156, 157, 158, 159, 160, 161, 162, 163, 164, 165, 166, 167, 168, 169, 170, 171, 172, 173, 174, 175, 176, 177, 178, 179, 180, 181, 182, 183, 184, 185, 186, 187, 188, 189, 190, 191, 192, 193, 194, 195, 196, 197, 198, 199, 200, 201, 202, 203, 204, 205, 206, 207, 208, 209, 210, 211, 212, 213, 214, 215, 216, 217, 218, 219, 220, 221, 222, 223, 224, 225, 226, 227, 228, 229, 230, 231, 232, 233, 234, 235, 236, 237, 238, 239, 240, 241, 242, 243, 244, 245, 246, 247, 248, 249, 250, 251, 252, 253, 254, 255, 256, 257, 258, 259, 260, 261, 262, 263, 264, 265, 266, 267, 268, 269, 270, 271, 272, 273, 274, 275, 276, 277, 278, 279, 280, 281, 282, 283, 284, 285, 286, 287, 288, 289, 290, 291, 292, 293, 294, 295, 296, 297],
      "AcquisitionTime": ["113033.765000", "113035.255000", "113036.745000", "113038.235000", "113039.725000", "113041.215000", "113042.705000", "113044.195000", "113045.685000", "113047.175000", "113048.665000", "113050.155000", "113051.645000", "113053.135000", "113054.625000", "113056.115000", "113057.605000", "113059.095000", "113100.585000", "113102.075000", "113103.565000", "113105.055000", "113106.545000", "113108.035000", "113109.525000", "113111.015000", "113112.505000", "113113.995000", "113115.485000", "113116.975000", "113118.465000", "113119.955000", "113121.445000", "113122.935000", "113124.425000", "113125.915000", "113127.405000", "113128.895000", "113130.385000", "113131.875000", "113133.365000", "113134.855000", "113136.345000", "113137.835000", "113139.325000", "113140.815000", "113142.305000", "113143.795000", "113145.285000", "113146.775000", "113148.265000", "113149.755000", "113151.245000", "113152.735000", "113154.225000", "113155.715000", "113157.205000", "113158.695000", "113200.185000", "113201.675000", "113203.165000", "113204.655000", "113206.145000", "113207.635000", "113209.125000", "113210.615000", "113212.105000", "113213.595000", "113215.085000", "113216.575000", "113218.065000", "113219.555000", "113221.045000", "113222.535000", "113224.025000", "113225.515000", "113227.005000", "113228.495000", "113229.985000", "113231.475000", "113232.965000", "113234.455000", "113235.945000", "113237.435000", "113238.925000", "113240.415000", "113241.905000", "113243.395000", "113244.885000", "113246.375000", "113247.865000", "113249.355000", "113250.845000", "113252.335000", "113253.825000", "113255.315000", "113256.805000", "113258.295000", "113259.785000", "113301.275000", "113302.765000", "113304.255000", "113305.745000", "113307.235000", "113308.725000", "113310.215000", "113311.705000", "113313.195000", "113314.685000", "113316.175000", "113317.665000", "113319.155000", "113320.645000", "113322.135000", "113323.625000", "113325.115000", "113326.605000", "113328.095000", "113329.585000", "113331.075000", "113332.565000", "113334.055000", "113335.545000", "113337.035000", "113338.525000", "113340.015000", "113341.505000", "113342.995000", "113344.485000", "113345.975000", "113347.465000", "113348.955000", "113350.445000", "113351.935000", "113353.425000", "113354.915000", "113356.405000", "113357.895000", "113359.385000", "113400.875000", "113402.365000", "113403.855000", "113405.345000", "113406.835000", "113408.325000", "113409.815000", "113411.305000", "113412.795000", "113414.285000", "113415.775000", "113417.265000", "113418.755000", "113420.245000", "113421.735000", "113423.225000", "113424.715000", "113426.205000", "113427.695000", "113429.185000", "113430.675000", "113432.165000", "113433.655000", "113435.145000", "113436.635000", "113438.125000", "113439.615000", "113441.105000", "113442.595000", "113444.085000", "113445.575000", "113447.065000", "113448.555000", "113450.045000", "113451.535000", "113453.025000", "113454.515000", "113456.005000", "113457.495000", "113458.985000", "113500.475000", "113501.965000", "113503.455000", "113504.945000", "113506.435000", "113507.925000", "113509.415000", "113510.905000", "113512.395000", "113513.885000", "113515.375000", "113516.865000", "113518.355000", "113519.845000", "113521.335000", "113522.825000", "113524.315000", "113525.805000", "113527.295000", "113528.785000", "113530.275000", "113531.765000", "113533.255000", "113534.745000", "113536.235000", "113537.725000", "113539.215000", "113540.705000", "113542.195000", "113543.685000", "113545.175000", "113546.665000", "113548.155000", "113549.645000", "113551.135000", "113552.625000", "113554.115000", "113555.605000", "113557.095000", "113558.585000", "113600.075000", "113601.565000", "113603.055000", "113604.545000", "113606.035000", "113607.525000", "113609.015000", "113610.505000", "113611.995000", "113613.485000", "113614.975000", "113616.465000", "113617.955000", "113619.445000", "113620.935000", "113622.425000", "113623.915000", "113625.405000", "113626.895000", "113628.385000", "113629.875000", "113631.365000", "113632.855000", "113634.345000", "113635.835000", "113637.325000", "113638.815000", "113640.305000", "113641.795000", "113643.285000", "113644.775000", "113646.265000", "113647.755000", "113649.245000", "113650.735000", "113652.225000", "113653.715000", "113655.205000", "113656.695000", "113658.185000", "113659.675000", "113701.165000", "113702.655000", "113704.145000", "113705.635000", "113707.125000", "113708.615000", "113710.105000", "113711.595000", "113713.085000", "113714.575000", "113716.065000", "113717.555000", "113719.045000", "113720.535000", "113722.025000", "113723.515000", "113725.005000", "113726.495000", "113727.985000", "113729.475000", "113730.965000", "113732.455000", "113733.945000", "113735.435000", "113736.925000", "113738.415000", "113739.905000", "113741.395000", "113742.885000", "113744.375000", "113745.865000", "113747.355000", "113748.845000", "113750.335000", "113751.825000", "113753.315000", "113754.805000"],
      "ContentTime": ["113132.612000", "113132.615000", "113132.618000", "113132.620000", "113132.623000", "113132.625000", "113132.627000", "113152.633000", "113152.636000", "113152.638000", "113152.641000", "113152.643000", "113152.646000", "113152.648000", "113152.651000", "113152.653000", "113152.655000", "113152.658000", "113152.660000", "113152.663000", "113152.665000", "113152.668000", "113152.670000", "113152.672000", "113152.675000", "113152.677000", "113152.680000", "113213.083000", "113213.086000", "113213.088000", "113213.091000", "113213.093000", "113213.096000", "113213.098000", "113213.109000", "113213.111000", "113213.114000", "113213.116000", "113213.119000", "113213.121000", "113213.123000", "113213.126000", "113213.128000", "113213.131000", "113213.133000", "113213.135000", "113213.138000", "113232.619000", "113232.622000", "113232.624000", "113232.637000", "113232.640000", "113232.642000", "113232.645000", "113232.647000", "113232.650000", "113232.652000", "113232.654000", "113232.657000", "113232.659000", "113232.662000", "113232.664000", "113232.667000", "113232.669000", "113232.672000", "113232.674000", "113232.676000", "113252.607000", "113252.610000", "113252.613000", "113252.615000", "113252.622000", "113252.625000", "113252.627000", "113252.630000", "113252.633000", "113252.636000", "113252.639000", "113252.641000", "113252.644000", "113252.646000", "113252.649000", "113252.651000", "113252.654000", "113252.656000", "113252.659000", "113252.661000", "113332.666000", "113332.669000", "113332.671000", "113332.674000", "113332.676000", "113332.679000", "113332.682000", "113332.684000", "113332.687000", "113332.689000", "113332.692000", "113332.694000", "113332.696000", "113332.699000", "113332.701000", "113332.704000", "113332.706000", "113332.709000", "113332.711000", "113332.714000", "113332.716000", "113332.719000", "113332.721000", "113332.724000", "113332.726000", "113332.729000", "113332.731000", "113332.734000", "113332.736000", "113332.739000", "113332.741000", "113332.743000", "113412.639000", "113412.642000", "113412.644000", "113412.647000", "113412.649000", "113412.652000", "113412.654000", "113412.657000", "113412.659000", "113412.662000", "113412.664000", "113412.666000", "113412.669000", "113412.671000", "113412.674000", "113412.676000", "113412.679000", "113412.681000", "113412.684000", "113412.686000", "113412.689000", "113412.691000", "113412.694000", "113412.696000", "113412.698000", "113412.701000", "113412.703000", "113452.647000", "113452.650000", "113452.652000", "113452.655000", "113452.658000", "113452.660000", "113452.663000", "113452.665000", "113452.667000", "113452.670000", "113452.672000", "113452.675000", "113452.677000", "113452.680000", "113452.683000", "113452.685000", "113452.688000", "113452.690000", "113452.692000", "113452.695000", "113452.698000", "113452.700000", "113452.703000", "113452.705000", "113452.708000", "113452.710000", "113452.713000", "113532.644000", "113532.647000", "113532.649000", "113532.651000", "113532.654000", "113532.656000", "113532.659000", "113532.661000", "113532.664000", "113532.666000", "113532.669000", "113532.671000", "113532.674000", "113532.676000", "113532.679000", "113532.681000", "113532.684000", "113532.686000", "113532.688000", "113532.691000", "113532.693000", "113532.696000", "113532.698000", "113532.701000", "113532.703000", "113532.706000", "113532.713000", "113612.669000", "113612.672000", "113612.674000", "113612.676000", "113612.679000", "113612.681000", "113612.684000", "113612.687000", "113612.689000", "113612.692000", "113612.694000", "113612.696000", "113612.699000", "113612.701000", "113612.704000", "113612.706000", "113612.709000", "113612.711000", "113612.714000", "113612.716000", "113612.719000", "113612.721000", "113612.724000", "113612.731000", "113612.734000", "113612.736000", "113652.642000", "113652.645000", "113652.647000", "113652.650000", "113652.652000", "113652.655000", "113652.657000", "113652.659000", "113652.662000", "113652.664000", "113652.667000", "113652.669000", "113652.673000", "113652.675000", "113652.678000", "113652.680000", "113652.683000", "113652.685000", "113652.688000", "113652.690000", "113652.693000", "113652.695000", "113652.698000", "113652.700000", "113652.702000", "113652.705000", "113652.707000", "113732.639000", "113732.642000", "113732.645000", "113732.647000", "113732.649000", "113732.652000", "113732.654000", "113732.657000", "113732.659000", "113732.662000", "113732.664000", "113732.667000", "113732.669000", "113732.672000", "113732.674000", "113732.677000", "113732.679000", "113732.682000", "113732.684000", "113732.687000", "113732.689000", "113732.692000", "113732.694000", "113732.697000", "113732.699000", "113732.702000", "113732.704000", "113758.062000", "113758.065000", "113758.067000", "113758.070000", "113758.072000", "113758.075000", "113758.077000", "113758.079000", "113758.082000", "113758.084000", "113758.087000", "113758.089000", "113758.092000", "113758.094000", "113758.097000", "113758.099000", "113758.102000"],
      "InstanceCreationTime": ["113132.612000", "113132.615000", "113132.618000", "113132.620000", "113132.623000", "113132.625000", "113132.627000", "113152.633000", "113152.636000", "113152.638000", "113152.641000", "113152.643000", "113152.646000", "113152.648000", "113152.651000", "113152.653000", "113152.655000", "113152.658000", "113152.660000", "113152.663000", "113152.665000", "113152.668000", "113152.670000", "113152.672000", "113152.675000", "113152.677000", "113152.680000", "113213.083000", "113213.086000", "113213.088000", "113213.091000", "113213.093000", "113213.096000", "113213.098000", "113213.109000", "113213.111000", "113213.114000", "113213.116000", "113213.119000", "113213.121000", "113213.123000", "113213.126000", "113213.128000", "113213.131000", "113213.133000", "113213.135000", "113213.138000", "113232.619000", "113232.622000", "113232.624000", "113232.637000", "113232.640000", "113232.642000", "113232.645000", "113232.647000", "113232.650000", "113232.652000", "113232.654000", "113232.657000", "113232.659000", "113232.662000", "113232.664000", "113232.667000", "113232.669000", "113232.672000", "113232.674000", "113232.676000", "113252.607000", "113252.610000", "113252.613000", "113252.615000", "113252.622000", "113252.625000", "113252.627000", "113252.630000", "113252.633000", "113252.636000", "113252.639000", "113252.641000", "113252.644000", "113252.646000", "113252.649000", "113252.651000", "113252.654000", "113252.656000", "113252.659000", "113252.661000", "113332.666000", "113332.669000", "113332.671000", "113332.674000", "113332.676000", "113332.679000", "113332.682000", "113332.684000", "113332.687000", "113332.689000", "113332.692000", "113332.694000", "113332.696000", "113332.699000", "113332.701000", "113332.704000", "113332.706000", "113332.709000", "113332.711000", "113332.714000", "113332.716000", "113332.719000", "113332.721000", "113332.724000", "113332.726000", "113332.729000", "113332.731000", "113332.734000", "113332.736000", "113332.739000", "113332.741000", "113332.743000", "113412.639000", "113412.642000", "113412.644000", "113412.647000", "113412.649000", "113412.652000", "113412.654000", "113412.657000", "113412.659000", "113412.662000", "113412.664000", "113412.666000", "113412.669000", "113412.671000", "113412.674000", "113412.676000", "113412.679000", "113412.681000", "113412.684000", "113412.686000", "113412.689000", "113412.691000", "113412.694000", "113412.696000", "113412.698000", "113412.701000", "113412.703000", "113452.647000", "113452.650000", "113452.652000", "113452.655000", "113452.658000", "113452.660000", "113452.663000", "113452.665000", "113452.667000", "113452.670000", "113452.672000", "113452.675000", "113452.677000", "113452.680000", "113452.683000", "113452.685000", "113452.688000", "113452.690000", "113452.692000", "113452.695000", "113452.698000", "113452.700000", "113452.703000", "113452.705000", "113452.708000", "113452.710000", "113452.713000", "113532.644000", "113532.647000", "113532.649000", "113532.651000", "113532.654000", "113532.656000", "113532.659000", "113532.661000", "113532.664000", "113532.666000", "113532.669000", "113532.671000", "113532.674000", "113532.676000", "113532.679000", "113532.681000", "113532.684000", "113532.686000", "113532.688000", "113532.691000", "113532.693000", "113532.696000", "113532.698000", "113532.701000", "113532.703000", "113532.706000", "113532.713000", "113612.669000", "113612.672000", "113612.674000", "113612.676000", "113612.679000", "113612.681000", "113612.684000", "113612.687000", "113612.689000", "113612.692000", "113612.694000", "113612.696000", "113612.699000", "113612.701000", "113612.704000", "113612.706000", "113612.709000", "113612.711000", "113612.714000", "113612.716000", "113612.719000", "113612.721000", "113612.724000", "113612.731000", "113612.734000", "113612.736000", "113652.642000", "113652.645000", "113652.647000", "113652.650000", "113652.652000", "113652.655000", "113652.657000", "113652.659000", "113652.662000", "113652.664000", "113652.667000", "113652.669000", "113652.673000", "113652.675000", "113652.678000", "113652.680000", "113652.683000", "113652.685000", "113652.688000", "113652.690000", "113652.693000", "113652.695000", "113652.698000", "113652.700000", "113652.702000", "113652.705000", "113652.707000", "113732.639000", "113732.642000", "113732.645000", "113732.647000", "113732.649000", "113732.652000", "113732.654000", "113732.657000", "113732.659000", "113732.662000", "113732.664000", "113732.667000", "113732.669000", "113732.672000", "113732.674000", "113732.677000", "113732.679000", "113732.682000", "113732.684000", "113732.687000", "113732.689000", "113732.692000", "113732.694000", "113732.697000", "113732.699000", "113732.702000", "113732.704000", "113758.062000", "113758.065000", "113758.067000", "113758.070000", "113758.072000", "113758.075000", "113758.077000", "113758.079000", "113758.082000", "113758.084000", "113758.087000", "113758.089000", "113758.092000", "113758.094000", "113758.097000", "113758.099000", "113758.102000"],
      "InstanceNumber": [1, 2, 3, 4, 5, 6, 7, 8, 9, 10, 11, 12, 13, 14, 15, 16, 17, 18, 19, 20, 21, 22, 23, 24, 25, 26, 27, 28, 29, 30, 31, 32, 33, 34, 35, 36, 37, 38, 39, 40, 41, 42, 43, 44, 45, 46, 47, 48, 49, 50, 51, 52, 53, 54, 55, 56, 57, 58, 59, 60, 61, 62, 63, 64, 65, 66, 67, 68, 69, 70, 71, 72, 73, 74, 75, 76, 77, 78, 79, 80, 81, 82, 83, 84, 85, 86, 87, 88, 89, 90, 91, 92, 93, 94, 95, 96, 97, 98, 99, 100, 101, 102, 103, 104, 105, 106, 107, 108, 109, 110, 111, 112, 113, 114, 115, 116, 117, 118, 119, 120, 121, 122, 123, 124, 125, 126, 127, 128, 129, 130, 131, 132, 133, 134, 135, 136, 137, 138, 139, 140, 141, 142, 143, 144, 145, 146, 147, 148, 149, 150, 151, 152, 153, 154, 155, 156, 157, 158, 159, 160, 161, 162, 163, 164, 165, 166, 167, 168, 169, 170, 171, 172, 173, 174, 175, 176, 177, 178, 179, 180, 181, 182, 183, 184, 185, 186, 187, 188, 189, 190, 191, 192, 193, 194, 195, 196, 197, 198, 199, 200, 201, 202, 203, 204, 205, 206, 207, 208, 209, 210, 211, 212, 213, 214, 215, 216, 217, 218, 219, 220, 221, 222, 223, 224, 225, 226, 227, 228, 229, 230, 231, 232, 233, 234, 235, 236, 237, 238, 239, 240, 241, 242, 243, 244, 245, 246, 247, 248, 249, 250, 251, 252, 253, 254, 255, 256, 257, 258, 259, 260, 261, 262, 263, 264, 265, 266, 267, 268, 269, 270, 271, 272, 273, 274, 275, 276, 277, 278, 279, 280, 281, 282, 283, 284, 285, 286, 287, 288, 289, 290, 291, 292, 293, 294, 295, 296, 297],
      "WindowCenter": [4790.0, 4816.0, 4822.0, 4814.0, 4784.0, 4790.0, 4788.0, 4788.0, 4790.0, 4792.0, 4852.0, 4822.0, 4826.0, 4822.0, 4818.0, 4820.0, 4826.0, 4824.0, 4822.0, 4792.0, 4820.0, 4820.0, 4820.0, 4818.0, 4818.0, 4816.0, 4816.0, 4814.0, 4792.0, 4814.0, 4814.0, 4816.0, 4820.0, 4822.0, 4824.0, 4822.0, 4820.0, 4820.0, 4822.0, 4822.0, 4824.0, 4820.0, 4826.0, 4826.0, 4824.0, 4818.0, 4792.0, 4792.0, 4792.0, 4796.0, 4792.0, 4798.0, 4798.0, 4798.0, 4798.0, 4790.0, 4790.0, 4790.0, 4796.0, 4822.0, 4816.0, 4818.0, 4820.0, 4820.0, 4824.0, 4820.0, 4820.0, 4818.0, 4822.0, 4822.0, 4790.0, 4782.0, 4788.0, 4790.0, 4794.0, 4820.0, 4826.0, 4784.0, 4782.0, 4792.0, 4786.0, 4792.0, 4796.0, 4794.0, 4792.0, 4792.0, 4788.0, 4788.0, 4794.0, 4792.0, 4790.0, 4794.0, 4820.0, 4818.0, 4796.0, 4790.0, 4784.0, 4786.0, 4792.0, 4792.0, 4792.0, 4826.0, 4798.0, 4790.0, 4794.0, 4788.0, 4784.0, 4788.0, 4784.0, 4790.0, 4818.0, 4790.0, 4792.0, 4786.0, 4796.0, 4782.0, 4796.0, 4788.0, 4792.0, 4820.0, 4794.0, 4792.0, 4758.0, 4780.0, 4754.0, 4786.0, 4794.0, 4794.0, 4792.0, 4794.0, 4800.0, 4794.0, 4790.0, 4790.0, 4826.0, 4826.0, 4796.0, 4792.0, 4784.0, 4758.0, 4780.0, 4788.0, 4790.0, 4796.0, 4798.0, 4796.0, 4792.0, 4790.0, 4798.0, 4798.0, 4794.0, 4792.0, 4794.0, 4818.0, 4792.0, 4794.0, 4796.0, 4790.0, 4784.0, 4786.0, 4790.0, 4796.0, 4794.0, 4824.0, 4820.0, 4794.0, 4786.0, 4780.0, 4778.0, 4780.0, 4786.0, 4792.0, 4790.0, 4792.0, 4788.0, 4830.0, 4828.0, 4798.0, 4794.0, 4790.0, 4820.0, 4796.0, 4788.0, 4818.0, 4822.0, 4798.0, 4764.0, 4790.0, 4762.0, 4788.0, 4788.0, 4788.0, 4786.0, 4790.0, 4822.0, 4826.0, 4822.0, 4794.0, 4794.0, 4798.0, 4818.0, 4790.0, 4794.0, 4794.0, 4794.0, 4792.0, 4828.0, 4794.0, 4780.0, 4782.0, 4780.0, 4782.0, 4788.0, 4822.0, 4822.0, 4792.0, 4788.0, 4782.0, 4790.0, 4790.0, 4822.0, 4784.0, 4790.0, 4786.0, 4788.0, 4786.0, 4794.0, 4796.0, 4794.0, 4788.0, 4784.0, 4788.0, 4794.0, 4790.0, 4788.0, 4790.0, 4792.0, 4792.0, 4818.0, 4818.0, 4788.0, 4830.0, 4830.0, 4822.0, 4794.0, 4822.0, 4822.0, 4822.0, 4796.0, 4788.0, 4796.0, 4822.0, 4826.0, 4826.0, 4794.0, 4782.0, 4780.0, 4780.0, 4780.0, 4786.0, 4794.0, 4820.0, 4822.0, 4822.0, 4790.0, 4786.0, 4784.0, 4782.0, 4778.0, 4788.0, 4792.0, 4790.0, 4784.0, 4782.0, 4826.0, 4820.0, 4818.0, 4792.0, 4786.0, 4790.0, 4786.0, 4788.0, 4788.0, 4822.0, 4820.0, 4820.0, 4820.0, 4798.0, 4818.0, 4822.0, 4824.0, 4792.0, 4786.0, 4792.0, 4820.0, 4788.0, 4790.0],
      "WindowWidth": [18544.0, 18578.0, 18582.0, 18582.0, 18546.0, 18548.0, 18552.0, 18550.0, 18546.0, 18550.0, 18622.0, 18584.0, 18588.0, 18580.0, 18578.0, 18582.0, 18600.0, 18602.0, 18594.0, 18552.0, 18574.0, 18576.0, 18586.0, 18580.0, 18578.0, 18574.0, 18574.0, 18578.0, 18544.0, 18576.0, 18574.0, 18576.0, 18582.0, 18582.0, 18586.0, 18584.0, 18580.0, 18578.0, 18572.0, 18576.0, 18580.0, 18570.0, 18578.0, 18574.0, 18578.0, 18590.0, 18550.0, 18548.0, 18550.0, 18550.0, 18554.0, 18554.0, 18560.0, 18558.0, 18556.0, 18552.0, 18546.0, 18548.0, 18550.0, 18576.0, 18572.0, 18572.0, 18578.0, 18578.0, 18582.0, 18578.0, 18572.0, 18574.0, 18570.0, 18572.0, 18550.0, 18546.0, 18554.0, 18552.0, 18554.0, 18582.0, 18584.0, 18548.0, 18548.0, 18548.0, 18552.0, 18546.0, 18550.0, 18540.0, 18544.0, 18540.0, 18542.0, 18540.0, 18542.0, 18540.0, 18540.0, 18540.0, 18570.0, 18568.0, 18540.0, 18550.0, 18544.0, 18554.0, 18552.0, 18546.0, 18546.0, 18590.0, 18550.0, 18544.0, 18550.0, 18542.0, 18546.0, 18548.0, 18554.0, 18552.0, 18580.0, 18540.0, 18548.0, 18546.0, 18554.0, 18550.0, 18554.0, 18556.0, 18556.0, 18578.0, 18548.0, 18538.0, 18520.0, 18556.0, 18520.0, 18556.0, 18552.0, 18552.0, 18548.0, 18556.0, 18552.0, 18552.0, 18552.0, 18548.0, 18586.0, 18572.0, 18542.0, 18546.0, 18554.0, 18528.0, 18558.0, 18552.0, 18546.0, 18544.0, 18558.0, 18554.0, 18548.0, 18550.0, 18552.0, 18550.0, 18540.0, 18546.0, 18546.0, 18580.0, 18548.0, 18540.0, 18542.0, 18546.0, 18552.0, 18554.0, 18550.0, 18556.0, 18550.0, 18586.0, 18580.0, 18554.0, 18556.0, 18556.0, 18556.0, 18546.0, 18538.0, 18548.0, 18550.0, 18550.0, 18546.0, 18588.0, 18582.0, 18544.0, 18546.0, 18554.0, 18596.0, 18562.0, 18562.0, 18570.0, 18574.0, 18554.0, 18522.0, 18552.0, 18524.0, 18554.0, 18550.0, 18554.0, 18550.0, 18548.0, 18580.0, 18582.0, 18576.0, 18542.0, 18548.0, 18560.0, 18590.0, 18550.0, 18546.0, 18540.0, 18546.0, 18552.0, 18580.0, 18550.0, 18550.0, 18558.0, 18552.0, 18550.0, 18552.0, 18582.0, 18592.0, 18550.0, 18552.0, 18548.0, 18554.0, 18552.0, 18580.0, 18552.0, 18546.0, 18550.0, 18548.0, 18548.0, 18548.0, 18546.0, 18546.0, 18550.0, 18546.0, 18552.0, 18548.0, 18546.0, 18546.0, 18546.0, 18544.0, 18546.0, 18574.0, 18572.0, 18554.0, 18586.0, 18582.0, 18574.0, 18550.0, 18602.0, 18604.0, 18602.0, 18556.0, 18544.0, 18554.0, 18580.0, 18576.0, 18576.0, 18542.0, 18548.0, 18560.0, 18556.0, 18556.0, 18546.0, 18554.0, 18586.0, 18592.0, 18588.0, 18554.0, 18554.0, 18552.0, 18548.0, 18552.0, 18550.0, 18550.0, 18552.0, 18548.0, 18546.0, 18582.0, 18586.0, 18582.0, 18552.0, 18546.0, 18546.0, 18544.0, 18548.0, 18542.0, 18578.0, 18570.0, 18568.0, 18578.0, 18548.0, 18584.0, 18588.0, 18588.0, 18544.0, 18556.0, 18542.0, 18578.0, 18548.0, 18544.0]
    },
    "slices": {}
  }
}