{
  "AcquisitionMatrixPE": 104,
  "AcquisitionNumber": 1,
  "AcquisitionTime": "16:20:28.755000",
  "BandwidthPerPixelPhaseEncode": 17.17,
  "BaseResolution": 104,
  "BodyPartExamined": "BRAIN",
  "CoilCombinationMethod": "Sum of Squares",
  "ConsistencyInfo": "N4_VE11C_LATEST_20160120",
  "ConversionSoftware": "dcm2niix",
  "ConversionSoftwareVersion": "v1.0.20220505",
  "DerivedVendorReportedEchoSpacing": 0.000560011,
  "DeviceSerialNumber": "167006",
  "DwellTime": 2.1e-06,
  "EchoTime": 0.037,
  "EchoTime1": 0.037,
  "EchoTime2": 0.001,
  "EchoTrainLength": 104,
  "EffectiveEchoSpacing": 0.000560011,
  "FlipAngle": 52,
  "HeudiconvVersion": "0.5.3.post811+g6206e14",
  "ImageComments": "Unaliased MB4/PE3/LB",
  "ImageOrientationPatientDICOM": [0.998837, -0.0477724, 0.00653306, 0.0471039, 0.937835, -0.343869],
  "ImageOrientationText": "Tra>Cor(-20.1)>Sag(-0.6)",
  "ImageType": [
    "ORIGINAL",
    "PRIMARY",
    "P",
    "MB",
    "ND",
    "MOSAIC",
    "PHASE"
],
  "ImagingFrequency": 123.259,
  "InPlanePhaseEncodingDirectionDICOM": "COL",
  "InstitutionAddress": "Chemin Queen-Mary 4565,Montreal,District,CA,H3W 1W5",
  "InstitutionName": "IUGM",
  "InstitutionalDepartmentName": "Department",
  "MRAcquisitionType": "2D",
  "MagneticFieldStrength": 3,
  "Manufacturer": "Siemens",
  "ManufacturersModelName": "Prisma_fit",
  "MatrixCoilMode": "SENSE",
  "Modality": "MR",
  "MultibandAccelerationFactor": 4,
  "PartialFourier": 1,
  "PatientPosition": "HFS",
  "PercentPhaseFOV": 100,
  "PercentSampling": 100,
  "PhaseEncodingDirection": "j",
  "PhaseEncodingSteps": 104,
  "PhaseResolution": 1,
  "PixelBandwidth": 2290,
  "ProcedureStepDescription": "games^mario3",
  "ProtocolName": "func_task-mario3_run-01",
  "PulseSequenceDetails": "%CustomerSeq%\\cmrr_mbep2d_bold",
  "ReceiveCoilActiveElements": "HC1-7;NC1,2",
  "ReceiveCoilName": "HeadNeck_64",
  "ReconMatrixPE": 104,
  "RepetitionTime": 1.49,
  "SAR": 0.0413329,
  "ScanOptions": "FS",
  "ScanningSequence": "EP",
  "SequenceName": "epfid2d1_104",
  "SequenceVariant": "SK\\SS",
  "SeriesDescription": "func_task-mario3_run-01",
  "SeriesNumber": 11,
  "ShimSetting": [624, -7262, -8829, 527, 23, -242, -78, -15],
  "SliceThickness": 2,
  "SliceTiming": [0, 0.785, 0.0975, 0.8825, 0.195, 0.98, 0.295, 1.0775, 0.3925, 1.175, 0.49, 1.2725, 0.5875, 1.3725, 0.685, 0, 0.785, 0.0975, 0.8825, 0.195, 0.98, 0.295, 1.0775, 0.3925, 1.175, 0.49, 1.2725, 0.5875, 1.3725, 0.685, 0, 0.785, 0.0975, 0.8825, 0.195, 0.98, 0.295, 1.0775, 0.3925, 1.175, 0.49, 1.2725, 0.5875, 1.3725, 0.685, 0, 0.785, 0.0975, 0.8825, 0.195, 0.98, 0.295, 1.0775, 0.3925, 1.175, 0.49, 1.2725, 0.5875, 1.3725, 0.685],
  "SoftwareVersions": "syngo MR E11",
  "SpacingBetweenSlices": 2,
  "StationName": "MRC35049",
  "TaskName": "mario3",
  "TotalReadoutTime": 0.0576811,
  "TxRefAmp": 229.674,
  "WipMemBlock": "d9df166b-1169-444f-a69d-8b4e08234294||Sequence: R017 ve11c/master r/75a17815+; Jun 28 2022 16:32:11 by eja",
  "dcmmeta_affine": [
    [-1.997673749923706, 0.09420786798000336, -0.02060101367533207, 102.04458618164062],
    [0.09554476290941238, 1.8756707906723022, -0.6875537633895874, -69.5492172241211],
    [0.013066126964986324, 0.6877381801605225, 1.877989649772644, -67.09413146972656],
    [0.0, 0.0, 0.0, 1.0]
],
  "dcmmeta_reorient_transform": [
    [0.0, -1.0, 0.0, 103.0],
    [1.0, 0.0, 0.0, 0.0],
    [0.0, 0.0, 1.0, 0.0],
    [0.0, 0.0, 0.0, 1.0]
],
  "dcmmeta_shape": [104, 104, 60, 434],
  "dcmmeta_slice_dim": 2,
  "dcmmeta_version": 0.6,
  "global": {
    "const": {
      "AcquisitionMatrix": [104, 0, 0, 104],
      "AngioFlag": "N",
      "BitsAllocated": 16,
      "BitsStored": 16,
      "BodyPartExamined": "BRAIN",
      "Columns": 832,
      "EchoNumbers": 1,
      "EchoTime": 37.0,
      "EchoTrainLength": 104,
      "FlipAngle": 52.0,
      "HighBit": 15,
      "ImageOrientationPatient": [0.99883688297538, -0.0477723800124, 0.00653306329246, 0.04710393567054, 0.93783541142682, -0.3438691034656],
      "ImagePositionPatient": [-873.19291277623, -771.61076168635, 249.32354330981],
      "ImageType": [
        "ORIGINAL",
        "PRIMARY",
        "P",
        "MB",
        "ND",
        "MOSAIC"
],
      "ImagedNucleus": "1H",
      "ImagingFrequency": 123.258826,
      "InPlanePhaseEncodingDirection": "COL",
      "LargestImagePixelValue": 4095,
      "MRAcquisitionType": "2D",
      "MagneticFieldStrength": 3.0,
      "Manufacturer": "SIEMENS",
      "ManufacturerModelName": "Prisma_fit",
      "Modality": "MR",
      "NumberOfAverages": 1.0,
      "NumberOfPhaseEncodingSteps": 104,
      "PercentPhaseFieldOfView": 100.0,
      "PercentSampling": 100.0,
      "PerformedProcedureStepStartTime": "161659.140000",
      "PhotometricInterpretation": "MONOCHROME2",
      "PixelBandwidth": 2290.0,
      "PixelRepresentation": 0,
      "PixelSpacing": [2.0, 2.0],
      "ProtocolName": "func_task-mario3_run-01",
      "RepetitionTime": 1490.0,
      "RescaleIntercept": -4096.0,
      "RescaleSlope": 2.0,
      "RescaleType": "US",
      "Rows": 832,
      "SAR": 0.04133285346728,
      "SamplesPerPixel": 1,
      "ScanOptions": "FS",
      "ScanningSequence": "EP",
      "SequenceName": "epfid2d1_104",
      "SequenceVariant": [
        "SK",
        "SS"
],
      "SeriesDescription": "func_task-mario3_run-01",
      "SeriesNumber": 11,
      "SeriesTime": "162143.123000",
      "SliceLocation": -40.142740341249,
      "SliceThickness": 2.0,
      "SmallestImagePixelValue": 0,
      "SoftwareVersions": "syngo MR E11",
      "SpacingBetweenSlices": 1.9999999503385,
      "SpecificCharacterSet": "ISO_IR 100",
      "StudyID": "1",
      "StudyTime": "161659.065000",
      "TransmitCoilName": "Body",
      "VariableFlipAngleFlag": "N",
      "WindowCenterWidthExplanation": "Algo1",
      "dBdt": 0.0},
    "slices": {}
  },
  "time": {
    "samples": {
      "AcquisitionNumber": [1, 2, 3, 4, 5, 6, 7, 8, 9, 10, 11, 12, 13, 14, 15, 16, 17, 18, 19, 20, 21, 22, 23, 24, 25, 26, 27, 28, 29, 30, 31, 32, 33, 34, 35, 36, 37, 38, 39, 40, 41, 42, 43, 44, 45, 46, 47, 48, 49, 50, 51, 52, 53, 54, 55, 56, 57, 58, 59, 60, 61, 62, 63, 64, 65, 66, 67, 68, 69, 70, 71, 72, 73, 74, 75, 76, 77, 78, 79, 80, 81, 82, 83, 84, 85, 86, 87, 88, 89, 90, 91, 92, 93, 94, 95, 96, 97, 98, 99, 100, 101, 102, 103, 104, 105, 106, 107, 108, 109, 110, 111, 112, 113, 114, 115, 116, 117, 118, 119, 120, 121, 122, 123, 124, 125, 126, 127, 128, 129, 130, 131, 132, 133, 134, 135, 136, 137, 138, 139, 140, 141, 142, 143, 144, 145, 146, 147, 148, 149, 150, 151, 152, 153, 154, 155, 156, 157, 158, 159, 160, 161, 162, 163, 164, 165, 166, 167, 168, 169, 170, 171, 172, 173, 174, 175, 176, 177, 178, 179, 180, 181, 182, 183, 184, 185, 186, 187, 188, 189, 190, 191, 192, 193, 194, 195, 196, 197, 198, 199, 200, 201, 202, 203, 204, 205, 206, 207, 208, 209, 210, 211, 212, 213, 214, 215, 216, 217, 218, 219, 220, 221, 222, 223, 224, 225, 226, 227, 228, 229, 230, 231, 232, 233, 234, 235, 236, 237, 238, 239, 240, 241, 242, 243, 244, 245, 246, 247, 248, 249, 250, 251, 252, 253, 254, 255, 256, 257, 258, 259, 260, 261, 262, 263, 264, 265, 266, 267, 268, 269, 270, 271, 272, 273, 274, 275, 276, 277, 278, 279, 280, 281, 282, 283, 284, 285, 286, 287, 288, 289, 290, 291, 292, 293, 294, 295, 296, 297, 298, 299, 300, 301, 302, 303, 304, 305, 306, 307, 308, 309, 310, 311, 312, 313, 314, 315, 316, 317, 318, 319, 320, 321, 322, 323, 324, 325, 326, 327, 328, 329, 330, 331, 332, 333, 334, 335, 336, 337, 338, 339, 340, 341, 342, 343, 344, 345, 346, 347, 348, 349, 350, 351, 352, 353, 354, 355, 356, 357, 358, 359, 360, 361, 362, 363, 364, 365, 366, 367, 368, 369, 370, 371, 372, 373, 374, 375, 376, 377, 378, 379, 380, 381, 382, 383, 384, 385, 386, 387, 388, 389, 390, 391, 392, 393, 394, 395, 396, 397, 398, 399, 400, 401, 402, 403, 404, 405, 406, 407, 408, 409, 410, 411, 412, 413, 414, 415, 416, 417, 418, 419, 420, 421, 422, 423, 424, 425, 426, 427, 428, 429, 430, 431, 432, 433, 434],
      "AcquisitionTime": ["162028.755000", "162030.245000", "162031.735000", "162033.225000", "162034.715000", "162036.205000", "162037.695000", "162039.185000", "162040.675000", "162042.165000", "162043.655000", "162045.145000", "162046.635000", "162048.125000", "162049.615000", "162051.105000", "162052.595000", "162054.085000", "162055.575000", "162057.065000", "162058.555000", "162100.045000", "162101.535000", "162103.025000", "162104.515000", "162106.005000", "162107.495000", "162108.985000", "162110.475000", "162111.965000", "162113.455000", "162114.945000", "162116.435000", "162117.925000", "162119.415000", "162120.905000", "162122.395000", "162123.885000", "162125.375000", "162126.865000", "162128.355000", "162129.845000", "162131.335000", "162132.825000", "162134.315000", "162135.805000", "162137.295000", "162138.785000", "162140.275000", "162141.765000", "162143.255000", "162144.745000", "162146.235000", "162147.725000", "162149.215000", "162150.705000", "162152.195000", "162153.685000", "162155.175000", "162156.665000", "162158.155000", "162159.645000", "162201.135000", "162202.625000", "162204.115000", "162205.605000", "162207.095000", "162208.585000", "162210.075000", "162211.565000", "162213.055000", "162214.545000", "162216.035000", "162217.525000", "162219.015000", "162220.505000", "162221.995000", "162223.485000", "162224.975000", "162226.465000", "162227.955000", "162229.445000", "162230.935000", "162232.425000", "162233.915000", "162235.405000", "162236.895000", "162238.385000", "162239.875000", "162241.365000", "162242.855000", "162244.345000", "162245.835000", "162247.325000", "162248.815000", "162250.305000", "162251.795000", "162253.285000", "162254.775000", "162256.265000", "162257.755000", "162259.245000", "162300.735000", "162302.225000", "162303.715000", "162305.205000", "162306.695000", "162308.185000", "162309.675000", "162311.165000", "162312.655000", "162314.145000", "162315.635000", "162317.125000", "162318.615000", "162320.105000", "162321.595000", "162323.085000", "162324.575000", "162326.065000", "162327.555000", "162329.045000", "162330.535000", "162332.025000", "162333.515000", "162335.005000", "162336.495000", "162337.985000", "162339.475000", "162340.965000", "162342.455000", "162343.945000", "162345.435000", "162346.925000", "162348.415000", "162349.905000", "162351.395000", "162352.885000", "162354.375000", "162355.865000", "162357.355000", "162358.845000", "162400.335000", "162401.825000", "162403.315000", "162404.805000", "162406.295000", "162407.785000", "162409.275000", "162410.765000", "162412.255000", "162413.745000", "162415.235000", "162416.725000", "162418.215000", "162419.705000", "162421.195000", "162422.685000", "162424.175000", "162425.665000", "162427.155000", "162428.645000", "162430.135000", "162431.625000", "162433.115000", "162434.605000", "162436.095000", "162437.585000", "162439.075000", "162440.565000", "162442.055000", "162443.545000", "162445.035000", "162446.525000", "162448.015000", "162449.505000", "162450.995000", "162452.485000", "162453.975000", "162455.465000", "162456.955000", "162458.445000", "162459.935000", "162501.425000", "162502.915000", "162504.405000", "162505.895000", "162507.385000", "162508.875000", "162510.365000", "162511.855000", "162513.345000", "162514.835000", "162516.325000", "162517.815000", "162519.305000", "162520.795000", "162522.285000", "162523.775000", "162525.265000", "162526.755000", "162528.245000", "162529.735000", "162531.225000", "162532.715000", "162534.205000", "162535.695000", "162537.185000", "162538.675000", "162540.165000", "162541.655000", "162543.145000", "162544.635000", "162546.125000", "162547.615000", "162549.105000", "162550.595000", "162552.085000", "162553.575000", "162555.065000", "162556.555000", "162558.045000", "162559.535000", "162601.025000", "162602.515000", "162604.005000", "162605.495000", "162606.985000", "162608.475000", "162609.965000", "162611.455000", "162612.945000", "162614.435000", "162615.925000", "162617.415000", "162618.905000", "162620.395000", "162621.885000", "162623.375000", "162624.865000", "162626.355000", "162627.845000", "162629.335000", "162630.825000", "162632.315000", "162633.805000", "162635.295000", "162636.785000", "162638.275000", "162639.765000", "162641.255000", "162642.745000", "162644.235000", "162645.725000", "162647.215000", "162648.705000", "162650.195000", "162651.685000", "162653.175000", "162654.665000", "162656.155000", "162657.645000", "162659.135000", "162700.625000", "162702.115000", "162703.605000", "162705.095000", "162706.585000", "162708.075000", "162709.565000", "162711.055000", "162712.545000", "162714.035000", "162715.525000", "162717.015000", "162718.505000", "162719.995000", "162721.485000", "162722.975000", "162724.465000", "162725.955000", "162727.445000", "162728.935000", "162730.425000", "162731.915000", "162733.405000", "162734.895000", "162736.385000", "162737.875000", "162739.365000", "162740.855000", "162742.345000", "162743.835000", "162745.325000", "162746.815000", "162748.305000", "162749.795000", "162751.285000", "162752.775000", "162754.265000", "162755.755000", "162757.245000", "162758.735000", "162800.225000", "162801.715000", "162803.205000", "162804.695000", "162806.185000", "162807.675000", "162809.165000", "162810.655000", "162812.145000", "162813.635000", "162815.125000", "162816.615000", "162818.105000", "162819.595000", "162821.085000", "162822.575000", "162824.065000", "162825.555000", "162827.045000", "162828.535000", "162830.025000", "162831.515000", "162833.005000", "162834.495000", "162835.985000", "162837.475000", "162838.965000", "162840.455000", "162841.945000", "162843.435000", "162844.925000", "162846.415000", "162847.905000", "162849.395000", "162850.885000", "162852.375000", "162853.865000", "162855.355000", "162856.845000", "162858.335000", "162859.825000", "162901.315000", "162902.805000", "162904.295000", "162905.785000", "162907.275000", "162908.765000", "162910.255000", "162911.745000", "162913.235000", "162914.725000", "162916.215000", "162917.705000", "162919.195000", "162920.685000", "162922.175000", "162923.665000", "162925.155000", "162926.645000", "162928.135000", "162929.625000", "162931.115000", "162932.605000", "162934.095000", "162935.585000", "162937.075000", "162938.565000", "162940.055000", "162941.545000", "162943.035000", "162944.525000", "162946.015000", "162947.505000", "162948.995000", "162950.485000", "162951.975000", "162953.465000", "162954.955000", "162956.445000", "162957.935000", "162959.425000", "163000.915000", "163002.405000", "163003.895000", "163005.385000", "163006.875000", "163008.365000", "163009.855000", "163011.345000", "163012.835000", "163014.325000", "163015.815000", "163017.305000", "163018.795000", "163020.285000", "163021.775000", "163023.265000", "163024.755000", "163026.245000", "163027.735000", "163029.225000", "163030.715000", "163032.205000", "163033.695000", "163035.185000", "163036.675000", "163038.165000", "163039.655000", "163041.145000", "163042.635000", "163044.125000", "163045.615000", "163047.105000", "163048.595000", "163050.085000", "163051.575000", "163053.065000", "163054.555000", "163056.045000", "163057.535000", "163059.025000", "163100.515000", "163102.005000", "163103.495000", "163104.985000", "163106.475000", "163107.965000", "163109.455000", "163110.945000", "163112.435000", "163113.925000"],
      "ContentTime": ["162143.125000", "162143.128000", "162143.131000", "162143.133000", "162143.135000", "162143.138000", "162143.140000", "162143.143000", "162143.146000", "162143.149000", "162143.152000", "162143.155000", "162143.157000", "162143.160000", "162143.162000", "162143.165000", "162143.167000", "162143.170000", "162143.172000", "162143.175000", "162143.187000", "162143.189000", "162143.192000", "162143.194000", "162203.078000", "162203.082000", "162203.086000", "162203.088000", "162203.091000", "162203.093000", "162203.097000", "162203.100000", "162203.102000", "162203.105000", "162203.107000", "162203.110000", "162203.112000", "162203.115000", "162203.117000", "162203.120000", "162203.122000", "162203.125000", "162203.127000", "162203.129000", "162223.070000", "162223.073000", "162223.075000", "162223.078000", "162223.080000", "162223.083000", "162223.085000", "162223.088000", "162223.090000", "162223.093000", "162223.095000", "162223.097000", "162223.100000", "162223.102000", "162223.105000", "162223.107000", "162223.110000", "162223.112000", "162223.115000", "162223.117000", "162243.092000", "162243.095000", "162243.097000", "162243.100000", "162243.102000", "162243.105000", "162243.107000", "162243.110000", "162243.112000", "162243.115000", "162243.117000", "162243.120000", "162243.122000", "162243.125000", "162243.127000", "162243.129000", "162243.132000", "162243.134000", "162243.137000", "162243.139000", "162323.118000", "162323.120000", "162323.123000", "162323.125000", "162323.128000", "162323.130000", "162323.133000", "162323.135000", "162323.138000", "162323.150000", "162323.152000", "162323.155000", "162323.157000", "162323.160000", "162323.162000", "162323.165000", "162323.167000", "162323.170000", "162323.172000", "162323.175000", "162323.177000", "162323.180000", "162323.182000", "162323.184000", "162323.187000", "162323.189000", "162323.192000", "162323.194000", "162323.197000", "162323.199000", "162323.202000", "162323.204000", "162403.114000", "162403.117000", "162403.119000", "162403.122000", "162403.124000", "162403.127000", "162403.129000", "162403.132000", "162403.134000", "162403.137000", "162403.139000", "162403.142000", "162403.144000", "162403.146000", "162403.149000", "162403.151000", "162403.154000", "162403.156000", "162403.159000", "162403.161000", "162403.164000", "162403.166000", "162403.169000", "162403.171000", "162403.174000", "162403.176000", "162403.179000", "162443.601000", "162443.604000", "162443.606000", "162443.609000", "162443.611000", "162443.614000", "162443.616000", "162443.619000", "162443.621000", "162443.624000", "162443.626000", "162443.629000", "162443.631000", "162443.634000", "162443.636000", "162443.643000", "162443.646000", "162443.648000", "162443.651000", "162443.653000", "162443.656000", "162443.658000", "162443.661000", "162443.663000", "162443.666000", "162443.668000", "162443.671000", "162523.129000", "162523.132000", "162523.134000", "162523.137000", "162523.139000", "162523.142000", "162523.144000", "162523.147000", "162523.157000", "162523.159000", "162523.162000", "162523.164000", "162523.167000", "162523.169000", "162523.172000", "162523.174000", "162523.177000", "162523.179000", "162523.182000", "162523.184000", "162523.187000", "162523.189000", "162523.192000", "162523.194000", "162523.197000", "162523.199000", "162603.128000", "162603.131000", "162603.133000", "162603.136000", "162603.138000", "162603.141000", "162603.143000", "162603.146000", "162603.148000", "162603.151000", "162603.153000", "162603.155000", "162603.158000", "162603.160000", "162603.163000", "162603.165000", "162603.168000", "162603.170000", "162603.173000", "162603.175000", "162603.178000", "162603.181000", "162603.183000", "162603.186000", "162603.188000", "162603.191000", "162603.193000", "162643.129000", "162643.131000", "162643.134000", "162643.136000", "162643.139000", "162643.141000", "162643.144000", "162643.146000", "162643.149000", "162643.151000", "162643.154000", "162643.156000", "162643.158000", "162643.161000", "162643.163000", "162643.166000", "162643.168000", "162643.171000", "162643.173000", "162643.176000", "162643.178000", "162643.181000", "162643.183000", "162643.186000", "162643.188000", "162643.191000", "162643.193000", "162723.136000", "162723.139000", "162723.142000", "162723.144000", "162723.147000", "162723.149000", "162723.152000", "162723.154000", "162723.157000", "162723.159000", "162723.162000", "162723.164000", "162723.167000", "162723.169000", "162723.172000", "162723.174000", "162723.177000", "162723.179000", "162723.182000", "162723.184000", "162723.186000", "162723.189000", "162723.191000", "162723.194000", "162723.196000", "162723.199000", "162723.201000", "162803.116000", "162803.118000", "162803.121000", "162803.124000", "162803.126000", "162803.128000", "162803.131000", "162803.133000", "162803.136000", "162803.138000", "162803.141000", "162803.143000", "162803.146000", "162803.148000", "162803.151000", "162803.153000", "162803.156000", "162803.158000", "162803.161000", "162803.163000", "162803.166000", "162803.168000", "162803.171000", "162803.173000", "162803.176000", "162803.178000", "162803.182000", "162843.123000", "162843.126000", "162843.129000", "162843.131000", "162843.134000", "162843.136000", "162843.139000", "162843.141000", "162843.144000", "162843.146000", "162843.149000", "162843.151000", "162843.154000", "162843.156000", "162843.159000", "162843.161000", "162843.163000", "162843.166000", "162843.168000", "162843.171000", "162843.173000", "162843.176000", "162843.178000", "162843.181000", "162843.183000", "162843.186000", "162843.188000", "162923.114000", "162923.117000", "162923.120000", "162923.122000", "162923.125000", "162923.127000", "162923.130000", "162923.132000", "162923.134000", "162923.137000", "162923.139000", "162923.142000", "162923.144000", "162923.147000", "162923.149000", "162923.152000", "162923.154000", "162923.157000", "162923.159000", "162923.162000", "162923.164000", "162923.167000", "162923.169000", "162923.172000", "162923.174000", "162923.177000", "162923.179000", "163003.105000", "163003.108000", "163003.110000", "163003.113000", "163003.115000", "163003.118000", "163003.120000", "163003.123000", "163003.125000", "163003.128000", "163003.131000", "163003.133000", "163003.136000", "163003.138000", "163003.141000", "163003.143000", "163003.146000", "163003.150000", "163003.153000", "163003.178000", "163003.180000", "163003.183000", "163003.185000", "163003.188000", "163003.190000", "163003.193000", "163043.103000", "163043.106000", "163043.109000", "163043.111000", "163043.113000", "163043.116000", "163043.118000", "163043.121000", "163043.123000", "163043.126000", "163043.128000", "163043.131000", "163043.133000", "163043.136000", "163043.138000", "163043.141000", "163043.143000", "163043.146000", "163043.148000", "163043.151000", "163043.153000", "163043.155000", "163043.158000", "163043.160000", "163043.163000", "163043.165000", "163043.168000", "163117.220000", "163117.223000", "163117.225000", "163117.228000", "163117.230000", "163117.233000", "163117.235000", "163117.238000", "163117.240000", "163117.243000", "163117.246000", "163117.249000", "163117.251000", "163117.254000", "163117.256000", "163117.259000", "163117.261000", "163117.264000", "163117.267000", "163117.269000", "163117.272000", "163117.274000", "163117.277000"],
