{
  "AcquisitionMatrixPE": 104,
  "AcquisitionNumber": 1,
  "AcquisitionTime": "11:38:18.687500",
  "BandwidthPerPixelPhaseEncode": 17.17,
  "BaseResolution": 104,
  "BodyPartExamined": "BRAIN",
  "CoilCombinationMethod": "Sum of Squares",
  "ConsistencyInfo": "N4_VE11C_LATEST_20160120",
  "ConversionSoftware": "dcm2niix",
  "ConversionSoftwareVersion": "v1.0.20220505",
  "DerivedVendorReportedEchoSpacing": 0.000560011,
  "DeviceSerialNumber": "167006",
  "DwellTime": 2.1e-06,
  "EchoTime": 0.037,
  "EchoTime1": 0.037,
  "EchoTime2": 0.001,
  "EchoTrainLength": 104,
  "EffectiveEchoSpacing": 0.000560011,
  "FlipAngle": 52,
  "HeudiconvVersion": "0.5.3.post811+g6206e14",
  "ImageComments": "Unaliased MB4/PE3/LB",
  "ImageOrientationPatientDICOM": [0.993693, 0.111268, 0.0138901, -0.0979578, 0.921684, -0.375371],
  "ImageOrientationText": "Tra>Cor(-21.9)>Sag(3.1)",
  "ImageType": [
    "ORIGINAL",
    "PRIMARY",
    "P",
    "MB",
    "ND",
    "MOSAIC",
    "PHASE"
],
  "ImagingFrequency": 123.26,
  "InPlanePhaseEncodingDirectionDICOM": "COL",
  "InstitutionAddress": "Chemin Queen-Mary 4565,Montreal,District,CA,H3W 1W5",
  "InstitutionName": "IUGM",
  "InstitutionalDepartmentName": "Department",
  "MRAcquisitionType": "2D",
  "MagneticFieldStrength": 3,
  "Manufacturer": "Siemens",
  "ManufacturersModelName": "Prisma_fit",
  "MatrixCoilMode": "SENSE",
  "Modality": "MR",
  "MultibandAccelerationFactor": 4,
  "PartialFourier": 1,
  "PatientPosition": "HFS",
  "PercentPhaseFOV": 100,
  "PercentSampling": 100,
  "PhaseEncodingDirection": "j",
  "PhaseEncodingSteps": 104,
  "PhaseResolution": 1,
  "PixelBandwidth": 2290,
  "ProcedureStepDescription": "games^mario3",
  "ProtocolName": "func_task-mario3_run-01",
  "PulseSequenceDetails": "%CustomerSeq%\\cmrr_mbep2d_bold",
  "ReceiveCoilActiveElements": "HC1-7;NC1,2",
  "ReceiveCoilName": "HeadNeck_64",
  "ReconMatrixPE": 104,
  "RepetitionTime": 1.49,
  "SAR": 0.0544157,
  "ScanOptions": "FS",
  "ScanningSequence": "EP",
  "SequenceName": "epfid2d1_104",
  "SequenceVariant": "SK\\SS",
  "SeriesDescription": "func_task-mario3_run-01",
  "SeriesNumber": 11,
  "ShimSetting": [611, -7189, -8819, 623, 78, 15, -92, 3],
  "SliceThickness": 2,
  "SliceTiming": [0, 0.785, 0.0975, 0.8825, 0.1975, 0.98, 0.295, 1.0775, 0.3925, 1.175, 0.49, 1.275, 0.5875, 1.3725, 0.685, 0, 0.785, 0.0975, 0.8825, 0.1975, 0.98, 0.295, 1.0775, 0.3925, 1.175, 0.49, 1.275, 0.5875, 1.3725, 0.685, 0, 0.785, 0.0975, 0.8825, 0.1975, 0.98, 0.295, 1.0775, 0.3925, 1.175, 0.49, 1.275, 0.5875, 1.3725, 0.685, 0, 0.785, 0.0975, 0.8825, 0.1975, 0.98, 0.295, 1.0775, 0.3925, 1.175, 0.49, 1.275, 0.5875, 1.3725, 0.685],
  "SoftwareVersions": "syngo MR E11",
  "SpacingBetweenSlices": 2,
  "StationName": "MRC35049",
  "TaskName": "mario3",
  "TotalReadoutTime": 0.0576811,
  "TxRefAmp": 270.989,
  "WipMemBlock": "412b1ffc-43d4-487a-9cf3-7a99f5d61c73||Sequence: R017 ve11c/master r/75a17815+; Jun 28 2022 16:32:11 by eja",
  "dcmmeta_affine": [
    [-1.987386703491211, -0.19591569900512695, 0.1091383695602417, 112.1051025390625],
    [-0.22253629565238953, 1.843367099761963, -0.7432868480682373, -46.462059020996094],
    [0.027780262753367424, 0.7507427930831909, 1.8535408973693848, -60.74994659423828],
    [0.0, 0.0, 0.0, 1.0]
],
  "dcmmeta_reorient_transform": [
    [0.0, -1.0, 0.0, 103.0],
    [1.0, 0.0, 0.0, 0.0],
    [0.0, 0.0, 1.0, 0.0],
    [0.0, 0.0, 0.0, 1.0]
],
  "dcmmeta_shape": [104, 104, 60, 363],
  "dcmmeta_slice_dim": 2,
  "dcmmeta_version": 0.6,
  "global": {
    "const": {
      "AcquisitionMatrix": [104, 0, 0, 104],
      "AngioFlag": "N",
      "BitsAllocated": 16,
      "BitsStored": 16,
      "BodyPartExamined": "BRAIN",
      "Columns": 832,
      "EchoNumbers": 1,
      "EchoTime": 37.0,
      "EchoTrainLength": 104,
      "FlipAngle": 52.0,
      "HighBit": 15,
      "ImageOrientationPatient": [0.99369334521862, 0.11126814424251, 0.01389013121101, -0.0979578467932, 0.92168355269881, -0.3753714013296],
      "ImagePositionPatient": [-744.02122954796, -895.39358742891, 279.73492825906],
      "ImageType": [
        "ORIGINAL",
        "PRIMARY",
        "P",
        "MB",
        "ND",
        "MOSAIC"
],
      "ImagedNucleus": "1H",
      "ImagingFrequency": 123.260194,
      "InPlanePhaseEncodingDirection": "COL",
      "LargestImagePixelValue": 4095,
      "MRAcquisitionType": "2D",
      "MagneticFieldStrength": 3.0,
      "Manufacturer": "SIEMENS",
      "ManufacturerModelName": "Prisma_fit",
      "Modality": "MR",
      "NumberOfAverages": 1.0,
      "NumberOfPhaseEncodingSteps": 104,
      "PercentPhaseFieldOfView": 100.0,
      "PercentSampling": 100.0,
      "PerformedProcedureStepStartTime": "113403.789000",
      "PhotometricInterpretation": "MONOCHROME2",
      "PixelBandwidth": 2290.0,
      "PixelRepresentation": 0,
      "PixelSpacing": [2.0, 2.0],
      "ProtocolName": "func_task-mario3_run-01",
      "RepetitionTime": 1490.0,
      "RescaleIntercept": -4096.0,
      "RescaleSlope": 2.0,
      "RescaleType": "US",
      "Rows": 832,
      "SAR": 0.05441569841743,
      "SamplesPerPixel": 1,
      "ScanOptions": "FS",
      "ScanningSequence": "EP",
      "SequenceName": "epfid2d1_104",
      "SequenceVariant": [
        "SK",
        "SS"
],
      "SeriesDescription": "func_task-mario3_run-01",
      "SeriesNumber": 11,
      "SeriesTime": "113926.236000",
      "SliceLocation": -32.916448212228,
      "SliceThickness": 2.0,
      "SmallestImagePixelValue": 0,
      "SoftwareVersions": "syngo MR E11",
      "SpacingBetweenSlices": 2.0000000661501,
      "SpecificCharacterSet": "ISO_IR 100",
      "StudyID": "1",
      "StudyTime": "113403.709000",
      "TransmitCoilName": "Body",
      "VariableFlipAngleFlag": "N",
      "WindowCenterWidthExplanation": "Algo1",
      "dBdt": 0.0},
    "slices": {}
  },
  "time": {
    "samples": {
      "AcquisitionNumber": [1, 2, 3, 4, 5, 6, 7, 8, 9, 10, 11, 12, 13, 14, 15, 16, 17, 18, 19, 20, 21, 22, 23, 24, 25, 26, 27, 28, 29, 30, 31, 32, 33, 34, 35, 36, 37, 38, 39, 40, 41, 42, 43, 44, 45, 46, 47, 48, 49, 50, 51, 52, 53, 54, 55, 56, 57, 58, 59, 60, 61, 62, 63, 64, 65, 66, 67, 68, 69, 70, 71, 72, 73, 74, 75, 76, 77, 78, 79, 80, 81, 82, 83, 84, 85, 86, 87, 88, 89, 90, 91, 92, 93, 94, 95, 96, 97, 98, 99, 100, 101, 102, 103, 104, 105, 106, 107, 108, 109, 110, 111, 112, 113, 114, 115, 116, 117, 118, 119, 120, 121, 122, 123, 124, 125, 126, 127, 128, 129, 130, 131, 132, 133, 134, 135, 136, 137, 138, 139, 140, 141, 142, 143, 144, 145, 146, 147, 148, 149, 150, 151, 152, 153, 154, 155, 156, 157, 158, 159, 160, 161, 162, 163, 164, 165, 166, 167, 168, 169, 170, 171, 172, 173, 174, 175, 176, 177, 178, 179, 180, 181, 182, 183, 184, 185, 186, 187, 188, 189, 190, 191, 192, 193, 194, 195, 196, 197, 198, 199, 200, 201, 202, 203, 204, 205, 206, 207, 208, 209, 210, 211, 212, 213, 214, 215, 216, 217, 218, 219, 220, 221, 222, 223, 224, 225, 226, 227, 228, 229, 230, 231, 232, 233, 234, 235, 236, 237, 238, 239, 240, 241, 242, 243, 244, 245, 246, 247, 248, 249, 250, 251, 252, 253, 254, 255, 256, 257, 258, 259, 260, 261, 262, 263, 264, 265, 266, 267, 268, 269, 270, 271, 272, 273, 274, 275, 276, 277, 278, 279, 280, 281, 282, 283, 284, 285, 286, 287, 288, 289, 290, 291, 292, 293, 294, 295, 296, 297, 298, 299, 300, 301, 302, 303, 304, 305, 306, 307, 308, 309, 310, 311, 312, 313, 314, 315, 316, 317, 318, 319, 320, 321, 322, 323, 324, 325, 326, 327, 328, 329, 330, 331, 332, 333, 334, 335, 336, 337, 338, 339, 340, 341, 342, 343, 344, 345, 346, 347, 348, 349, 350, 351, 352, 353, 354, 355, 356, 357, 358, 359, 360, 361, 362, 363],
      "AcquisitionTime": ["113818.687500", "113820.177500", "113821.667500", "113823.157500", "113824.647500", "113826.137500", "113827.627500", "113829.117500", "113830.607500", "113832.097500", "113833.587500", "113835.077500", "113836.567500", "113838.057500", "113839.547500", "113841.037500", "113842.527500", "113844.017500", "113845.507500", "113846.997500", "113848.487500", "113849.977500", "113851.467500", "113852.957500", "113854.447500", "113855.937500", "113857.427500", "113858.917500", "113900.407500", "113901.897500", "113903.387500", "113904.877500", "113906.367500", "113907.857500", "113909.347500", "113910.837500", "113912.327500", "113913.817500", "113915.307500", "113916.797500", "113918.287500", "113919.777500", "113921.267500", "113922.757500", "113924.247500", "113925.737500", "113927.227500", "113928.717500", "113930.207500", "113931.697500", "113933.187500", "113934.677500", "113936.167500", "113937.657500", "113939.147500", "113940.637500", "113942.127500", "113943.617500", "113945.107500", "113946.597500", "113948.087500", "113949.577500", "113951.067500", "113952.557500", "113954.047500", "113955.537500", "113957.027500", "113958.517500", "114000.007500", "114001.497500", "114002.987500", "114004.477500", "114005.967500", "114007.457500", "114008.947500", "114010.437500", "114011.927500", "114013.417500", "114014.907500", "114016.397500", "114017.887500", "114019.377500", "114020.867500", "114022.357500", "114023.847500", "114025.337500", "114026.827500", "114028.317500", "114029.807500", "114031.297500", "114032.787500", "114034.277500", "114035.767500", "114037.257500", "114038.747500", "114040.237500", "114041.727500", "114043.217500", "114044.707500", "114046.197500", "114047.687500", "114049.177500", "114050.667500", "114052.157500", "114053.647500", "114055.137500", "114056.627500", "114058.117500", "114059.607500", "114101.097500", "114102.587500", "114104.077500", "114105.567500", "114107.057500", "114108.547500", "114110.037500", "114111.527500", "114113.017500", "114114.507500", "114115.997500", "114117.487500", "114118.977500", "114120.467500", "114121.957500", "114123.447500", "114124.937500", "114126.427500", "114127.917500", "114129.407500", "114130.897500", "114132.387500", "114133.877500", "114135.367500", "114136.857500", "114138.347500", "114139.837500", "114141.327500", "114142.817500", "114144.307500", "114145.797500", "114147.287500", "114148.777500", "114150.267500", "114151.757500", "114153.247500", "114154.737500", "114156.227500", "114157.717500", "114159.207500", "114200.697500", "114202.187500", "114203.677500", "114205.167500", "114206.657500", "114208.147500", "114209.637500", "114211.127500", "114212.617500", "114214.107500", "114215.597500", "114217.087500", "114218.577500", "114220.067500", "114221.557500", "114223.047500", "114224.537500", "114226.027500", "114227.517500", "114229.007500", "114230.497500", "114231.987500", "114233.477500", "114234.967500", "114236.457500", "114237.947500", "114239.437500", "114240.927500", "114242.417500", "114243.907500", "114245.397500", "114246.887500", "114248.377500", "114249.867500", "114251.357500", "114252.847500", "114254.337500", "114255.827500", "114257.317500", "114258.807500", "114300.297500", "114301.787500", "114303.277500", "114304.767500", "114306.257500", "114307.747500", "114309.237500", "114310.727500", "114312.217500", "114313.707500", "114315.197500", "114316.687500", "114318.177500", "114319.667500", "114321.157500", "114322.647500", "114324.137500", "114325.627500", "114327.117500", "114328.607500", "114330.097500", "114331.587500", "114333.077500", "114334.567500", "114336.057500", "114337.547500", "114339.037500", "114340.527500", "114342.017500", "114343.507500", "114344.997500", "114346.487500", "114347.977500", "114349.467500", "114350.957500", "114352.447500", "114353.937500", "114355.427500", "114356.917500", "114358.407500", "114359.897500", "114401.387500", "114402.877500", "114404.367500", "114405.857500", "114407.347500", "114408.837500", "114410.327500", "114411.817500", "114413.307500", "114414.797500", "114416.287500", "114417.777500", "114419.267500", "114420.757500", "114422.247500", "114423.737500", "114425.227500", "114426.717500", "114428.207500", "114429.697500", "114431.187500", "114432.677500", "114434.167500", "114435.657500", "114437.147500", "114438.637500", "114440.127500", "114441.617500", "114443.107500", "114444.597500", "114446.087500", "114447.577500", "114449.067500", "114450.557500", "114452.047500", "114453.537500", "114455.027500", "114456.517500", "114458.007500", "114459.497500", "114500.987500", "114502.477500", "114503.967500", "114505.457500", "114506.947500", "114508.437500", "114509.927500", "114511.417500", "114512.907500", "114514.397500", "114515.887500", "114517.377500", "114518.867500", "114520.357500", "114521.847500", "114523.337500", "114524.827500", "114526.317500", "114527.807500", "114529.297500", "114530.787500", "114532.277500", "114533.767500", "114535.257500", "114536.747500", "114538.237500", "114539.727500", "114541.217500", "114542.707500", "114544.197500", "114545.687500", "114547.177500", "114548.667500", "114550.157500", "114551.647500", "114553.137500", "114554.627500", "114556.117500", "114557.607500", "114559.097500", "114600.587500", "114602.077500", "114603.567500", "114605.057500", "114606.547500", "114608.037500", "114609.527500", "114611.017500", "114612.507500", "114613.997500", "114615.487500", "114616.977500", "114618.467500", "114619.957500", "114621.447500", "114622.937500", "114624.427500", "114625.917500", "114627.407500", "114628.897500", "114630.387500", "114631.877500", "114633.367500", "114634.857500", "114636.347500", "114637.837500", "114639.327500", "114640.817500", "114642.307500", "114643.797500", "114645.287500", "114646.777500", "114648.267500", "114649.757500", "114651.247500", "114652.737500", "114654.227500", "114655.717500", "114657.207500", "114658.697500", "114700.187500", "114701.677500", "114703.167500", "114704.657500", "114706.147500", "114707.637500", "114709.127500", "114710.617500", "114712.107500", "114713.597500", "114715.087500", "114716.577500", "114718.067500"],
      "ContentTime": ["113926.238000", "113926.241000", "113926.243000", "113926.246000", "113926.253000", "113926.255000", "113926.258000", "113926.260000", "113926.263000", "113926.266000", "113926.268000", "113926.284000", "113926.287000", "113926.289000", "113926.292000", "113926.294000", "113926.297000", "113926.300000", "113946.190000", "113946.192000", "113946.195000", "113946.198000", "113946.200000", "113946.203000", "113946.205000", "113946.208000", "113946.210000", "113946.213000", "113946.215000", "113946.218000", "113946.220000", "113946.223000", "113946.225000", "113946.228000", "113946.230000", "113946.233000", "113946.235000", "113946.238000", "113946.240000", "114006.212000", "114006.215000", "114006.217000", "114006.220000", "114006.222000", "114006.229000", "114006.232000", "114006.235000", "114006.237000", "114006.240000", "114006.242000", "114006.245000", "114006.247000", "114006.250000", "114006.258000", "114006.261000", "114006.263000", "114006.266000", "114006.268000", "114006.271000", "114026.200000", "114026.203000", "114026.206000", "114026.208000", "114026.211000", "114026.214000", "114026.216000", "114026.219000", "114026.221000", "114026.224000", "114026.226000", "114026.229000", "114026.231000", "114026.234000", "114026.237000", "114026.239000", "114026.242000", "114026.244000", "114026.247000", "114026.250000", "114106.260000", "114106.263000", "114106.265000", "114106.268000", "114106.270000", "114106.273000", "114106.275000", "114106.278000", "114106.280000", "114106.283000", "114106.285000", "114106.288000", "114106.290000", "114106.293000", "114106.296000", "114106.298000", "114106.301000", "114106.303000", "114106.306000", "114106.308000", "114106.311000", "114106.313000", "114106.316000", "114106.318000", "114106.321000", "114106.323000", "114106.326000", "114106.329000", "114106.331000", "114106.333000", "114106.336000", "114106.338000", "114106.341000", "114146.222000", "114146.225000", "114146.227000", "114146.230000", "114146.232000", "114146.235000", "114146.238000", "114146.240000", "114146.243000", "114146.245000", "114146.248000", "114146.250000", "114146.253000", "114146.255000", "114146.258000", "114146.261000", "114146.263000", "114146.266000", "114146.268000", "114146.271000", "114146.273000", "114146.276000", "114146.279000", "114146.281000", "114146.284000", "114146.286000", "114226.240000", "114226.243000", "114226.246000", "114226.248000", "114226.251000", "114226.262000", "114226.265000", "114226.267000", "114226.270000", "114226.273000", "114226.275000", "114226.278000", "114226.281000", "114226.283000", "114226.286000", "114226.288000", "114226.291000", "114226.294000", "114226.296000", "114226.299000", "114226.301000", "114226.304000", "114226.307000", "114226.309000", "114226.312000", "114226.314000", "114226.317000", "114306.226000", "114306.229000", "114306.231000", "114306.234000", "114306.237000", "114306.239000", "114306.242000", "114306.244000", "114306.247000", "114306.249000", "114306.252000", "114306.255000", "114306.257000", "114306.260000", "114306.262000", "114306.265000", "114306.267000", "114306.270000", "114306.272000", "114306.275000", "114306.278000", "114306.280000", "114306.283000", "114306.286000", "114306.288000", "114306.291000", "114306.293000", "114346.234000", "114346.237000", "114346.239000", "114346.242000", "114346.244000", "114346.247000", "114346.249000", "114346.252000", "114346.254000", "114346.257000", "114346.260000", "114346.262000", "114346.265000", "114346.267000", "114346.270000", "114346.273000", "114346.275000", "114346.278000", "114346.280000", "114346.283000", "114346.286000", "114346.288000", "114346.291000", "114346.294000", "114346.296000", "114346.299000", "114346.301000", "114426.219000", "114426.221000", "114426.224000", "114426.227000", "114426.229000", "114426.232000", "114426.234000", "114426.237000", "114426.240000", "114426.242000", "114426.245000", "114426.247000", "114426.250000", "114426.252000", "114426.255000", "114426.257000", "114426.260000", "114426.263000", "114426.265000", "114426.268000", "114426.270000", "114426.273000", "114426.275000", "114426.287000", "114426.290000", "114426.292000", "114426.295000", "114506.752000", "114506.755000", "114506.758000", "114506.760000", "114506.763000", "114506.765000", "114506.768000", "114506.771000", "114506.773000", "114506.776000", "114506.779000", "114506.781000", "114506.784000", "114506.787000", "114506.789000", "114506.792000", "114506.795000", "114506.797000", "114506.800000", "114506.802000", "114506.805000", "114506.808000", "114506.810000", "114506.813000", "114506.815000", "114506.818000", "114506.821000", "114546.230000", "114546.233000", "114546.235000", "114546.238000", "114546.241000", "114546.243000", "114546.246000", "114546.248000", "114546.251000", "114546.253000", "114546.256000", "114546.259000", "114546.261000", "114546.264000", "114546.267000", "114546.269000", "114546.272000", "114546.274000", "114546.277000", "114546.280000", "114546.282000", "114546.285000", "114546.287000", "114546.290000", "114546.292000", "114546.295000", "114546.297000", "114626.220000", "114626.223000", "114626.226000", "114626.228000", "114626.231000", "114626.233000", "114626.236000", "114626.239000", "114626.241000", "114626.244000", "114626.246000", "114626.249000", "114626.252000", "114626.254000", "114626.257000", "114626.260000", "114626.262000", "114626.265000", "114626.268000", "114626.270000", "114626.273000", "114626.276000", "114626.279000", "114626.282000", "114626.285000", "114626.287000", "114706.240000", "114706.242000", "114706.245000", "114706.248000", "114706.250000", "114706.253000", "114706.255000", "114706.258000", "114706.261000", "114706.263000", "114706.266000", "114706.268000", "114706.271000", "114706.274000", "114706.276000", "114706.279000", "114706.281000", "114706.284000", "114706.286000", "114706.289000", "114706.291000", "114706.294000", "114706.297000", "114706.299000", "114706.302000", "114706.304000", "114706.307000", "114720.438000", "114720.442000", "114720.444000", "114720.447000", "114720.450000", "114720.452000", "114720.455000", "114720.457000", "114720.460000", "114720.462000"],
      "InstanceCreationTime": ["113926.238000", "113926.241000", "113926.243000", "113926.246000", "113926.253000", "113926.255000", "113926.258000", "113926.260000", "113926.263000", "113926.266000", "113926.268000", "113926.284000", "113926.287000", "113926.289000", "113926.292000", "113926.294000", "113926.297000", "113926.300000", "113946.190000", "113946.192000", "113946.195000", "113946.198000", "113946.200000", "113946.203000", "113946.205000", "113946.208000", "113946.210000", "113946.213000", "113946.215000", "113946.218000", "113946.220000", "113946.223000", "113946.225000", "113946.228000", "113946.230000", "113946.233000", "113946.235000", "113946.238000", "113946.240000", "114006.212000", "114006.215000", "114006.217000", "114006.220000", "114006.222000", "114006.229000", "114006.232000", "114006.235000", "114006.237000", "114006.240000", "114006.242000", "114006.245000", "114006.247000", "114006.250000", "114006.258000", "114006.261000", "114006.263000", "114006.266000", "114006.268000", "114006.271000", "114026.200000", "114026.203000", "114026.206000", "114026.208000", "114026.211000", "114026.214000", "114026.216000", "114026.219000", "114026.221000", "114026.224000", "114026.226000", "114026.229000", "114026.231000", "114026.234000", "114026.237000", "114026.239000", "114026.242000", "114026.244000", "114026.247000", "114026.250000", "114106.260000", "114106.263000", "114106.265000", "114106.268000", "114106.270000", "114106.273000", "114106.275000", "114106.278000", "114106.280000", "114106.283000", "114106.285000", "114106.288000", "114106.290000", "114106.293000", "114106.296000", "114106.298000", "114106.301000", "114106.303000", "114106.306000", "114106.308000", "114106.311000", "114106.313000", "114106.316000", "114106.318000", "114106.321000", "114106.323000", "114106.326000", "114106.329000", "114106.331000", "114106.333000", "114106.336000", "114106.338000", "114106.341000", "114146.222000", "114146.225000", "114146.227000", "114146.230000", "114146.232000", "114146.235000", "114146.238000", "114146.240000", "114146.243000", "114146.245000", "114146.248000", "114146.250000", "114146.253000", "114146.255000", "114146.258000", "114146.261000", "114146.263000", "114146.266000", "114146.268000", "114146.271000", "114146.273000", "114146.276000", "114146.279000", "114146.281000", "114146.284000", "114146.286000", "114226.240000", "114226.243000", "114226.246000", "114226.248000", "114226.251000", "114226.262000", "114226.265000", "114226.267000", "114226.270000", "114226.273000", "114226.275000", "114226.278000", "114226.281000", "114226.283000", "114226.286000", "114226.288000", "114226.291000", "114226.294000", "114226.296000", "114226.299000", "114226.301000", "114226.304000", "114226.307000", "114226.309000", "114226.312000", "114226.314000", "114226.317000", "114306.226000", "114306.229000", "114306.231000", "114306.234000", "114306.237000", "114306.239000", "114306.242000", "114306.244000", "114306.247000", "114306.249000", "114306.252000", "114306.255000", "114306.257000", "114306.260000", "114306.262000", "114306.265000", "114306.267000", "114306.270000", "114306.272000", "114306.275000", "114306.278000", "114306.280000", "114306.283000", "114306.286000", "114306.288000", "114306.291000", "114306.293000", "114346.234000", "114346.237000", "114346.239000", "114346.242000", "114346.244000", "114346.247000", "114346.249000", "114346.252000", "114346.254000", "114346.257000", "114346.260000", "114346.262000", "114346.265000", "114346.267000", "114346.270000", "114346.273000", "114346.275000", "114346.278000", "114346.280000", "114346.283000", "114346.286000", "114346.288000", "114346.291000", "114346.294000", "114346.296000", "114346.299000", "114346.301000", "114426.219000", "114426.221000", "114426.224000", "114426.227000", "114426.229000", "114426.232000", "114426.234000", "114426.237000", "114426.240000", "114426.242000", "114426.245000", "114426.247000", "114426.250000", "114426.252000", "114426.255000", "114426.257000", "114426.260000", "114426.263000", "114426.265000", "114426.268000", "114426.270000", "114426.273000", "114426.275000", "114426.287000", "114426.290000", "114426.292000", "114426.295000", "114506.752000", "114506.755000", "114506.758000", "114506.760000", "114506.763000", "114506.765000", "114506.768000", "114506.771000", "114506.773000", "114506.776000", "114506.779000", "114506.781000", "114506.784000", "114506.787000", "114506.789000", "114506.792000", "114506.795000", "114506.797000", "114506.800000", "114506.802000", "114506.805000", "114506.808000", "114506.810000", "114506.813000", "114506.815000", "114506.818000", "114506.821000", "114546.230000", "114546.233000", "114546.235000", "114546.238000", "114546.241000", "114546.243000", "114546.246000", "114546.248000", "114546.251000", "114546.253000", "114546.256000", "114546.259000", "114546.261000", "114546.264000", "114546.267000", "114546.269000", "114546.272000", "114546.274000", "114546.277000", "114546.280000", "114546.282000", "114546.285000", "114546.287000", "114546.290000", "114546.292000", "114546.295000", "114546.297000", "114626.220000", "114626.223000", "114626.226000", "114626.228000", "114626.231000", "114626.233000", "114626.236000", "114626.239000", "114626.241000", "114626.244000", "114626.246000", "114626.249000", "114626.252000", "114626.254000", "114626.257000", "114626.260000", "114626.262000", "114626.265000", "114626.268000", "114626.270000", "114626.273000", "114626.276000", "114626.279000", "114626.282000", "114626.285000", "114626.287000", "114706.240000", "114706.242000", "114706.245000", "114706.248000", "114706.250000", "114706.253000", "114706.255000", "114706.258000", "114706.261000", "114706.263000", "114706.266000", "114706.268000", "114706.271000", "114706.274000", "114706.276000", "114706.279000", "114706.281000", "114706.284000", "114706.286000", "114706.289000", "114706.291000", "114706.294000", "114706.297000", "114706.299000", "114706.302000", "114706.304000", "114706.307000", "114720.438000", "114720.442000", "114720.444000", "114720.447000", "114720.450000", "114720.452000", "114720.455000", "114720.457000", "114720.460000", "114720.462000"],
      "InstanceNumber": [1, 2, 3, 4, 5, 6, 7, 8, 9, 10, 11, 12, 13, 14, 15, 16, 17, 18, 19, 20, 21, 22, 23, 24, 25, 26, 27, 28, 29, 30, 31, 32, 33, 34, 35, 36, 37, 38, 39, 40, 41, 42, 43, 44, 45, 46, 47, 48, 49, 50, 51, 52, 53, 54, 55, 56, 57, 58, 59, 60, 61, 62, 63, 64, 65, 66, 67, 68, 69, 70, 71, 72, 73, 74, 75, 76, 77, 78, 79, 80, 81, 82, 83, 84, 85, 86, 87, 88, 89, 90, 91, 92, 93, 94, 95, 96, 97, 98, 99, 100, 101, 102, 103, 104, 105, 106, 107, 108, 109, 110, 111, 112, 113, 114, 115, 116, 117, 118, 119, 120, 121, 122, 123, 124, 125, 126, 127, 128, 129, 130, 131, 132, 133, 134, 135, 136, 137, 138, 139, 140, 141, 142, 143, 144, 145, 146, 147, 148, 149, 150, 151, 152, 153, 154, 155, 156, 157, 158, 159, 160, 161, 162, 163, 164, 165, 166, 167, 168, 169, 170, 171, 172, 173, 174, 175, 176, 177, 178, 179, 180, 181, 182, 183, 184, 185, 186, 187, 188, 189, 190, 191, 192, 193, 194, 195, 196, 197, 198, 199, 200, 201, 202, 203, 204, 205, 206, 207, 208, 209, 210, 211, 212, 213, 214, 215, 216, 217, 218, 219, 220, 221, 222, 223, 224, 225, 226, 227, 228, 229, 230, 231, 232, 233, 234, 235, 236, 237, 238, 239, 240, 241, 242, 243, 244, 245, 246, 247, 248, 249, 250, 251, 252, 253, 254, 255, 256, 257, 258, 259, 260, 261, 262, 263, 264, 265, 266, 267, 268, 269, 270, 271, 272, 273, 274, 275, 276, 277, 278, 279, 280, 281, 282, 283, 284, 285, 286, 287, 288, 289, 290, 291, 292, 293, 294, 295, 296, 297, 298, 299, 300, 301, 302, 303, 304, 305, 306, 307, 308, 309, 310, 311, 312, 313, 314, 315, 316, 317, 318, 319, 320, 321, 322, 323, 324, 325, 326, 327, 328, 329, 330, 331, 332, 333, 334, 335, 336, 337, 338, 339, 340, 341, 342, 343, 344, 345, 346, 347, 348, 349, 350, 351, 352, 353, 354, 355, 356, 357, 358, 359, 360, 361, 362, 363],
