{
  "AcquisitionMatrixPE": 104,
  "AcquisitionNumber": 1,
  "AcquisitionTime": "18:30:24.022500",
  "BandwidthPerPixelPhaseEncode": 17.17,
  "BaseResolution": 104,
  "BodyPartExamined": "BRAIN",
  "CoilCombinationMethod": "Sum of Squares",
  "ConsistencyInfo": "N4_VE11C_LATEST_20160120",
  "ConversionSoftware": "dcm2niix",
  "ConversionSoftwareVersion": "v1.0.20220505",
  "DerivedVendorReportedEchoSpacing": 0.000560011,
  "DeviceSerialNumber": "167006",
  "DwellTime": 2.1e-06,
  "EchoTime": 0.037,
  "EchoTrainLength": 104,
  "EffectiveEchoSpacing": 0.000560011,
  "FlipAngle": 52,
  "HeudiconvVersion": "0.5.3.post811+g6206e14",
  "ImageComments": "Unaliased MB4/PE3/LB",
  "ImageOrientationPatientDICOM": [0.99942, -0.0307991, 0.0145336, 0.0340273, 0.920597, -0.389028],
  "ImageOrientationText": "Tra>Cor(-22.9)>Sag(0.1)",
  "ImageType": [
    "ORIGINAL",
    "PRIMARY",
    "M",
    "MB",
    "ND",
    "MOSAIC"
],
  "ImagingFrequency": 123.259,
  "InPlanePhaseEncodingDirectionDICOM": "COL",
  "InstitutionAddress": "Chemin Queen-Mary 4565,Montreal,District,CA,H3W 1W5",
  "InstitutionName": "IUGM",
  "InstitutionalDepartmentName": "Department",
  "MRAcquisitionType": "2D",
  "MagneticFieldStrength": 3,
  "Manufacturer": "Siemens",
  "ManufacturersModelName": "Prisma_fit",
  "MatrixCoilMode": "SENSE",
  "Modality": "MR",
  "MultibandAccelerationFactor": 4,
  "PartialFourier": 1,
  "PatientPosition": "HFS",
  "PercentPhaseFOV": 100,
  "PercentSampling": 100,
  "PhaseEncodingDirection": "j",
  "PhaseEncodingSteps": 104,
  "PhaseResolution": 1,
  "PixelBandwidth": 2290,
  "ProcedureStepDescription": "games^mario3",
  "ProtocolName": "func_task-mario3_run-03",
  "PulseSequenceDetails": "%CustomerSeq%\\cmrr_mbep2d_bold",
  "ReceiveCoilActiveElements": "HC1-7;NC1,2",
  "ReceiveCoilName": "HeadNeck_64",
  "ReconMatrixPE": 104,
  "RepetitionTime": 1.49,
  "SAR": 0.0573551,
  "ScanOptions": "FS",
  "ScanningSequence": "EP",
  "SequenceName": "epfid2d1_104",
  "SequenceVariant": "SK\\SS",
  "SeriesDescription": "func_task-mario3_run-03",
  "SeriesNumber": 16,
  "ShimSetting": [585, -7292, -8813, 375, 24, -372, -69, 94],
  "SliceThickness": 2,
  "SliceTiming": [0, 0.7825, 0.0975, 0.8825, 0.195, 0.98, 0.2925, 1.0775, 0.3925, 1.175, 0.49, 1.2725, 0.5875, 1.3725, 0.685, 0, 0.7825, 0.0975, 0.8825, 0.195, 0.98, 0.2925, 1.0775, 0.3925, 1.175, 0.49, 1.2725, 0.5875, 1.3725, 0.685, 0, 0.7825, 0.0975, 0.8825, 0.195, 0.98, 0.2925, 1.0775, 0.3925, 1.175, 0.49, 1.2725, 0.5875, 1.3725, 0.685, 0, 0.7825, 0.0975, 0.8825, 0.195, 0.98, 0.2925, 1.0775, 0.3925, 1.175, 0.49, 1.2725, 0.5875, 1.3725, 0.685],
  "SoftwareVersions": "syngo MR E11",
  "SpacingBetweenSlices": 2,
  "StationName": "MRC35049",
  "TaskName": "mario3",
  "TotalReadoutTime": 0.0576811,
  "TxRefAmp": 266.736,
  "WipMemBlock": "2984ad65-9123-4d47-adc4-9230afcfe983||Sequence: R017 ve11c/master r/75a17815+; Jun 28 2022 16:32:11 by eja",
  "dcmmeta_affine": [
    [-1.9988398551940918, 0.06805466115474701, 0.0027957772836089134, 101.31775665283203],
    [0.0615982860326767, 1.8411946296691895, -0.7785934805870056, -71.13552856445312],
    [0.02906724251806736, 0.778055727481842, 1.8422226905822754, -63.43790817260742],
    [0.0, 0.0, 0.0, 1.0]
],
  "dcmmeta_reorient_transform": [
    [0.0, -1.0, 0.0, 103.0],
    [1.0, 0.0, 0.0, 0.0],
    [0.0, 0.0, 1.0, 0.0],
    [0.0, 0.0, 0.0, 1.0]
],
  "dcmmeta_shape": [104, 104, 60, 334],
  "dcmmeta_slice_dim": 2,
  "dcmmeta_version": 0.6,
  "global": {
    "const": {
      "AcquisitionMatrix": [104, 0, 0, 104],
      "AngioFlag": "N",
      "BitsAllocated": 16,
      "BitsStored": 16,
      "BodyPartExamined": "BRAIN",
      "Columns": 832,
      "EchoNumbers": 1,
      "EchoTime": 37.0,
      "EchoTrainLength": 104,
      "FlipAngle": 52.0,
      "HighBit": 15,
      "ImageOrientationPatient": [0.99941992506129, -0.030799143342, 0.01453362170567, 0.0340273316325, 0.92059734009449, -0.3890278629005],
      "ImagePositionPatient": [-860.6769912441, -766.2806074648, 289.33363944497],
      "ImageType": [
        "ORIGINAL",
        "PRIMARY",
        "M",
        "MB",
        "ND",
        "MOSAIC"
],
      "ImagedNucleus": "1H",
      "ImagingFrequency": 123.258844,
      "InPlanePhaseEncodingDirection": "COL",
      "MRAcquisitionType": "2D",
      "MagneticFieldStrength": 3.0,
      "Manufacturer": "SIEMENS",
      "ManufacturerModelName": "Prisma_fit",
      "Modality": "MR",
      "NumberOfAverages": 1.0,
      "NumberOfPhaseEncodingSteps": 104,
      "PercentPhaseFieldOfView": 100.0,
      "PercentSampling": 100.0,
      "PerformedProcedureStepStartTime": "180629.274000",
      "PhotometricInterpretation": "MONOCHROME2",
      "PixelBandwidth": 2290.0,
      "PixelRepresentation": 0,
      "PixelSpacing": [2.0, 2.0],
      "ProtocolName": "func_task-mario3_run-03",
      "RepetitionTime": 1490.0,
      "Rows": 832,
      "SAR": 0.05735512673251,
      "SamplesPerPixel": 1,
      "ScanOptions": "FS",
      "ScanningSequence": "EP",
      "SequenceName": "epfid2d1_104",
      "SequenceVariant": [
        "SK",
        "SS"
],
      "SeriesDescription": "func_task-mario3_run-03",
      "SeriesNumber": 16,
      "SeriesTime": "183129.482000",
      "SliceLocation": -30.598914754205,
      "SliceThickness": 2.0,
      "SmallestImagePixelValue": 0,
      "SoftwareVersions": "syngo MR E11",
      "SpacingBetweenSlices": 2.0000000548805,
      "SpecificCharacterSet": "ISO_IR 100",
      "StudyID": "1",
      "StudyTime": "180629.186000",
      "TransmitCoilName": "Body",
      "VariableFlipAngleFlag": "N",
      "WindowCenterWidthExplanation": "Algo1",
      "dBdt": 0.0},
    "slices": {}
  },
  "time": {
    "samples": {
      "AcquisitionNumber": [1, 2, 3, 4, 5, 6, 7, 8, 9, 10, 11, 12, 13, 14, 15, 16, 17, 18, 19, 20, 21, 22, 23, 24, 25, 26, 27, 28, 29, 30, 31, 32, 33, 34, 35, 36, 37, 38, 39, 40, 41, 42, 43, 44, 45, 46, 47, 48, 49, 50, 51, 52, 53, 54, 55, 56, 57, 58, 59, 60, 61, 62, 63, 64, 65, 66, 67, 68, 69, 70, 71, 72, 73, 74, 75, 76, 77, 78, 79, 80, 81, 82, 83, 84, 85, 86, 87, 88, 89, 90, 91, 92, 93, 94, 95, 96, 97, 98, 99, 100, 101, 102, 103, 104, 105, 106, 107, 108, 109, 110, 111, 112, 113, 114, 115, 116, 117, 118, 119, 120, 121, 122, 123, 124, 125, 126, 127, 128, 129, 130, 131, 132, 133, 134, 135, 136, 137, 138, 139, 140, 141, 142, 143, 144, 145, 146, 147, 148, 149, 150, 151, 152, 153, 154, 155, 156, 157, 158, 159, 160, 161, 162, 163, 164, 165, 166, 167, 168, 169, 170, 171, 172, 173, 174, 175, 176, 177, 178, 179, 180, 181, 182, 183, 184, 185, 186, 187, 188, 189, 190, 191, 192, 193, 194, 195, 196, 197, 198, 199, 200, 201, 202, 203, 204, 205, 206, 207, 208, 209, 210, 211, 212, 213, 214, 215, 216, 217, 218, 219, 220, 221, 222, 223, 224, 225, 226, 227, 228, 229, 230, 231, 232, 233, 234, 235, 236, 237, 238, 239, 240, 241, 242, 243, 244, 245, 246, 247, 248, 249, 250, 251, 252, 253, 254, 255, 256, 257, 258, 259, 260, 261, 262, 263, 264, 265, 266, 267, 268, 269, 270, 271, 272, 273, 274, 275, 276, 277, 278, 279, 280, 281, 282, 283, 284, 285, 286, 287, 288, 289, 290, 291, 292, 293, 294, 295, 296, 297, 298, 299, 300, 301, 302, 303, 304, 305, 306, 307, 308, 309, 310, 311, 312, 313, 314, 315, 316, 317, 318, 319, 320, 321, 322, 323, 324, 325, 326, 327, 328, 329, 330, 331, 332, 333, 334],
      "AcquisitionTime": ["183024.022500", "183025.512500", "183027.002500", "183028.492500", "183029.982500", "183031.472500", "183032.962500", "183034.452500", "183035.942500", "183037.432500", "183038.922500", "183040.412500", "183041.902500", "183043.392500", "183044.882500", "183046.372500", "183047.862500", "183049.352500", "183050.842500", "183052.332500", "183053.822500", "183055.312500", "183056.802500", "183058.292500", "183059.782500", "183101.272500", "183102.762500", "183104.252500", "183105.742500", "183107.232500", "183108.722500", "183110.212500", "183111.702500", "183113.192500", "183114.682500", "183116.172500", "183117.662500", "183119.152500", "183120.642500", "183122.132500", "183123.622500", "183125.112500", "183126.602500", "183128.092500", "183129.582500", "183131.072500", "183132.562500", "183134.052500", "183135.542500", "183137.032500", "183138.522500", "183140.012500", "183141.502500", "183142.992500", "183144.482500", "183145.972500", "183147.462500", "183148.952500", "183150.442500", "183151.932500", "183153.422500", "183154.912500", "183156.402500", "183157.892500", "183159.382500", "183200.872500", "183202.362500", "183203.852500", "183205.342500", "183206.832500", "183208.322500", "183209.812500", "183211.302500", "183212.792500", "183214.282500", "183215.772500", "183217.262500", "183218.752500", "183220.242500", "183221.732500", "183223.222500", "183224.712500", "183226.202500", "183227.692500", "183229.182500", "183230.672500", "183232.162500", "183233.652500", "183235.142500", "183236.632500", "183238.122500", "183239.612500", "183241.102500", "183242.592500", "183244.082500", "183245.572500", "183247.062500", "183248.552500", "183250.042500", "183251.532500", "183253.022500", "183254.512500", "183256.002500", "183257.492500", "183258.982500", "183300.472500", "183301.962500", "183303.452500", "183304.942500", "183306.432500", "183307.922500", "183309.412500", "183310.902500", "183312.392500", "183313.882500", "183315.372500", "183316.862500", "183318.352500", "183319.842500", "183321.332500", "183322.822500", "183324.312500", "183325.802500", "183327.292500", "183328.782500", "183330.272500", "183331.762500", "183333.252500", "183334.742500", "183336.232500", "183337.722500", "183339.212500", "183340.702500", "183342.192500", "183343.682500", "183345.172500", "183346.662500", "183348.152500", "183349.642500", "183351.132500", "183352.622500", "183354.112500", "183355.602500", "183357.092500", "183358.582500", "183400.072500", "183401.562500", "183403.052500", "183404.542500", "183406.032500", "183407.522500", "183409.012500", "183410.502500", "183411.992500", "183413.482500", "183414.972500", "183416.462500", "183417.952500", "183419.442500", "183420.932500", "183422.422500", "183423.912500", "183425.402500", "183426.892500", "183428.382500", "183429.872500", "183431.362500", "183432.852500", "183434.342500", "183435.832500", "183437.322500", "183438.812500", "183440.302500", "183441.792500", "183443.282500", "183444.772500", "183446.262500", "183447.752500", "183449.242500", "183450.732500", "183452.222500", "183453.712500", "183455.202500", "183456.692500", "183458.182500", "183459.672500", "183501.162500", "183502.652500", "183504.142500", "183505.632500", "183507.122500", "183508.612500", "183510.102500", "183511.592500", "183513.082500", "183514.572500", "183516.062500", "183517.552500", "183519.042500", "183520.532500", "183522.022500", "183523.512500", "183525.002500", "183526.492500", "183527.982500", "183529.472500", "183530.962500", "183532.452500", "183533.942500", "183535.432500", "183536.922500", "183538.412500", "183539.902500", "183541.392500", "183542.882500", "183544.372500", "183545.862500", "183547.352500", "183548.842500", "183550.332500", "183551.822500", "183553.312500", "183554.802500", "183556.292500", "183557.782500", "183559.272500", "183600.762500", "183602.252500", "183603.742500", "183605.232500", "183606.722500", "183608.212500", "183609.702500", "183611.192500", "183612.682500", "183614.172500", "183615.662500", "183617.152500", "183618.642500", "183620.132500", "183621.622500", "183623.112500", "183624.602500", "183626.092500", "183627.582500", "183629.072500", "183630.562500", "183632.052500", "183633.542500", "183635.032500", "183636.522500", "183638.012500", "183639.502500", "183640.992500", "183642.482500", "183643.972500", "183645.462500", "183646.952500", "183648.442500", "183649.932500", "183651.422500", "183652.912500", "183654.402500", "183655.892500", "183657.382500", "183658.872500", "183700.362500", "183701.852500", "183703.342500", "183704.832500", "183706.322500", "183707.812500", "183709.302500", "183710.792500", "183712.282500", "183713.772500", "183715.262500", "183716.752500", "183718.242500", "183719.732500", "183721.222500", "183722.712500", "183724.202500", "183725.692500", "183727.182500", "183728.672500", "183730.162500", "183731.652500", "183733.142500", "183734.632500", "183736.122500", "183737.612500", "183739.102500", "183740.592500", "183742.082500", "183743.572500", "183745.062500", "183746.552500", "183748.042500", "183749.532500", "183751.022500", "183752.512500", "183754.002500", "183755.492500", "183756.982500", "183758.472500", "183759.962500", "183801.452500", "183802.942500", "183804.432500", "183805.922500", "183807.412500", "183808.902500", "183810.392500", "183811.882500", "183813.372500", "183814.862500", "183816.352500", "183817.842500", "183819.332500", "183820.822500", "183822.312500", "183823.802500", "183825.292500", "183826.782500", "183828.272500", "183829.762500", "183831.252500", "183832.742500", "183834.232500", "183835.722500", "183837.212500", "183838.702500", "183840.192500"],
      "ContentTime": ["183129.485000", "183129.489000", "183129.493000", "183129.496000", "183129.499000", "183129.503000", "183129.506000", "183129.509000", "183129.512000", "183129.516000", "183129.525000", "183129.528000", "183129.531000", "183129.535000", "183129.538000", "183129.541000", "183129.544000", "183149.446000", "183149.450000", "183149.453000", "183149.462000", "183149.465000", "183149.468000", "183149.471000", "183149.475000", "183149.478000", "183149.481000", "183149.484000", "183149.488000", "183149.491000", "183149.494000", "183149.497000", "183149.501000", "183149.504000", "183149.507000", "183149.510000", "183149.514000", "183209.446000", "183209.450000", "183209.454000", "183209.457000", "183209.460000", "183209.464000", "183209.467000", "183209.470000", "183209.474000", "183209.478000", "183209.482000", "183209.486000", "183209.489000", "183209.498000", "183209.502000", "183209.505000", "183209.509000", "183209.513000", "183209.516000", "183209.520000", "183209.524000", "183229.446000", "183229.450000", "183229.453000", "183229.456000", "183229.459000", "183229.463000", "183229.466000", "183229.469000", "183229.472000", "183229.476000", "183229.479000", "183229.482000", "183229.485000", "183229.489000", "183229.492000", "183229.495000", "183229.499000", "183229.502000", "183229.505000", "183229.508000", "183309.447000", "183309.451000", "183309.454000", "183309.465000", "183309.469000", "183309.472000", "183309.475000", "183309.479000", "183309.482000", "183309.485000", "183309.489000", "183309.492000", "183309.496000", "183309.499000", "183309.502000", "183309.506000", "183309.509000", "183309.512000", "183309.515000", "183309.519000", "183309.522000", "183309.525000", "183309.529000", "183309.532000", "183309.535000", "183309.538000", "183309.542000", "183309.545000", "183309.548000", "183309.552000", "183309.555000", "183309.558000", "183349.447000", "183349.451000", "183349.454000", "183349.457000", "183349.460000", "183349.464000", "183349.467000", "183349.470000", "183349.474000", "183349.477000", "183349.480000", "183349.483000", "183349.487000", "183349.490000", "183349.493000", "183349.497000", "183349.500000", "183349.503000", "183349.506000", "183349.510000", "183349.513000", "183349.516000", "183349.519000", "183349.523000", "183349.526000", "183349.529000", "183349.533000", "183429.446000", "183429.450000", "183429.453000", "183429.456000", "183429.460000", "183429.463000", "183429.466000", "183429.470000", "183429.473000", "183429.476000", "183429.479000", "183429.483000", "183429.486000", "183429.489000", "183429.493000", "183429.496000", "183429.499000", "183429.502000", "183429.506000", "183429.509000", "183429.532000", "183429.535000", "183429.538000", "183429.542000", "183429.545000", "183429.548000", "183429.551000", "183509.446000", "183509.450000", "183509.453000", "183509.456000", "183509.460000", "183509.463000", "183509.466000", "183509.470000", "183509.473000", "183509.476000", "183509.480000", "183509.483000", "183509.486000", "183509.489000", "183509.493000", "183509.496000", "183509.499000", "183509.502000", "183509.506000", "183509.509000", "183509.512000", "183509.516000", "183509.519000", "183509.522000", "183509.525000", "183509.529000", "183509.532000", "183549.447000", "183549.451000", "183549.454000", "183549.457000", "183549.461000", "183549.464000", "183549.467000", "183549.470000", "183549.474000", "183549.477000", "183549.480000", "183549.484000", "183549.487000", "183549.490000", "183549.493000", "183549.497000", "183549.500000", "183549.503000", "183549.506000", "183549.510000", "183549.513000", "183549.516000", "183549.520000", "183549.523000", "183549.526000", "183549.529000", "183549.533000", "183629.446000", "183629.450000", "183629.453000", "183629.457000", "183629.460000", "183629.463000", "183629.466000", "183629.470000", "183629.473000", "183629.476000", "183629.480000", "183629.483000", "183629.486000", "183629.489000", "183629.493000", "183629.497000", "183629.500000", "183629.504000", "183629.507000", "183629.510000", "183629.514000", "183629.517000", "183629.520000", "183629.524000", "183629.527000", "183629.530000", "183709.446000", "183709.450000", "183709.453000", "183709.457000", "183709.460000", "183709.463000", "183709.466000", "183709.470000", "183709.473000", "183709.476000", "183709.491000", "183709.494000", "183709.498000", "183709.501000", "183709.504000", "183709.507000", "183709.511000", "183709.514000", "183709.517000", "183709.521000", "183709.524000", "183709.527000", "183709.530000", "183709.534000", "183709.537000", "183709.540000", "183709.544000", "183749.447000", "183749.451000", "183749.454000", "183749.458000", "183749.461000", "183749.464000", "183749.467000", "183749.471000", "183749.474000", "183749.477000", "183749.481000", "183749.484000", "183749.487000", "183749.490000", "183749.494000", "183749.497000", "183749.500000", "183749.504000", "183749.507000", "183749.510000", "183749.514000", "183749.517000", "183749.520000", "183749.524000", "183749.527000", "183749.531000", "183749.534000", "183829.447000", "183829.451000", "183829.454000", "183829.458000", "183829.461000", "183829.464000", "183829.468000", "183829.471000", "183829.474000", "183829.478000", "183829.481000", "183829.484000", "183829.487000", "183829.491000", "183829.494000", "183829.497000", "183829.501000", "183829.504000", "183829.507000", "183829.511000", "183829.514000", "183829.517000", "183829.521000", "183829.524000", "183829.527000", "183829.531000", "183829.534000", "183843.544000", "183843.548000", "183843.551000", "183843.554000", "183843.558000", "183843.561000", "183843.565000", "183843.568000", "183843.572000"],
      "InstanceCreationTime": ["183129.485000", "183129.489000", "183129.493000", "183129.496000", "183129.499000", "183129.503000", "183129.506000", "183129.509000", "183129.512000", "183129.516000", "183129.525000", "183129.528000", "183129.531000", "183129.535000", "183129.538000", "183129.541000", "183129.544000", "183149.446000", "183149.450000", "183149.453000", "183149.462000", "183149.465000", "183149.468000", "183149.471000", "183149.475000", "183149.478000", "183149.481000", "183149.484000", "183149.488000", "183149.491000", "183149.494000", "183149.497000", "183149.501000", "183149.504000", "183149.507000", "183149.510000", "183149.514000", "183209.446000", "183209.450000", "183209.454000", "183209.457000", "183209.460000", "183209.464000", "183209.467000", "183209.470000", "183209.474000", "183209.478000", "183209.482000", "183209.486000", "183209.489000", "183209.498000", "183209.502000", "183209.505000", "183209.509000", "183209.513000", "183209.516000", "183209.520000", "183209.524000", "183229.446000", "183229.450000", "183229.453000", "183229.456000", "183229.459000", "183229.463000", "183229.466000", "183229.469000", "183229.472000", "183229.476000", "183229.479000", "183229.482000", "183229.485000", "183229.489000", "183229.492000", "183229.495000", "183229.499000", "183229.502000", "183229.505000", "183229.508000", "183309.447000", "183309.451000", "183309.454000", "183309.465000", "183309.469000", "183309.472000", "183309.475000", "183309.479000", "183309.482000", "183309.485000", "183309.489000", "183309.492000", "183309.496000", "183309.499000", "183309.502000", "183309.506000", "183309.509000", "183309.512000", "183309.515000", "183309.519000", "183309.522000", "183309.525000", "183309.529000", "183309.532000", "183309.535000", "183309.538000", "183309.542000", "183309.545000", "183309.548000", "183309.552000", "183309.555000", "183309.558000", "183349.447000", "183349.451000", "183349.454000", "183349.457000", "183349.460000", "183349.464000", "183349.467000", "183349.470000", "183349.474000", "183349.477000", "183349.480000", "183349.483000", "183349.487000", "183349.490000", "183349.493000", "183349.497000", "183349.500000", "183349.503000", "183349.506000", "183349.510000", "183349.513000", "183349.516000", "183349.519000", "183349.523000", "183349.526000", "183349.529000", "183349.533000", "183429.446000", "183429.450000", "183429.453000", "183429.456000", "183429.460000", "183429.463000", "183429.466000", "183429.470000", "183429.473000", "183429.476000", "183429.479000", "183429.483000", "183429.486000", "183429.489000", "183429.493000", "183429.496000", "183429.499000", "183429.502000", "183429.506000", "183429.509000", "183429.532000", "183429.535000", "183429.538000", "183429.542000", "183429.545000", "183429.548000", "183429.551000", "183509.446000", "183509.450000", "183509.453000", "183509.456000", "183509.460000", "183509.463000", "183509.466000", "183509.470000", "183509.473000", "183509.476000", "183509.480000", "183509.483000", "183509.486000", "183509.489000", "183509.493000", "183509.496000", "183509.499000", "183509.502000", "183509.506000", "183509.509000", "183509.512000", "183509.516000", "183509.519000", "183509.522000", "183509.525000", "183509.529000", "183509.532000", "183549.447000", "183549.451000", "183549.454000", "183549.457000", "183549.461000", "183549.464000", "183549.467000", "183549.470000", "183549.474000", "183549.477000", "183549.480000", "183549.484000", "183549.487000", "183549.490000", "183549.493000", "183549.497000", "183549.500000", "183549.503000", "183549.506000", "183549.510000", "183549.513000", "183549.516000", "183549.520000", "183549.523000", "183549.526000", "183549.529000", "183549.533000", "183629.446000", "183629.450000", "183629.453000", "183629.457000", "183629.460000", "183629.463000", "183629.466000", "183629.470000", "183629.473000", "183629.476000", "183629.480000", "183629.483000", "183629.486000", "183629.489000", "183629.493000", "183629.497000", "183629.500000", "183629.504000", "183629.507000", "183629.510000", "183629.514000", "183629.517000", "183629.520000", "183629.524000", "183629.527000", "183629.530000", "183709.446000", "183709.450000", "183709.453000", "183709.457000", "183709.460000", "183709.463000", "183709.466000", "183709.470000", "183709.473000", "183709.476000", "183709.491000", "183709.494000", "183709.498000", "183709.501000", "183709.504000", "183709.507000", "183709.511000", "183709.514000", "183709.517000", "183709.521000", "183709.524000", "183709.527000", "183709.530000", "183709.534000", "183709.537000", "183709.540000", "183709.544000", "183749.447000", "183749.451000", "183749.454000", "183749.458000", "183749.461000", "183749.464000", "183749.467000", "183749.471000", "183749.474000", "183749.477000", "183749.481000", "183749.484000", "183749.487000", "183749.490000", "183749.494000", "183749.497000", "183749.500000", "183749.504000", "183749.507000", "183749.510000", "183749.514000", "183749.517000", "183749.520000", "183749.524000", "183749.527000", "183749.531000", "183749.534000", "183829.447000", "183829.451000", "183829.454000", "183829.458000", "183829.461000", "183829.464000", "183829.468000", "183829.471000", "183829.474000", "183829.478000", "183829.481000", "183829.484000", "183829.487000", "183829.491000", "183829.494000", "183829.497000", "183829.501000", "183829.504000", "183829.507000", "183829.511000", "183829.514000", "183829.517000", "183829.521000", "183829.524000", "183829.527000", "183829.531000", "183829.534000", "183843.544000", "183843.548000", "183843.551000", "183843.554000", "183843.558000", "183843.561000", "183843.565000", "183843.568000", "183843.572000"],
      "InstanceNumber": [1, 2, 3, 4, 5, 6, 7, 8, 9, 10, 11, 12, 13, 14, 15, 16, 17, 18, 19, 20, 21, 22, 23, 24, 25, 26, 27, 28, 29, 30, 31, 32, 33, 34, 35, 36, 37, 38, 39, 40, 41, 42, 43, 44, 45, 46, 47, 48, 49, 50, 51, 52, 53, 54, 55, 56, 57, 58, 59, 60, 61, 62, 63, 64, 65, 66, 67, 68, 69, 70, 71, 72, 73, 74, 75, 76, 77, 78, 79, 80, 81, 82, 83, 84, 85, 86, 87, 88, 89, 90, 91, 92, 93, 94, 95, 96, 97, 98, 99, 100, 101, 102, 103, 104, 105, 106, 107, 108, 109, 110, 111, 112, 113, 114, 115, 116, 117, 118, 119, 120, 121, 122, 123, 124, 125, 126, 127, 128, 129, 130, 131, 132, 133, 134, 135, 136, 137, 138, 139, 140, 141, 142, 143, 144, 145, 146, 147, 148, 149, 150, 151, 152, 153, 154, 155, 156, 157, 158, 159, 160, 161, 162, 163, 164, 165, 166, 167, 168, 169, 170, 171, 172, 173, 174, 175, 176, 177, 178, 179, 180, 181, 182, 183, 184, 185, 186, 187, 188, 189, 190, 191, 192, 193, 194, 195, 196, 197, 198, 199, 200, 201, 202, 203, 204, 205, 206, 207, 208, 209, 210, 211, 212, 213, 214, 215, 216, 217, 218, 219, 220, 221, 222, 223, 224, 225, 226, 227, 228, 229, 230, 231, 232, 233, 234, 235, 236, 237, 238, 239, 240, 241, 242, 243, 244, 245, 246, 247, 248, 249, 250, 251, 252, 253, 254, 255, 256, 257, 258, 259, 260, 261, 262, 263, 264, 265, 266, 267, 268, 269, 270, 271, 272, 273, 274, 275, 276, 277, 278, 279, 280, 281, 282, 283, 284, 285, 286, 287, 288, 289, 290, 291, 292, 293, 294, 295, 296, 297, 298, 299, 300, 301, 302, 303, 304, 305, 306, 307, 308, 309, 310, 311, 312, 313, 314, 315, 316, 317, 318, 319, 320, 321, 322, 323, 324, 325, 326, 327, 328, 329, 330, 331, 332, 333, 334],
      "LargestImagePixelValue": [61780, 60199, 59144, 58271, 58547, 58090, 58223, 58436, 58495, 58206, 58406, 58109, 58153, 58181, 58133, 57951, 58014, 58422, 58498, 58439, 58275, 58148, 58290, 58516, 58558, 59027, 57937, 59297, 58269, 58253, 57744, 57620, 59125, 57466, 58042, 57659, 58311, 57225, 57532, 59187, 59772, 59313, 59147, 58018, 58554, 58332, 58628, 58204, 58827, 59112, 58554, 59954, 58598, 58968, 58782, 58625, 58672, 57882, 58036, 58366, 58234, 58532, 58961, 59255, 58341, 59223, 58249, 57984, 57414, 56085, 56281, 55399, 56118, 55157, 55831, 56003, 55550, 55660, 56224, 56287, 56393, 57243, 57420, 57647, 57635, 58059, 57883, 58689, 59717, 58157, 58547, 58714, 59262, 59323, 58924, 59258, 59193, 58776, 59343, 59294, 58537, 58878, 58700, 59256, 59489, 59322, 59125, 59118, 58888, 59233, 58456, 58669, 58779, 58453, 57927, 58725, 58177, 57670, 57484, 57529, 57306, 57526, 56738, 58396, 58434, 58355, 57955, 58138, 58599, 56962, 57084, 57021, 57106, 57516, 58516, 57729, 58221, 58038, 57706, 57453, 57401, 58610, 57983, 57221, 57528, 56704, 57335, 57292, 57166, 56339, 56348, 56459, 56026, 55905, 55925, 55716, 55972, 55921, 55292, 55867, 55188, 56230, 55422, 55746, 55700, 55355, 56173, 55817, 55955, 55830, 56137, 55427, 56175, 55406, 55732, 55112, 55178, 55612, 55132, 54717, 55137, 56620, 57358, 57400, 57446, 56687, 56164, 56427, 56822, 57075, 57260, 56222, 56478, 55211, 56228, 56249, 55689, 55979, 55549, 54992, 55124, 55131, 54710, 55356, 55580, 55599, 54807, 54802, 55192, 54588, 55187, 54609, 55521, 55685, 54934, 55370, 54208, 54922, 54727, 54113, 54459, 54400, 54165, 54609, 54640, 54615, 54880, 54954, 55723, 56558, 56595, 58130, 56894, 57510, 56820, 57448, 57414, 57326, 57655, 57956, 57437, 57807, 57225, 57952, 57509, 57552, 54425, 54755, 54310, 54780, 54264, 54353, 53778, 54196, 54712, 54196, 54020, 54261, 55372, 54621, 54882, 55191, 55391, 55716, 56050, 55634, 55978, 55817, 56021, 55753, 55843, 55519, 55491, 54150, 53238, 53659, 53251, 54449, 55454, 56498, 56551, 56632, 58151, 57480, 57524, 58043, 57759, 57954, 57277, 57702, 58283, 57408, 57731, 56985, 57822, 58051, 57883, 57284, 57329, 57555, 57805, 57599, 57828, 57673, 57949, 57232, 57469, 57678, 57910, 57618, 57569, 57670, 57928, 58240, 57415, 57063, 56372, 56481, 56530, 56262, 56602, 57050, 56872, 57077, 57048, 56921, 56969, 57177, 56713, 56591, 57029, 56948, 56750, 56843],
