{
  "AcquisitionMatrixPE": 104,
  "AcquisitionNumber": 1,
  "AcquisitionTime": "19:57:52.557500",
  "BandwidthPerPixelPhaseEncode": 17.17,
  "BaseResolution": 104,
  "BodyPartExamined": "BRAIN",
  "CoilCombinationMethod": "Sum of Squares",
  "ConsistencyInfo": "N4_VE11C_LATEST_20160120",
  "ConversionSoftware": "dcm2niix",
  "ConversionSoftwareVersion": "v1.0.20220505",
  "DerivedVendorReportedEchoSpacing": 0.000560011,
  "DeviceSerialNumber": "167006",
  "DwellTime": 2.1e-06,
  "EchoTime": 0.037,
  "EchoTime1": 0.037,
  "EchoTime2": 0.001,
  "EchoTrainLength": 104,
  "EffectiveEchoSpacing": 0.000560011,
  "FlipAngle": 52,
  "HeudiconvVersion": "0.5.3.post811+g6206e14",
  "ImageComments": "Unaliased MB4/PE3/LB",
  "ImageOrientationPatientDICOM": [0.999832, -0.0126643, 0.0132834, 0.0169285, 0.915955, -0.400923],
  "ImageOrientationText": "Tra>Cor(-23.6)>Sag(0.4)",
  "ImageType": [
    "ORIGINAL",
    "PRIMARY",
    "P",
    "MB",
    "ND",
    "MOSAIC",
    "PHASE"
],
  "ImagingFrequency": 123.259,
  "InPlanePhaseEncodingDirectionDICOM": "COL",
  "InstitutionAddress": "Chemin Queen-Mary 4565,Montreal,District,CA,H3W 1W5",
  "InstitutionName": "IUGM",
  "InstitutionalDepartmentName": "Department",
  "MRAcquisitionType": "2D",
  "MagneticFieldStrength": 3,
  "Manufacturer": "Siemens",
  "ManufacturersModelName": "Prisma_fit",
  "MatrixCoilMode": "SENSE",
  "Modality": "MR",
  "MultibandAccelerationFactor": 4,
  "PartialFourier": 1,
  "PatientPosition": "HFS",
  "PercentPhaseFOV": 100,
  "PercentSampling": 100,
  "PhaseEncodingDirection": "j",
  "PhaseEncodingSteps": 104,
  "PhaseResolution": 1,
  "PixelBandwidth": 2290,
  "ProcedureStepDescription": "games^mario3",
  "ProtocolName": "func_task-mario3_run-10",
  "PulseSequenceDetails": "%CustomerSeq%\\cmrr_mbep2d_bold",
  "ReceiveCoilActiveElements": "HC1-7;NC1,2",
  "ReceiveCoilName": "HeadNeck_64",
  "ReconMatrixPE": 104,
  "RepetitionTime": 1.49,
  "SAR": 0.0635022,
  "ScanOptions": "FS",
  "ScanningSequence": "EP",
  "SequenceName": "epfid2d1_104",
  "SequenceVariant": "SK\\SS",
  "SeriesDescription": "func_task-mario3_run-10",
  "SeriesNumber": 46,
  "ShimSetting": [593, -7311, -8817, 363, 39, -414, -59, 92],
  "SliceThickness": 2,
  "SliceTiming": [0, 0.785, 0.0975, 0.8825, 0.1975, 0.98, 0.295, 1.0775, 0.3925, 1.175, 0.49, 1.275, 0.5875, 1.3725, 0.6875, 0, 0.785, 0.0975, 0.8825, 0.1975, 0.98, 0.295, 1.0775, 0.3925, 1.175, 0.49, 1.275, 0.5875, 1.3725, 0.6875, 0, 0.785, 0.0975, 0.8825, 0.1975, 0.98, 0.295, 1.0775, 0.3925, 1.175, 0.49, 1.275, 0.5875, 1.3725, 0.6875, 0, 0.785, 0.0975, 0.8825, 0.1975, 0.98, 0.295, 1.0775, 0.3925, 1.175, 0.49, 1.275, 0.5875, 1.3725, 0.6875],
  "SoftwareVersions": "syngo MR E11",
  "SpacingBetweenSlices": 2,
  "StationName": "MRC35049",
  "TaskName": "mario3",
  "TotalReadoutTime": 0.0576811,
  "TxRefAmp": 272.473,
  "WipMemBlock": "7839ef88-0390-43ca-b40f-229761d4ed0a||Sequence: R017 ve11c/master r/75a17815+; Jun 28 2022 16:32:11 by eja",
  "dcmmeta_affine": [
    [-1.9996631145477295, 0.03385690227150917, 0.014179193414747715, 102.77134704589844],
    [0.025328677147626877, 1.8319106101989746, -0.802160918712616, -68.2807846069336],
    [0.026566850021481514, 0.8018462657928467, 1.8320307731628418, -61.09757614135742],
    [0.0, 0.0, 0.0, 1.0]
],
  "dcmmeta_reorient_transform": [
    [0.0, -1.0, 0.0, 103.0],
    [1.0, 0.0, 0.0, 0.0],
    [0.0, 0.0, 1.0, 0.0],
    [0.0, 0.0, 0.0, 1.0]
],
  "dcmmeta_shape": [104, 104, 60, 354],
  "dcmmeta_slice_dim": 2,
  "dcmmeta_version": 0.6,
  "global": {
    "const": {
      "AcquisitionMatrix": [104, 0, 0, 104],
      "AngioFlag": "N",
      "BitsAllocated": 16,
      "BitsStored": 16,
      "BodyPartExamined": "BRAIN",
      "Columns": 832,
      "EchoNumbers": 1,
      "EchoTime": 37.0,
      "EchoTrainLength": 104,
      "FlipAngle": 52.0,
      "HighBit": 15,
      "ImageOrientationPatient": [0.9998315683898, -0.0126643386745, 0.0132834249025, 0.01692845140317, 0.91595527939196, -0.4009231269048],
      "ImagePositionPatient": [-846.45990532017, -778.00180970146, 303.69429259748],
      "ImageType": [
        "ORIGINAL",
        "PRIMARY",
        "P",
        "MB",
        "ND",
        "MOSAIC"
],
      "ImagedNucleus": "1H",
      "ImagingFrequency": 123.258844,
      "InPlanePhaseEncodingDirection": "COL",
      "LargestImagePixelValue": 4095,
      "MRAcquisitionType": "2D",
      "MagneticFieldStrength": 3.0,
      "Manufacturer": "SIEMENS",
      "ManufacturerModelName": "Prisma_fit",
      "Modality": "MR",
      "NumberOfAverages": 1.0,
      "NumberOfPhaseEncodingSteps": 104,
      "PercentPhaseFieldOfView": 100.0,
      "PercentSampling": 100.0,
      "PerformedProcedureStepStartTime": "180629.274000",
      "PhotometricInterpretation": "MONOCHROME2",
      "PixelBandwidth": 2290.0,
      "PixelRepresentation": 0,
      "PixelSpacing": [2.0, 2.0],
      "ProtocolName": "func_task-mario3_run-10",
      "RepetitionTime": 1490.0,
      "RescaleIntercept": -4096.0,
      "RescaleSlope": 2.0,
      "RescaleType": "US",
      "Rows": 832,
      "SAR": 0.0635022305655,
      "SamplesPerPixel": 1,
      "ScanOptions": "FS",
      "ScanningSequence": "EP",
      "SequenceName": "epfid2d1_104",
      "SequenceVariant": [
        "SK",
        "SS"
],
      "SeriesDescription": "func_task-mario3_run-10",
      "SeriesNumber": 46,
      "SeriesTime": "195907.652000",
      "SliceLocation": -27.85162307446,
      "SliceThickness": 2.0,
      "SmallestImagePixelValue": 0,
      "SoftwareVersions": "syngo MR E11",
      "SpacingBetweenSlices": 1.9999999745766,
      "SpecificCharacterSet": "ISO_IR 100",
      "StudyID": "1",
      "StudyTime": "180629.186000",
      "TransmitCoilName": "Body",
      "VariableFlipAngleFlag": "N",
      "WindowCenterWidthExplanation": "Algo1",
      "dBdt": 0.0},
    "slices": {}
  },
  "time": {
    "samples": {
      "AcquisitionNumber": [1, 2, 3, 4, 5, 6, 7, 8, 9, 10, 11, 12, 13, 14, 15, 16, 17, 18, 19, 20, 21, 22, 23, 24, 25, 26, 27, 28, 29, 30, 31, 32, 33, 34, 35, 36, 37, 38, 39, 40, 41, 42, 43, 44, 45, 46, 47, 48, 49, 50, 51, 52, 53, 54, 55, 56, 57, 58, 59, 60, 61, 62, 63, 64, 65, 66, 67, 68, 69, 70, 71, 72, 73, 74, 75, 76, 77, 78, 79, 80, 81, 82, 83, 84, 85, 86, 87, 88, 89, 90, 91, 92, 93, 94, 95, 96, 97, 98, 99, 100, 101, 102, 103, 104, 105, 106, 107, 108, 109, 110, 111, 112, 113, 114, 115, 116, 117, 118, 119, 120, 121, 122, 123, 124, 125, 126, 127, 128, 129, 130, 131, 132, 133, 134, 135, 136, 137, 138, 139, 140, 141, 142, 143, 144, 145, 146, 147, 148, 149, 150, 151, 152, 153, 154, 155, 156, 157, 158, 159, 160, 161, 162, 163, 164, 165, 166, 167, 168, 169, 170, 171, 172, 173, 174, 175, 176, 177, 178, 179, 180, 181, 182, 183, 184, 185, 186, 187, 188, 189, 190, 191, 192, 193, 194, 195, 196, 197, 198, 199, 200, 201, 202, 203, 204, 205, 206, 207, 208, 209, 210, 211, 212, 213, 214, 215, 216, 217, 218, 219, 220, 221, 222, 223, 224, 225, 226, 227, 228, 229, 230, 231, 232, 233, 234, 235, 236, 237, 238, 239, 240, 241, 242, 243, 244, 245, 246, 247, 248, 249, 250, 251, 252, 253, 254, 255, 256, 257, 258, 259, 260, 261, 262, 263, 264, 265, 266, 267, 268, 269, 270, 271, 272, 273, 274, 275, 276, 277, 278, 279, 280, 281, 282, 283, 284, 285, 286, 287, 288, 289, 290, 291, 292, 293, 294, 295, 296, 297, 298, 299, 300, 301, 302, 303, 304, 305, 306, 307, 308, 309, 310, 311, 312, 313, 314, 315, 316, 317, 318, 319, 320, 321, 322, 323, 324, 325, 326, 327, 328, 329, 330, 331, 332, 333, 334, 335, 336, 337, 338, 339, 340, 341, 342, 343, 344, 345, 346, 347, 348, 349, 350, 351, 352, 353, 354],
      "AcquisitionTime": ["195752.557500", "195754.047500", "195755.537500", "195757.027500", "195758.517500", "195800.007500", "195801.497500", "195802.987500", "195804.477500", "195805.967500", "195807.457500", "195808.947500", "195810.437500", "195811.927500", "195813.417500", "195814.907500", "195816.397500", "195817.887500", "195819.377500", "195820.867500", "195822.357500", "195823.847500", "195825.337500", "195826.827500", "195828.317500", "195829.807500", "195831.297500", "195832.787500", "195834.277500", "195835.767500", "195837.257500", "195838.747500", "195840.237500", "195841.727500", "195843.217500", "195844.707500", "195846.197500", "195847.687500", "195849.177500", "195850.667500", "195852.157500", "195853.647500", "195855.137500", "195856.627500", "195858.117500", "195859.607500", "195901.097500", "195902.587500", "195904.077500", "195905.567500", "195907.057500", "195908.547500", "195910.037500", "195911.527500", "195913.017500", "195914.507500", "195915.997500", "195917.487500", "195918.977500", "195920.467500", "195921.957500", "195923.447500", "195924.937500", "195926.427500", "195927.917500", "195929.407500", "195930.897500", "195932.387500", "195933.877500", "195935.367500", "195936.857500", "195938.347500", "195939.837500", "195941.327500", "195942.817500", "195944.307500", "195945.797500", "195947.287500", "195948.777500", "195950.267500", "195951.757500", "195953.247500", "195954.737500", "195956.227500", "195957.717500", "195959.207500", "200000.697500", "200002.187500", "200003.677500", "200005.167500", "200006.657500", "200008.147500", "200009.637500", "200011.127500", "200012.617500", "200014.107500", "200015.597500", "200017.087500", "200018.577500", "200020.067500", "200021.557500", "200023.047500", "200024.537500", "200026.027500", "200027.517500", "200029.007500", "200030.497500", "200031.987500", "200033.477500", "200034.967500", "200036.457500", "200037.947500", "200039.437500", "200040.927500", "200042.417500", "200043.907500", "200045.397500", "200046.887500", "200048.377500", "200049.867500", "200051.357500", "200052.847500", "200054.337500", "200055.827500", "200057.317500", "200058.807500", "200100.297500", "200101.787500", "200103.277500", "200104.767500", "200106.257500", "200107.747500", "200109.237500", "200110.727500", "200112.217500", "200113.707500", "200115.197500", "200116.687500", "200118.177500", "200119.667500", "200121.157500", "200122.647500", "200124.137500", "200125.627500", "200127.117500", "200128.607500", "200130.097500", "200131.587500", "200133.077500", "200134.567500", "200136.057500", "200137.547500", "200139.037500", "200140.527500", "200142.017500", "200143.507500", "200144.997500", "200146.487500", "200147.977500", "200149.467500", "200150.957500", "200152.447500", "200153.937500", "200155.427500", "200156.917500", "200158.407500", "200159.897500", "200201.387500", "200202.877500", "200204.367500", "200205.857500", "200207.347500", "200208.837500", "200210.327500", "200211.817500", "200213.307500", "200214.797500", "200216.287500", "200217.777500", "200219.267500", "200220.757500", "200222.247500", "200223.737500", "200225.227500", "200226.717500", "200228.207500", "200229.697500", "200231.187500", "200232.677500", "200234.167500", "200235.657500", "200237.147500", "200238.637500", "200240.127500", "200241.617500", "200243.107500", "200244.597500", "200246.087500", "200247.577500", "200249.067500", "200250.557500", "200252.047500", "200253.537500", "200255.027500", "200256.517500", "200258.007500", "200259.497500", "200300.987500", "200302.477500", "200303.967500", "200305.457500", "200306.947500", "200308.437500", "200309.927500", "200311.417500", "200312.907500", "200314.397500", "200315.887500", "200317.377500", "200318.867500", "200320.357500", "200321.847500", "200323.337500", "200324.827500", "200326.317500", "200327.807500", "200329.297500", "200330.787500", "200332.277500", "200333.767500", "200335.257500", "200336.747500", "200338.237500", "200339.727500", "200341.217500", "200342.707500", "200344.197500", "200345.687500", "200347.177500", "200348.667500", "200350.157500", "200351.647500", "200353.137500", "200354.627500", "200356.117500", "200357.607500", "200359.097500", "200400.587500", "200402.077500", "200403.567500", "200405.057500", "200406.547500", "200408.037500", "200409.527500", "200411.017500", "200412.507500", "200413.997500", "200415.487500", "200416.977500", "200418.467500", "200419.957500", "200421.447500", "200422.937500", "200424.427500", "200425.917500", "200427.407500", "200428.897500", "200430.387500", "200431.877500", "200433.367500", "200434.857500", "200436.347500", "200437.837500", "200439.327500", "200440.817500", "200442.307500", "200443.797500", "200445.287500", "200446.777500", "200448.267500", "200449.757500", "200451.247500", "200452.737500", "200454.227500", "200455.717500", "200457.207500", "200458.697500", "200500.187500", "200501.677500", "200503.167500", "200504.657500", "200506.147500", "200507.637500", "200509.127500", "200510.617500", "200512.107500", "200513.597500", "200515.087500", "200516.577500", "200518.067500", "200519.557500", "200521.047500", "200522.537500", "200524.027500", "200525.517500", "200527.007500", "200528.497500", "200529.987500", "200531.477500", "200532.967500", "200534.457500", "200535.947500", "200537.437500", "200538.927500", "200540.417500", "200541.907500", "200543.397500", "200544.887500", "200546.377500", "200547.867500", "200549.357500", "200550.847500", "200552.337500", "200553.827500", "200555.317500", "200556.807500", "200558.297500", "200559.787500", "200601.277500", "200602.767500", "200604.257500", "200605.747500", "200607.237500", "200608.727500", "200610.217500", "200611.707500", "200613.197500", "200614.687500", "200616.177500", "200617.667500", "200619.157500", "200620.647500", "200622.137500", "200623.627500", "200625.117500", "200626.607500", "200628.097500", "200629.587500", "200631.077500", "200632.567500", "200634.057500", "200635.547500", "200637.037500", "200638.527500"],
      "ContentTime": ["195907.654000", "195907.657000", "195907.660000", "195907.662000", "195907.665000", "195907.667000", "195907.670000", "195907.672000", "195907.675000", "195907.677000", "195907.679000", "195907.682000", "195907.684000", "195907.687000", "195907.689000", "195907.692000", "195907.700000", "195907.702000", "195907.705000", "195907.707000", "195907.710000", "195907.712000", "195907.715000", "195907.717000", "195927.584000", "195927.586000", "195927.589000", "195927.591000", "195927.594000", "195927.596000", "195927.599000", "195927.601000", "195927.604000", "195927.606000", "195927.609000", "195927.611000", "195927.614000", "195927.616000", "195927.619000", "195927.621000", "195927.624000", "195927.626000", "195927.629000", "195927.631000", "195947.594000", "195947.597000", "195947.599000", "195947.602000", "195947.604000", "195947.607000", "195947.609000", "195947.612000", "195947.614000", "195947.616000", "195947.619000", "195947.621000", "195947.624000", "195947.626000", "195947.629000", "195947.631000", "195947.634000", "195947.636000", "195947.639000", "195947.641000", "195947.644000", "200007.593000", "200007.596000", "200007.598000", "200007.601000", "200007.603000", "200007.606000", "200007.608000", "200007.623000", "200007.626000", "200007.628000", "200007.631000", "200007.633000", "200007.636000", "200007.641000", "200007.644000", "200007.647000", "200007.649000", "200007.651000", "200007.654000", "200007.656000", "200047.653000", "200047.656000", "200047.658000", "200047.661000", "200047.663000", "200047.666000", "200047.668000", "200047.670000", "200047.673000", "200047.675000", "200047.678000", "200047.686000", "200047.689000", "200047.691000", "200047.694000", "200047.696000", "200047.699000", "200047.701000", "200047.704000", "200047.706000", "200047.709000", "200047.711000", "200047.714000", "200047.716000", "200047.719000", "200047.721000", "200047.724000", "200047.726000", "200047.729000", "200047.731000", "200047.733000", "200047.736000", "200127.627000", "200127.630000", "200127.632000", "200127.635000", "200127.637000", "200127.640000", "200127.642000", "200127.645000", "200127.647000", "200127.650000", "200127.652000", "200127.655000", "200127.657000", "200127.660000", "200127.662000", "200127.665000", "200127.667000", "200127.670000", "200127.672000", "200127.675000", "200127.677000", "200127.680000", "200127.682000", "200127.685000", "200127.687000", "200127.690000", "200127.692000", "200208.062000", "200208.065000", "200208.067000", "200208.070000", "200208.072000", "200208.075000", "200208.077000", "200208.080000", "200208.082000", "200208.085000", "200208.087000", "200208.090000", "200208.092000", "200208.095000", "200208.103000", "200208.105000", "200208.108000", "200208.110000", "200208.113000", "200208.115000", "200208.118000", "200208.120000", "200208.123000", "200208.125000", "200208.133000", "200208.135000", "200247.636000", "200247.639000", "200247.641000", "200247.644000", "200247.646000", "200247.649000", "200247.651000", "200247.654000", "200247.656000", "200247.659000", "200247.661000", "200247.664000", "200247.666000", "200247.669000", "200247.671000", "200247.674000", "200247.676000", "200247.679000", "200247.681000", "200247.684000", "200247.686000", "200247.689000", "200247.691000", "200247.694000", "200247.696000", "200247.699000", "200247.701000", "200327.627000", "200327.630000", "200327.632000", "200327.635000", "200327.637000", "200327.640000", "200327.642000", "200327.645000", "200327.647000", "200327.650000", "200327.652000", "200327.655000", "200327.657000", "200327.659000", "200327.662000", "200327.664000", "200327.667000", "200327.669000", "200327.672000", "200327.674000", "200327.677000", "200327.679000", "200327.682000", "200327.684000", "200327.687000", "200327.689000", "200327.692000", "200407.624000", "200407.627000", "200407.630000", "200407.632000", "200407.635000", "200407.637000", "200407.640000", "200407.642000", "200407.653000", "200407.656000", "200407.658000", "200407.660000", "200407.663000", "200407.665000", "200407.668000", "200407.670000", "200407.673000", "200407.675000", "200407.678000", "200407.680000", "200407.683000", "200407.685000", "200407.688000", "200407.690000", "200407.693000", "200407.695000", "200407.698000", "200447.621000", "200447.623000", "200447.626000", "200447.628000", "200447.631000", "200447.633000", "200447.636000", "200447.638000", "200447.641000", "200447.643000", "200447.646000", "200447.648000", "200447.651000", "200447.653000", "200447.656000", "200447.658000", "200447.661000", "200447.663000", "200447.666000", "200447.668000", "200447.671000", "200447.673000", "200447.676000", "200447.678000", "200447.681000", "200447.683000", "200447.686000", "200527.627000", "200527.630000", "200527.632000", "200527.635000", "200527.637000", "200527.640000", "200527.642000", "200527.645000", "200527.647000", "200527.650000", "200527.652000", "200527.655000", "200527.657000", "200527.660000", "200527.662000", "200527.665000", "200527.667000", "200527.670000", "200527.672000", "200527.675000", "200527.677000", "200527.680000", "200527.682000", "200527.684000", "200527.687000", "200527.689000", "200527.692000", "200607.625000", "200607.627000", "200607.630000", "200607.632000", "200607.635000", "200607.637000", "200607.640000", "200607.642000", "200607.645000", "200607.647000", "200607.650000", "200607.652000", "200607.655000", "200607.657000", "200607.660000", "200607.662000", "200607.665000", "200607.668000", "200607.670000", "200607.672000", "200607.675000", "200607.678000", "200607.680000", "200607.682000", "200607.685000", "200607.688000", "200640.971000", "200640.974000", "200640.976000", "200640.979000", "200640.981000", "200640.984000", "200640.986000", "200640.989000", "200640.991000", "200640.994000", "200640.996000", "200640.999000", "200641.001000", "200641.004000", "200641.006000", "200641.009000", "200641.011000", "200641.014000", "200641.016000", "200641.019000", "200641.021000", "200641.024000", "200641.026000"],
      "InstanceCreationTime": ["195907.654000", "195907.657000", "195907.660000", "195907.662000", "195907.665000", "195907.667000", "195907.670000", "195907.672000", "195907.675000", "195907.677000", "195907.679000", "195907.682000", "195907.684000", "195907.687000", "195907.689000", "195907.692000", "195907.700000", "195907.702000", "195907.705000", "195907.707000", "195907.710000", "195907.712000", "195907.715000", "195907.717000", "195927.584000", "195927.586000", "195927.589000", "195927.591000", "195927.594000", "195927.596000", "195927.599000", "195927.601000", "195927.604000", "195927.606000", "195927.609000", "195927.611000", "195927.614000", "195927.616000", "195927.619000", "195927.621000", "195927.624000", "195927.626000", "195927.629000", "195927.631000", "195947.594000", "195947.597000", "195947.599000", "195947.602000", "195947.604000", "195947.607000", "195947.609000", "195947.612000", "195947.614000", "195947.616000", "195947.619000", "195947.621000", "195947.624000", "195947.626000", "195947.629000", "195947.631000", "195947.634000", "195947.636000", "195947.639000", "195947.641000", "195947.644000", "200007.593000", "200007.596000", "200007.598000", "200007.601000", "200007.603000", "200007.606000", "200007.608000", "200007.623000", "200007.626000", "200007.628000", "200007.631000", "200007.633000", "200007.636000", "200007.641000", "200007.644000", "200007.647000", "200007.649000", "200007.651000", "200007.654000", "200007.656000", "200047.653000", "200047.656000", "200047.658000", "200047.661000", "200047.663000", "200047.666000", "200047.668000", "200047.670000", "200047.673000", "200047.675000", "200047.678000", "200047.686000", "200047.689000", "200047.691000", "200047.694000", "200047.696000", "200047.699000", "200047.701000", "200047.704000", "200047.706000", "200047.709000", "200047.711000", "200047.714000", "200047.716000", "200047.719000", "200047.721000", "200047.724000", "200047.726000", "200047.729000", "200047.731000", "200047.733000", "200047.736000", "200127.627000", "200127.630000", "200127.632000", "200127.635000", "200127.637000", "200127.640000", "200127.642000", "200127.645000", "200127.647000", "200127.650000", "200127.652000", "200127.655000", "200127.657000", "200127.660000", "200127.662000", "200127.665000", "200127.667000", "200127.670000", "200127.672000", "200127.675000", "200127.677000", "200127.680000", "200127.682000", "200127.685000", "200127.687000", "200127.690000", "200127.692000", "200208.062000", "200208.065000", "200208.067000", "200208.070000", "200208.072000", "200208.075000", "200208.077000", "200208.080000", "200208.082000", "200208.085000", "200208.087000", "200208.090000", "200208.092000", "200208.095000", "200208.103000", "200208.105000", "200208.108000", "200208.110000", "200208.113000", "200208.115000", "200208.118000", "200208.120000", "200208.123000", "200208.125000", "200208.133000", "200208.135000", "200247.636000", "200247.639000", "200247.641000", "200247.644000", "200247.646000", "200247.649000", "200247.651000", "200247.654000", "200247.656000", "200247.659000", "200247.661000", "200247.664000", "200247.666000", "200247.669000", "200247.671000", "200247.674000", "200247.676000", "200247.679000", "200247.681000", "200247.684000", "200247.686000", "200247.689000", "200247.691000", "200247.694000", "200247.696000", "200247.699000", "200247.701000", "200327.627000", "200327.630000", "200327.632000", "200327.635000", "200327.637000", "200327.640000", "200327.642000", "200327.645000", "200327.647000", "200327.650000", "200327.652000", "200327.655000", "200327.657000", "200327.659000", "200327.662000", "200327.664000", "200327.667000", "200327.669000", "200327.672000", "200327.674000", "200327.677000", "200327.679000", "200327.682000", "200327.684000", "200327.687000", "200327.689000", "200327.692000", "200407.624000", "200407.627000", "200407.630000", "200407.632000", "200407.635000", "200407.637000", "200407.640000", "200407.642000", "200407.653000", "200407.656000", "200407.658000", "200407.660000", "200407.663000", "200407.665000", "200407.668000", "200407.670000", "200407.673000", "200407.675000", "200407.678000", "200407.680000", "200407.683000", "200407.685000", "200407.688000", "200407.690000", "200407.693000", "200407.695000", "200407.698000", "200447.621000", "200447.623000", "200447.626000", "200447.628000", "200447.631000", "200447.633000", "200447.636000", "200447.638000", "200447.641000", "200447.643000", "200447.646000", "200447.648000", "200447.651000", "200447.653000", "200447.656000", "200447.658000", "200447.661000", "200447.663000", "200447.666000", "200447.668000", "200447.671000", "200447.673000", "200447.676000", "200447.678000", "200447.681000", "200447.683000", "200447.686000", "200527.627000", "200527.630000", "200527.632000", "200527.635000", "200527.637000", "200527.640000", "200527.642000", "200527.645000", "200527.647000", "200527.650000", "200527.652000", "200527.655000", "200527.657000", "200527.660000", "200527.662000", "200527.665000", "200527.667000", "200527.670000", "200527.672000", "200527.675000", "200527.677000", "200527.680000", "200527.682000", "200527.684000", "200527.687000", "200527.689000", "200527.692000", "200607.625000", "200607.627000", "200607.630000", "200607.632000", "200607.635000", "200607.637000", "200607.640000", "200607.642000", "200607.645000", "200607.647000", "200607.650000", "200607.652000", "200607.655000", "200607.657000", "200607.660000", "200607.662000", "200607.665000", "200607.668000", "200607.670000", "200607.672000", "200607.675000", "200607.678000", "200607.680000", "200607.682000", "200607.685000", "200607.688000", "200640.971000", "200640.974000", "200640.976000", "200640.979000", "200640.981000", "200640.984000", "200640.986000", "200640.989000", "200640.991000", "200640.994000", "200640.996000", "200640.999000", "200641.001000", "200641.004000", "200641.006000", "200641.009000", "200641.011000", "200641.014000", "200641.016000", "200641.019000", "200641.021000", "200641.024000", "200641.026000"],
      "InstanceNumber": [1, 2, 3, 4, 5, 6, 7, 8, 9, 10, 11, 12, 13, 14, 15, 16, 17, 18, 19, 20, 21, 22, 23, 24, 25, 26, 27, 28, 29, 30, 31, 32, 33, 34, 35, 36, 37, 38, 39, 40, 41, 42, 43, 44, 45, 46, 47, 48, 49, 50, 51, 52, 53, 54, 55, 56, 57, 58, 59, 60, 61, 62, 63, 64, 65, 66, 67, 68, 69, 70, 71, 72, 73, 74, 75, 76, 77, 78, 79, 80, 81, 82, 83, 84, 85, 86, 87, 88, 89, 90, 91, 92, 93, 94, 95, 96, 97, 98, 99, 100, 101, 102, 103, 104, 105, 106, 107, 108, 109, 110, 111, 112, 113, 114, 115, 116, 117, 118, 119, 120, 121, 122, 123, 124, 125, 126, 127, 128, 129, 130, 131, 132, 133, 134, 135, 136, 137, 138, 139, 140, 141, 142, 143, 144, 145, 146, 147, 148, 149, 150, 151, 152, 153, 154, 155, 156, 157, 158, 159, 160, 161, 162, 163, 164, 165, 166, 167, 168, 169, 170, 171, 172, 173, 174, 175, 176, 177, 178, 179, 180, 181, 182, 183, 184, 185, 186, 187, 188, 189, 190, 191, 192, 193, 194, 195, 196, 197, 198, 199, 200, 201, 202, 203, 204, 205, 206, 207, 208, 209, 210, 211, 212, 213, 214, 215, 216, 217, 218, 219, 220, 221, 222, 223, 224, 225, 226, 227, 228, 229, 230, 231, 232, 233, 234, 235, 236, 237, 238, 239, 240, 241, 242, 243, 244, 245, 246, 247, 248, 249, 250, 251, 252, 253, 254, 255, 256, 257, 258, 259, 260, 261, 262, 263, 264, 265, 266, 267, 268, 269, 270, 271, 272, 273, 274, 275, 276, 277, 278, 279, 280, 281, 282, 283, 284, 285, 286, 287, 288, 289, 290, 291, 292, 293, 294, 295, 296, 297, 298, 299, 300, 301, 302, 303, 304, 305, 306, 307, 308, 309, 310, 311, 312, 313, 314, 315, 316, 317, 318, 319, 320, 321, 322, 323, 324, 325, 326, 327, 328, 329, 330, 331, 332, 333, 334, 335, 336, 337, 338, 339, 340, 341, 342, 343, 344, 345, 346, 347, 348, 349, 350, 351, 352, 353, 354],
