{
  "AcquisitionMatrixPE": 104,
  "AcquisitionNumber": 1,
  "AcquisitionTime": "18:10:5.157500",
  "BandwidthPerPixelPhaseEncode": 17.17,
  "BaseResolution": 104,
  "BodyPartExamined": "BRAIN",
  "CoilCombinationMethod": "Sum of Squares",
  "ConsistencyInfo": "N4_VE11C_LATEST_20160120",
  "ConversionSoftware": "dcm2niix",
  "ConversionSoftwareVersion": "v1.0.20220505",
  "DerivedVendorReportedEchoSpacing": 0.000560011,
  "DeviceSerialNumber": "167006",
  "DwellTime": 2.1e-06,
  "EchoTime": 0.037,
  "EchoTime1": 0.037,
  "EchoTime2": 0.001,
  "EchoTrainLength": 104,
  "EffectiveEchoSpacing": 0.000560011,
  "FlipAngle": 52,
  "HeudiconvVersion": "0.5.3.post811+g6206e14",
  "ImageComments": "Unaliased MB4/PE3/LB",
  "ImageOrientationPatientDICOM": [0.99942, -0.0307991, 0.0145336, 0.0340273, 0.920597, -0.389028],
  "ImageOrientationText": "Tra>Cor(-22.9)>Sag(0.1)",
  "ImageType": [
    "ORIGINAL",
    "PRIMARY",
    "P",
    "MB",
    "ND",
    "MOSAIC",
    "PHASE"
],
  "ImagingFrequency": 123.259,
  "InPlanePhaseEncodingDirectionDICOM": "COL",
  "InstitutionAddress": "Chemin Queen-Mary 4565,Montreal,District,CA,H3W 1W5",
  "InstitutionName": "IUGM",
  "InstitutionalDepartmentName": "Department",
  "MRAcquisitionType": "2D",
  "MagneticFieldStrength": 3,
  "Manufacturer": "Siemens",
  "ManufacturersModelName": "Prisma_fit",
  "MatrixCoilMode": "SENSE",
  "Modality": "MR",
  "MultibandAccelerationFactor": 4,
  "PartialFourier": 1,
  "PatientPosition": "HFS",
  "PercentPhaseFOV": 100,
  "PercentSampling": 100,
  "PhaseEncodingDirection": "j",
  "PhaseEncodingSteps": 104,
  "PhaseResolution": 1,
  "PixelBandwidth": 2290,
  "ProcedureStepDescription": "games^mario3",
  "ProtocolName": "func_task-mario3_run-01",
  "PulseSequenceDetails": "%CustomerSeq%\\cmrr_mbep2d_bold",
  "ReceiveCoilActiveElements": "HC1-7;NC1,2",
  "ReceiveCoilName": "HeadNeck_64",
  "ReconMatrixPE": 104,
  "RepetitionTime": 1.49,
  "SAR": 0.0573551,
  "ScanOptions": "FS",
  "ScanningSequence": "EP",
  "SequenceName": "epfid2d1_104",
  "SequenceVariant": "SK\\SS",
  "SeriesDescription": "func_task-mario3_run-01",
  "SeriesNumber": 11,
  "ShimSetting": [585, -7292, -8813, 375, 24, -372, -69, 94],
  "SliceThickness": 2,
  "SliceTiming": [0, 0.785, 0.0975, 0.8825, 0.1975, 0.98, 0.295, 1.0775, 0.3925, 1.175, 0.49, 1.275, 0.5875, 1.3725, 0.685, 0, 0.785, 0.0975, 0.8825, 0.1975, 0.98, 0.295, 1.0775, 0.3925, 1.175, 0.49, 1.275, 0.5875, 1.3725, 0.685, 0, 0.785, 0.0975, 0.8825, 0.1975, 0.98, 0.295, 1.0775, 0.3925, 1.175, 0.49, 1.275, 0.5875, 1.3725, 0.685, 0, 0.785, 0.0975, 0.8825, 0.1975, 0.98, 0.295, 1.0775, 0.3925, 1.175, 0.49, 1.275, 0.5875, 1.3725, 0.685],
  "SoftwareVersions": "syngo MR E11",
  "SpacingBetweenSlices": 2,
  "StationName": "MRC35049",
  "TaskName": "mario3",
  "TotalReadoutTime": 0.0576811,
  "TxRefAmp": 266.736,
  "WipMemBlock": "270c6190-7a4c-40a7-b72c-e99c91c43e75||Sequence: R017 ve11c/master r/75a17815+; Jun 28 2022 16:32:11 by eja",
  "dcmmeta_affine": [
    [-1.9988398551940918, 0.06805466115474701, 0.0027957772836089134, 101.31775665283203],
    [0.0615982860326767, 1.8411946296691895, -0.7785934805870056, -71.13552856445312],
    [0.02906724251806736, 0.778055727481842, 1.8422226905822754, -63.43790817260742],
    [0.0, 0.0, 0.0, 1.0]
],
  "dcmmeta_reorient_transform": [
    [0.0, -1.0, 0.0, 103.0],
    [1.0, 0.0, 0.0, 0.0],
    [0.0, 0.0, 1.0, 0.0],
    [0.0, 0.0, 0.0, 1.0]
],
  "dcmmeta_shape": [104, 104, 60, 333],
  "dcmmeta_slice_dim": 2,
  "dcmmeta_version": 0.6,
  "global": {
    "const": {
      "AcquisitionMatrix": [104, 0, 0, 104],
      "AngioFlag": "N",
      "BitsAllocated": 16,
      "BitsStored": 16,
      "BodyPartExamined": "BRAIN",
      "Columns": 832,
      "EchoNumbers": 1,
      "EchoTime": 37.0,
      "EchoTrainLength": 104,
      "FlipAngle": 52.0,
      "HighBit": 15,
      "ImageOrientationPatient": [0.99941992506129, -0.030799143342, 0.01453362170567, 0.0340273316325, 0.92059734009449, -0.3890278629005],
      "ImagePositionPatient": [-860.6769912441, -766.2806074648, 289.33363944497],
      "ImageType": [
        "ORIGINAL",
        "PRIMARY",
        "P",
        "MB",
        "ND",
        "MOSAIC"
],
      "ImagedNucleus": "1H",
      "ImagingFrequency": 123.258837,
      "InPlanePhaseEncodingDirection": "COL",
      "LargestImagePixelValue": 4095,
      "MRAcquisitionType": "2D",
      "MagneticFieldStrength": 3.0,
      "Manufacturer": "SIEMENS",
      "ManufacturerModelName": "Prisma_fit",
      "Modality": "MR",
      "NumberOfAverages": 1.0,
      "NumberOfPhaseEncodingSteps": 104,
      "PercentPhaseFieldOfView": 100.0,
      "PercentSampling": 100.0,
      "PerformedProcedureStepStartTime": "180629.274000",
      "PhotometricInterpretation": "MONOCHROME2",
      "PixelBandwidth": 2290.0,
      "PixelRepresentation": 0,
      "PixelSpacing": [2.0, 2.0],
      "ProtocolName": "func_task-mario3_run-01",
      "RepetitionTime": 1490.0,
      "RescaleIntercept": -4096.0,
      "RescaleSlope": 2.0,
      "RescaleType": "US",
      "Rows": 832,
      "SAR": 0.05735512673251,
      "SamplesPerPixel": 1,
      "ScanOptions": "FS",
      "ScanningSequence": "EP",
      "SequenceName": "epfid2d1_104",
      "SequenceVariant": [
        "SK",
        "SS"
],
      "SeriesDescription": "func_task-mario3_run-01",
      "SeriesNumber": 11,
      "SeriesTime": "181116.680000",
      "SliceLocation": -30.598914754205,
      "SliceThickness": 2.0,
      "SmallestImagePixelValue": 0,
      "SoftwareVersions": "syngo MR E11",
      "SpacingBetweenSlices": 2.0000000548805,
      "SpecificCharacterSet": "ISO_IR 100",
      "StudyID": "1",
      "StudyTime": "180629.186000",
      "TransmitCoilName": "Body",
      "VariableFlipAngleFlag": "N",
      "WindowCenterWidthExplanation": "Algo1",
      "dBdt": 0.0},
    "slices": {}
  },
  "time": {
    "samples": {
      "AcquisitionNumber": [1, 2, 3, 4, 5, 6, 7, 8, 9, 10, 11, 12, 13, 14, 15, 16, 17, 18, 19, 20, 21, 22, 23, 24, 25, 26, 27, 28, 29, 30, 31, 32, 33, 34, 35, 36, 37, 38, 39, 40, 41, 42, 43, 44, 45, 46, 47, 48, 49, 50, 51, 52, 53, 54, 55, 56, 57, 58, 59, 60, 61, 62, 63, 64, 65, 66, 67, 68, 69, 70, 71, 72, 73, 74, 75, 76, 77, 78, 79, 80, 81, 82, 83, 84, 85, 86, 87, 88, 89, 90, 91, 92, 93, 94, 95, 96, 97, 98, 99, 100, 101, 102, 103, 104, 105, 106, 107, 108, 109, 110, 111, 112, 113, 114, 115, 116, 117, 118, 119, 120, 121, 122, 123, 124, 125, 126, 127, 128, 129, 130, 131, 132, 133, 134, 135, 136, 137, 138, 139, 140, 141, 142, 143, 144, 145, 146, 147, 148, 149, 150, 151, 152, 153, 154, 155, 156, 157, 158, 159, 160, 161, 162, 163, 164, 165, 166, 167, 168, 169, 170, 171, 172, 173, 174, 175, 176, 177, 178, 179, 180, 181, 182, 183, 184, 185, 186, 187, 188, 189, 190, 191, 192, 193, 194, 195, 196, 197, 198, 199, 200, 201, 202, 203, 204, 205, 206, 207, 208, 209, 210, 211, 212, 213, 214, 215, 216, 217, 218, 219, 220, 221, 222, 223, 224, 225, 226, 227, 228, 229, 230, 231, 232, 233, 234, 235, 236, 237, 238, 239, 240, 241, 242, 243, 244, 245, 246, 247, 248, 249, 250, 251, 252, 253, 254, 255, 256, 257, 258, 259, 260, 261, 262, 263, 264, 265, 266, 267, 268, 269, 270, 271, 272, 273, 274, 275, 276, 277, 278, 279, 280, 281, 282, 283, 284, 285, 286, 287, 288, 289, 290, 291, 292, 293, 294, 295, 296, 297, 298, 299, 300, 301, 302, 303, 304, 305, 306, 307, 308, 309, 310, 311, 312, 313, 314, 315, 316, 317, 318, 319, 320, 321, 322, 323, 324, 325, 326, 327, 328, 329, 330, 331, 332, 333],
      "AcquisitionTime": ["181005.157500", "181006.647500", "181008.137500", "181009.627500", "181011.117500", "181012.607500", "181014.097500", "181015.587500", "181017.077500", "181018.567500", "181020.057500", "181021.547500", "181023.037500", "181024.527500", "181026.017500", "181027.507500", "181028.997500", "181030.487500", "181031.977500", "181033.467500", "181034.957500", "181036.447500", "181037.937500", "181039.427500", "181040.917500", "181042.407500", "181043.897500", "181045.387500", "181046.877500", "181048.367500", "181049.857500", "181051.347500", "181052.837500", "181054.327500", "181055.817500", "181057.307500", "181058.797500", "181100.287500", "181101.777500", "181103.267500", "181104.757500", "181106.247500", "181107.737500", "181109.227500", "181110.717500", "181112.207500", "181113.697500", "181115.187500", "181116.677500", "181118.167500", "181119.657500", "181121.147500", "181122.637500", "181124.127500", "181125.617500", "181127.107500", "181128.597500", "181130.087500", "181131.577500", "181133.067500", "181134.557500", "181136.047500", "181137.537500", "181139.027500", "181140.517500", "181142.007500", "181143.497500", "181144.987500", "181146.477500", "181147.967500", "181149.457500", "181150.947500", "181152.437500", "181153.927500", "181155.417500", "181156.907500", "181158.397500", "181159.887500", "181201.377500", "181202.867500", "181204.357500", "181205.847500", "181207.337500", "181208.827500", "181210.317500", "181211.807500", "181213.297500", "181214.787500", "181216.277500", "181217.767500", "181219.257500", "181220.747500", "181222.237500", "181223.727500", "181225.217500", "181226.707500", "181228.197500", "181229.687500", "181231.177500", "181232.667500", "181234.157500", "181235.647500", "181237.137500", "181238.627500", "181240.117500", "181241.607500", "181243.097500", "181244.587500", "181246.077500", "181247.567500", "181249.057500", "181250.547500", "181252.037500", "181253.527500", "181255.017500", "181256.507500", "181257.997500", "181259.487500", "181300.977500", "181302.467500", "181303.957500", "181305.447500", "181306.937500", "181308.427500", "181309.917500", "181311.407500", "181312.897500", "181314.387500", "181315.877500", "181317.367500", "181318.857500", "181320.347500", "181321.837500", "181323.327500", "181324.817500", "181326.307500", "181327.797500", "181329.287500", "181330.777500", "181332.267500", "181333.757500", "181335.247500", "181336.737500", "181338.227500", "181339.717500", "181341.207500", "181342.697500", "181344.187500", "181345.677500", "181347.167500", "181348.657500", "181350.147500", "181351.637500", "181353.127500", "181354.617500", "181356.107500", "181357.597500", "181359.087500", "181400.577500", "181402.067500", "181403.557500", "181405.047500", "181406.537500", "181408.027500", "181409.517500", "181411.007500", "181412.497500", "181413.987500", "181415.477500", "181416.967500", "181418.457500", "181419.947500", "181421.437500", "181422.927500", "181424.417500", "181425.907500", "181427.397500", "181428.887500", "181430.377500", "181431.867500", "181433.357500", "181434.847500", "181436.337500", "181437.827500", "181439.317500", "181440.807500", "181442.297500", "181443.787500", "181445.277500", "181446.767500", "181448.257500", "181449.747500", "181451.237500", "181452.727500", "181454.217500", "181455.707500", "181457.197500", "181458.687500", "181500.177500", "181501.667500", "181503.157500", "181504.647500", "181506.137500", "181507.627500", "181509.117500", "181510.607500", "181512.097500", "181513.587500", "181515.077500", "181516.567500", "181518.057500", "181519.547500", "181521.037500", "181522.527500", "181524.017500", "181525.507500", "181526.997500", "181528.487500", "181529.977500", "181531.467500", "181532.957500", "181534.447500", "181535.937500", "181537.427500", "181538.917500", "181540.407500", "181541.897500", "181543.387500", "181544.877500", "181546.367500", "181547.857500", "181549.347500", "181550.837500", "181552.327500", "181553.817500", "181555.307500", "181556.797500", "181558.287500", "181559.777500", "181601.267500", "181602.757500", "181604.247500", "181605.737500", "181607.227500", "181608.717500", "181610.207500", "181611.697500", "181613.187500", "181614.677500", "181616.167500", "181617.657500", "181619.147500", "181620.637500", "181622.127500", "181623.617500", "181625.107500", "181626.597500", "181628.087500", "181629.577500", "181631.067500", "181632.557500", "181634.047500", "181635.537500", "181637.027500", "181638.517500", "181640.007500", "181641.497500", "181642.987500", "181644.477500", "181645.967500", "181647.457500", "181648.947500", "181650.437500", "181651.927500", "181653.417500", "181654.907500", "181656.397500", "181657.887500", "181659.377500", "181700.867500", "181702.357500", "181703.847500", "181705.337500", "181706.827500", "181708.317500", "181709.807500", "181711.297500", "181712.787500", "181714.277500", "181715.767500", "181717.257500", "181718.747500", "181720.237500", "181721.727500", "181723.217500", "181724.707500", "181726.197500", "181727.687500", "181729.177500", "181730.667500", "181732.157500", "181733.647500", "181735.137500", "181736.627500", "181738.117500", "181739.607500", "181741.097500", "181742.587500", "181744.077500", "181745.567500", "181747.057500", "181748.547500", "181750.037500", "181751.527500", "181753.017500", "181754.507500", "181755.997500", "181757.487500", "181758.977500", "181800.467500", "181801.957500", "181803.447500", "181804.937500", "181806.427500", "181807.917500", "181809.407500", "181810.897500", "181812.387500", "181813.877500", "181815.367500", "181816.857500", "181818.347500", "181819.837500"],
      "ContentTime": ["181116.682000", "181116.685000", "181116.687000", "181116.690000", "181116.692000", "181116.695000", "181116.697000", "181116.700000", "181116.702000", "181116.704000", "181116.707000", "181116.709000", "181116.712000", "181116.714000", "181116.717000", "181116.719000", "181116.722000", "181116.724000", "181116.727000", "181116.729000", "181116.732000", "181116.734000", "181136.609000", "181136.612000", "181136.614000", "181136.617000", "181136.619000", "181136.622000", "181136.624000", "181136.627000", "181136.629000", "181136.632000", "181136.634000", "181136.641000", "181136.644000", "181136.646000", "181136.648000", "181136.651000", "181136.653000", "181136.656000", "181136.658000", "181136.661000", "181156.671000", "181156.674000", "181156.676000", "181156.679000", "181156.681000", "181156.684000", "181156.686000", "181156.689000", "181156.691000", "181156.694000", "181156.696000", "181156.699000", "181156.701000", "181156.703000", "181156.706000", "181156.708000", "181156.711000", "181156.713000", "181156.716000", "181156.718000", "181156.721000", "181216.636000", "181216.639000", "181216.642000", "181216.644000", "181216.647000", "181216.649000", "181216.651000", "181216.654000", "181216.656000", "181216.659000", "181216.661000", "181216.664000", "181216.666000", "181216.669000", "181216.671000", "181216.674000", "181216.676000", "181216.678000", "181216.681000", "181216.683000", "181256.673000", "181256.676000", "181256.679000", "181256.681000", "181256.684000", "181256.686000", "181256.688000", "181256.691000", "181256.693000", "181256.696000", "181256.698000", "181256.701000", "181256.709000", "181256.711000", "181256.714000", "181256.716000", "181256.719000", "181256.721000", "181256.724000", "181256.726000", "181256.729000", "181256.731000", "181256.734000", "181256.736000", "181256.739000", "181256.741000", "181256.744000", "181256.746000", "181256.749000", "181256.751000", "181256.754000", "181336.664000", "181336.667000", "181336.670000", "181336.672000", "181336.675000", "181336.677000", "181336.680000", "181336.687000", "181336.690000", "181336.693000", "181336.695000", "181336.698000", "181336.700000", "181336.703000", "181336.706000", "181336.708000", "181336.711000", "181336.713000", "181336.716000", "181336.718000", "181336.721000", "181336.723000", "181336.726000", "181336.728000", "181336.730000", "181336.733000", "181336.735000", "181416.656000", "181416.659000", "181416.661000", "181416.664000", "181416.666000", "181416.669000", "181416.671000", "181416.673000", "181416.676000", "181416.678000", "181416.681000", "181416.683000", "181416.686000", "181416.688000", "181416.691000", "181416.693000", "181416.696000", "181416.698000", "181416.701000", "181416.703000", "181416.706000", "181416.708000", "181416.711000", "181416.713000", "181416.716000", "181416.718000", "181416.721000", "181456.647000", "181456.650000", "181456.652000", "181456.655000", "181456.658000", "181456.660000", "181456.663000", "181456.665000", "181456.668000", "181456.670000", "181456.672000", "181456.675000", "181456.678000", "181456.680000", "181456.683000", "181456.685000", "181456.687000", "181456.690000", "181456.692000", "181456.695000", "181456.697000", "181456.700000", "181456.702000", "181456.705000", "181456.707000", "181456.710000", "181536.661000", "181536.663000", "181536.666000", "181536.668000", "181536.671000", "181536.673000", "181536.676000", "181536.678000", "181536.681000", "181536.683000", "181536.686000", "181536.688000", "181536.691000", "181536.693000", "181536.696000", "181536.698000", "181536.701000", "181536.704000", "181536.706000", "181536.709000", "181536.711000", "181536.714000", "181536.716000", "181536.719000", "181536.721000", "181536.724000", "181536.726000", "181616.675000", "181616.678000", "181616.680000", "181616.683000", "181616.685000", "181616.688000", "181616.690000", "181616.693000", "181616.695000", "181616.698000", "181616.700000", "181616.703000", "181616.705000", "181616.708000", "181616.710000", "181616.713000", "181616.715000", "181616.718000", "181616.720000", "181616.722000", "181616.725000", "181616.727000", "181616.730000", "181616.737000", "181616.740000", "181616.742000", "181616.745000", "181656.678000", "181656.681000", "181656.683000", "181656.686000", "181656.688000", "181656.691000", "181656.693000", "181656.695000", "181656.698000", "181656.700000", "181656.703000", "181656.706000", "181656.708000", "181656.711000", "181656.713000", "181656.716000", "181656.718000", "181656.721000", "181656.724000", "181656.726000", "181656.729000", "181656.731000", "181656.734000", "181656.736000", "181656.739000", "181656.741000", "181656.744000", "181736.657000", "181736.660000", "181736.663000", "181736.665000", "181736.668000", "181736.670000", "181736.673000", "181736.675000", "181736.678000", "181736.680000", "181736.683000", "181736.685000", "181736.688000", "181736.690000", "181736.693000", "181736.695000", "181736.698000", "181736.700000", "181736.703000", "181736.705000", "181736.708000", "181736.710000", "181736.713000", "181736.715000", "181736.718000", "181736.720000", "181736.723000", "181816.654000", "181816.657000", "181816.659000", "181816.661000", "181816.664000", "181816.666000", "181816.669000", "181816.671000", "181816.674000", "181816.676000", "181816.679000", "181816.681000", "181816.684000", "181816.686000", "181816.689000", "181816.691000", "181816.694000", "181816.696000", "181816.699000", "181816.701000", "181816.704000", "181816.706000", "181816.709000", "181816.711000", "181816.714000", "181816.716000", "181816.719000", "181823.311000", "181823.313000", "181823.316000", "181823.319000"],
      "InstanceCreationTime": ["181116.682000", "181116.685000", "181116.687000", "181116.690000", "181116.692000", "181116.695000", "181116.697000", "181116.700000", "181116.702000", "181116.704000", "181116.707000", "181116.709000", "181116.712000", "181116.714000", "181116.717000", "181116.719000", "181116.722000", "181116.724000", "181116.727000", "181116.729000", "181116.732000", "181116.734000", "181136.609000", "181136.612000", "181136.614000", "181136.617000", "181136.619000", "181136.622000", "181136.624000", "181136.627000", "181136.629000", "181136.632000", "181136.634000", "181136.641000", "181136.644000", "181136.646000", "181136.648000", "181136.651000", "181136.653000", "181136.656000", "181136.658000", "181136.661000", "181156.671000", "181156.674000", "181156.676000", "181156.679000", "181156.681000", "181156.684000", "181156.686000", "181156.689000", "181156.691000", "181156.694000", "181156.696000", "181156.699000", "181156.701000", "181156.703000", "181156.706000", "181156.708000", "181156.711000", "181156.713000", "181156.716000", "181156.718000", "181156.721000", "181216.636000", "181216.639000", "181216.642000", "181216.644000", "181216.647000", "181216.649000", "181216.651000", "181216.654000", "181216.656000", "181216.659000", "181216.661000", "181216.664000", "181216.666000", "181216.669000", "181216.671000", "181216.674000", "181216.676000", "181216.678000", "181216.681000", "181216.683000", "181256.673000", "181256.676000", "181256.679000", "181256.681000", "181256.684000", "181256.686000", "181256.688000", "181256.691000", "181256.693000", "181256.696000", "181256.698000", "181256.701000", "181256.709000", "181256.711000", "181256.714000", "181256.716000", "181256.719000", "181256.721000", "181256.724000", "181256.726000", "181256.729000", "181256.731000", "181256.734000", "181256.736000", "181256.739000", "181256.741000", "181256.744000", "181256.746000", "181256.749000", "181256.751000", "181256.754000", "181336.664000", "181336.667000", "181336.670000", "181336.672000", "181336.675000", "181336.677000", "181336.680000", "181336.687000", "181336.690000", "181336.693000", "181336.695000", "181336.698000", "181336.700000", "181336.703000", "181336.706000", "181336.708000", "181336.711000", "181336.713000", "181336.716000", "181336.718000", "181336.721000", "181336.723000", "181336.726000", "181336.728000", "181336.730000", "181336.733000", "181336.735000", "181416.656000", "181416.659000", "181416.661000", "181416.664000", "181416.666000", "181416.669000", "181416.671000", "181416.673000", "181416.676000", "181416.678000", "181416.681000", "181416.683000", "181416.686000", "181416.688000", "181416.691000", "181416.693000", "181416.696000", "181416.698000", "181416.701000", "181416.703000", "181416.706000", "181416.708000", "181416.711000", "181416.713000", "181416.716000", "181416.718000", "181416.721000", "181456.647000", "181456.650000", "181456.652000", "181456.655000", "181456.658000", "181456.660000", "181456.663000", "181456.665000", "181456.668000", "181456.670000", "181456.672000", "181456.675000", "181456.678000", "181456.680000", "181456.683000", "181456.685000", "181456.687000", "181456.690000", "181456.692000", "181456.695000", "181456.697000", "181456.700000", "181456.702000", "181456.705000", "181456.707000", "181456.710000", "181536.661000", "181536.663000", "181536.666000", "181536.668000", "181536.671000", "181536.673000", "181536.676000", "181536.678000", "181536.681000", "181536.683000", "181536.686000", "181536.688000", "181536.691000", "181536.693000", "181536.696000", "181536.698000", "181536.701000", "181536.704000", "181536.706000", "181536.709000", "181536.711000", "181536.714000", "181536.716000", "181536.719000", "181536.721000", "181536.724000", "181536.726000", "181616.675000", "181616.678000", "181616.680000", "181616.683000", "181616.685000", "181616.688000", "181616.690000", "181616.693000", "181616.695000", "181616.698000", "181616.700000", "181616.703000", "181616.705000", "181616.708000", "181616.710000", "181616.713000", "181616.715000", "181616.718000", "181616.720000", "181616.722000", "181616.725000", "181616.727000", "181616.730000", "181616.737000", "181616.740000", "181616.742000", "181616.745000", "181656.678000", "181656.681000", "181656.683000", "181656.686000", "181656.688000", "181656.691000", "181656.693000", "181656.695000", "181656.698000", "181656.700000", "181656.703000", "181656.706000", "181656.708000", "181656.711000", "181656.713000", "181656.716000", "181656.718000", "181656.721000", "181656.724000", "181656.726000", "181656.729000", "181656.731000", "181656.734000", "181656.736000", "181656.739000", "181656.741000", "181656.744000", "181736.657000", "181736.660000", "181736.663000", "181736.665000", "181736.668000", "181736.670000", "181736.673000", "181736.675000", "181736.678000", "181736.680000", "181736.683000", "181736.685000", "181736.688000", "181736.690000", "181736.693000", "181736.695000", "181736.698000", "181736.700000", "181736.703000", "181736.705000", "181736.708000", "181736.710000", "181736.713000", "181736.715000", "181736.718000", "181736.720000", "181736.723000", "181816.654000", "181816.657000", "181816.659000", "181816.661000", "181816.664000", "181816.666000", "181816.669000", "181816.671000", "181816.674000", "181816.676000", "181816.679000", "181816.681000", "181816.684000", "181816.686000", "181816.689000", "181816.691000", "181816.694000", "181816.696000", "181816.699000", "181816.701000", "181816.704000", "181816.706000", "181816.709000", "181816.711000", "181816.714000", "181816.716000", "181816.719000", "181823.311000", "181823.313000", "181823.316000", "181823.319000"],
      "InstanceNumber": [1, 2, 3, 4, 5, 6, 7, 8, 9, 10, 11, 12, 13, 14, 15, 16, 17, 18, 19, 20, 21, 22, 23, 24, 25, 26, 27, 28, 29, 30, 31, 32, 33, 34, 35, 36, 37, 38, 39, 40, 41, 42, 43, 44, 45, 46, 47, 48, 49, 50, 51, 52, 53, 54, 55, 56, 57, 58, 59, 60, 61, 62, 63, 64, 65, 66, 67, 68, 69, 70, 71, 72, 73, 74, 75, 76, 77, 78, 79, 80, 81, 82, 83, 84, 85, 86, 87, 88, 89, 90, 91, 92, 93, 94, 95, 96, 97, 98, 99, 100, 101, 102, 103, 104, 105, 106, 107, 108, 109, 110, 111, 112, 113, 114, 115, 116, 117, 118, 119, 120, 121, 122, 123, 124, 125, 126, 127, 128, 129, 130, 131, 132, 133, 134, 135, 136, 137, 138, 139, 140, 141, 142, 143, 144, 145, 146, 147, 148, 149, 150, 151, 152, 153, 154, 155, 156, 157, 158, 159, 160, 161, 162, 163, 164, 165, 166, 167, 168, 169, 170, 171, 172, 173, 174, 175, 176, 177, 178, 179, 180, 181, 182, 183, 184, 185, 186, 187, 188, 189, 190, 191, 192, 193, 194, 195, 196, 197, 198, 199, 200, 201, 202, 203, 204, 205, 206, 207, 208, 209, 210, 211, 212, 213, 214, 215, 216, 217, 218, 219, 220, 221, 222, 223, 224, 225, 226, 227, 228, 229, 230, 231, 232, 233, 234, 235, 236, 237, 238, 239, 240, 241, 242, 243, 244, 245, 246, 247, 248, 249, 250, 251, 252, 253, 254, 255, 256, 257, 258, 259, 260, 261, 262, 263, 264, 265, 266, 267, 268, 269, 270, 271, 272, 273, 274, 275, 276, 277, 278, 279, 280, 281, 282, 283, 284, 285, 286, 287, 288, 289, 290, 291, 292, 293, 294, 295, 296, 297, 298, 299, 300, 301, 302, 303, 304, 305, 306, 307, 308, 309, 310, 311, 312, 313, 314, 315, 316, 317, 318, 319, 320, 321, 322, 323, 324, 325, 326, 327, 328, 329, 330, 331, 332, 333],
      "WindowCenter": [4844.0, 4846.0, 4844.0, 4786.0, 4820.0, 4790.0, 4848.0, 4814.0, 4790.0, 4846.0, 4824.0, 4850.0, 4850.0, 4846.0, 4850.0, 4820.0, 4820.0, 4788.0, 4816.0, 4788.0, 4818.0, 4814.0, 4818.0, 4820.0, 4814.0, 4844.0, 4818.0, 4820.0, 4824.0, 4814.0, 4850.0, 4822.0, 4820.0, 4816.0, 4816.0, 4786.0, 4760.0, 4786.0, 4788.0, 4848.0, 4820.0, 4852.0, 4822.0, 4848.0, 4816.0, 4788.0, 4816.0, 4784.0, 4820.0, 4786.0, 4824.0, 4790.0, 4824.0, 4812.0, 4824.0, 4816.0, 4844.0, 4814.0, 4816.0, 4788.0, 4788.0, 4818.0, 4816.0, 4824.0, 4822.0, 4824.0, 4792.0, 4818.0, 4786.0, 4814.0, 4786.0, 4818.0, 4788.0, 4820.0, 4788.0, 4820.0, 4814.0, 4824.0, 4818.0, 4848.0, 4820.0, 4818.0, 4822.0, 4810.0, 4824.0, 4814.0, 4824.0, 4818.0, 4790.0, 4818.0, 4818.0, 4814.0, 4816.0, 4812.0, 4820.0, 4792.0, 4820.0, 4792.0, 4818.0, 4848.0, 4814.0, 4826.0, 4818.0, 4846.0, 4814.0, 4822.0, 4814.0, 4816.0, 4818.0, 4818.0, 4814.0, 4812.0, 4820.0, 4816.0, 4820.0, 4788.0, 4824.0, 4816.0, 4848.0, 4818.0, 4850.0, 4816.0, 4822.0, 4788.0, 4820.0, 4784.0, 4816.0, 4792.0, 4814.0, 4822.0, 4816.0, 4852.0, 4818.0, 4846.0, 4820.0, 4822.0, 4788.0, 4814.0, 4786.0, 4816.0, 4814.0, 4824.0, 4818.0, 4824.0, 4816.0, 4824.0, 4790.0, 4824.0, 4790.0, 4846.0, 4812.0, 4814.0, 4820.0, 4784.0, 4826.0, 4816.0, 4848.0, 4820.0, 4826.0, 4812.0, 4818.0, 4788.0, 4814.0, 4788.0, 4822.0, 4792.0, 4820.0, 4786.0, 4820.0, 4820.0, 4850.0, 4820.0, 4828.0, 4786.0, 4782.0, 4818.0, 4812.0, 4822.0, 4816.0, 4826.0, 4816.0, 4822.0, 4812.0, 4818.0, 4818.0, 4818.0, 4822.0, 4816.0, 4818.0, 4792.0, 4820.0, 4816.0, 4792.0, 4818.0, 4814.0, 4786.0, 4792.0, 4782.0, 4816.0, 4788.0, 4814.0, 4788.0, 4786.0, 4788.0, 4792.0, 4786.0, 4812.0, 4788.0, 4788.0, 4782.0, 4790.0, 4784.0, 4788.0, 4788.0, 4790.0, 4820.0, 4726.0, 4730.0, 4812.0, 4858.0, 4910.0, 4888.0, 4856.0, 4822.0, 4786.0, 4752.0, 4748.0, 4752.0, 4758.0, 4814.0, 4844.0, 4852.0, 4854.0, 4826.0, 4814.0, 4780.0, 4782.0, 4782.0, 4780.0, 4792.0, 4784.0, 4818.0, 4818.0, 4824.0, 4818.0, 4810.0, 4818.0, 4788.0, 4814.0, 4786.0, 4788.0, 4788.0, 4782.0, 4816.0, 4810.0, 4818.0, 4788.0, 4820.0, 4812.0, 4780.0, 4786.0, 4784.0, 4758.0, 4786.0, 4818.0, 4818.0, 4824.0, 4858.0, 4786.0, 4786.0, 4788.0, 4780.0, 4812.0, 4786.0, 4792.0, 4786.0, 4816.0, 4816.0, 4822.0, 4790.0, 4816.0, 4786.0, 4790.0, 4778.0, 4784.0, 4812.0, 4812.0, 4816.0, 4814.0, 4818.0, 4786.0, 4790.0, 4786.0, 4786.0, 4788.0, 4778.0, 4790.0, 4784.0, 4790.0, 4790.0, 4788.0, 4814.0, 4788.0, 4780.0, 4816.0, 4814.0, 4816.0, 4814.0, 4782.0, 4726.0, 4724.0, 4792.0, 4880.0, 4910.0, 4914.0, 4886.0, 4880.0, 4786.0, 4754.0, 4748.0, 4748.0, 4754.0, 4782.0, 4820.0, 4822.0, 4854.0, 4852.0, 4828.0, 4812.0, 4810.0, 4780.0, 4790.0, 4758.0],
