{
  "AcquisitionMatrixPE": 104,
  "AcquisitionNumber": 1,
  "AcquisitionTime": "19:02:23.540000",
  "BandwidthPerPixelPhaseEncode": 17.17,
  "BaseResolution": 104,
  "BodyPartExamined": "BRAIN",
  "CoilCombinationMethod": "Sum of Squares",
  "ConsistencyInfo": "N4_VE11C_LATEST_20160120",
  "ConversionSoftware": "dcm2niix",
  "ConversionSoftwareVersion": "v1.0.20220505",
  "DerivedVendorReportedEchoSpacing": 0.000560011,
  "DeviceSerialNumber": "167006",
  "DwellTime": 2.1e-06,
  "EchoTime": 0.037,
  "EchoTime1": 0.037,
  "EchoTime2": 0.001,
  "EchoTrainLength": 104,
  "EffectiveEchoSpacing": 0.000560011,
  "FlipAngle": 52,
  "HeudiconvVersion": "0.5.3.post811+g6206e14",
  "ImageComments": "Unaliased MB4/PE3/LB",
  "ImageOrientationPatientDICOM": [0.99942, -0.0307991, 0.0145336, 0.0340273, 0.920597, -0.389028],
  "ImageOrientationText": "Tra>Cor(-22.9)>Sag(0.1)",
  "ImageType": [
    "ORIGINAL",
    "PRIMARY",
    "P",
    "MB",
    "ND",
    "MOSAIC",
    "PHASE"
],
  "ImagingFrequency": 123.259,
  "InPlanePhaseEncodingDirectionDICOM": "COL",
  "InstitutionAddress": "Chemin Queen-Mary 4565,Montreal,District,CA,H3W 1W5",
  "InstitutionName": "IUGM",
  "InstitutionalDepartmentName": "Department",
  "MRAcquisitionType": "2D",
  "MagneticFieldStrength": 3,
  "Manufacturer": "Siemens",
  "ManufacturersModelName": "Prisma_fit",
  "MatrixCoilMode": "SENSE",
  "Modality": "MR",
  "MultibandAccelerationFactor": 4,
  "PartialFourier": 1,
  "PatientPosition": "HFS",
  "PercentPhaseFOV": 100,
  "PercentSampling": 100,
  "PhaseEncodingDirection": "j",
  "PhaseEncodingSteps": 104,
  "PhaseResolution": 1,
  "PixelBandwidth": 2290,
  "ProcedureStepDescription": "games^mario3",
  "ProtocolName": "func_task-mario3_run-06",
  "PulseSequenceDetails": "%CustomerSeq%\\cmrr_mbep2d_bold",
  "ReceiveCoilActiveElements": "HC1-7;NC1,2",
  "ReceiveCoilName": "HeadNeck_64",
  "ReconMatrixPE": 104,
  "RepetitionTime": 1.49,
  "SAR": 0.0573551,
  "ScanOptions": "FS",
  "ScanningSequence": "EP",
  "SequenceName": "epfid2d1_104",
  "SequenceVariant": "SK\\SS",
  "SeriesDescription": "func_task-mario3_run-06",
  "SeriesNumber": 26,
  "ShimSetting": [585, -7292, -8813, 375, 24, -372, -69, 94],
  "SliceThickness": 2,
  "SliceTiming": [0, 0.785, 0.0975, 0.8825, 0.1975, 0.98, 0.295, 1.0775, 0.3925, 1.1775, 0.49, 1.275, 0.5875, 1.3725, 0.6875, 0, 0.785, 0.0975, 0.8825, 0.1975, 0.98, 0.295, 1.0775, 0.3925, 1.1775, 0.49, 1.275, 0.5875, 1.3725, 0.6875, 0, 0.785, 0.0975, 0.8825, 0.1975, 0.98, 0.295, 1.0775, 0.3925, 1.1775, 0.49, 1.275, 0.5875, 1.3725, 0.6875, 0, 0.785, 0.0975, 0.8825, 0.1975, 0.98, 0.295, 1.0775, 0.3925, 1.1775, 0.49, 1.275, 0.5875, 1.3725, 0.6875],
  "SoftwareVersions": "syngo MR E11",
  "SpacingBetweenSlices": 2,
  "StationName": "MRC35049",
  "TaskName": "mario3",
  "TotalReadoutTime": 0.0576811,
  "TxRefAmp": 266.736,
  "WipMemBlock": "f5791856-fa2c-4b48-b352-c9cc8f41c362||Sequence: R017 ve11c/master r/75a17815+; Jun 28 2022 16:32:11 by eja",
  "dcmmeta_affine": [
    [-1.9988398551940918, 0.06805466115474701, 0.0027957772836089134, 101.31775665283203],
    [0.0615982860326767, 1.8411946296691895, -0.7785934805870056, -71.13552856445312],
    [0.02906724251806736, 0.778055727481842, 1.8422226905822754, -63.43790817260742],
    [0.0, 0.0, 0.0, 1.0]
],
  "dcmmeta_reorient_transform": [
    [0.0, -1.0, 0.0, 103.0],
    [1.0, 0.0, 0.0, 0.0],
    [0.0, 0.0, 1.0, 0.0],
    [0.0, 0.0, 0.0, 1.0]
],
  "dcmmeta_shape": [104, 104, 60, 332],
  "dcmmeta_slice_dim": 2,
  "dcmmeta_version": 0.6,
  "global": {
    "const": {
      "AcquisitionMatrix": [104, 0, 0, 104],
      "AngioFlag": "N",
      "BitsAllocated": 16,
      "BitsStored": 16,
      "BodyPartExamined": "BRAIN",
      "Columns": 832,
      "EchoNumbers": 1,
      "EchoTime": 37.0,
      "EchoTrainLength": 104,
      "FlipAngle": 52.0,
      "HighBit": 15,
      "ImageOrientationPatient": [0.99941992506129, -0.030799143342, 0.01453362170567, 0.0340273316325, 0.92059734009449, -0.3890278629005],
      "ImagePositionPatient": [-860.6769912441, -766.2806074648, 289.33363944497],
      "ImageType": [
        "ORIGINAL",
        "PRIMARY",
        "P",
        "MB",
        "ND",
        "MOSAIC"
],
      "ImagedNucleus": "1H",
      "ImagingFrequency": 123.258848,
      "InPlanePhaseEncodingDirection": "COL",
      "LargestImagePixelValue": 4095,
      "MRAcquisitionType": "2D",
      "MagneticFieldStrength": 3.0,
      "Manufacturer": "SIEMENS",
      "ManufacturerModelName": "Prisma_fit",
      "Modality": "MR",
      "NumberOfAverages": 1.0,
      "NumberOfPhaseEncodingSteps": 104,
      "PercentPhaseFieldOfView": 100.0,
      "PercentSampling": 100.0,
      "PerformedProcedureStepStartTime": "180629.274000",
      "PhotometricInterpretation": "MONOCHROME2",
      "PixelBandwidth": 2290.0,
      "PixelRepresentation": 0,
      "PixelSpacing": [2.0, 2.0],
      "ProtocolName": "func_task-mario3_run-06",
      "RepetitionTime": 1490.0,
      "RescaleIntercept": -4096.0,
      "RescaleSlope": 2.0,
      "RescaleType": "US",
      "Rows": 832,
      "SAR": 0.05735512673251,
      "SamplesPerPixel": 1,
      "ScanOptions": "FS",
      "ScanningSequence": "EP",
      "SequenceName": "epfid2d1_104",
      "SequenceVariant": [
        "SK",
        "SS"
],
      "SeriesDescription": "func_task-mario3_run-06",
      "SeriesNumber": 26,
      "SeriesTime": "190329.581000",
      "SliceLocation": -30.598914754205,
      "SliceThickness": 2.0,
      "SmallestImagePixelValue": 0,
      "SoftwareVersions": "syngo MR E11",
      "SpacingBetweenSlices": 2.0000000548805,
      "SpecificCharacterSet": "ISO_IR 100",
      "StudyID": "1",
      "StudyTime": "180629.186000",
      "TransmitCoilName": "Body",
      "VariableFlipAngleFlag": "N",
      "WindowCenterWidthExplanation": "Algo1",
      "dBdt": 0.0},
    "slices": {}
  },
  "time": {
    "samples": {
      "AcquisitionNumber": [1, 2, 3, 4, 5, 6, 7, 8, 9, 10, 11, 12, 13, 14, 15, 16, 17, 18, 19, 20, 21, 22, 23, 24, 25, 26, 27, 28, 29, 30, 31, 32, 33, 34, 35, 36, 37, 38, 39, 40, 41, 42, 43, 44, 45, 46, 47, 48, 49, 50, 51, 52, 53, 54, 55, 56, 57, 58, 59, 60, 61, 62, 63, 64, 65, 66, 67, 68, 69, 70, 71, 72, 73, 74, 75, 76, 77, 78, 79, 80, 81, 82, 83, 84, 85, 86, 87, 88, 89, 90, 91, 92, 93, 94, 95, 96, 97, 98, 99, 100, 101, 102, 103, 104, 105, 106, 107, 108, 109, 110, 111, 112, 113, 114, 115, 116, 117, 118, 119, 120, 121, 122, 123, 124, 125, 126, 127, 128, 129, 130, 131, 132, 133, 134, 135, 136, 137, 138, 139, 140, 141, 142, 143, 144, 145, 146, 147, 148, 149, 150, 151, 152, 153, 154, 155, 156, 157, 158, 159, 160, 161, 162, 163, 164, 165, 166, 167, 168, 169, 170, 171, 172, 173, 174, 175, 176, 177, 178, 179, 180, 181, 182, 183, 184, 185, 186, 187, 188, 189, 190, 191, 192, 193, 194, 195, 196, 197, 198, 199, 200, 201, 202, 203, 204, 205, 206, 207, 208, 209, 210, 211, 212, 213, 214, 215, 216, 217, 218, 219, 220, 221, 222, 223, 224, 225, 226, 227, 228, 229, 230, 231, 232, 233, 234, 235, 236, 237, 238, 239, 240, 241, 242, 243, 244, 245, 246, 247, 248, 249, 250, 251, 252, 253, 254, 255, 256, 257, 258, 259, 260, 261, 262, 263, 264, 265, 266, 267, 268, 269, 270, 271, 272, 273, 274, 275, 276, 277, 278, 279, 280, 281, 282, 283, 284, 285, 286, 287, 288, 289, 290, 291, 292, 293, 294, 295, 296, 297, 298, 299, 300, 301, 302, 303, 304, 305, 306, 307, 308, 309, 310, 311, 312, 313, 314, 315, 316, 317, 318, 319, 320, 321, 322, 323, 324, 325, 326, 327, 328, 329, 330, 331, 332],
      "AcquisitionTime": ["190223.540000", "190225.030000", "190226.520000", "190228.010000", "190229.500000", "190230.990000", "190232.480000", "190233.970000", "190235.460000", "190236.950000", "190238.440000", "190239.930000", "190241.420000", "190242.910000", "190244.400000", "190245.890000", "190247.380000", "190248.870000", "190250.360000", "190251.850000", "190253.340000", "190254.830000", "190256.320000", "190257.810000", "190259.300000", "190300.790000", "190302.280000", "190303.770000", "190305.260000", "190306.750000", "190308.240000", "190309.730000", "190311.220000", "190312.710000", "190314.200000", "190315.690000", "190317.180000", "190318.670000", "190320.160000", "190321.650000", "190323.140000", "190324.630000", "190326.120000", "190327.610000", "190329.100000", "190330.590000", "190332.080000", "190333.570000", "190335.060000", "190336.550000", "190338.040000", "190339.530000", "190341.020000", "190342.510000", "190344.000000", "190345.490000", "190346.980000", "190348.470000", "190349.960000", "190351.450000", "190352.940000", "190354.430000", "190355.920000", "190357.410000", "190358.900000", "190400.390000", "190401.880000", "190403.370000", "190404.860000", "190406.350000", "190407.840000", "190409.330000", "190410.820000", "190412.310000", "190413.800000", "190415.290000", "190416.780000", "190418.270000", "190419.760000", "190421.250000", "190422.740000", "190424.230000", "190425.720000", "190427.210000", "190428.700000", "190430.190000", "190431.680000", "190433.170000", "190434.660000", "190436.150000", "190437.640000", "190439.130000", "190440.620000", "190442.110000", "190443.600000", "190445.090000", "190446.580000", "190448.070000", "190449.560000", "190451.050000", "190452.540000", "190454.030000", "190455.520000", "190457.010000", "190458.500000", "190459.990000", "190501.480000", "190502.970000", "190504.460000", "190505.950000", "190507.440000", "190508.930000", "190510.420000", "190511.910000", "190513.400000", "190514.890000", "190516.380000", "190517.870000", "190519.360000", "190520.850000", "190522.340000", "190523.830000", "190525.320000", "190526.810000", "190528.300000", "190529.790000", "190531.280000", "190532.770000", "190534.260000", "190535.750000", "190537.240000", "190538.730000", "190540.220000", "190541.710000", "190543.200000", "190544.690000", "190546.180000", "190547.670000", "190549.160000", "190550.650000", "190552.140000", "190553.630000", "190555.120000", "190556.610000", "190558.100000", "190559.590000", "190601.080000", "190602.570000", "190604.060000", "190605.550000", "190607.040000", "190608.530000", "190610.020000", "190611.510000", "190613.000000", "190614.490000", "190615.980000", "190617.470000", "190618.960000", "190620.450000", "190621.940000", "190623.430000", "190624.920000", "190626.410000", "190627.900000", "190629.390000", "190630.880000", "190632.370000", "190633.860000", "190635.350000", "190636.840000", "190638.330000", "190639.820000", "190641.310000", "190642.800000", "190644.290000", "190645.780000", "190647.270000", "190648.760000", "190650.250000", "190651.740000", "190653.230000", "190654.720000", "190656.210000", "190657.700000", "190659.190000", "190700.680000", "190702.170000", "190703.660000", "190705.150000", "190706.640000", "190708.130000", "190709.620000", "190711.110000", "190712.600000", "190714.090000", "190715.580000", "190717.070000", "190718.560000", "190720.050000", "190721.540000", "190723.030000", "190724.520000", "190726.010000", "190727.500000", "190728.990000", "190730.480000", "190731.970000", "190733.460000", "190734.950000", "190736.440000", "190737.930000", "190739.420000", "190740.910000", "190742.400000", "190743.890000", "190745.380000", "190746.870000", "190748.360000", "190749.850000", "190751.340000", "190752.830000", "190754.320000", "190755.810000", "190757.300000", "190758.790000", "190800.280000", "190801.770000", "190803.260000", "190804.750000", "190806.240000", "190807.730000", "190809.220000", "190810.710000", "190812.200000", "190813.690000", "190815.180000", "190816.670000", "190818.160000", "190819.650000", "190821.140000", "190822.630000", "190824.120000", "190825.610000", "190827.100000", "190828.590000", "190830.080000", "190831.570000", "190833.060000", "190834.550000", "190836.040000", "190837.530000", "190839.020000", "190840.510000", "190842.000000", "190843.490000", "190844.980000", "190846.470000", "190847.960000", "190849.450000", "190850.940000", "190852.430000", "190853.920000", "190855.410000", "190856.900000", "190858.390000", "190859.880000", "190901.370000", "190902.860000", "190904.350000", "190905.840000", "190907.330000", "190908.820000", "190910.310000", "190911.800000", "190913.290000", "190914.780000", "190916.270000", "190917.760000", "190919.250000", "190920.740000", "190922.230000", "190923.720000", "190925.210000", "190926.700000", "190928.190000", "190929.680000", "190931.170000", "190932.660000", "190934.150000", "190935.640000", "190937.130000", "190938.620000", "190940.110000", "190941.600000", "190943.090000", "190944.580000", "190946.070000", "190947.560000", "190949.050000", "190950.540000", "190952.030000", "190953.520000", "190955.010000", "190956.500000", "190957.990000", "190959.480000", "191000.970000", "191002.460000", "191003.950000", "191005.440000", "191006.930000", "191008.420000", "191009.910000", "191011.400000", "191012.890000", "191014.380000", "191015.870000", "191017.360000", "191018.850000", "191020.340000", "191021.830000", "191023.320000", "191024.810000", "191026.300000", "191027.790000", "191029.280000", "191030.770000", "191032.260000", "191033.750000", "191035.240000", "191036.730000"],
      "ContentTime": ["190329.583000", "190329.586000", "190329.593000", "190329.596000", "190329.598000", "190329.601000", "190329.603000", "190329.606000", "190329.608000", "190329.611000", "190329.613000", "190329.616000", "190329.618000", "190329.621000", "190329.623000", "190329.626000", "190349.563000", "190349.566000", "190349.569000", "190349.571000", "190349.574000", "190349.576000", "190349.578000", "190349.581000", "190349.583000", "190349.586000", "190349.588000", "190349.591000", "190349.593000", "190349.596000", "190349.598000", "190349.601000", "190349.603000", "190349.605000", "190349.608000", "190349.610000", "190349.613000", "190409.557000", "190409.559000", "190409.567000", "190409.569000", "190409.572000", "190409.574000", "190409.577000", "190409.579000", "190409.581000", "190409.584000", "190409.586000", "190409.589000", "190409.591000", "190409.594000", "190409.596000", "190409.599000", "190409.601000", "190409.604000", "190409.607000", "190409.609000", "190429.561000", "190429.564000", "190429.567000", "190429.569000", "190429.572000", "190429.574000", "190429.577000", "190429.579000", "190429.582000", "190429.584000", "190429.587000", "190429.589000", "190429.592000", "190429.594000", "190429.597000", "190429.599000", "190429.602000", "190429.604000", "190429.607000", "190429.609000", "190449.549000", "190449.552000", "190449.554000", "190449.557000", "190449.559000", "190449.562000", "190449.564000", "190449.567000", "190449.569000", "190449.572000", "190449.574000", "190449.577000", "190449.579000", "190449.582000", "190449.584000", "190449.587000", "190449.589000", "190449.592000", "190449.594000", "190449.597000", "190529.603000", "190529.606000", "190529.609000", "190529.611000", "190529.614000", "190529.616000", "190529.619000", "190529.621000", "190529.623000", "190529.626000", "190529.628000", "190529.631000", "190529.633000", "190529.636000", "190529.638000", "190529.641000", "190529.643000", "190529.646000", "190529.648000", "190529.651000", "190529.653000", "190529.656000", "190529.658000", "190529.661000", "190529.663000", "190529.666000", "190529.668000", "190609.582000", "190609.585000", "190609.588000", "190609.590000", "190609.593000", "190609.595000", "190609.598000", "190609.610000", "190609.612000", "190609.615000", "190609.617000", "190609.620000", "190609.622000", "190609.629000", "190609.632000", "190609.634000", "190609.637000", "190609.640000", "190609.642000", "190609.645000", "190609.647000", "190609.650000", "190609.652000", "190609.655000", "190609.657000", "190609.660000", "190609.662000", "190649.584000", "190649.587000", "190649.590000", "190649.594000", "190649.597000", "190649.601000", "190649.603000", "190649.606000", "190649.609000", "190649.613000", "190649.616000", "190649.618000", "190649.621000", "190649.624000", "190649.626000", "190649.629000", "190649.631000", "190649.634000", "190649.636000", "190649.639000", "190649.641000", "190649.644000", "190649.646000", "190649.649000", "190649.652000", "190649.654000", "190729.599000", "190729.602000", "190729.605000", "190729.607000", "190729.610000", "190729.612000", "190729.615000", "190729.617000", "190729.620000", "190729.622000", "190729.625000", "190729.627000", "190729.630000", "190729.632000", "190729.635000", "190729.644000", "190729.647000", "190729.649000", "190729.652000", "190729.655000", "190729.657000", "190729.659000", "190729.662000", "190729.665000", "190729.667000", "190729.670000", "190729.672000", "190809.589000", "190809.592000", "190809.594000", "190809.597000", "190809.600000", "190809.602000", "190809.605000", "190809.607000", "190809.610000", "190809.612000", "190809.615000", "190809.617000", "190809.620000", "190809.622000", "190809.625000", "190809.627000", "190809.630000", "190809.632000", "190809.635000", "190809.637000", "190809.640000", "190809.643000", "190809.645000", "190809.647000", "190809.650000", "190809.653000", "190809.655000", "190849.585000", "190849.588000", "190849.591000", "190849.593000", "190849.596000", "190849.598000", "190849.601000", "190849.604000", "190849.606000", "190849.608000", "190849.611000", "190849.614000", "190849.616000", "190849.619000", "190849.621000", "190849.623000", "190849.626000", "190849.628000", "190849.631000", "190849.634000", "190849.636000", "190849.639000", "190849.641000", "190849.643000", "190849.646000", "190849.648000", "190849.651000", "190929.582000", "190929.585000", "190929.587000", "190929.589000", "190929.592000", "190929.594000", "190929.597000", "190929.600000", "190929.602000", "190929.605000", "190929.607000", "190929.610000", "190929.612000", "190929.615000", "190929.617000", "190929.620000", "190929.622000", "190929.625000", "190929.627000", "190929.630000", "190929.632000", "190929.635000", "190929.637000", "190929.640000", "190929.642000", "190929.645000", "190929.647000", "191009.591000", "191009.594000", "191009.596000", "191009.599000", "191009.601000", "191009.604000", "191009.606000", "191009.609000", "191009.611000", "191009.614000", "191009.617000", "191009.619000", "191009.622000", "191009.624000", "191009.627000", "191009.629000", "191009.632000", "191009.634000", "191009.637000", "191009.639000", "191009.642000", "191009.644000", "191009.647000", "191009.649000", "191009.652000", "191009.654000", "191009.657000", "191039.701000", "191039.704000", "191039.707000", "191039.709000", "191039.712000", "191039.715000", "191039.717000", "191039.720000", "191039.723000", "191039.725000", "191039.728000", "191039.731000", "191039.734000", "191039.736000", "191039.739000", "191039.741000", "191039.744000", "191039.746000", "191039.749000", "191039.751000"],
      "InstanceCreationTime": ["190329.583000", "190329.586000", "190329.593000", "190329.596000", "190329.598000", "190329.601000", "190329.603000", "190329.606000", "190329.608000", "190329.611000", "190329.613000", "190329.616000", "190329.618000", "190329.621000", "190329.623000", "190329.626000", "190349.563000", "190349.566000", "190349.569000", "190349.571000", "190349.574000", "190349.576000", "190349.578000", "190349.581000", "190349.583000", "190349.586000", "190349.588000", "190349.591000", "190349.593000", "190349.596000", "190349.598000", "190349.601000", "190349.603000", "190349.605000", "190349.608000", "190349.610000", "190349.613000", "190409.557000", "190409.559000", "190409.567000", "190409.569000", "190409.572000", "190409.574000", "190409.577000", "190409.579000", "190409.581000", "190409.584000", "190409.586000", "190409.589000", "190409.591000", "190409.594000", "190409.596000", "190409.599000", "190409.601000", "190409.604000", "190409.607000", "190409.609000", "190429.561000", "190429.564000", "190429.567000", "190429.569000", "190429.572000", "190429.574000", "190429.577000", "190429.579000", "190429.582000", "190429.584000", "190429.587000", "190429.589000", "190429.592000", "190429.594000", "190429.597000", "190429.599000", "190429.602000", "190429.604000", "190429.607000", "190429.609000", "190449.549000", "190449.552000", "190449.554000", "190449.557000", "190449.559000", "190449.562000", "190449.564000", "190449.567000", "190449.569000", "190449.572000", "190449.574000", "190449.577000", "190449.579000", "190449.582000", "190449.584000", "190449.587000", "190449.589000", "190449.592000", "190449.594000", "190449.597000", "190529.603000", "190529.606000", "190529.609000", "190529.611000", "190529.614000", "190529.616000", "190529.619000", "190529.621000", "190529.623000", "190529.626000", "190529.628000", "190529.631000", "190529.633000", "190529.636000", "190529.638000", "190529.641000", "190529.643000", "190529.646000", "190529.648000", "190529.651000", "190529.653000", "190529.656000", "190529.658000", "190529.661000", "190529.663000", "190529.666000", "190529.668000", "190609.582000", "190609.585000", "190609.588000", "190609.590000", "190609.593000", "190609.595000", "190609.598000", "190609.610000", "190609.612000", "190609.615000", "190609.617000", "190609.620000", "190609.622000", "190609.629000", "190609.632000", "190609.634000", "190609.637000", "190609.640000", "190609.642000", "190609.645000", "190609.647000", "190609.650000", "190609.652000", "190609.655000", "190609.657000", "190609.660000", "190609.662000", "190649.584000", "190649.587000", "190649.590000", "190649.594000", "190649.597000", "190649.601000", "190649.603000", "190649.606000", "190649.609000", "190649.613000", "190649.616000", "190649.618000", "190649.621000", "190649.624000", "190649.626000", "190649.629000", "190649.631000", "190649.634000", "190649.636000", "190649.639000", "190649.641000", "190649.644000", "190649.646000", "190649.649000", "190649.652000", "190649.654000", "190729.599000", "190729.602000", "190729.605000", "190729.607000", "190729.610000", "190729.612000", "190729.615000", "190729.617000", "190729.620000", "190729.622000", "190729.625000", "190729.627000", "190729.630000", "190729.632000", "190729.635000", "190729.644000", "190729.647000", "190729.649000", "190729.652000", "190729.655000", "190729.657000", "190729.659000", "190729.662000", "190729.665000", "190729.667000", "190729.670000", "190729.672000", "190809.589000", "190809.592000", "190809.594000", "190809.597000", "190809.600000", "190809.602000", "190809.605000", "190809.607000", "190809.610000", "190809.612000", "190809.615000", "190809.617000", "190809.620000", "190809.622000", "190809.625000", "190809.627000", "190809.630000", "190809.632000", "190809.635000", "190809.637000", "190809.640000", "190809.643000", "190809.645000", "190809.647000", "190809.650000", "190809.653000", "190809.655000", "190849.585000", "190849.588000", "190849.591000", "190849.593000", "190849.596000", "190849.598000", "190849.601000", "190849.604000", "190849.606000", "190849.608000", "190849.611000", "190849.614000", "190849.616000", "190849.619000", "190849.621000", "190849.623000", "190849.626000", "190849.628000", "190849.631000", "190849.634000", "190849.636000", "190849.639000", "190849.641000", "190849.643000", "190849.646000", "190849.648000", "190849.651000", "190929.582000", "190929.585000", "190929.587000", "190929.589000", "190929.592000", "190929.594000", "190929.597000", "190929.600000", "190929.602000", "190929.605000", "190929.607000", "190929.610000", "190929.612000", "190929.615000", "190929.617000", "190929.620000", "190929.622000", "190929.625000", "190929.627000", "190929.630000", "190929.632000", "190929.635000", "190929.637000", "190929.640000", "190929.642000", "190929.645000", "190929.647000", "191009.591000", "191009.594000", "191009.596000", "191009.599000", "191009.601000", "191009.604000", "191009.606000", "191009.609000", "191009.611000", "191009.614000", "191009.617000", "191009.619000", "191009.622000", "191009.624000", "191009.627000", "191009.629000", "191009.632000", "191009.634000", "191009.637000", "191009.639000", "191009.642000", "191009.644000", "191009.647000", "191009.649000", "191009.652000", "191009.654000", "191009.657000", "191039.701000", "191039.704000", "191039.707000", "191039.709000", "191039.712000", "191039.715000", "191039.717000", "191039.720000", "191039.723000", "191039.725000", "191039.728000", "191039.731000", "191039.734000", "191039.736000", "191039.739000", "191039.741000", "191039.744000", "191039.746000", "191039.749000", "191039.751000"],
      "InstanceNumber": [1, 2, 3, 4, 5, 6, 7, 8, 9, 10, 11, 12, 13, 14, 15, 16, 17, 18, 19, 20, 21, 22, 23, 24, 25, 26, 27, 28, 29, 30, 31, 32, 33, 34, 35, 36, 37, 38, 39, 40, 41, 42, 43, 44, 45, 46, 47, 48, 49, 50, 51, 52, 53, 54, 55, 56, 57, 58, 59, 60, 61, 62, 63, 64, 65, 66, 67, 68, 69, 70, 71, 72, 73, 74, 75, 76, 77, 78, 79, 80, 81, 82, 83, 84, 85, 86, 87, 88, 89, 90, 91, 92, 93, 94, 95, 96, 97, 98, 99, 100, 101, 102, 103, 104, 105, 106, 107, 108, 109, 110, 111, 112, 113, 114, 115, 116, 117, 118, 119, 120, 121, 122, 123, 124, 125, 126, 127, 128, 129, 130, 131, 132, 133, 134, 135, 136, 137, 138, 139, 140, 141, 142, 143, 144, 145, 146, 147, 148, 149, 150, 151, 152, 153, 154, 155, 156, 157, 158, 159, 160, 161, 162, 163, 164, 165, 166, 167, 168, 169, 170, 171, 172, 173, 174, 175, 176, 177, 178, 179, 180, 181, 182, 183, 184, 185, 186, 187, 188, 189, 190, 191, 192, 193, 194, 195, 196, 197, 198, 199, 200, 201, 202, 203, 204, 205, 206, 207, 208, 209, 210, 211, 212, 213, 214, 215, 216, 217, 218, 219, 220, 221, 222, 223, 224, 225, 226, 227, 228, 229, 230, 231, 232, 233, 234, 235, 236, 237, 238, 239, 240, 241, 242, 243, 244, 245, 246, 247, 248, 249, 250, 251, 252, 253, 254, 255, 256, 257, 258, 259, 260, 261, 262, 263, 264, 265, 266, 267, 268, 269, 270, 271, 272, 273, 274, 275, 276, 277, 278, 279, 280, 281, 282, 283, 284, 285, 286, 287, 288, 289, 290, 291, 292, 293, 294, 295, 296, 297, 298, 299, 300, 301, 302, 303, 304, 305, 306, 307, 308, 309, 310, 311, 312, 313, 314, 315, 316, 317, 318, 319, 320, 321, 322, 323, 324, 325, 326, 327, 328, 329, 330, 331, 332],
      "WindowCenter": [4888.0, 4916.0, 4886.0, 4912.0, 4884.0, 4912.0, 4880.0, 4888.0, 4856.0, 4888.0, 4884.0, 4892.0, 4888.0, 4888.0, 4914.0, 4888.0, 4890.0, 4882.0, 4884.0, 4888.0, 4882.0, 4888.0, 4888.0, 4916.0, 4890.0, 4916.0, 4882.0, 4912.0, 4884.0, 4886.0, 4892.0, 4884.0, 4888.0, 4886.0, 4888.0, 4886.0, 4890.0, 4914.0, 4884.0, 4910.0, 4886.0, 4888.0, 4890.0, 4886.0, 4912.0, 4878.0, 4912.0, 4888.0, 4914.0, 4914.0, 4912.0, 4890.0, 4890.0, 4882.0, 4884.0, 4882.0, 4892.0, 4884.0, 4888.0, 4886.0, 4890.0, 4888.0, 4884.0, 4886.0, 4854.0, 4910.0, 4852.0, 4886.0, 4886.0, 4912.0, 4916.0, 4888.0, 4890.0, 4882.0, 4854.0, 4850.0, 4822.0, 4888.0, 4820.0, 4782.0, 4884.0, 4918.0, 4926.0, 4922.0, 4922.0, 4892.0, 4882.0, 4810.0, 4790.0, 4816.0, 4844.0, 4884.0, 4890.0, 4892.0, 4890.0, 4856.0, 4856.0, 4826.0, 4818.0, 4850.0, 4914.0, 4890.0, 4916.0, 4914.0, 4890.0, 4888.0, 4858.0, 4856.0, 4852.0, 4858.0, 4856.0, 4884.0, 4886.0, 4890.0, 4856.0, 4858.0, 4886.0, 4854.0, 4856.0, 4886.0, 4882.0, 4856.0, 4882.0, 4858.0, 4884.0, 4852.0, 4860.0, 4856.0, 4856.0, 4886.0, 4878.0, 4886.0, 4856.0, 4890.0, 4856.0, 4888.0, 4882.0, 4880.0, 4884.0, 4856.0, 4882.0, 4856.0, 4884.0, 4886.0, 4886.0, 4882.0, 4858.0, 4882.0, 4880.0, 4858.0, 4882.0, 4858.0, 4882.0, 4850.0, 4852.0, 4880.0, 4886.0, 4878.0, 4890.0, 4886.0, 4884.0, 4884.0, 4880.0, 4886.0, 4856.0, 4882.0, 4856.0, 4884.0, 4880.0, 4882.0, 4884.0, 4882.0, 4886.0, 4880.0, 4882.0, 4888.0, 4880.0, 4886.0, 4888.0, 4888.0, 4890.0, 4858.0, 4882.0, 4860.0, 4882.0, 4854.0, 4880.0, 4856.0, 4884.0, 4878.0, 4886.0, 4880.0, 4850.0, 4858.0, 4856.0, 4886.0, 4882.0, 4890.0, 4890.0, 4888.0, 4886.0, 4856.0, 4856.0, 4854.0, 4880.0, 4854.0, 4884.0, 4882.0, 4884.0, 4856.0, 4882.0, 4858.0, 4858.0, 4882.0, 4858.0, 4888.0, 4880.0, 4854.0, 4856.0, 4860.0, 4880.0, 4884.0, 4886.0, 4880.0, 4878.0, 4884.0, 4858.0, 4884.0, 4882.0, 4888.0, 4884.0, 4858.0, 4862.0, 4856.0, 4880.0, 4852.0, 4862.0, 4862.0, 4858.0, 4888.0, 4858.0, 4884.0, 4882.0, 4882.0, 4882.0, 4854.0, 4856.0, 4854.0, 4822.0, 4858.0, 4854.0, 4856.0, 4890.0, 4888.0, 4884.0, 4886.0, 4856.0, 4850.0, 4850.0, 4850.0, 4854.0, 4850.0, 4888.0, 4878.0, 4892.0, 4884.0, 4886.0, 4880.0, 4858.0, 4878.0, 4852.0, 4854.0, 4852.0, 4854.0, 4886.0, 4858.0, 4890.0, 4888.0, 4848.0, 4848.0, 4854.0, 4854.0, 4858.0, 4884.0, 4884.0, 4880.0, 4884.0, 4854.0, 4880.0, 4856.0, 4882.0, 4854.0, 4880.0, 4854.0, 4856.0, 4852.0, 4876.0, 4882.0, 4858.0, 4882.0, 4882.0, 4856.0, 4884.0, 4856.0, 4884.0, 4856.0, 4884.0, 4858.0, 4884.0, 4854.0, 4884.0, 4884.0, 4848.0, 4726.0, 4816.0, 4888.0, 4918.0, 4918.0, 4920.0, 4914.0, 4886.0, 4880.0, 4826.0, 4816.0, 4822.0, 4820.0, 4882.0, 4880.0, 4912.0, 4886.0, 4912.0, 4880.0],
