{
  "AcquisitionMatrixPE": 104,
  "AcquisitionNumber": 1,
  "AcquisitionTime": "18:20:43.605000",
  "BandwidthPerPixelPhaseEncode": 17.17,
  "BaseResolution": 104,
  "BodyPartExamined": "BRAIN",
  "CoilCombinationMethod": "Sum of Squares",
  "ConsistencyInfo": "N4_VE11C_LATEST_20160120",
  "ConversionSoftware": "dcm2niix",
  "ConversionSoftwareVersion": "v1.0.20220505",
  "DerivedVendorReportedEchoSpacing": 0.000560011,
  "DeviceSerialNumber": "167006",
  "DwellTime": 2.1e-06,
  "EchoTime": 0.037,
  "EchoTrainLength": 104,
  "EffectiveEchoSpacing": 0.000560011,
  "FlipAngle": 52,
  "HeudiconvVersion": "0.5.3.post811+g6206e14",
  "ImageComments": "Unaliased MB4/PE3/LB",
  "ImageOrientationPatientDICOM": [0.99942, -0.0307991, 0.0145336, 0.0340273, 0.920597, -0.389028],
  "ImageOrientationText": "Tra>Cor(-22.9)>Sag(0.1)",
  "ImageType": [
    "ORIGINAL",
    "PRIMARY",
    "M",
    "MB",
    "ND",
    "MOSAIC"
],
  "ImagingFrequency": 123.259,
  "InPlanePhaseEncodingDirectionDICOM": "COL",
  "InstitutionAddress": "Chemin Queen-Mary 4565,Montreal,District,CA,H3W 1W5",
  "InstitutionName": "IUGM",
  "InstitutionalDepartmentName": "Department",
  "MRAcquisitionType": "2D",
  "MagneticFieldStrength": 3,
  "Manufacturer": "Siemens",
  "ManufacturersModelName": "Prisma_fit",
  "MatrixCoilMode": "SENSE",
  "Modality": "MR",
  "MultibandAccelerationFactor": 4,
  "PartialFourier": 1,
  "PatientPosition": "HFS",
  "PercentPhaseFOV": 100,
  "PercentSampling": 100,
  "PhaseEncodingDirection": "j",
  "PhaseEncodingSteps": 104,
  "PhaseResolution": 1,
  "PixelBandwidth": 2290,
  "ProcedureStepDescription": "games^mario3",
  "ProtocolName": "func_task-mario3_run-02",
  "PulseSequenceDetails": "%CustomerSeq%\\cmrr_mbep2d_bold",
  "ReceiveCoilActiveElements": "HC1-7;NC1,2",
  "ReceiveCoilName": "HeadNeck_64",
  "ReconMatrixPE": 104,
  "RepetitionTime": 1.49,
  "SAR": 0.0573551,
  "ScanOptions": "FS",
  "ScanningSequence": "EP",
  "SequenceName": "epfid2d1_104",
  "SequenceVariant": "SK\\SS",
  "SeriesDescription": "func_task-mario3_run-02",
  "SeriesNumber": 13,
  "ShimSetting": [585, -7292, -8813, 375, 24, -372, -69, 94],
  "SliceThickness": 2,
  "SliceTiming": [0, 0.7825, 0.0975, 0.88, 0.195, 0.98, 0.2925, 1.0775, 0.39, 1.175, 0.49, 1.2725, 0.5875, 1.37, 0.685, 0, 0.7825, 0.0975, 0.88, 0.195, 0.98, 0.2925, 1.0775, 0.39, 1.175, 0.49, 1.2725, 0.5875, 1.37, 0.685, 0, 0.7825, 0.0975, 0.88, 0.195, 0.98, 0.2925, 1.0775, 0.39, 1.175, 0.49, 1.2725, 0.5875, 1.37, 0.685, 0, 0.7825, 0.0975, 0.88, 0.195, 0.98, 0.2925, 1.0775, 0.39, 1.175, 0.49, 1.2725, 0.5875, 1.37, 0.685],
  "SoftwareVersions": "syngo MR E11",
  "SpacingBetweenSlices": 2,
  "StationName": "MRC35049",
  "TaskName": "mario3",
  "TotalReadoutTime": 0.0576811,
  "TxRefAmp": 266.736,
  "WipMemBlock": "64735877-7850-40fe-8800-4c6505602171||Sequence: R017 ve11c/master r/75a17815+; Jun 28 2022 16:32:11 by eja",
  "dcmmeta_affine": [
    [-1.9988398551940918, 0.06805466115474701, 0.0027957772836089134, 101.31775665283203],
    [0.0615982860326767, 1.8411946296691895, -0.7785934805870056, -71.13552856445312],
    [0.02906724251806736, 0.778055727481842, 1.8422226905822754, -63.43790817260742],
    [0.0, 0.0, 0.0, 1.0]
],
  "dcmmeta_reorient_transform": [
    [0.0, -1.0, 0.0, 103.0],
    [1.0, 0.0, 0.0, 0.0],
    [0.0, 0.0, 1.0, 0.0],
    [0.0, 0.0, 0.0, 1.0]
],
  "dcmmeta_shape": [104, 104, 60, 309],
  "dcmmeta_slice_dim": 2,
  "dcmmeta_version": 0.6,
  "global": {
    "const": {
      "AcquisitionMatrix": [104, 0, 0, 104],
      "AngioFlag": "N",
      "BitsAllocated": 16,
      "BitsStored": 16,
      "BodyPartExamined": "BRAIN",
      "Columns": 832,
      "EchoNumbers": 1,
      "EchoTime": 37.0,
      "EchoTrainLength": 104,
      "FlipAngle": 52.0,
      "HighBit": 15,
      "ImageOrientationPatient": [0.99941992506129, -0.030799143342, 0.01453362170567, 0.0340273316325, 0.92059734009449, -0.3890278629005],
      "ImagePositionPatient": [-860.6769912441, -766.2806074648, 289.33363944497],
      "ImageType": [
        "ORIGINAL",
        "PRIMARY",
        "M",
        "MB",
        "ND",
        "MOSAIC"
],
      "ImagedNucleus": "1H",
      "ImagingFrequency": 123.258843,
      "InPlanePhaseEncodingDirection": "COL",
      "MRAcquisitionType": "2D",
      "MagneticFieldStrength": 3.0,
      "Manufacturer": "SIEMENS",
      "ManufacturerModelName": "Prisma_fit",
      "Modality": "MR",
      "NumberOfAverages": 1.0,
      "NumberOfPhaseEncodingSteps": 104,
      "PercentPhaseFieldOfView": 100.0,
      "PercentSampling": 100.0,
      "PerformedProcedureStepStartTime": "180629.274000",
      "PhotometricInterpretation": "MONOCHROME2",
      "PixelBandwidth": 2290.0,
      "PixelRepresentation": 0,
      "PixelSpacing": [2.0, 2.0],
      "ProtocolName": "func_task-mario3_run-02",
      "RepetitionTime": 1490.0,
      "Rows": 832,
      "SAR": 0.05735512673251,
      "SamplesPerPixel": 1,
      "ScanOptions": "FS",
      "ScanningSequence": "EP",
      "SequenceName": "epfid2d1_104",
      "SequenceVariant": [
        "SK",
        "SS"
],
      "SeriesDescription": "func_task-mario3_run-02",
      "SeriesNumber": 13,
      "SeriesTime": "182147.517000",
      "SliceLocation": -30.598914754205,
      "SliceThickness": 2.0,
      "SmallestImagePixelValue": 0,
      "SoftwareVersions": "syngo MR E11",
      "SpacingBetweenSlices": 2.0000000548805,
      "SpecificCharacterSet": "ISO_IR 100",
      "StudyID": "1",
      "StudyTime": "180629.186000",
      "TransmitCoilName": "Body",
      "VariableFlipAngleFlag": "N",
      "WindowCenterWidthExplanation": "Algo1",
      "dBdt": 0.0},
    "slices": {}
  },
  "time": {
    "samples": {
      "AcquisitionNumber": [1, 2, 3, 4, 5, 6, 7, 8, 9, 10, 11, 12, 13, 14, 15, 16, 17, 18, 19, 20, 21, 22, 23, 24, 25, 26, 27, 28, 29, 30, 31, 32, 33, 34, 35, 36, 37, 38, 39, 40, 41, 42, 43, 44, 45, 46, 47, 48, 49, 50, 51, 52, 53, 54, 55, 56, 57, 58, 59, 60, 61, 62, 63, 64, 65, 66, 67, 68, 69, 70, 71, 72, 73, 74, 75, 76, 77, 78, 79, 80, 81, 82, 83, 84, 85, 86, 87, 88, 89, 90, 91, 92, 93, 94, 95, 96, 97, 98, 99, 100, 101, 102, 103, 104, 105, 106, 107, 108, 109, 110, 111, 112, 113, 114, 115, 116, 117, 118, 119, 120, 121, 122, 123, 124, 125, 126, 127, 128, 129, 130, 131, 132, 133, 134, 135, 136, 137, 138, 139, 140, 141, 142, 143, 144, 145, 146, 147, 148, 149, 150, 151, 152, 153, 154, 155, 156, 157, 158, 159, 160, 161, 162, 163, 164, 165, 166, 167, 168, 169, 170, 171, 172, 173, 174, 175, 176, 177, 178, 179, 180, 181, 182, 183, 184, 185, 186, 187, 188, 189, 190, 191, 192, 193, 194, 195, 196, 197, 198, 199, 200, 201, 202, 203, 204, 205, 206, 207, 208, 209, 210, 211, 212, 213, 214, 215, 216, 217, 218, 219, 220, 221, 222, 223, 224, 225, 226, 227, 228, 229, 230, 231, 232, 233, 234, 235, 236, 237, 238, 239, 240, 241, 242, 243, 244, 245, 246, 247, 248, 249, 250, 251, 252, 253, 254, 255, 256, 257, 258, 259, 260, 261, 262, 263, 264, 265, 266, 267, 268, 269, 270, 271, 272, 273, 274, 275, 276, 277, 278, 279, 280, 281, 282, 283, 284, 285, 286, 287, 288, 289, 290, 291, 292, 293, 294, 295, 296, 297, 298, 299, 300, 301, 302, 303, 304, 305, 306, 307, 308, 309],
      "AcquisitionTime": ["182043.605000", "182045.095000", "182046.585000", "182048.075000", "182049.565000", "182051.055000", "182052.545000", "182054.035000", "182055.525000", "182057.015000", "182058.505000", "182059.995000", "182101.485000", "182102.975000", "182104.465000", "182105.955000", "182107.445000", "182108.935000", "182110.425000", "182111.915000", "182113.405000", "182114.895000", "182116.385000", "182117.875000", "182119.365000", "182120.855000", "182122.345000", "182123.835000", "182125.325000", "182126.815000", "182128.305000", "182129.795000", "182131.285000", "182132.775000", "182134.265000", "182135.755000", "182137.245000", "182138.735000", "182140.225000", "182141.715000", "182143.205000", "182144.695000", "182146.185000", "182147.675000", "182149.165000", "182150.655000", "182152.145000", "182153.635000", "182155.125000", "182156.615000", "182158.105000", "182159.595000", "182201.085000", "182202.575000", "182204.065000", "182205.555000", "182207.045000", "182208.535000", "182210.025000", "182211.515000", "182213.005000", "182214.495000", "182215.985000", "182217.475000", "182218.965000", "182220.455000", "182221.945000", "182223.435000", "182224.925000", "182226.415000", "182227.905000", "182229.395000", "182230.885000", "182232.375000", "182233.865000", "182235.355000", "182236.845000", "182238.335000", "182239.825000", "182241.315000", "182242.805000", "182244.295000", "182245.785000", "182247.275000", "182248.765000", "182250.255000", "182251.745000", "182253.235000", "182254.725000", "182256.215000", "182257.705000", "182259.195000", "182300.685000", "182302.175000", "182303.665000", "182305.155000", "182306.645000", "182308.135000", "182309.625000", "182311.115000", "182312.605000", "182314.095000", "182315.585000", "182317.075000", "182318.565000", "182320.055000", "182321.545000", "182323.035000", "182324.525000", "182326.015000", "182327.505000", "182328.995000", "182330.485000", "182331.975000", "182333.465000", "182334.955000", "182336.445000", "182337.935000", "182339.425000", "182340.915000", "182342.405000", "182343.895000", "182345.385000", "182346.875000", "182348.365000", "182349.855000", "182351.345000", "182352.835000", "182354.325000", "182355.815000", "182357.305000", "182358.795000", "182400.285000", "182401.775000", "182403.265000", "182404.755000", "182406.245000", "182407.735000", "182409.225000", "182410.715000", "182412.205000", "182413.695000", "182415.185000", "182416.675000", "182418.165000", "182419.655000", "182421.145000", "182422.635000", "182424.125000", "182425.615000", "182427.105000", "182428.595000", "182430.085000", "182431.575000", "182433.065000", "182434.555000", "182436.045000", "182437.535000", "182439.025000", "182440.515000", "182442.005000", "182443.495000", "182444.985000", "182446.475000", "182447.965000", "182449.455000", "182450.945000", "182452.435000", "182453.925000", "182455.415000", "182456.905000", "182458.395000", "182459.885000", "182501.375000", "182502.865000", "182504.355000", "182505.845000", "182507.335000", "182508.825000", "182510.315000", "182511.805000", "182513.295000", "182514.785000", "182516.275000", "182517.765000", "182519.255000", "182520.745000", "182522.235000", "182523.725000", "182525.215000", "182526.705000", "182528.195000", "182529.685000", "182531.175000", "182532.665000", "182534.155000", "182535.645000", "182537.135000", "182538.625000", "182540.115000", "182541.605000", "182543.095000", "182544.585000", "182546.075000", "182547.565000", "182549.055000", "182550.545000", "182552.035000", "182553.525000", "182555.015000", "182556.505000", "182557.995000", "182559.485000", "182600.975000", "182602.465000", "182603.955000", "182605.445000", "182606.935000", "182608.425000", "182609.915000", "182611.405000", "182612.895000", "182614.385000", "182615.875000", "182617.365000", "182618.855000", "182620.345000", "182621.835000", "182623.325000", "182624.815000", "182626.305000", "182627.795000", "182629.285000", "182630.775000", "182632.265000", "182633.755000", "182635.245000", "182636.735000", "182638.225000", "182639.715000", "182641.205000", "182642.695000", "182644.185000", "182645.675000", "182647.165000", "182648.655000", "182650.145000", "182651.635000", "182653.125000", "182654.615000", "182656.105000", "182657.595000", "182659.085000", "182700.575000", "182702.065000", "182703.555000", "182705.045000", "182706.535000", "182708.025000", "182709.515000", "182711.005000", "182712.495000", "182713.985000", "182715.475000", "182716.965000", "182718.455000", "182719.945000", "182721.435000", "182722.925000", "182724.415000", "182725.905000", "182727.395000", "182728.885000", "182730.375000", "182731.865000", "182733.355000", "182734.845000", "182736.335000", "182737.825000", "182739.315000", "182740.805000", "182742.295000", "182743.785000", "182745.275000", "182746.765000", "182748.255000", "182749.745000", "182751.235000", "182752.725000", "182754.215000", "182755.705000", "182757.195000", "182758.685000", "182800.175000", "182801.665000", "182803.155000", "182804.645000", "182806.135000", "182807.625000", "182809.115000", "182810.605000", "182812.095000", "182813.585000", "182815.075000", "182816.565000", "182818.055000", "182819.545000", "182821.035000", "182822.525000"],
      "ContentTime": ["182147.521000", "182147.525000", "182147.528000", "182147.536000", "182147.539000", "182147.543000", "182147.546000", "182147.549000", "182147.552000", "182147.556000", "182147.559000", "182147.562000", "182147.565000", "182147.568000", "182147.572000", "182207.486000", "182207.490000", "182207.493000", "182207.497000", "182207.500000", "182207.503000", "182207.506000", "182207.510000", "182207.513000", "182207.516000", "182207.519000", "182207.523000", "182207.535000", "182207.538000", "182207.541000", "182207.545000", "182207.549000", "182207.552000", "182207.556000", "182207.559000", "182227.486000", "182227.490000", "182227.493000", "182227.496000", "182227.500000", "182227.503000", "182227.506000", "182227.509000", "182227.513000", "182227.516000", "182227.519000", "182227.522000", "182227.526000", "182227.529000", "182227.533000", "182227.536000", "182227.539000", "182227.542000", "182227.545000", "182227.549000", "182247.486000", "182247.490000", "182247.493000", "182247.496000", "182247.499000", "182247.503000", "182247.506000", "182247.509000", "182247.512000", "182247.516000", "182247.519000", "182247.522000", "182247.525000", "182247.529000", "182247.532000", "182247.535000", "182247.538000", "182247.542000", "182247.545000", "182247.548000", "182247.551000", "182307.486000", "182307.490000", "182307.493000", "182307.496000", "182307.499000", "182307.503000", "182307.506000", "182307.509000", "182307.512000", "182307.516000", "182307.519000", "182307.522000", "182307.525000", "182307.529000", "182307.532000", "182307.555000", "182307.558000", "182307.561000", "182307.564000", "182307.567000", "182347.486000", "182347.490000", "182347.493000", "182347.497000", "182347.500000", "182347.504000", "182347.508000", "182347.512000", "182347.515000", "182347.518000", "182347.522000", "182347.526000", "182347.529000", "182347.532000", "182347.536000", "182347.539000", "182347.542000", "182347.545000", "182347.549000", "182347.552000", "182347.555000", "182347.558000", "182347.562000", "182347.565000", "182347.569000", "182347.572000", "182427.486000", "182427.490000", "182427.493000", "182427.496000", "182427.500000", "182427.503000", "182427.506000", "182427.509000", "182427.513000", "182427.516000", "182427.519000", "182427.523000", "182427.526000", "182427.529000", "182427.533000", "182427.536000", "182427.539000", "182427.543000", "182427.546000", "182427.549000", "182427.552000", "182427.556000", "182427.559000", "182427.562000", "182427.565000", "182427.569000", "182427.572000", "182507.486000", "182507.490000", "182507.493000", "182507.496000", "182507.500000", "182507.503000", "182507.506000", "182507.509000", "182507.513000", "182507.516000", "182507.519000", "182507.522000", "182507.526000", "182507.529000", "182507.532000", "182507.536000", "182507.539000", "182507.542000", "182507.545000", "182507.549000", "182507.552000", "182507.555000", "182507.558000", "182507.562000", "182507.565000", "182507.568000", "182507.572000", "182547.486000", "182547.490000", "182547.493000", "182547.496000", "182547.500000", "182547.503000", "182547.506000", "182547.509000", "182547.513000", "182547.516000", "182547.519000", "182547.523000", "182547.526000", "182547.544000", "182547.548000", "182547.551000", "182547.554000", "182547.557000", "182547.561000", "182547.564000", "182547.567000", "182547.571000", "182547.574000", "182547.577000", "182547.581000", "182547.584000", "182547.587000", "182627.486000", "182627.490000", "182627.493000", "182627.496000", "182627.500000", "182627.503000", "182627.506000", "182627.510000", "182627.513000", "182627.516000", "182627.520000", "182627.523000", "182627.526000", "182627.530000", "182627.533000", "182627.536000", "182627.540000", "182627.543000", "182627.546000", "182627.550000", "182627.553000", "182627.556000", "182627.559000", "182627.563000", "182627.566000", "182627.569000", "182627.573000", "182707.486000", "182707.490000", "182707.493000", "182707.496000", "182707.500000", "182707.503000", "182707.506000", "182707.509000", "182707.513000", "182707.516000", "182707.519000", "182707.526000", "182707.529000", "182707.532000", "182707.536000", "182707.539000", "182707.542000", "182707.546000", "182707.549000", "182707.552000", "182707.556000", "182707.559000", "182707.562000", "182707.565000", "182707.569000", "182707.572000", "182707.575000", "182747.486000", "182747.490000", "182747.493000", "182747.496000", "182747.500000", "182747.503000", "182747.506000", "182747.510000", "182747.513000", "182747.516000", "182747.519000", "182747.523000", "182747.526000", "182747.529000", "182747.533000", "182747.536000", "182747.539000", "182747.542000", "182747.546000", "182747.549000", "182747.552000", "182747.556000", "182747.559000", "182747.562000", "182747.565000", "182747.582000", "182747.586000", "182825.954000", "182825.958000", "182825.961000", "182825.964000", "182825.968000", "182825.971000", "182825.974000", "182825.978000", "182825.981000", "182825.984000", "182825.987000", "182825.991000", "182825.994000", "182825.997000", "182826.001000", "182826.004000", "182826.007000", "182826.010000", "182826.014000", "182826.017000", "182826.020000", "182826.023000", "182826.027000", "182826.030000", "182826.033000"],
      "InstanceCreationTime": ["182147.521000", "182147.525000", "182147.528000", "182147.536000", "182147.539000", "182147.543000", "182147.546000", "182147.549000", "182147.552000", "182147.556000", "182147.559000", "182147.562000", "182147.565000", "182147.568000", "182147.572000", "182207.486000", "182207.490000", "182207.493000", "182207.497000", "182207.500000", "182207.503000", "182207.506000", "182207.510000", "182207.513000", "182207.516000", "182207.519000", "182207.523000", "182207.535000", "182207.538000", "182207.541000", "182207.545000", "182207.549000", "182207.552000", "182207.556000", "182207.559000", "182227.486000", "182227.490000", "182227.493000", "182227.496000", "182227.500000", "182227.503000", "182227.506000", "182227.509000", "182227.513000", "182227.516000", "182227.519000", "182227.522000", "182227.526000", "182227.529000", "182227.533000", "182227.536000", "182227.539000", "182227.542000", "182227.545000", "182227.549000", "182247.486000", "182247.490000", "182247.493000", "182247.496000", "182247.499000", "182247.503000", "182247.506000", "182247.509000", "182247.512000", "182247.516000", "182247.519000", "182247.522000", "182247.525000", "182247.529000", "182247.532000", "182247.535000", "182247.538000", "182247.542000", "182247.545000", "182247.548000", "182247.551000", "182307.486000", "182307.490000", "182307.493000", "182307.496000", "182307.499000", "182307.503000", "182307.506000", "182307.509000", "182307.512000", "182307.516000", "182307.519000", "182307.522000", "182307.525000", "182307.529000", "182307.532000", "182307.555000", "182307.558000", "182307.561000", "182307.564000", "182307.567000", "182347.486000", "182347.490000", "182347.493000", "182347.497000", "182347.500000", "182347.504000", "182347.508000", "182347.512000", "182347.515000", "182347.518000", "182347.522000", "182347.526000", "182347.529000", "182347.532000", "182347.536000", "182347.539000", "182347.542000", "182347.545000", "182347.549000", "182347.552000", "182347.555000", "182347.558000", "182347.562000", "182347.565000", "182347.569000", "182347.572000", "182427.486000", "182427.490000", "182427.493000", "182427.496000", "182427.500000", "182427.503000", "182427.506000", "182427.509000", "182427.513000", "182427.516000", "182427.519000", "182427.523000", "182427.526000", "182427.529000", "182427.533000", "182427.536000", "182427.539000", "182427.543000", "182427.546000", "182427.549000", "182427.552000", "182427.556000", "182427.559000", "182427.562000", "182427.565000", "182427.569000", "182427.572000", "182507.486000", "182507.490000", "182507.493000", "182507.496000", "182507.500000", "182507.503000", "182507.506000", "182507.509000", "182507.513000", "182507.516000", "182507.519000", "182507.522000", "182507.526000", "182507.529000", "182507.532000", "182507.536000", "182507.539000", "182507.542000", "182507.545000", "182507.549000", "182507.552000", "182507.555000", "182507.558000", "182507.562000", "182507.565000", "182507.568000", "182507.572000", "182547.486000", "182547.490000", "182547.493000", "182547.496000", "182547.500000", "182547.503000", "182547.506000", "182547.509000", "182547.513000", "182547.516000", "182547.519000", "182547.523000", "182547.526000", "182547.544000", "182547.548000", "182547.551000", "182547.554000", "182547.557000", "182547.561000", "182547.564000", "182547.567000", "182547.571000", "182547.574000", "182547.577000", "182547.581000", "182547.584000", "182547.587000", "182627.486000", "182627.490000", "182627.493000", "182627.496000", "182627.500000", "182627.503000", "182627.506000", "182627.510000", "182627.513000", "182627.516000", "182627.520000", "182627.523000", "182627.526000", "182627.530000", "182627.533000", "182627.536000", "182627.540000", "182627.543000", "182627.546000", "182627.550000", "182627.553000", "182627.556000", "182627.559000", "182627.563000", "182627.566000", "182627.569000", "182627.573000", "182707.486000", "182707.490000", "182707.493000", "182707.496000", "182707.500000", "182707.503000", "182707.506000", "182707.509000", "182707.513000", "182707.516000", "182707.519000", "182707.526000", "182707.529000", "182707.532000", "182707.536000", "182707.539000", "182707.542000", "182707.546000", "182707.549000", "182707.552000", "182707.556000", "182707.559000", "182707.562000", "182707.565000", "182707.569000", "182707.572000", "182707.575000", "182747.486000", "182747.490000", "182747.493000", "182747.496000", "182747.500000", "182747.503000", "182747.506000", "182747.510000", "182747.513000", "182747.516000", "182747.519000", "182747.523000", "182747.526000", "182747.529000", "182747.533000", "182747.536000", "182747.539000", "182747.542000", "182747.546000", "182747.549000", "182747.552000", "182747.556000", "182747.559000", "182747.562000", "182747.565000", "182747.582000", "182747.586000", "182825.954000", "182825.958000", "182825.961000", "182825.964000", "182825.968000", "182825.971000", "182825.974000", "182825.978000", "182825.981000", "182825.984000", "182825.987000", "182825.991000", "182825.994000", "182825.997000", "182826.001000", "182826.004000", "182826.007000", "182826.010000", "182826.014000", "182826.017000", "182826.020000", "182826.023000", "182826.027000", "182826.030000", "182826.033000"],
      "InstanceNumber": [1, 2, 3, 4, 5, 6, 7, 8, 9, 10, 11, 12, 13, 14, 15, 16, 17, 18, 19, 20, 21, 22, 23, 24, 25, 26, 27, 28, 29, 30, 31, 32, 33, 34, 35, 36, 37, 38, 39, 40, 41, 42, 43, 44, 45, 46, 47, 48, 49, 50, 51, 52, 53, 54, 55, 56, 57, 58, 59, 60, 61, 62, 63, 64, 65, 66, 67, 68, 69, 70, 71, 72, 73, 74, 75, 76, 77, 78, 79, 80, 81, 82, 83, 84, 85, 86, 87, 88, 89, 90, 91, 92, 93, 94, 95, 96, 97, 98, 99, 100, 101, 102, 103, 104, 105, 106, 107, 108, 109, 110, 111, 112, 113, 114, 115, 116, 117, 118, 119, 120, 121, 122, 123, 124, 125, 126, 127, 128, 129, 130, 131, 132, 133, 134, 135, 136, 137, 138, 139, 140, 141, 142, 143, 144, 145, 146, 147, 148, 149, 150, 151, 152, 153, 154, 155, 156, 157, 158, 159, 160, 161, 162, 163, 164, 165, 166, 167, 168, 169, 170, 171, 172, 173, 174, 175, 176, 177, 178, 179, 180, 181, 182, 183, 184, 185, 186, 187, 188, 189, 190, 191, 192, 193, 194, 195, 196, 197, 198, 199, 200, 201, 202, 203, 204, 205, 206, 207, 208, 209, 210, 211, 212, 213, 214, 215, 216, 217, 218, 219, 220, 221, 222, 223, 224, 225, 226, 227, 228, 229, 230, 231, 232, 233, 234, 235, 236, 237, 238, 239, 240, 241, 242, 243, 244, 245, 246, 247, 248, 249, 250, 251, 252, 253, 254, 255, 256, 257, 258, 259, 260, 261, 262, 263, 264, 265, 266, 267, 268, 269, 270, 271, 272, 273, 274, 275, 276, 277, 278, 279, 280, 281, 282, 283, 284, 285, 286, 287, 288, 289, 290, 291, 292, 293, 294, 295, 296, 297, 298, 299, 300, 301, 302, 303, 304, 305, 306, 307, 308, 309],
      "LargestImagePixelValue": [57749, 58475, 56541, 56725, 56102, 57003, 57150, 57616, 57974, 57705, 57808, 57442, 57808, 58414, 58229, 58715, 58652, 58778, 58238, 58658, 58920, 58130, 58549, 57990, 58405, 58542, 58081, 57585, 58173, 57678, 57999, 57562, 57527, 58339, 58151, 58315, 58319, 58989, 58747, 58923, 58756, 58465, 58827, 58714, 59144, 59279, 59453, 59358, 58862, 59492, 58772, 59579, 59325, 59681, 59413, 59120, 59090, 58425, 59262, 58661, 59525, 59180, 58820, 58603, 58375, 57900, 58320, 58378, 59034, 59535, 58572, 59113, 56002, 59382, 58774, 58822, 58578, 60036, 59591, 59415, 59277, 59393, 59813, 59280, 59202, 59185, 59831, 58848, 58916, 59304, 58952, 59979, 59884, 60696, 58489, 58921, 59301, 58946, 58545, 58632, 59067, 58152, 58580, 58370, 58283, 58604, 58868, 58708, 58780, 58569, 58720, 59011, 59046, 59000, 59009, 58675, 59501, 58563, 58836, 58876, 58800, 59229, 58661, 58830, 58381, 58505, 58689, 58108, 58222, 58132, 58173, 58954, 58583, 58541, 58480, 57669, 57767, 56977, 56846, 56350, 56424, 56466, 56122, 56177, 55798, 55632, 55918, 55575, 56611, 56737, 54878, 54921, 55224, 54520, 55577, 54940, 56154, 56007, 55492, 55847, 55625, 55577, 56094, 55837, 56579, 56181, 55443, 55577, 55552, 55898, 55162, 55538, 56366, 55911, 55468, 55662, 55341, 54966, 55805, 55927, 56609, 55483, 56237, 55138, 56104, 55946, 56064, 56340, 57947, 58852, 56373, 57145, 57305, 56869, 56843, 57158, 56665, 56512, 56586, 56499, 56289, 56193, 56627, 56225, 56652, 56060, 55938, 58391, 57207, 56438, 55899, 56413, 57291, 57166, 57001, 56402, 56369, 56101, 56061, 56005, 56296, 56788, 55896, 55674, 56043, 56019, 56836, 56962, 58024, 57270, 58031, 57182, 57365, 58028, 56887, 57272, 57788, 57234, 57295, 57778, 57801, 57751, 57810, 57240, 57724, 57057, 57330, 58815, 57250, 57905, 57725, 57452, 58317, 57837, 57695, 58157, 59130, 57964, 58232, 58377, 59468, 58973, 59364, 58682, 58867, 58719, 58612, 58824, 59241, 58996, 58663, 58746, 58741, 58791, 58564, 58869, 58761, 58934, 58842, 58883, 58903, 58919, 58668, 59362, 57741, 59204, 59130, 59036, 58817, 59240, 58972, 59505, 59522, 58883, 58718, 58795, 59361, 59082, 59032, 59026, 59170, 58459, 59092, 59026, 58777, 58588, 59141, 59002, 59194],
      "WindowCenter": [10519.0, 10654.0, 10640.0, 10626.0, 10615.0, 10608.0, 10605.0, 10602.0, 10608.0, 10609.0, 10617.0, 10604.0, 10599.0, 10601.0, 10602.0, 10616.0, 10611.0, 10619.0, 10615.0, 10619.0, 10619.0, 10612.0, 10614.0, 10615.0, 10613.0, 10621.0, 10622.0, 10624.0, 10632.0, 10625.0, 10626.0, 10623.0, 10622.0, 10628.0, 10631.0, 10632.0, 10622.0, 10628.0, 10664.0, 10590.0, 10636.0, 10611.0, 10631.0, 10585.0, 10605.0, 10616.0, 10609.0, 10617.0, 10615.0, 10614.0, 10606.0, 10596.0, 10597.0, 10614.0, 10620.0, 10627.0, 10631.0, 10633.0, 10623.0, 10652.0, 10677.0, 10673.0, 10650.0, 10625.0, 10611.0, 10580.0, 10557.0, 10545.0, 10539.0, 10542.0, 10547.0, 10553.0, 10545.0, 10586.0, 10598.0, 10608.0, 10586.0, 10628.0, 10580.0, 10617.0, 10632.0, 10640.0, 10642.0, 10642.0, 10646.0, 10645.0, 10649.0, 10631.0, 10622.0, 10628.0, 10638.0, 10658.0, 10665.0, 10608.0, 10639.0, 10648.0, 10639.0, 10631.0, 10621.0, 10630.0, 10624.0, 10637.0, 10634.0, 10628.0, 10613.0, 10602.0, 10591.0, 10590.0, 10602.0, 10604.0, 10606.0, 10603.0, 10608.0, 10604.0, 10609.0, 10612.0, 10623.0, 10633.0, 10642.0, 10649.0, 10646.0, 10645.0, 10637.0, 10635.0, 10628.0, 10641.0, 10643.0, 10646.0, 10640.0, 10624.0, 10600.0, 10588.0, 10579.0, 10580.0, 10585.0, 10580.0, 10572.0, 10560.0, 10558.0, 10560.0, 10571.0, 10584.0, 10588.0, 10600.0, 10605.0, 10600.0, 10604.0, 10597.0, 10601.0, 10646.0, 10583.0, 10628.0, 10633.0, 10602.0, 10594.0, 10565.0, 10556.0, 10544.0, 10548.0, 10572.0, 10582.0, 10583.0, 10581.0, 10567.0, 10560.0, 10568.0, 10573.0, 10583.0, 10589.0, 10563.0, 10585.0, 10590.0, 10598.0, 10593.0, 10592.0, 10590.0, 10584.0, 10570.0, 10567.0, 10569.0, 10577.0, 10574.0, 10596.0, 10599.0, 10606.0, 10623.0, 10631.0, 10617.0, 10644.0, 10660.0, 10580.0, 10633.0, 10609.0, 10588.0, 10571.0, 10566.0, 10561.0, 10559.0, 10558.0, 10560.0, 10568.0, 10577.0, 10590.0, 10604.0, 10611.0, 10605.0, 10598.0, 10647.0, 10591.0, 10611.0, 10602.0, 10636.0, 10644.0, 10632.0, 10616.0, 10593.0, 10576.0, 10560.0, 10556.0, 10547.0, 10547.0, 10553.0, 10563.0, 10566.0, 10579.0, 10584.0, 10606.0, 10629.0, 10641.0, 10594.0, 10647.0, 10619.0, 10615.0, 10624.0, 10633.0, 10629.0, 10618.0, 10594.0, 10580.0, 10584.0, 10576.0, 10577.0, 10574.0, 10572.0, 10593.0, 10577.0, 10589.0, 10617.0, 10574.0, 10602.0, 10615.0, 10632.0, 10638.0, 10628.0, 10619.0, 10616.0, 10611.0, 10598.0, 10612.0, 10623.0, 10612.0, 10614.0, 10631.0, 10612.0, 10619.0, 10609.0, 10617.0, 10619.0, 10635.0, 10609.0, 10628.0, 10618.0, 10610.0, 10594.0, 10593.0, 10603.0, 10609.0, 10615.0, 10623.0, 10622.0, 10618.0, 10624.0, 10628.0, 10629.0, 10609.0, 10630.0, 10639.0, 10652.0, 10645.0, 10617.0, 10594.0, 10580.0, 10575.0, 10537.0, 10535.0, 10540.0, 10549.0, 10554.0, 10572.0, 10588.0, 10596.0, 10587.0, 10598.0, 10608.0, 10610.0, 10613.0, 10615.0, 10604.0, 10606.0],
