{
  "AcquisitionMatrixPE": 104,
  "AcquisitionNumber": 1,
  "AcquisitionTime": "18:41:3.502500",
  "BandwidthPerPixelPhaseEncode": 17.17,
  "BaseResolution": 104,
  "BodyPartExamined": "BRAIN",
  "CoilCombinationMethod": "Sum of Squares",
  "ConsistencyInfo": "N4_VE11C_LATEST_20160120",
  "ConversionSoftware": "dcm2niix",
  "ConversionSoftwareVersion": "v1.0.20220505",
  "DerivedVendorReportedEchoSpacing": 0.000560011,
  "DeviceSerialNumber": "167006",
  "DwellTime": 2.1e-06,
  "EchoTime": 0.037,
  "EchoTrainLength": 104,
  "EffectiveEchoSpacing": 0.000560011,
  "FlipAngle": 52,
  "HeudiconvVersion": "0.5.3.post811+g6206e14",
  "ImageComments": "Unaliased MB4/PE3/LB",
  "ImageOrientationPatientDICOM": [0.99942, -0.0307991, 0.0145336, 0.0340273, 0.920597, -0.389028],
  "ImageOrientationText": "Tra>Cor(-22.9)>Sag(0.1)",
  "ImageType": [
    "ORIGINAL",
    "PRIMARY",
    "M",
    "MB",
    "ND",
    "MOSAIC"
],
  "ImagingFrequency": 123.259,
  "InPlanePhaseEncodingDirectionDICOM": "COL",
  "InstitutionAddress": "Chemin Queen-Mary 4565,Montreal,District,CA,H3W 1W5",
  "InstitutionName": "IUGM",
  "InstitutionalDepartmentName": "Department",
  "MRAcquisitionType": "2D",
  "MagneticFieldStrength": 3,
  "Manufacturer": "Siemens",
  "ManufacturersModelName": "Prisma_fit",
  "MatrixCoilMode": "SENSE",
  "Modality": "MR",
  "MultibandAccelerationFactor": 4,
  "PartialFourier": 1,
  "PatientPosition": "HFS",
  "PercentPhaseFOV": 100,
  "PercentSampling": 100,
  "PhaseEncodingDirection": "j",
  "PhaseEncodingSteps": 104,
  "PhaseResolution": 1,
  "PixelBandwidth": 2290,
  "ProcedureStepDescription": "games^mario3",
  "ProtocolName": "func_task-mario3_run-04",
  "PulseSequenceDetails": "%CustomerSeq%\\cmrr_mbep2d_bold",
  "ReceiveCoilActiveElements": "HC1-7;NC1,2",
  "ReceiveCoilName": "HeadNeck_64",
  "ReconMatrixPE": 104,
  "RepetitionTime": 1.49,
  "SAR": 0.0573551,
  "ScanOptions": "FS",
  "ScanningSequence": "EP",
  "SequenceName": "epfid2d1_104",
  "SequenceVariant": "SK\\SS",
  "SeriesDescription": "func_task-mario3_run-04",
  "SeriesNumber": 19,
  "ShimSetting": [585, -7292, -8813, 375, 24, -372, -69, 94],
  "SliceThickness": 2,
  "SliceTiming": [0, 0.7825, 0.0975, 0.88, 0.195, 0.98, 0.2925, 1.0775, 0.3925, 1.175, 0.49, 1.2725, 0.5875, 1.37, 0.685, 0, 0.7825, 0.0975, 0.88, 0.195, 0.98, 0.2925, 1.0775, 0.3925, 1.175, 0.49, 1.2725, 0.5875, 1.37, 0.685, 0, 0.7825, 0.0975, 0.88, 0.195, 0.98, 0.2925, 1.0775, 0.3925, 1.175, 0.49, 1.2725, 0.5875, 1.37, 0.685, 0, 0.7825, 0.0975, 0.88, 0.195, 0.98, 0.2925, 1.0775, 0.3925, 1.175, 0.49, 1.2725, 0.5875, 1.37, 0.685],
  "SoftwareVersions": "syngo MR E11",
  "SpacingBetweenSlices": 2,
  "StationName": "MRC35049",
  "TaskName": "mario3",
  "TotalReadoutTime": 0.0576811,
  "TxRefAmp": 266.736,
  "WipMemBlock": "4063a6f6-0350-4cc9-902d-88a6ae128222||Sequence: R017 ve11c/master r/75a17815+; Jun 28 2022 16:32:11 by eja",
  "dcmmeta_affine": [
    [-1.9988398551940918, 0.06805466115474701, 0.0027957772836089134, 101.31775665283203],
    [0.0615982860326767, 1.8411946296691895, -0.7785934805870056, -71.13552856445312],
    [0.02906724251806736, 0.778055727481842, 1.8422226905822754, -63.43790817260742],
    [0.0, 0.0, 0.0, 1.0]
],
  "dcmmeta_reorient_transform": [
    [0.0, -1.0, 0.0, 103.0],
    [1.0, 0.0, 0.0, 0.0],
    [0.0, 0.0, 1.0, 0.0],
    [0.0, 0.0, 0.0, 1.0]
],
  "dcmmeta_shape": [104, 104, 60, 356],
  "dcmmeta_slice_dim": 2,
  "dcmmeta_version": 0.6,
  "global": {
    "const": {
      "AcquisitionMatrix": [104, 0, 0, 104],
      "AngioFlag": "N",
      "BitsAllocated": 16,
      "BitsStored": 16,
      "BodyPartExamined": "BRAIN",
      "Columns": 832,
      "EchoNumbers": 1,
      "EchoTime": 37.0,
      "EchoTrainLength": 104,
      "FlipAngle": 52.0,
      "HighBit": 15,
      "ImageOrientationPatient": [0.99941992506129, -0.030799143342, 0.01453362170567, 0.0340273316325, 0.92059734009449, -0.3890278629005],
      "ImagePositionPatient": [-860.6769912441, -766.2806074648, 289.33363944497],
      "ImageType": [
        "ORIGINAL",
        "PRIMARY",
        "M",
        "MB",
        "ND",
        "MOSAIC"
],
      "ImagedNucleus": "1H",
      "ImagingFrequency": 123.258846,
      "InPlanePhaseEncodingDirection": "COL",
      "MRAcquisitionType": "2D",
      "MagneticFieldStrength": 3.0,
      "Manufacturer": "SIEMENS",
      "ManufacturerModelName": "Prisma_fit",
      "Modality": "MR",
      "NumberOfAverages": 1.0,
      "NumberOfPhaseEncodingSteps": 104,
      "PercentPhaseFieldOfView": 100.0,
      "PercentSampling": 100.0,
      "PerformedProcedureStepStartTime": "180629.274000",
      "PhotometricInterpretation": "MONOCHROME2",
      "PixelBandwidth": 2290.0,
      "PixelRepresentation": 0,
      "PixelSpacing": [2.0, 2.0],
      "ProtocolName": "func_task-mario3_run-04",
      "RepetitionTime": 1490.0,
      "Rows": 832,
      "SAR": 0.05735512673251,
      "SamplesPerPixel": 1,
      "ScanOptions": "FS",
      "ScanningSequence": "EP",
      "SequenceName": "epfid2d1_104",
      "SequenceVariant": [
        "SK",
        "SS"
],
      "SeriesDescription": "func_task-mario3_run-04",
      "SeriesNumber": 19,
      "SeriesTime": "184156.543000",
      "SliceLocation": -30.598914754205,
      "SliceThickness": 2.0,
      "SmallestImagePixelValue": 0,
      "SoftwareVersions": "syngo MR E11",
      "SpacingBetweenSlices": 2.0000000548805,
      "SpecificCharacterSet": "ISO_IR 100",
      "StudyID": "1",
      "StudyTime": "180629.186000",
      "TransmitCoilName": "Body",
      "VariableFlipAngleFlag": "N",
      "WindowCenterWidthExplanation": "Algo1",
      "dBdt": 0.0},
    "slices": {}
  },
  "time": {
    "samples": {
      "AcquisitionNumber": [1, 2, 3, 4, 5, 6, 7, 8, 9, 10, 11, 12, 13, 14, 15, 16, 17, 18, 19, 20, 21, 22, 23, 24, 25, 26, 27, 28, 29, 30, 31, 32, 33, 34, 35, 36, 37, 38, 39, 40, 41, 42, 43, 44, 45, 46, 47, 48, 49, 50, 51, 52, 53, 54, 55, 56, 57, 58, 59, 60, 61, 62, 63, 64, 65, 66, 67, 68, 69, 70, 71, 72, 73, 74, 75, 76, 77, 78, 79, 80, 81, 82, 83, 84, 85, 86, 87, 88, 89, 90, 91, 92, 93, 94, 95, 96, 97, 98, 99, 100, 101, 102, 103, 104, 105, 106, 107, 108, 109, 110, 111, 112, 113, 114, 115, 116, 117, 118, 119, 120, 121, 122, 123, 124, 125, 126, 127, 128, 129, 130, 131, 132, 133, 134, 135, 136, 137, 138, 139, 140, 141, 142, 143, 144, 145, 146, 147, 148, 149, 150, 151, 152, 153, 154, 155, 156, 157, 158, 159, 160, 161, 162, 163, 164, 165, 166, 167, 168, 169, 170, 171, 172, 173, 174, 175, 176, 177, 178, 179, 180, 181, 182, 183, 184, 185, 186, 187, 188, 189, 190, 191, 192, 193, 194, 195, 196, 197, 198, 199, 200, 201, 202, 203, 204, 205, 206, 207, 208, 209, 210, 211, 212, 213, 214, 215, 216, 217, 218, 219, 220, 221, 222, 223, 224, 225, 226, 227, 228, 229, 230, 231, 232, 233, 234, 235, 236, 237, 238, 239, 240, 241, 242, 243, 244, 245, 246, 247, 248, 249, 250, 251, 252, 253, 254, 255, 256, 257, 258, 259, 260, 261, 262, 263, 264, 265, 266, 267, 268, 269, 270, 271, 272, 273, 274, 275, 276, 277, 278, 279, 280, 281, 282, 283, 284, 285, 286, 287, 288, 289, 290, 291, 292, 293, 294, 295, 296, 297, 298, 299, 300, 301, 302, 303, 304, 305, 306, 307, 308, 309, 310, 311, 312, 313, 314, 315, 316, 317, 318, 319, 320, 321, 322, 323, 324, 325, 326, 327, 328, 329, 330, 331, 332, 333, 334, 335, 336, 337, 338, 339, 340, 341, 342, 343, 344, 345, 346, 347, 348, 349, 350, 351, 352, 353, 354, 355, 356],
      "AcquisitionTime": ["184103.502500", "184104.992500", "184106.482500", "184107.972500", "184109.462500", "184110.952500", "184112.442500", "184113.932500", "184115.422500", "184116.912500", "184118.402500", "184119.892500", "184121.382500", "184122.872500", "184124.362500", "184125.852500", "184127.342500", "184128.832500", "184130.322500", "184131.812500", "184133.302500", "184134.792500", "184136.282500", "184137.772500", "184139.262500", "184140.752500", "184142.242500", "184143.732500", "184145.222500", "184146.712500", "184148.202500", "184149.692500", "184151.182500", "184152.672500", "184154.162500", "184155.652500", "184157.142500", "184158.632500", "184200.122500", "184201.612500", "184203.102500", "184204.592500", "184206.082500", "184207.572500", "184209.062500", "184210.552500", "184212.042500", "184213.532500", "184215.022500", "184216.512500", "184218.002500", "184219.492500", "184220.982500", "184222.472500", "184223.962500", "184225.452500", "184226.942500", "184228.432500", "184229.922500", "184231.412500", "184232.902500", "184234.392500", "184235.882500", "184237.372500", "184238.862500", "184240.352500", "184241.842500", "184243.332500", "184244.822500", "184246.312500", "184247.802500", "184249.292500", "184250.782500", "184252.272500", "184253.762500", "184255.252500", "184256.742500", "184258.232500", "184259.722500", "184301.212500", "184302.702500", "184304.192500", "184305.682500", "184307.172500", "184308.662500", "184310.152500", "184311.642500", "184313.132500", "184314.622500", "184316.112500", "184317.602500", "184319.092500", "184320.582500", "184322.072500", "184323.562500", "184325.052500", "184326.542500", "184328.032500", "184329.522500", "184331.012500", "184332.502500", "184333.992500", "184335.482500", "184336.972500", "184338.462500", "184339.952500", "184341.442500", "184342.932500", "184344.422500", "184345.912500", "184347.402500", "184348.892500", "184350.382500", "184351.872500", "184353.362500", "184354.852500", "184356.342500", "184357.832500", "184359.322500", "184400.812500", "184402.302500", "184403.792500", "184405.282500", "184406.772500", "184408.262500", "184409.752500", "184411.242500", "184412.732500", "184414.222500", "184415.712500", "184417.202500", "184418.692500", "184420.182500", "184421.672500", "184423.162500", "184424.652500", "184426.142500", "184427.632500", "184429.122500", "184430.612500", "184432.102500", "184433.592500", "184435.082500", "184436.572500", "184438.062500", "184439.552500", "184441.042500", "184442.532500", "184444.022500", "184445.512500", "184447.002500", "184448.492500", "184449.982500", "184451.472500", "184452.962500", "184454.452500", "184455.942500", "184457.432500", "184458.922500", "184500.412500", "184501.902500", "184503.392500", "184504.882500", "184506.372500", "184507.862500", "184509.352500", "184510.842500", "184512.332500", "184513.822500", "184515.312500", "184516.802500", "184518.292500", "184519.782500", "184521.272500", "184522.762500", "184524.252500", "184525.742500", "184527.232500", "184528.722500", "184530.212500", "184531.702500", "184533.192500", "184534.682500", "184536.172500", "184537.662500", "184539.152500", "184540.642500", "184542.132500", "184543.622500", "184545.112500", "184546.602500", "184548.092500", "184549.582500", "184551.072500", "184552.562500", "184554.052500", "184555.542500", "184557.032500", "184558.522500", "184600.012500", "184601.502500", "184602.992500", "184604.482500", "184605.972500", "184607.462500", "184608.952500", "184610.442500", "184611.932500", "184613.422500", "184614.912500", "184616.402500", "184617.892500", "184619.382500", "184620.872500", "184622.362500", "184623.852500", "184625.342500", "184626.832500", "184628.322500", "184629.812500", "184631.302500", "184632.792500", "184634.282500", "184635.772500", "184637.262500", "184638.752500", "184640.242500", "184641.732500", "184643.222500", "184644.712500", "184646.202500", "184647.692500", "184649.182500", "184650.672500", "184652.162500", "184653.652500", "184655.142500", "184656.632500", "184658.122500", "184659.612500", "184701.102500", "184702.592500", "184704.082500", "184705.572500", "184707.062500", "184708.552500", "184710.042500", "184711.532500", "184713.022500", "184714.512500", "184716.002500", "184717.492500", "184718.982500", "184720.472500", "184721.962500", "184723.452500", "184724.942500", "184726.432500", "184727.922500", "184729.412500", "184730.902500", "184732.392500", "184733.882500", "184735.372500", "184736.862500", "184738.352500", "184739.842500", "184741.332500", "184742.822500", "184744.312500", "184745.802500", "184747.292500", "184748.782500", "184750.272500", "184751.762500", "184753.252500", "184754.742500", "184756.232500", "184757.722500", "184759.212500", "184800.702500", "184802.192500", "184803.682500", "184805.172500", "184806.662500", "184808.152500", "184809.642500", "184811.132500", "184812.622500", "184814.112500", "184815.602500", "184817.092500", "184818.582500", "184820.072500", "184821.562500", "184823.052500", "184824.542500", "184826.032500", "184827.522500", "184829.012500", "184830.502500", "184831.992500", "184833.482500", "184834.972500", "184836.462500", "184837.952500", "184839.442500", "184840.932500", "184842.422500", "184843.912500", "184845.402500", "184846.892500", "184848.382500", "184849.872500", "184851.362500", "184852.852500", "184854.342500", "184855.832500", "184857.322500", "184858.812500", "184900.302500", "184901.792500", "184903.282500", "184904.772500", "184906.262500", "184907.752500", "184909.242500", "184910.732500", "184912.222500", "184913.712500", "184915.202500", "184916.692500", "184918.182500", "184919.672500", "184921.162500", "184922.652500", "184924.142500", "184925.632500", "184927.122500", "184928.612500", "184930.102500", "184931.592500", "184933.082500", "184934.572500", "184936.062500", "184937.552500", "184939.042500", "184940.532500", "184942.022500", "184943.512500", "184945.002500", "184946.492500", "184947.982500", "184949.472500", "184950.962500", "184952.452500"],
      "ContentTime": ["184156.546000", "184156.550000", "184156.562000", "184156.565000", "184156.568000", "184216.525000", "184216.529000", "184216.532000", "184216.535000", "184216.539000", "184216.542000", "184216.545000", "184216.549000", "184216.552000", "184216.555000", "184216.558000", "184216.561000", "184216.565000", "184216.568000", "184216.571000", "184216.575000", "184216.578000", "184216.581000", "184216.584000", "184216.588000", "184236.512000", "184236.516000", "184236.519000", "184236.522000", "184236.532000", "184236.535000", "184236.539000", "184236.542000", "184236.545000", "184236.548000", "184236.552000", "184236.555000", "184236.558000", "184236.561000", "184236.565000", "184236.568000", "184236.571000", "184236.574000", "184236.578000", "184236.581000", "184256.513000", "184256.517000", "184256.520000", "184256.523000", "184256.527000", "184256.530000", "184256.533000", "184256.537000", "184256.540000", "184256.543000", "184256.547000", "184256.550000", "184256.553000", "184256.556000", "184256.559000", "184256.563000", "184256.566000", "184256.569000", "184256.572000", "184256.576000", "184256.579000", "184316.512000", "184316.516000", "184316.519000", "184316.522000", "184316.525000", "184316.529000", "184316.532000", "184316.535000", "184316.539000", "184316.542000", "184316.545000", "184316.548000", "184316.552000", "184316.555000", "184316.558000", "184316.561000", "184316.564000", "184316.568000", "184316.571000", "184316.574000", "184356.513000", "184356.517000", "184356.520000", "184356.523000", "184356.528000", "184356.531000", "184356.534000", "184356.537000", "184356.541000", "184356.544000", "184356.547000", "184356.550000", "184356.554000", "184356.557000", "184356.560000", "184356.563000", "184356.567000", "184356.570000", "184356.573000", "184356.592000", "184356.596000", "184356.599000", "184356.603000", "184356.606000", "184356.609000", "184356.612000", "184356.616000", "184356.619000", "184356.622000", "184436.513000", "184436.517000", "184436.520000", "184436.523000", "184436.527000", "184436.530000", "184436.533000", "184436.537000", "184436.540000", "184436.543000", "184436.547000", "184436.550000", "184436.553000", "184436.556000", "184436.560000", "184436.563000", "184436.566000", "184436.569000", "184436.573000", "184436.576000", "184436.579000", "184436.582000", "184436.586000", "184436.589000", "184436.592000", "184436.596000", "184436.605000", "184516.512000", "184516.516000", "184516.519000", "184516.522000", "184516.526000", "184516.529000", "184516.532000", "184516.535000", "184516.539000", "184516.542000", "184516.545000", "184516.549000", "184516.553000", "184516.556000", "184516.559000", "184516.563000", "184516.566000", "184516.569000", "184516.572000", "184516.576000", "184516.579000", "184516.582000", "184516.585000", "184516.589000", "184516.592000", "184516.595000", "184516.598000", "184556.512000", "184556.516000", "184556.519000", "184556.522000", "184556.525000", "184556.529000", "184556.532000", "184556.535000", "184556.539000", "184556.542000", "184556.545000", "184556.548000", "184556.552000", "184556.555000", "184556.558000", "184556.562000", "184556.565000", "184556.568000", "184556.571000", "184556.575000", "184556.578000", "184556.581000", "184556.585000", "184556.588000", "184556.591000", "184556.594000", "184556.598000", "184636.513000", "184636.517000", "184636.520000", "184636.523000", "184636.527000", "184636.543000", "184636.546000", "184636.549000", "184636.553000", "184636.556000", "184636.559000", "184636.563000", "184636.566000", "184636.569000", "184636.573000", "184636.576000", "184636.579000", "184636.582000", "184636.586000", "184636.589000", "184636.592000", "184636.596000", "184636.599000", "184636.602000", "184636.606000", "184636.609000", "184636.620000", "184716.512000", "184716.516000", "184716.519000", "184716.522000", "184716.526000", "184716.529000", "184716.532000", "184716.535000", "184716.539000", "184716.542000", "184716.545000", "184716.549000", "184716.552000", "184716.555000", "184716.559000", "184716.562000", "184716.565000", "184716.575000", "184716.578000", "184716.581000", "184716.585000", "184716.588000", "184716.591000", "184716.594000", "184716.597000", "184716.601000", "184716.604000", "184756.512000", "184756.516000", "184756.519000", "184756.523000", "184756.526000", "184756.529000", "184756.533000", "184756.536000", "184756.539000", "184756.543000", "184756.546000", "184756.551000", "184756.555000", "184756.558000", "184756.561000", "184756.565000", "184756.568000", "184756.571000", "184756.575000", "184756.578000", "184756.581000", "184756.584000", "184756.588000", "184756.591000", "184756.594000", "184756.598000", "184836.513000", "184836.517000", "184836.520000", "184836.523000", "184836.527000", "184836.530000", "184836.533000", "184836.536000", "184836.540000", "184836.543000", "184836.546000", "184836.549000", "184836.553000", "184836.556000", "184836.559000", "184836.563000", "184836.566000", "184836.569000", "184836.590000", "184836.593000", "184836.597000", "184836.600000", "184836.603000", "184836.607000", "184836.610000", "184836.613000", "184836.617000", "184916.513000", "184916.517000", "184916.520000", "184916.524000", "184916.527000", "184916.530000", "184916.533000", "184916.537000", "184916.540000", "184916.543000", "184916.547000", "184916.550000", "184916.553000", "184916.556000", "184916.560000", "184916.572000", "184916.576000", "184916.579000", "184916.582000", "184916.586000", "184916.589000", "184916.592000", "184916.596000", "184916.599000", "184916.602000", "184916.606000", "184916.609000", "184955.660000", "184955.669000", "184955.673000", "184955.677000", "184955.680000", "184955.684000", "184955.687000", "184955.691000", "184955.695000", "184955.698000", "184955.702000", "184955.705000", "184955.708000", "184955.712000", "184955.715000", "184955.718000", "184955.721000", "184955.725000", "184955.728000", "184955.731000", "184955.735000", "184955.738000", "184955.741000", "184955.744000", "184955.748000", "184955.751000"],
      "InstanceCreationTime": ["184156.546000", "184156.550000", "184156.562000", "184156.565000", "184156.568000", "184216.525000", "184216.529000", "184216.532000", "184216.535000", "184216.539000", "184216.542000", "184216.545000", "184216.549000", "184216.552000", "184216.555000", "184216.558000", "184216.561000", "184216.565000", "184216.568000", "184216.571000", "184216.575000", "184216.578000", "184216.581000", "184216.584000", "184216.588000", "184236.512000", "184236.516000", "184236.519000", "184236.522000", "184236.532000", "184236.535000", "184236.539000", "184236.542000", "184236.545000", "184236.548000", "184236.552000", "184236.555000", "184236.558000", "184236.561000", "184236.565000", "184236.568000", "184236.571000", "184236.574000", "184236.578000", "184236.581000", "184256.513000", "184256.517000", "184256.520000", "184256.523000", "184256.527000", "184256.530000", "184256.533000", "184256.537000", "184256.540000", "184256.543000", "184256.547000", "184256.550000", "184256.553000", "184256.556000", "184256.559000", "184256.563000", "184256.566000", "184256.569000", "184256.572000", "184256.576000", "184256.579000", "184316.512000", "184316.516000", "184316.519000", "184316.522000", "184316.525000", "184316.529000", "184316.532000", "184316.535000", "184316.539000", "184316.542000", "184316.545000", "184316.548000", "184316.552000", "184316.555000", "184316.558000", "184316.561000", "184316.564000", "184316.568000", "184316.571000", "184316.574000", "184356.513000", "184356.517000", "184356.520000", "184356.523000", "184356.528000", "184356.531000", "184356.534000", "184356.537000", "184356.541000", "184356.544000", "184356.547000", "184356.550000", "184356.554000", "184356.557000", "184356.560000", "184356.563000", "184356.567000", "184356.570000", "184356.573000", "184356.592000", "184356.596000", "184356.599000", "184356.603000", "184356.606000", "184356.609000", "184356.612000", "184356.616000", "184356.619000", "184356.622000", "184436.513000", "184436.517000", "184436.520000", "184436.523000", "184436.527000", "184436.530000", "184436.533000", "184436.537000", "184436.540000", "184436.543000", "184436.547000", "184436.550000", "184436.553000", "184436.556000", "184436.560000", "184436.563000", "184436.566000", "184436.569000", "184436.573000", "184436.576000", "184436.579000", "184436.582000", "184436.586000", "184436.589000", "184436.592000", "184436.596000", "184436.605000", "184516.512000", "184516.516000", "184516.519000", "184516.522000", "184516.526000", "184516.529000", "184516.532000", "184516.535000", "184516.539000", "184516.542000", "184516.545000", "184516.549000", "184516.553000", "184516.556000", "184516.559000", "184516.563000", "184516.566000", "184516.569000", "184516.572000", "184516.576000", "184516.579000", "184516.582000", "184516.585000", "184516.589000", "184516.592000", "184516.595000", "184516.598000", "184556.512000", "184556.516000", "184556.519000", "184556.522000", "184556.525000", "184556.529000", "184556.532000", "184556.535000", "184556.539000", "184556.542000", "184556.545000", "184556.548000", "184556.552000", "184556.555000", "184556.558000", "184556.562000", "184556.565000", "184556.568000", "184556.571000", "184556.575000", "184556.578000", "184556.581000", "184556.585000", "184556.588000", "184556.591000", "184556.594000", "184556.598000", "184636.513000", "184636.517000", "184636.520000", "184636.523000", "184636.527000", "184636.543000", "184636.546000", "184636.549000", "184636.553000", "184636.556000", "184636.559000", "184636.563000", "184636.566000", "184636.569000", "184636.573000", "184636.576000", "184636.579000", "184636.582000", "184636.586000", "184636.589000", "184636.592000", "184636.596000", "184636.599000", "184636.602000", "184636.606000", "184636.609000", "184636.620000", "184716.512000", "184716.516000", "184716.519000", "184716.522000", "184716.526000", "184716.529000", "184716.532000", "184716.535000", "184716.539000", "184716.542000", "184716.545000", "184716.549000", "184716.552000", "184716.555000", "184716.559000", "184716.562000", "184716.565000", "184716.575000", "184716.578000", "184716.581000", "184716.585000", "184716.588000", "184716.591000", "184716.594000", "184716.597000", "184716.601000", "184716.604000", "184756.512000", "184756.516000", "184756.519000", "184756.523000", "184756.526000", "184756.529000", "184756.533000", "184756.536000", "184756.539000", "184756.543000", "184756.546000", "184756.551000", "184756.555000", "184756.558000", "184756.561000", "184756.565000", "184756.568000", "184756.571000", "184756.575000", "184756.578000", "184756.581000", "184756.584000", "184756.588000", "184756.591000", "184756.594000", "184756.598000", "184836.513000", "184836.517000", "184836.520000", "184836.523000", "184836.527000", "184836.530000", "184836.533000", "184836.536000", "184836.540000", "184836.543000", "184836.546000", "184836.549000", "184836.553000", "184836.556000", "184836.559000", "184836.563000", "184836.566000", "184836.569000", "184836.590000", "184836.593000", "184836.597000", "184836.600000", "184836.603000", "184836.607000", "184836.610000", "184836.613000", "184836.617000", "184916.513000", "184916.517000", "184916.520000", "184916.524000", "184916.527000", "184916.530000", "184916.533000", "184916.537000", "184916.540000", "184916.543000", "184916.547000", "184916.550000", "184916.553000", "184916.556000", "184916.560000", "184916.572000", "184916.576000", "184916.579000", "184916.582000", "184916.586000", "184916.589000", "184916.592000", "184916.596000", "184916.599000", "184916.602000", "184916.606000", "184916.609000", "184955.660000", "184955.669000", "184955.673000", "184955.677000", "184955.680000", "184955.684000", "184955.687000", "184955.691000", "184955.695000", "184955.698000", "184955.702000", "184955.705000", "184955.708000", "184955.712000", "184955.715000", "184955.718000", "184955.721000", "184955.725000", "184955.728000", "184955.731000", "184955.735000", "184955.738000", "184955.741000", "184955.744000", "184955.748000", "184955.751000"],
      "InstanceNumber": [1, 2, 3, 4, 5, 6, 7, 8, 9, 10, 11, 12, 13, 14, 15, 16, 17, 18, 19, 20, 21, 22, 23, 24, 25, 26, 27, 28, 29, 30, 31, 32, 33, 34, 35, 36, 37, 38, 39, 40, 41, 42, 43, 44, 45, 46, 47, 48, 49, 50, 51, 52, 53, 54, 55, 56, 57, 58, 59, 60, 61, 62, 63, 64, 65, 66, 67, 68, 69, 70, 71, 72, 73, 74, 75, 76, 77, 78, 79, 80, 81, 82, 83, 84, 85, 86, 87, 88, 89, 90, 91, 92, 93, 94, 95, 96, 97, 98, 99, 100, 101, 102, 103, 104, 105, 106, 107, 108, 109, 110, 111, 112, 113, 114, 115, 116, 117, 118, 119, 120, 121, 122, 123, 124, 125, 126, 127, 128, 129, 130, 131, 132, 133, 134, 135, 136, 137, 138, 139, 140, 141, 142, 143, 144, 145, 146, 147, 148, 149, 150, 151, 152, 153, 154, 155, 156, 157, 158, 159, 160, 161, 162, 163, 164, 165, 166, 167, 168, 169, 170, 171, 172, 173, 174, 175, 176, 177, 178, 179, 180, 181, 182, 183, 184, 185, 186, 187, 188, 189, 190, 191, 192, 193, 194, 195, 196, 197, 198, 199, 200, 201, 202, 203, 204, 205, 206, 207, 208, 209, 210, 211, 212, 213, 214, 215, 216, 217, 218, 219, 220, 221, 222, 223, 224, 225, 226, 227, 228, 229, 230, 231, 232, 233, 234, 235, 236, 237, 238, 239, 240, 241, 242, 243, 244, 245, 246, 247, 248, 249, 250, 251, 252, 253, 254, 255, 256, 257, 258, 259, 260, 261, 262, 263, 264, 265, 266, 267, 268, 269, 270, 271, 272, 273, 274, 275, 276, 277, 278, 279, 280, 281, 282, 283, 284, 285, 286, 287, 288, 289, 290, 291, 292, 293, 294, 295, 296, 297, 298, 299, 300, 301, 302, 303, 304, 305, 306, 307, 308, 309, 310, 311, 312, 313, 314, 315, 316, 317, 318, 319, 320, 321, 322, 323, 324, 325, 326, 327, 328, 329, 330, 331, 332, 333, 334, 335, 336, 337, 338, 339, 340, 341, 342, 343, 344, 345, 346, 347, 348, 349, 350, 351, 352, 353, 354, 355, 356],
      "LargestImagePixelValue": [62464, 60656, 59854, 59379, 60566, 59516, 59391, 59343, 59664, 59754, 60279, 60285, 60335, 60364, 59113, 59121, 58984, 59911, 59695, 59531, 60002, 60052, 60065, 59462, 59958, 59397, 59722, 59245, 59991, 59432, 59097, 58319, 59541, 58898, 58842, 57771, 59001, 59386, 59352, 58879, 59034, 59492, 59552, 60230, 59362, 59342, 59944, 59579, 60101, 59549, 59651, 59095, 59312, 59202, 59445, 59753, 59687, 59352, 59162, 59261, 59277, 59108, 59366, 59539, 59342, 59707, 59978, 58222, 59053, 58907, 59222, 58299, 59424, 58781, 58700, 58917, 59207, 58399, 58775, 58383, 59029, 59020, 58170, 59172, 58562, 59020, 58788, 59044, 58521, 58525, 59064, 58734, 58782, 58168, 58594, 57980, 58497, 58832, 58396, 58909, 58151, 58110, 58630, 58443, 58247, 58386, 58232, 58025, 58236, 58148, 58348, 58163, 58532, 58683, 58755, 58128, 58279, 58155, 58201, 58220, 57990, 58647, 58167, 58733, 57968, 58492, 58281, 58698, 58380, 57858, 57906, 58354, 58067, 57782, 57729, 58136, 58017, 58116, 58062, 58340, 59503, 59086, 58589, 58972, 58928, 59199, 58378, 58545, 58951, 58772, 58871, 58861, 58516, 59187, 58749, 59021, 58698, 58225, 59269, 59109, 58936, 59083, 58898, 58814, 59448, 59026, 59028, 58881, 58634, 59089, 58982, 58819, 58843, 58619, 58457, 58632, 58570, 58910, 58500, 57414, 58619, 57894, 58800, 59344, 58663, 59453, 59045, 59731, 58696, 58915, 58996, 59247, 58707, 59067, 58625, 59034, 59046, 59285, 58450, 58846, 59175, 59657, 58804, 59078, 58437, 58413, 58799, 58650, 58704, 59041, 58369, 58560, 59411, 58973, 59087, 59394, 58714, 58274, 58659, 58195, 59192, 58801, 58810, 58714, 58246, 57314, 57902, 57399, 57978, 58188, 58337, 58784, 58898, 58677, 59027, 58604, 58682, 59379, 59394, 59519, 60008, 59737, 59647, 60133, 59943, 59767, 59322, 59517, 59237, 59821, 60162, 59026, 58689, 59233, 59058, 59580, 58973, 59179, 59395, 59021, 59267, 59300, 59025, 59208, 59010, 58706, 59213, 58932, 59127, 59230, 58773, 59093, 58608, 58569, 59078, 58653, 58298, 58863, 58693, 59124, 58418, 58717, 59043, 58700, 58887, 58702, 58848, 57754, 59227, 58582, 58828, 58701, 58780, 59173, 59240, 59016, 59355, 59276, 59118, 58835, 59813, 59304, 59128, 59204, 58823, 58891, 58294, 59141, 59867, 56939, 57493, 58082, 59336, 59945, 59525, 59654, 59360, 59346, 59171, 58850, 59364, 58794, 59452, 58199, 57893, 57737, 57812, 59435, 58781, 58551, 58546, 58502, 58675, 58785, 59259, 58585, 59467, 59088, 59316, 59450, 59406, 59390, 59976, 59629, 59368, 59143, 59628, 59045, 59580, 59224, 58857, 59015, 58987, 59448, 59052, 59769],
