{
  "AcquisitionMatrixPE": 104,
  "AcquisitionNumber": 1,
  "AcquisitionTime": "18:20:43.605000",
  "BandwidthPerPixelPhaseEncode": 17.17,
  "BaseResolution": 104,
  "BodyPartExamined": "BRAIN",
  "CoilCombinationMethod": "Sum of Squares",
  "ConsistencyInfo": "N4_VE11C_LATEST_20160120",
  "ConversionSoftware": "dcm2niix",
  "ConversionSoftwareVersion": "v1.0.20220505",
  "DerivedVendorReportedEchoSpacing": 0.000560011,
  "DeviceSerialNumber": "167006",
  "DwellTime": 2.1e-06,
  "EchoTime": 0.037,
  "EchoTime1": 0.037,
  "EchoTime2": 0.001,
  "EchoTrainLength": 104,
  "EffectiveEchoSpacing": 0.000560011,
  "FlipAngle": 52,
  "HeudiconvVersion": "0.5.3.post811+g6206e14",
  "ImageComments": "Unaliased MB4/PE3/LB",
  "ImageOrientationPatientDICOM": [0.99942, -0.0307991, 0.0145336, 0.0340273, 0.920597, -0.389028],
  "ImageOrientationText": "Tra>Cor(-22.9)>Sag(0.1)",
  "ImageType": [
    "ORIGINAL",
    "PRIMARY",
    "P",
    "MB",
    "ND",
    "MOSAIC",
    "PHASE"
],
  "ImagingFrequency": 123.259,
  "InPlanePhaseEncodingDirectionDICOM": "COL",
  "InstitutionAddress": "Chemin Queen-Mary 4565,Montreal,District,CA,H3W 1W5",
  "InstitutionName": "IUGM",
  "InstitutionalDepartmentName": "Department",
  "MRAcquisitionType": "2D",
  "MagneticFieldStrength": 3,
  "Manufacturer": "Siemens",
  "ManufacturersModelName": "Prisma_fit",
  "MatrixCoilMode": "SENSE",
  "Modality": "MR",
  "MultibandAccelerationFactor": 4,
  "PartialFourier": 1,
  "PatientPosition": "HFS",
  "PercentPhaseFOV": 100,
  "PercentSampling": 100,
  "PhaseEncodingDirection": "j",
  "PhaseEncodingSteps": 104,
  "PhaseResolution": 1,
  "PixelBandwidth": 2290,
  "ProcedureStepDescription": "games^mario3",
  "ProtocolName": "func_task-mario3_run-02",
  "PulseSequenceDetails": "%CustomerSeq%\\cmrr_mbep2d_bold",
  "ReceiveCoilActiveElements": "HC1-7;NC1,2",
  "ReceiveCoilName": "HeadNeck_64",
  "ReconMatrixPE": 104,
  "RepetitionTime": 1.49,
  "SAR": 0.0573551,
  "ScanOptions": "FS",
  "ScanningSequence": "EP",
  "SequenceName": "epfid2d1_104",
  "SequenceVariant": "SK\\SS",
  "SeriesDescription": "func_task-mario3_run-02",
  "SeriesNumber": 14,
  "ShimSetting": [585, -7292, -8813, 375, 24, -372, -69, 94],
  "SliceThickness": 2,
  "SliceTiming": [0, 0.7825, 0.0975, 0.88, 0.195, 0.98, 0.2925, 1.0775, 0.39, 1.175, 0.49, 1.2725, 0.5875, 1.37, 0.685, 0, 0.7825, 0.0975, 0.88, 0.195, 0.98, 0.2925, 1.0775, 0.39, 1.175, 0.49, 1.2725, 0.5875, 1.37, 0.685, 0, 0.7825, 0.0975, 0.88, 0.195, 0.98, 0.2925, 1.0775, 0.39, 1.175, 0.49, 1.2725, 0.5875, 1.37, 0.685, 0, 0.7825, 0.0975, 0.88, 0.195, 0.98, 0.2925, 1.0775, 0.39, 1.175, 0.49, 1.2725, 0.5875, 1.37, 0.685],
  "SoftwareVersions": "syngo MR E11",
  "SpacingBetweenSlices": 2,
  "StationName": "MRC35049",
  "TaskName": "mario3",
  "TotalReadoutTime": 0.0576811,
  "TxRefAmp": 266.736,
  "WipMemBlock": "64735877-7850-40fe-8800-4c6505602171||Sequence: R017 ve11c/master r/75a17815+; Jun 28 2022 16:32:11 by eja",
  "dcmmeta_affine": [
    [-1.9988398551940918, 0.06805466115474701, 0.0027957772836089134, 101.31775665283203],
    [0.0615982860326767, 1.8411946296691895, -0.7785934805870056, -71.13552856445312],
    [0.02906724251806736, 0.778055727481842, 1.8422226905822754, -63.43790817260742],
    [0.0, 0.0, 0.0, 1.0]
],
  "dcmmeta_reorient_transform": [
    [0.0, -1.0, 0.0, 103.0],
    [1.0, 0.0, 0.0, 0.0],
    [0.0, 0.0, 1.0, 0.0],
    [0.0, 0.0, 0.0, 1.0]
],
  "dcmmeta_shape": [104, 104, 60, 309],
  "dcmmeta_slice_dim": 2,
  "dcmmeta_version": 0.6,
  "global": {
    "const": {
      "AcquisitionMatrix": [104, 0, 0, 104],
      "AngioFlag": "N",
      "BitsAllocated": 16,
      "BitsStored": 16,
      "BodyPartExamined": "BRAIN",
      "Columns": 832,
      "EchoNumbers": 1,
      "EchoTime": 37.0,
      "EchoTrainLength": 104,
      "FlipAngle": 52.0,
      "HighBit": 15,
      "ImageOrientationPatient": [0.99941992506129, -0.030799143342, 0.01453362170567, 0.0340273316325, 0.92059734009449, -0.3890278629005],
      "ImagePositionPatient": [-860.6769912441, -766.2806074648, 289.33363944497],
      "ImageType": [
        "ORIGINAL",
        "PRIMARY",
        "P",
        "MB",
        "ND",
        "MOSAIC"
],
      "ImagedNucleus": "1H",
      "ImagingFrequency": 123.258843,
      "InPlanePhaseEncodingDirection": "COL",
      "LargestImagePixelValue": 4095,
      "MRAcquisitionType": "2D",
      "MagneticFieldStrength": 3.0,
      "Manufacturer": "SIEMENS",
      "ManufacturerModelName": "Prisma_fit",
      "Modality": "MR",
      "NumberOfAverages": 1.0,
      "NumberOfPhaseEncodingSteps": 104,
      "PercentPhaseFieldOfView": 100.0,
      "PercentSampling": 100.0,
      "PerformedProcedureStepStartTime": "180629.274000",
      "PhotometricInterpretation": "MONOCHROME2",
      "PixelBandwidth": 2290.0,
      "PixelRepresentation": 0,
      "PixelSpacing": [2.0, 2.0],
      "ProtocolName": "func_task-mario3_run-02",
      "RepetitionTime": 1490.0,
      "RescaleIntercept": -4096.0,
      "RescaleSlope": 2.0,
      "RescaleType": "US",
      "Rows": 832,
      "SAR": 0.05735512673251,
      "SamplesPerPixel": 1,
      "ScanOptions": "FS",
      "ScanningSequence": "EP",
      "SequenceName": "epfid2d1_104",
      "SequenceVariant": [
        "SK",
        "SS"
],
      "SeriesDescription": "func_task-mario3_run-02",
      "SeriesNumber": 14,
      "SeriesTime": "182147.633000",
      "SliceLocation": -30.598914754205,
      "SliceThickness": 2.0,
      "SmallestImagePixelValue": 0,
      "SoftwareVersions": "syngo MR E11",
      "SpacingBetweenSlices": 2.0000000548805,
      "SpecificCharacterSet": "ISO_IR 100",
      "StudyID": "1",
      "StudyTime": "180629.186000",
      "TransmitCoilName": "Body",
      "VariableFlipAngleFlag": "N",
      "WindowCenterWidthExplanation": "Algo1",
      "dBdt": 0.0},
    "slices": {}
  },
  "time": {
    "samples": {
      "AcquisitionNumber": [1, 2, 3, 4, 5, 6, 7, 8, 9, 10, 11, 12, 13, 14, 15, 16, 17, 18, 19, 20, 21, 22, 23, 24, 25, 26, 27, 28, 29, 30, 31, 32, 33, 34, 35, 36, 37, 38, 39, 40, 41, 42, 43, 44, 45, 46, 47, 48, 49, 50, 51, 52, 53, 54, 55, 56, 57, 58, 59, 60, 61, 62, 63, 64, 65, 66, 67, 68, 69, 70, 71, 72, 73, 74, 75, 76, 77, 78, 79, 80, 81, 82, 83, 84, 85, 86, 87, 88, 89, 90, 91, 92, 93, 94, 95, 96, 97, 98, 99, 100, 101, 102, 103, 104, 105, 106, 107, 108, 109, 110, 111, 112, 113, 114, 115, 116, 117, 118, 119, 120, 121, 122, 123, 124, 125, 126, 127, 128, 129, 130, 131, 132, 133, 134, 135, 136, 137, 138, 139, 140, 141, 142, 143, 144, 145, 146, 147, 148, 149, 150, 151, 152, 153, 154, 155, 156, 157, 158, 159, 160, 161, 162, 163, 164, 165, 166, 167, 168, 169, 170, 171, 172, 173, 174, 175, 176, 177, 178, 179, 180, 181, 182, 183, 184, 185, 186, 187, 188, 189, 190, 191, 192, 193, 194, 195, 196, 197, 198, 199, 200, 201, 202, 203, 204, 205, 206, 207, 208, 209, 210, 211, 212, 213, 214, 215, 216, 217, 218, 219, 220, 221, 222, 223, 224, 225, 226, 227, 228, 229, 230, 231, 232, 233, 234, 235, 236, 237, 238, 239, 240, 241, 242, 243, 244, 245, 246, 247, 248, 249, 250, 251, 252, 253, 254, 255, 256, 257, 258, 259, 260, 261, 262, 263, 264, 265, 266, 267, 268, 269, 270, 271, 272, 273, 274, 275, 276, 277, 278, 279, 280, 281, 282, 283, 284, 285, 286, 287, 288, 289, 290, 291, 292, 293, 294, 295, 296, 297, 298, 299, 300, 301, 302, 303, 304, 305, 306, 307, 308, 309],
      "AcquisitionTime": ["182043.605000", "182045.095000", "182046.585000", "182048.075000", "182049.565000", "182051.055000", "182052.545000", "182054.035000", "182055.525000", "182057.015000", "182058.505000", "182059.995000", "182101.485000", "182102.975000", "182104.465000", "182105.955000", "182107.445000", "182108.935000", "182110.425000", "182111.915000", "182113.405000", "182114.895000", "182116.385000", "182117.875000", "182119.365000", "182120.855000", "182122.345000", "182123.835000", "182125.325000", "182126.815000", "182128.305000", "182129.795000", "182131.285000", "182132.775000", "182134.265000", "182135.755000", "182137.245000", "182138.735000", "182140.225000", "182141.715000", "182143.205000", "182144.695000", "182146.185000", "182147.675000", "182149.165000", "182150.655000", "182152.145000", "182153.635000", "182155.125000", "182156.615000", "182158.105000", "182159.595000", "182201.085000", "182202.575000", "182204.065000", "182205.555000", "182207.045000", "182208.535000", "182210.025000", "182211.515000", "182213.005000", "182214.495000", "182215.985000", "182217.475000", "182218.965000", "182220.455000", "182221.945000", "182223.435000", "182224.925000", "182226.415000", "182227.905000", "182229.395000", "182230.885000", "182232.375000", "182233.865000", "182235.355000", "182236.845000", "182238.335000", "182239.825000", "182241.315000", "182242.805000", "182244.295000", "182245.785000", "182247.275000", "182248.765000", "182250.255000", "182251.745000", "182253.235000", "182254.725000", "182256.215000", "182257.705000", "182259.195000", "182300.685000", "182302.175000", "182303.665000", "182305.155000", "182306.645000", "182308.135000", "182309.625000", "182311.115000", "182312.605000", "182314.095000", "182315.585000", "182317.075000", "182318.565000", "182320.055000", "182321.545000", "182323.035000", "182324.525000", "182326.015000", "182327.505000", "182328.995000", "182330.485000", "182331.975000", "182333.465000", "182334.955000", "182336.445000", "182337.935000", "182339.425000", "182340.915000", "182342.405000", "182343.895000", "182345.385000", "182346.875000", "182348.365000", "182349.855000", "182351.345000", "182352.835000", "182354.325000", "182355.815000", "182357.305000", "182358.795000", "182400.285000", "182401.775000", "182403.265000", "182404.755000", "182406.245000", "182407.735000", "182409.225000", "182410.715000", "182412.205000", "182413.695000", "182415.185000", "182416.675000", "182418.165000", "182419.655000", "182421.145000", "182422.635000", "182424.125000", "182425.615000", "182427.105000", "182428.595000", "182430.085000", "182431.575000", "182433.065000", "182434.555000", "182436.045000", "182437.535000", "182439.025000", "182440.515000", "182442.005000", "182443.495000", "182444.985000", "182446.475000", "182447.965000", "182449.455000", "182450.945000", "182452.435000", "182453.925000", "182455.415000", "182456.905000", "182458.395000", "182459.885000", "182501.375000", "182502.865000", "182504.355000", "182505.845000", "182507.335000", "182508.825000", "182510.315000", "182511.805000", "182513.295000", "182514.785000", "182516.275000", "182517.765000", "182519.255000", "182520.745000", "182522.235000", "182523.725000", "182525.215000", "182526.705000", "182528.195000", "182529.685000", "182531.175000", "182532.665000", "182534.155000", "182535.645000", "182537.135000", "182538.625000", "182540.115000", "182541.605000", "182543.095000", "182544.585000", "182546.075000", "182547.565000", "182549.055000", "182550.545000", "182552.035000", "182553.525000", "182555.015000", "182556.505000", "182557.995000", "182559.485000", "182600.975000", "182602.465000", "182603.955000", "182605.445000", "182606.935000", "182608.425000", "182609.915000", "182611.405000", "182612.895000", "182614.385000", "182615.875000", "182617.365000", "182618.855000", "182620.345000", "182621.835000", "182623.325000", "182624.815000", "182626.305000", "182627.795000", "182629.285000", "182630.775000", "182632.265000", "182633.755000", "182635.245000", "182636.735000", "182638.225000", "182639.715000", "182641.205000", "182642.695000", "182644.185000", "182645.675000", "182647.165000", "182648.655000", "182650.145000", "182651.635000", "182653.125000", "182654.615000", "182656.105000", "182657.595000", "182659.085000", "182700.575000", "182702.065000", "182703.555000", "182705.045000", "182706.535000", "182708.025000", "182709.515000", "182711.005000", "182712.495000", "182713.985000", "182715.475000", "182716.965000", "182718.455000", "182719.945000", "182721.435000", "182722.925000", "182724.415000", "182725.905000", "182727.395000", "182728.885000", "182730.375000", "182731.865000", "182733.355000", "182734.845000", "182736.335000", "182737.825000", "182739.315000", "182740.805000", "182742.295000", "182743.785000", "182745.275000", "182746.765000", "182748.255000", "182749.745000", "182751.235000", "182752.725000", "182754.215000", "182755.705000", "182757.195000", "182758.685000", "182800.175000", "182801.665000", "182803.155000", "182804.645000", "182806.135000", "182807.625000", "182809.115000", "182810.605000", "182812.095000", "182813.585000", "182815.075000", "182816.565000", "182818.055000", "182819.545000", "182821.035000", "182822.525000"],
      "ContentTime": ["182147.635000", "182147.637000", "182147.640000", "182147.642000", "182147.645000", "182147.647000", "182147.650000", "182147.652000", "182147.655000", "182147.671000", "182147.673000", "182147.676000", "182147.678000", "182147.681000", "182147.683000", "182207.599000", "182207.603000", "182207.606000", "182207.608000", "182207.611000", "182207.614000", "182207.617000", "182207.620000", "182207.623000", "182207.626000", "182207.636000", "182207.639000", "182207.642000", "182207.644000", "182207.647000", "182207.650000", "182207.652000", "182207.655000", "182207.658000", "182207.661000", "182227.603000", "182227.606000", "182227.608000", "182227.611000", "182227.614000", "182227.616000", "182227.619000", "182227.621000", "182227.631000", "182227.633000", "182227.636000", "182227.638000", "182227.641000", "182227.643000", "182227.645000", "182227.648000", "182227.650000", "182227.653000", "182227.655000", "182227.658000", "182247.591000", "182247.593000", "182247.596000", "182247.598000", "182247.601000", "182247.603000", "182247.606000", "182247.608000", "182247.611000", "182247.613000", "182247.616000", "182247.618000", "182247.620000", "182247.623000", "182247.625000", "182247.628000", "182247.631000", "182247.633000", "182247.636000", "182247.638000", "182247.641000", "182307.612000", "182307.615000", "182307.618000", "182307.620000", "182307.623000", "182307.625000", "182307.628000", "182307.630000", "182307.632000", "182307.635000", "182307.637000", "182307.640000", "182307.643000", "182307.645000", "182307.648000", "182307.650000", "182307.653000", "182307.656000", "182307.658000", "182307.661000", "182347.626000", "182347.629000", "182347.631000", "182347.634000", "182347.636000", "182347.639000", "182347.641000", "182347.644000", "182347.646000", "182347.649000", "182347.651000", "182347.654000", "182347.656000", "182347.659000", "182347.661000", "182347.663000", "182347.666000", "182347.668000", "182347.671000", "182347.673000", "182347.676000", "182347.678000", "182347.681000", "182347.683000", "182347.686000", "182347.688000", "182427.633000", "182427.636000", "182427.639000", "182427.641000", "182427.644000", "182427.646000", "182427.649000", "182427.651000", "182427.654000", "182427.656000", "182427.659000", "182427.661000", "182427.664000", "182427.666000", "182427.669000", "182427.671000", "182427.674000", "182427.676000", "182427.679000", "182427.681000", "182427.684000", "182427.686000", "182427.689000", "182427.691000", "182427.694000", "182427.696000", "182427.699000", "182507.629000", "182507.632000", "182507.634000", "182507.637000", "182507.640000", "182507.642000", "182507.644000", "182507.647000", "182507.649000", "182507.652000", "182507.654000", "182507.657000", "182507.659000", "182507.662000", "182507.664000", "182507.667000", "182507.669000", "182507.672000", "182507.674000", "182507.677000", "182507.679000", "182507.682000", "182507.684000", "182507.687000", "182507.689000", "182507.692000", "182507.694000", "182547.637000", "182547.640000", "182547.643000", "182547.645000", "182547.648000", "182547.650000", "182547.653000", "182547.655000", "182547.658000", "182547.660000", "182547.663000", "182547.665000", "182547.668000", "182547.670000", "182547.673000", "182547.675000", "182547.678000", "182547.680000", "182547.682000", "182547.685000", "182547.687000", "182547.690000", "182547.693000", "182547.695000", "182547.697000", "182547.700000", "182547.702000", "182627.634000", "182627.637000", "182627.639000", "182627.642000", "182627.644000", "182627.647000", "182627.649000", "182627.652000", "182627.654000", "182627.657000", "182627.659000", "182627.662000", "182627.664000", "182627.667000", "182627.669000", "182627.672000", "182627.674000", "182627.677000", "182627.680000", "182627.682000", "182627.684000", "182627.687000", "182627.689000", "182627.692000", "182627.695000", "182627.697000", "182627.700000", "182707.619000", "182707.622000", "182707.624000", "182707.627000", "182707.629000", "182707.632000", "182707.634000", "182707.637000", "182707.639000", "182707.642000", "182707.644000", "182707.647000", "182707.649000", "182707.652000", "182707.654000", "182707.657000", "182707.659000", "182707.662000", "182707.664000", "182707.667000", "182707.669000", "182707.672000", "182707.674000", "182707.677000", "182707.679000", "182707.682000", "182707.684000", "182747.639000", "182747.641000", "182747.644000", "182747.646000", "182747.649000", "182747.651000", "182747.654000", "182747.656000", "182747.659000", "182747.661000", "182747.664000", "182747.666000", "182747.669000", "182747.671000", "182747.674000", "182747.676000", "182747.679000", "182747.681000", "182747.684000", "182747.686000", "182747.689000", "182747.691000", "182747.694000", "182747.696000", "182747.699000", "182747.701000", "182747.704000", "182826.580000", "182826.583000", "182826.585000", "182826.588000", "182826.590000", "182826.593000", "182826.595000", "182826.598000", "182826.600000", "182826.603000", "182826.605000", "182826.608000", "182826.610000", "182826.613000", "182826.615000", "182826.618000", "182826.620000", "182826.622000", "182826.625000", "182826.627000", "182826.630000", "182826.632000", "182826.635000", "182826.637000", "182826.640000"],
      "InstanceCreationTime": ["182147.635000", "182147.637000", "182147.640000", "182147.642000", "182147.645000", "182147.647000", "182147.650000", "182147.652000", "182147.655000", "182147.671000", "182147.673000", "182147.676000", "182147.678000", "182147.681000", "182147.683000", "182207.599000", "182207.603000", "182207.606000", "182207.608000", "182207.611000", "182207.614000", "182207.617000", "182207.620000", "182207.623000", "182207.626000", "182207.636000", "182207.639000", "182207.642000", "182207.644000", "182207.647000", "182207.650000", "182207.652000", "182207.655000", "182207.658000", "182207.661000", "182227.603000", "182227.606000", "182227.608000", "182227.611000", "182227.614000", "182227.616000", "182227.619000", "182227.621000", "182227.631000", "182227.633000", "182227.636000", "182227.638000", "182227.641000", "182227.643000", "182227.645000", "182227.648000", "182227.650000", "182227.653000", "182227.655000", "182227.658000", "182247.591000", "182247.593000", "182247.596000", "182247.598000", "182247.601000", "182247.603000", "182247.606000", "182247.608000", "182247.611000", "182247.613000", "182247.616000", "182247.618000", "182247.620000", "182247.623000", "182247.625000", "182247.628000", "182247.631000", "182247.633000", "182247.636000", "182247.638000", "182247.641000", "182307.612000", "182307.615000", "182307.618000", "182307.620000", "182307.623000", "182307.625000", "182307.628000", "182307.630000", "182307.632000", "182307.635000", "182307.637000", "182307.640000", "182307.643000", "182307.645000", "182307.648000", "182307.650000", "182307.653000", "182307.656000", "182307.658000", "182307.661000", "182347.626000", "182347.629000", "182347.631000", "182347.634000", "182347.636000", "182347.639000", "182347.641000", "182347.644000", "182347.646000", "182347.649000", "182347.651000", "182347.654000", "182347.656000", "182347.659000", "182347.661000", "182347.663000", "182347.666000", "182347.668000", "182347.671000", "182347.673000", "182347.676000", "182347.678000", "182347.681000", "182347.683000", "182347.686000", "182347.688000", "182427.633000", "182427.636000", "182427.639000", "182427.641000", "182427.644000", "182427.646000", "182427.649000", "182427.651000", "182427.654000", "182427.656000", "182427.659000", "182427.661000", "182427.664000", "182427.666000", "182427.669000", "182427.671000", "182427.674000", "182427.676000", "182427.679000", "182427.681000", "182427.684000", "182427.686000", "182427.689000", "182427.691000", "182427.694000", "182427.696000", "182427.699000", "182507.629000", "182507.632000", "182507.634000", "182507.637000", "182507.640000", "182507.642000", "182507.644000", "182507.647000", "182507.649000", "182507.652000", "182507.654000", "182507.657000", "182507.659000", "182507.662000", "182507.664000", "182507.667000", "182507.669000", "182507.672000", "182507.674000", "182507.677000", "182507.679000", "182507.682000", "182507.684000", "182507.687000", "182507.689000", "182507.692000", "182507.694000", "182547.637000", "182547.640000", "182547.643000", "182547.645000", "182547.648000", "182547.650000", "182547.653000", "182547.655000", "182547.658000", "182547.660000", "182547.663000", "182547.665000", "182547.668000", "182547.670000", "182547.673000", "182547.675000", "182547.678000", "182547.680000", "182547.682000", "182547.685000", "182547.687000", "182547.690000", "182547.693000", "182547.695000", "182547.697000", "182547.700000", "182547.702000", "182627.634000", "182627.637000", "182627.639000", "182627.642000", "182627.644000", "182627.647000", "182627.649000", "182627.652000", "182627.654000", "182627.657000", "182627.659000", "182627.662000", "182627.664000", "182627.667000", "182627.669000", "182627.672000", "182627.674000", "182627.677000", "182627.680000", "182627.682000", "182627.684000", "182627.687000", "182627.689000", "182627.692000", "182627.695000", "182627.697000", "182627.700000", "182707.619000", "182707.622000", "182707.624000", "182707.627000", "182707.629000", "182707.632000", "182707.634000", "182707.637000", "182707.639000", "182707.642000", "182707.644000", "182707.647000", "182707.649000", "182707.652000", "182707.654000", "182707.657000", "182707.659000", "182707.662000", "182707.664000", "182707.667000", "182707.669000", "182707.672000", "182707.674000", "182707.677000", "182707.679000", "182707.682000", "182707.684000", "182747.639000", "182747.641000", "182747.644000", "182747.646000", "182747.649000", "182747.651000", "182747.654000", "182747.656000", "182747.659000", "182747.661000", "182747.664000", "182747.666000", "182747.669000", "182747.671000", "182747.674000", "182747.676000", "182747.679000", "182747.681000", "182747.684000", "182747.686000", "182747.689000", "182747.691000", "182747.694000", "182747.696000", "182747.699000", "182747.701000", "182747.704000", "182826.580000", "182826.583000", "182826.585000", "182826.588000", "182826.590000", "182826.593000", "182826.595000", "182826.598000", "182826.600000", "182826.603000", "182826.605000", "182826.608000", "182826.610000", "182826.613000", "182826.615000", "182826.618000", "182826.620000", "182826.622000", "182826.625000", "182826.627000", "182826.630000", "182826.632000", "182826.635000", "182826.637000", "182826.640000"],
      "InstanceNumber": [1, 2, 3, 4, 5, 6, 7, 8, 9, 10, 11, 12, 13, 14, 15, 16, 17, 18, 19, 20, 21, 22, 23, 24, 25, 26, 27, 28, 29, 30, 31, 32, 33, 34, 35, 36, 37, 38, 39, 40, 41, 42, 43, 44, 45, 46, 47, 48, 49, 50, 51, 52, 53, 54, 55, 56, 57, 58, 59, 60, 61, 62, 63, 64, 65, 66, 67, 68, 69, 70, 71, 72, 73, 74, 75, 76, 77, 78, 79, 80, 81, 82, 83, 84, 85, 86, 87, 88, 89, 90, 91, 92, 93, 94, 95, 96, 97, 98, 99, 100, 101, 102, 103, 104, 105, 106, 107, 108, 109, 110, 111, 112, 113, 114, 115, 116, 117, 118, 119, 120, 121, 122, 123, 124, 125, 126, 127, 128, 129, 130, 131, 132, 133, 134, 135, 136, 137, 138, 139, 140, 141, 142, 143, 144, 145, 146, 147, 148, 149, 150, 151, 152, 153, 154, 155, 156, 157, 158, 159, 160, 161, 162, 163, 164, 165, 166, 167, 168, 169, 170, 171, 172, 173, 174, 175, 176, 177, 178, 179, 180, 181, 182, 183, 184, 185, 186, 187, 188, 189, 190, 191, 192, 193, 194, 195, 196, 197, 198, 199, 200, 201, 202, 203, 204, 205, 206, 207, 208, 209, 210, 211, 212, 213, 214, 215, 216, 217, 218, 219, 220, 221, 222, 223, 224, 225, 226, 227, 228, 229, 230, 231, 232, 233, 234, 235, 236, 237, 238, 239, 240, 241, 242, 243, 244, 245, 246, 247, 248, 249, 250, 251, 252, 253, 254, 255, 256, 257, 258, 259, 260, 261, 262, 263, 264, 265, 266, 267, 268, 269, 270, 271, 272, 273, 274, 275, 276, 277, 278, 279, 280, 281, 282, 283, 284, 285, 286, 287, 288, 289, 290, 291, 292, 293, 294, 295, 296, 297, 298, 299, 300, 301, 302, 303, 304, 305, 306, 307, 308, 309],
      "WindowCenter": [4916.0, 4922.0, 4922.0, 4928.0, 4920.0, 4926.0, 4922.0, 4924.0, 4924.0, 4924.0, 4924.0, 4926.0, 4922.0, 4924.0, 4924.0, 4926.0, 4922.0, 4926.0, 4930.0, 4922.0, 4926.0, 4922.0, 4928.0, 4920.0, 4926.0, 4924.0, 4928.0, 4922.0, 4928.0, 4924.0, 4926.0, 4926.0, 4924.0, 4922.0, 4924.0, 4924.0, 4924.0, 4924.0, 4918.0, 4924.0, 4924.0, 4924.0, 4922.0, 4920.0, 4922.0, 4924.0, 4920.0, 4928.0, 4922.0, 4924.0, 4924.0, 4924.0, 4926.0, 4920.0, 4924.0, 4922.0, 4924.0, 4924.0, 4920.0, 4846.0, 4882.0, 4926.0, 4932.0, 4936.0, 4932.0, 4928.0, 4924.0, 4920.0, 4916.0, 4918.0, 4916.0, 4922.0, 4922.0, 4920.0, 4950.0, 4922.0, 4928.0, 4924.0, 4922.0, 4920.0, 4922.0, 4918.0, 4924.0, 4920.0, 4922.0, 4922.0, 4926.0, 4922.0, 4922.0, 4924.0, 4920.0, 4918.0, 4888.0, 4914.0, 4916.0, 4918.0, 4924.0, 4920.0, 4928.0, 4924.0, 4926.0, 4922.0, 4920.0, 4918.0, 4920.0, 4920.0, 4918.0, 4922.0, 4922.0, 4926.0, 4920.0, 4924.0, 4918.0, 4920.0, 4914.0, 4916.0, 4918.0, 4920.0, 4924.0, 4922.0, 4920.0, 4916.0, 4918.0, 4920.0, 4920.0, 4924.0, 4920.0, 4922.0, 4924.0, 4920.0, 4922.0, 4920.0, 4922.0, 4924.0, 4918.0, 4922.0, 4920.0, 4918.0, 4922.0, 4924.0, 4924.0, 4924.0, 4918.0, 4924.0, 4918.0, 4914.0, 4920.0, 4924.0, 4922.0, 4922.0, 4920.0, 4922.0, 4922.0, 4922.0, 4924.0, 4924.0, 4920.0, 4918.0, 4916.0, 4912.0, 4916.0, 4922.0, 4922.0, 4922.0, 4920.0, 4924.0, 4918.0, 4922.0, 4914.0, 4916.0, 4918.0, 4918.0, 4920.0, 4920.0, 4924.0, 4922.0, 4926.0, 4918.0, 4922.0, 4916.0, 4920.0, 4916.0, 4918.0, 4918.0, 4922.0, 4918.0, 4920.0, 4914.0, 4924.0, 4922.0, 4914.0, 4922.0, 4920.0, 4924.0, 4922.0, 4926.0, 4922.0, 4922.0, 4920.0, 4920.0, 4922.0, 4924.0, 4918.0, 4922.0, 4918.0, 4922.0, 4922.0, 4920.0, 4922.0, 4920.0, 4920.0, 4920.0, 4918.0, 4922.0, 4918.0, 4922.0, 4922.0, 4920.0, 4922.0, 4924.0, 4916.0, 4918.0, 4918.0, 4918.0, 4914.0, 4920.0, 4918.0, 4918.0, 4918.0, 4920.0, 4918.0, 4918.0, 4914.0, 4914.0, 4918.0, 4922.0, 4922.0, 4924.0, 4924.0, 4920.0, 4920.0, 4916.0, 4918.0, 4920.0, 4918.0, 4914.0, 4920.0, 4918.0, 4920.0, 4922.0, 4918.0, 4922.0, 4920.0, 4922.0, 4918.0, 4922.0, 4912.0, 4918.0, 4916.0, 4916.0, 4918.0, 4918.0, 4920.0, 4920.0, 4928.0, 4922.0, 4922.0, 4920.0, 4916.0, 4918.0, 4918.0, 4922.0, 4920.0, 4924.0, 4922.0, 4918.0, 4920.0, 4918.0, 4924.0, 4922.0, 4922.0, 4922.0, 4920.0, 4920.0, 4922.0, 4926.0, 4882.0, 4846.0, 4912.0, 4926.0, 4914.0, 4932.0, 4932.0, 4922.0, 4920.0, 4882.0, 4880.0, 4888.0, 4910.0, 4918.0, 4922.0, 4926.0, 4928.0, 4926.0, 4920.0, 4920.0, 4916.0, 4918.0, 4916.0],
      "WindowWidth": [18766.0, 18762.0, 18764.0, 18760.0, 18764.0, 18754.0, 18764.0, 18758.0, 18762.0, 18768.0, 18764.0, 18762.0, 18760.0, 18758.0, 18758.0, 18762.0, 18754.0, 18762.0, 18756.0, 18762.0, 18762.0, 18764.0, 18756.0, 18762.0, 18760.0, 18766.0, 18758.0, 18762.0, 18762.0, 18762.0, 18752.0, 18762.0, 18760.0, 18756.0, 18758.0, 18762.0, 18766.0, 18766.0, 18760.0, 18760.0, 18756.0, 18764.0, 18760.0, 18766.0, 18770.0, 18758.0, 18760.0, 18766.0, 18760.0, 18762.0, 18760.0, 18766.0, 18768.0, 18768.0, 18758.0, 18766.0, 18762.0, 18764.0, 18766.0, 18702.0, 18744.0, 18764.0, 18740.0, 18732.0, 18740.0, 18756.0, 18760.0, 18764.0, 18772.0, 18772.0, 18774.0, 18770.0, 18764.0, 18754.0, 18790.0, 18752.0, 18760.0, 18768.0, 18758.0, 18768.0, 18766.0, 18768.0, 18764.0, 18766.0, 18760.0, 18764.0, 18760.0, 18754.0, 18760.0, 18762.0, 18764.0, 18770.0, 18738.0, 18772.0, 18764.0, 18764.0, 18762.0, 18758.0, 18756.0, 18760.0, 18762.0, 18766.0, 18764.0, 18770.0, 18764.0, 18762.0, 18764.0, 18760.0, 18764.0, 18762.0, 18762.0, 18764.0, 18768.0, 18764.0, 18768.0, 18758.0, 18764.0, 18768.0, 18764.0, 18762.0, 18756.0, 18762.0, 18760.0, 18774.0, 18768.0, 18764.0, 18766.0, 18756.0, 18758.0, 18762.0, 18762.0, 18764.0, 18768.0, 18770.0, 18762.0, 18766.0, 18764.0, 18764.0, 18770.0, 18760.0, 18762.0, 18762.0, 18764.0, 18764.0, 18766.0, 18764.0, 18764.0, 18762.0, 18770.0, 18768.0, 18756.0, 18766.0, 18760.0, 18760.0, 18764.0, 18762.0, 18766.0, 18766.0, 18772.0, 18764.0, 18766.0, 18762.0, 18764.0, 18754.0, 18764.0, 18762.0, 18768.0, 18768.0, 18770.0, 18770.0, 18768.0, 18768.0, 18762.0, 18764.0, 18756.0, 18762.0, 18758.0, 18768.0, 18768.0, 18772.0, 18766.0, 18770.0, 18768.0, 18772.0, 18762.0, 18766.0, 18768.0, 18776.0, 18766.0, 18776.0, 18766.0, 18762.0, 18766.0, 18760.0, 18764.0, 18766.0, 18764.0, 18766.0, 18766.0, 18762.0, 18768.0, 18764.0, 18768.0, 18760.0, 18766.0, 18762.0, 18760.0, 18768.0, 18762.0, 18764.0, 18774.0, 18764.0, 18772.0, 18772.0, 18768.0, 18760.0, 18766.0, 18760.0, 18768.0, 18764.0, 18764.0, 18766.0, 18762.0, 18762.0, 18766.0, 18768.0, 18768.0, 18760.0, 18768.0, 18762.0, 18766.0, 18772.0, 18770.0, 18770.0, 18766.0, 18762.0, 18756.0, 18760.0, 18762.0, 18760.0, 18760.0, 18762.0, 18766.0, 18766.0, 18768.0, 18772.0, 18764.0, 18768.0, 18762.0, 18766.0, 18760.0, 18756.0, 18762.0, 18760.0, 18762.0, 18768.0, 18768.0, 18770.0, 18770.0, 18768.0, 18770.0, 18768.0, 18758.0, 18766.0, 18758.0, 18766.0, 18762.0, 18766.0, 18768.0, 18764.0, 18766.0, 18770.0, 18768.0, 18764.0, 18762.0, 18766.0, 18758.0, 18766.0, 18766.0, 18770.0, 18766.0, 18776.0, 18774.0, 18766.0, 18768.0, 18760.0, 18742.0, 18700.0, 18772.0, 18752.0, 18700.0, 18736.0, 18742.0, 18758.0, 18768.0, 18742.0, 18742.0, 18742.0, 18774.0, 18764.0, 18754.0, 18756.0, 18750.0, 18760.0, 18764.0, 18768.0, 18772.0, 18770.0, 18768.0]
    },
    "slices": {}
  }
}