{
  "AcquisitionMatrixPE": 104,
  "AcquisitionNumber": 1,
  "AcquisitionTime": "18:50:55.267500",
  "BandwidthPerPixelPhaseEncode": 17.17,
  "BaseResolution": 104,
  "BodyPartExamined": "BRAIN",
  "CoilCombinationMethod": "Sum of Squares",
  "ConsistencyInfo": "N4_VE11C_LATEST_20160120",
  "ConversionSoftware": "dcm2niix",
  "ConversionSoftwareVersion": "v1.0.20220505",
  "DerivedVendorReportedEchoSpacing": 0.000560011,
  "DeviceSerialNumber": "167006",
  "DwellTime": 2.1e-06,
  "EchoTime": 0.037,
  "EchoTime1": 0.037,
  "EchoTime2": 0.001,
  "EchoTrainLength": 104,
  "EffectiveEchoSpacing": 0.000560011,
  "FlipAngle": 52,
  "HeudiconvVersion": "0.5.3.post811+g6206e14",
  "ImageComments": "Unaliased MB4/PE3/LB",
  "ImageOrientationPatientDICOM": [0.99942, -0.0307991, 0.0145336, 0.0340273, 0.920597, -0.389028],
  "ImageOrientationText": "Tra>Cor(-22.9)>Sag(0.1)",
  "ImageType": [
    "ORIGINAL",
    "PRIMARY",
    "P",
    "MB",
    "ND",
    "MOSAIC",
    "PHASE"
],
  "ImagingFrequency": 123.259,
  "InPlanePhaseEncodingDirectionDICOM": "COL",
  "InstitutionAddress": "Chemin Queen-Mary 4565,Montreal,District,CA,H3W 1W5",
  "InstitutionName": "IUGM",
  "InstitutionalDepartmentName": "Department",
  "MRAcquisitionType": "2D",
  "MagneticFieldStrength": 3,
  "Manufacturer": "Siemens",
  "ManufacturersModelName": "Prisma_fit",
  "MatrixCoilMode": "SENSE",
  "Modality": "MR",
  "MultibandAccelerationFactor": 4,
  "PartialFourier": 1,
  "PatientPosition": "HFS",
  "PercentPhaseFOV": 100,
  "PercentSampling": 100,
  "PhaseEncodingDirection": "j",
  "PhaseEncodingSteps": 104,
  "PhaseResolution": 1,
  "PixelBandwidth": 2290,
  "ProcedureStepDescription": "games^mario3",
  "ProtocolName": "func_task-mario3_run-05",
  "PulseSequenceDetails": "%CustomerSeq%\\cmrr_mbep2d_bold",
  "ReceiveCoilActiveElements": "HC1-7;NC1,2",
  "ReceiveCoilName": "HeadNeck_64",
  "ReconMatrixPE": 104,
  "RepetitionTime": 1.49,
  "SAR": 0.0573551,
  "ScanOptions": "FS",
  "ScanningSequence": "EP",
  "SequenceName": "epfid2d1_104",
  "SequenceVariant": "SK\\SS",
  "SeriesDescription": "func_task-mario3_run-05",
  "SeriesNumber": 23,
  "ShimSetting": [585, -7292, -8813, 375, 24, -372, -69, 94],
  "SliceThickness": 2,
  "SliceTiming": [0, 0.785, 0.1, 0.8825, 0.1975, 0.98, 0.295, 1.08, 0.3925, 1.1775, 0.49, 1.275, 0.59, 1.3725, 0.6875, 0, 0.785, 0.1, 0.8825, 0.1975, 0.98, 0.295, 1.08, 0.3925, 1.1775, 0.49, 1.275, 0.59, 1.3725, 0.6875, 0, 0.785, 0.1, 0.8825, 0.1975, 0.98, 0.295, 1.08, 0.3925, 1.1775, 0.49, 1.275, 0.59, 1.3725, 0.6875, 0, 0.785, 0.1, 0.8825, 0.1975, 0.98, 0.295, 1.08, 0.3925, 1.1775, 0.49, 1.275, 0.59, 1.3725, 0.6875],
  "SoftwareVersions": "syngo MR E11",
  "SpacingBetweenSlices": 2,
  "StationName": "MRC35049",
  "TaskName": "mario3",
  "TotalReadoutTime": 0.0576811,
  "TxRefAmp": 266.736,
  "WipMemBlock": "44623be2-9c73-4216-9bb9-2209674a2d65||Sequence: R017 ve11c/master r/75a17815+; Jun 28 2022 16:32:11 by eja",
  "dcmmeta_affine": [
    [-1.9988398551940918, 0.06805466115474701, 0.0027957772836089134, 101.31775665283203],
    [0.0615982860326767, 1.8411946296691895, -0.7785934805870056, -71.13552856445312],
    [0.02906724251806736, 0.778055727481842, 1.8422226905822754, -63.43790817260742],
    [0.0, 0.0, 0.0, 1.0]
],
  "dcmmeta_reorient_transform": [
    [0.0, -1.0, 0.0, 103.0],
    [1.0, 0.0, 0.0, 0.0],
    [0.0, 0.0, 1.0, 0.0],
    [0.0, 0.0, 0.0, 1.0]
],
  "dcmmeta_shape": [104, 104, 60, 378],
  "dcmmeta_slice_dim": 2,
  "dcmmeta_version": 0.6,
  "global": {
    "const": {
      "AcquisitionMatrix": [104, 0, 0, 104],
      "AngioFlag": "N",
      "BitsAllocated": 16,
      "BitsStored": 16,
      "BodyPartExamined": "BRAIN",
      "Columns": 832,
      "EchoNumbers": 1,
      "EchoTime": 37.0,
      "EchoTrainLength": 104,
      "FlipAngle": 52.0,
      "HighBit": 15,
      "ImageOrientationPatient": [0.99941992506129, -0.030799143342, 0.01453362170567, 0.0340273316325, 0.92059734009449, -0.3890278629005],
      "ImagePositionPatient": [-860.6769912441, -766.2806074648, 289.33363944497],
      "ImageType": [
        "ORIGINAL",
        "PRIMARY",
        "P",
        "MB",
        "ND",
        "MOSAIC"
],
      "ImagedNucleus": "1H",
      "ImagingFrequency": 123.258847,
      "InPlanePhaseEncodingDirection": "COL",
      "LargestImagePixelValue": 4095,
      "MRAcquisitionType": "2D",
      "MagneticFieldStrength": 3.0,
      "Manufacturer": "SIEMENS",
      "ManufacturerModelName": "Prisma_fit",
      "Modality": "MR",
      "NumberOfAverages": 1.0,
      "NumberOfPhaseEncodingSteps": 104,
      "PercentPhaseFieldOfView": 100.0,
      "PercentSampling": 100.0,
      "PerformedProcedureStepStartTime": "180629.274000",
      "PhotometricInterpretation": "MONOCHROME2",
      "PixelBandwidth": 2290.0,
      "PixelRepresentation": 0,
      "PixelSpacing": [2.0, 2.0],
      "ProtocolName": "func_task-mario3_run-05",
      "RepetitionTime": 1490.0,
      "RescaleIntercept": -4096.0,
      "RescaleSlope": 2.0,
      "RescaleType": "US",
      "Rows": 832,
      "SAR": 0.05735512673251,
      "SamplesPerPixel": 1,
      "ScanOptions": "FS",
      "ScanningSequence": "EP",
      "SequenceName": "epfid2d1_104",
      "SequenceVariant": [
        "SK",
        "SS"
],
      "SeriesDescription": "func_task-mario3_run-05",
      "SeriesNumber": 23,
      "SeriesTime": "185147.573000",
      "SliceLocation": -30.598914754205,
      "SliceThickness": 2.0,
      "SmallestImagePixelValue": 0,
      "SoftwareVersions": "syngo MR E11",
      "SpacingBetweenSlices": 2.0000000548805,
      "SpecificCharacterSet": "ISO_IR 100",
      "StudyID": "1",
      "StudyTime": "180629.186000",
      "TransmitCoilName": "Body",
      "VariableFlipAngleFlag": "N",
      "WindowCenterWidthExplanation": "Algo1",
      "dBdt": 0.0},
    "slices": {}
  },
  "time": {
    "samples": {
      "AcquisitionNumber": [1, 2, 3, 4, 5, 6, 7, 8, 9, 10, 11, 12, 13, 14, 15, 16, 17, 18, 19, 20, 21, 22, 23, 24, 25, 26, 27, 28, 29, 30, 31, 32, 33, 34, 35, 36, 37, 38, 39, 40, 41, 42, 43, 44, 45, 46, 47, 48, 49, 50, 51, 52, 53, 54, 55, 56, 57, 58, 59, 60, 61, 62, 63, 64, 65, 66, 67, 68, 69, 70, 71, 72, 73, 74, 75, 76, 77, 78, 79, 80, 81, 82, 83, 84, 85, 86, 87, 88, 89, 90, 91, 92, 93, 94, 95, 96, 97, 98, 99, 100, 101, 102, 103, 104, 105, 106, 107, 108, 109, 110, 111, 112, 113, 114, 115, 116, 117, 118, 119, 120, 121, 122, 123, 124, 125, 126, 127, 128, 129, 130, 131, 132, 133, 134, 135, 136, 137, 138, 139, 140, 141, 142, 143, 144, 145, 146, 147, 148, 149, 150, 151, 152, 153, 154, 155, 156, 157, 158, 159, 160, 161, 162, 163, 164, 165, 166, 167, 168, 169, 170, 171, 172, 173, 174, 175, 176, 177, 178, 179, 180, 181, 182, 183, 184, 185, 186, 187, 188, 189, 190, 191, 192, 193, 194, 195, 196, 197, 198, 199, 200, 201, 202, 203, 204, 205, 206, 207, 208, 209, 210, 211, 212, 213, 214, 215, 216, 217, 218, 219, 220, 221, 222, 223, 224, 225, 226, 227, 228, 229, 230, 231, 232, 233, 234, 235, 236, 237, 238, 239, 240, 241, 242, 243, 244, 245, 246, 247, 248, 249, 250, 251, 252, 253, 254, 255, 256, 257, 258, 259, 260, 261, 262, 263, 264, 265, 266, 267, 268, 269, 270, 271, 272, 273, 274, 275, 276, 277, 278, 279, 280, 281, 282, 283, 284, 285, 286, 287, 288, 289, 290, 291, 292, 293, 294, 295, 296, 297, 298, 299, 300, 301, 302, 303, 304, 305, 306, 307, 308, 309, 310, 311, 312, 313, 314, 315, 316, 317, 318, 319, 320, 321, 322, 323, 324, 325, 326, 327, 328, 329, 330, 331, 332, 333, 334, 335, 336, 337, 338, 339, 340, 341, 342, 343, 344, 345, 346, 347, 348, 349, 350, 351, 352, 353, 354, 355, 356, 357, 358, 359, 360, 361, 362, 363, 364, 365, 366, 367, 368, 369, 370, 371, 372, 373, 374, 375, 376, 377, 378],
      "AcquisitionTime": ["185055.267500", "185056.757500", "185058.247500", "185059.737500", "185101.227500", "185102.717500", "185104.207500", "185105.697500", "185107.187500", "185108.677500", "185110.167500", "185111.657500", "185113.147500", "185114.637500", "185116.127500", "185117.617500", "185119.107500", "185120.597500", "185122.087500", "185123.577500", "185125.067500", "185126.557500", "185128.047500", "185129.537500", "185131.027500", "185132.517500", "185134.007500", "185135.497500", "185136.987500", "185138.477500", "185139.967500", "185141.457500", "185142.947500", "185144.437500", "185145.927500", "185147.417500", "185148.907500", "185150.397500", "185151.887500", "185153.377500", "185154.867500", "185156.357500", "185157.847500", "185159.337500", "185200.827500", "185202.317500", "185203.807500", "185205.297500", "185206.787500", "185208.277500", "185209.767500", "185211.257500", "185212.747500", "185214.237500", "185215.727500", "185217.217500", "185218.707500", "185220.197500", "185221.687500", "185223.177500", "185224.667500", "185226.157500", "185227.647500", "185229.137500", "185230.627500", "185232.117500", "185233.607500", "185235.097500", "185236.587500", "185238.077500", "185239.567500", "185241.057500", "185242.547500", "185244.037500", "185245.527500", "185247.017500", "185248.507500", "185249.997500", "185251.487500", "185252.977500", "185254.467500", "185255.957500", "185257.447500", "185258.937500", "185300.427500", "185301.917500", "185303.407500", "185304.897500", "185306.387500", "185307.877500", "185309.367500", "185310.857500", "185312.347500", "185313.837500", "185315.327500", "185316.817500", "185318.307500", "185319.797500", "185321.287500", "185322.777500", "185324.267500", "185325.757500", "185327.247500", "185328.737500", "185330.227500", "185331.717500", "185333.207500", "185334.697500", "185336.187500", "185337.677500", "185339.167500", "185340.657500", "185342.147500", "185343.637500", "185345.127500", "185346.617500", "185348.107500", "185349.597500", "185351.087500", "185352.577500", "185354.067500", "185355.557500", "185357.047500", "185358.537500", "185400.027500", "185401.517500", "185403.007500", "185404.497500", "185405.987500", "185407.477500", "185408.967500", "185410.457500", "185411.947500", "185413.437500", "185414.927500", "185416.417500", "185417.907500", "185419.397500", "185420.887500", "185422.377500", "185423.867500", "185425.357500", "185426.847500", "185428.337500", "185429.827500", "185431.317500", "185432.807500", "185434.297500", "185435.787500", "185437.277500", "185438.767500", "185440.257500", "185441.747500", "185443.237500", "185444.727500", "185446.217500", "185447.707500", "185449.197500", "185450.687500", "185452.177500", "185453.667500", "185455.157500", "185456.647500", "185458.137500", "185459.627500", "185501.117500", "185502.607500", "185504.097500", "185505.587500", "185507.077500", "185508.567500", "185510.057500", "185511.547500", "185513.037500", "185514.527500", "185516.017500", "185517.507500", "185518.997500", "185520.487500", "185521.977500", "185523.467500", "185524.957500", "185526.447500", "185527.937500", "185529.427500", "185530.917500", "185532.407500", "185533.897500", "185535.387500", "185536.877500", "185538.367500", "185539.857500", "185541.347500", "185542.837500", "185544.327500", "185545.817500", "185547.307500", "185548.797500", "185550.287500", "185551.777500", "185553.267500", "185554.757500", "185556.247500", "185557.737500", "185559.227500", "185600.717500", "185602.207500", "185603.697500", "185605.187500", "185606.677500", "185608.167500", "185609.657500", "185611.147500", "185612.637500", "185614.127500", "185615.617500", "185617.107500", "185618.597500", "185620.087500", "185621.577500", "185623.067500", "185624.557500", "185626.047500", "185627.537500", "185629.027500", "185630.517500", "185632.007500", "185633.497500", "185634.987500", "185636.477500", "185637.967500", "185639.457500", "185640.947500", "185642.437500", "185643.927500", "185645.417500", "185646.907500", "185648.397500", "185649.887500", "185651.377500", "185652.867500", "185654.357500", "185655.847500", "185657.337500", "185658.827500", "185700.317500", "185701.807500", "185703.297500", "185704.787500", "185706.277500", "185707.767500", "185709.257500", "185710.747500", "185712.237500", "185713.727500", "185715.217500", "185716.707500", "185718.197500", "185719.687500", "185721.177500", "185722.667500", "185724.157500", "185725.647500", "185727.137500", "185728.627500", "185730.117500", "185731.607500", "185733.097500", "185734.587500", "185736.077500", "185737.567500", "185739.057500", "185740.547500", "185742.037500", "185743.527500", "185745.017500", "185746.507500", "185747.997500", "185749.487500", "185750.977500", "185752.467500", "185753.957500", "185755.447500", "185756.937500", "185758.427500", "185759.917500", "185801.407500", "185802.897500", "185804.387500", "185805.877500", "185807.367500", "185808.857500", "185810.347500", "185811.837500", "185813.327500", "185814.817500", "185816.307500", "185817.797500", "185819.287500", "185820.777500", "185822.267500", "185823.757500", "185825.247500", "185826.737500", "185828.227500", "185829.717500", "185831.207500", "185832.697500", "185834.187500", "185835.677500", "185837.167500", "185838.657500", "185840.147500", "185841.637500", "185843.127500", "185844.617500", "185846.107500", "185847.597500", "185849.087500", "185850.577500", "185852.067500", "185853.557500", "185855.047500", "185856.537500", "185858.027500", "185859.517500", "185901.007500", "185902.497500", "185903.987500", "185905.477500", "185906.967500", "185908.457500", "185909.947500", "185911.437500", "185912.927500", "185914.417500", "185915.907500", "185917.397500", "185918.887500", "185920.377500", "185921.867500", "185923.357500", "185924.847500", "185926.337500", "185927.827500", "185929.317500", "185930.807500", "185932.297500", "185933.787500", "185935.277500", "185936.767500", "185938.257500", "185939.747500", "185941.237500", "185942.727500", "185944.217500", "185945.707500", "185947.197500", "185948.687500", "185950.177500", "185951.667500", "185953.157500", "185954.647500", "185956.137500", "185957.627500", "185959.117500", "190000.607500", "190002.097500", "190003.587500", "190005.077500", "190006.567500", "190008.057500", "190009.547500", "190011.037500", "190012.527500", "190014.017500", "190015.507500", "190016.997500"],
      "ContentTime": ["185147.575000", "185147.578000", "185207.596000", "185207.599000", "185207.601000", "185207.604000", "185207.606000", "185207.609000", "185207.611000", "185207.614000", "185207.616000", "185207.618000", "185207.621000", "185207.623000", "185207.631000", "185207.634000", "185207.636000", "185207.638000", "185207.641000", "185207.643000", "185207.646000", "185207.648000", "185227.606000", "185227.609000", "185227.611000", "185227.614000", "185227.616000", "185227.619000", "185227.621000", "185227.624000", "185227.626000", "185227.629000", "185227.631000", "185227.634000", "185227.636000", "185227.639000", "185227.641000", "185227.644000", "185227.646000", "185227.649000", "185227.651000", "185227.654000", "185227.656000", "185247.600000", "185247.602000", "185247.605000", "185247.611000", "185247.614000", "185247.616000", "185247.618000", "185247.621000", "185247.623000", "185247.626000", "185247.628000", "185247.631000", "185247.633000", "185247.636000", "185247.638000", "185247.641000", "185247.643000", "185247.646000", "185247.648000", "185247.651000", "185307.599000", "185307.601000", "185307.604000", "185307.606000", "185307.609000", "185307.611000", "185307.614000", "185307.616000", "185307.619000", "185307.621000", "185307.624000", "185307.626000", "185307.629000", "185307.632000", "185307.634000", "185307.637000", "185307.639000", "185307.642000", "185307.644000", "185307.647000", "185347.653000", "185347.656000", "185347.658000", "185347.661000", "185347.663000", "185347.666000", "185347.668000", "185347.671000", "185347.673000", "185347.675000", "185347.678000", "185347.680000", "185347.683000", "185347.685000", "185347.688000", "185347.691000", "185347.693000", "185347.696000", "185347.698000", "185347.701000", "185347.703000", "185347.706000", "185347.708000", "185347.711000", "185347.713000", "185347.716000", "185347.718000", "185347.721000", "185347.723000", "185347.726000", "185347.729000", "185347.731000", "185427.655000", "185427.658000", "185427.661000", "185427.663000", "185427.666000", "185427.668000", "185427.671000", "185427.673000", "185427.676000", "185427.678000", "185427.681000", "185427.683000", "185427.686000", "185427.688000", "185427.691000", "185427.693000", "185427.696000", "185427.698000", "185427.700000", "185427.703000", "185427.705000", "185427.708000", "185427.710000", "185427.713000", "185427.715000", "185427.718000", "185427.720000", "185507.640000", "185507.643000", "185507.645000", "185507.648000", "185507.650000", "185507.653000", "185507.655000", "185507.658000", "185507.660000", "185507.663000", "185507.665000", "185507.668000", "185507.670000", "185507.673000", "185507.675000", "185507.678000", "185507.680000", "185507.683000", "185507.685000", "185507.688000", "185507.690000", "185507.693000", "185507.695000", "185507.698000", "185507.700000", "185507.703000", "185548.070000", "185548.072000", "185548.075000", "185548.077000", "185548.080000", "185548.082000", "185548.085000", "185548.087000", "185548.090000", "185548.092000", "185548.095000", "185548.097000", "185548.100000", "185548.102000", "185548.105000", "185548.107000", "185548.109000", "185548.112000", "185548.115000", "185548.117000", "185548.120000", "185548.122000", "185548.124000", "185548.127000", "185548.129000", "185548.132000", "185548.134000", "185627.616000", "185627.619000", "185627.621000", "185627.624000", "185627.626000", "185627.629000", "185627.631000", "185627.634000", "185627.636000", "185627.639000", "185627.641000", "185627.644000", "185627.658000", "185627.661000", "185627.663000", "185627.666000", "185627.668000", "185627.671000", "185627.673000", "185627.676000", "185627.678000", "185627.681000", "185627.683000", "185627.686000", "185627.688000", "185627.691000", "185627.693000", "185707.624000", "185707.627000", "185707.629000", "185707.632000", "185707.634000", "185707.637000", "185707.640000", "185707.642000", "185707.645000", "185707.655000", "185707.658000", "185707.660000", "185707.662000", "185707.665000", "185707.667000", "185707.670000", "185707.672000", "185707.675000", "185707.677000", "185707.680000", "185707.682000", "185707.685000", "185707.687000", "185707.690000", "185707.692000", "185707.695000", "185707.697000", "185747.625000", "185747.628000", "185747.630000", "185747.633000", "185747.635000", "185747.638000", "185747.640000", "185747.643000", "185747.645000", "185747.648000", "185747.650000", "185747.653000", "185747.655000", "185747.658000", "185747.660000", "185747.663000", "185747.665000", "185747.668000", "185747.670000", "185747.673000", "185747.675000", "185747.681000", "185747.683000", "185747.686000", "185747.688000", "185747.691000", "185747.694000", "185827.627000", "185827.630000", "185827.632000", "185827.635000", "185827.637000", "185827.640000", "185827.642000", "185827.645000", "185827.647000", "185827.650000", "185827.652000", "185827.655000", "185827.657000", "185827.660000", "185827.662000", "185827.665000", "185827.667000", "185827.670000", "185827.672000", "185827.675000", "185827.677000", "185827.680000", "185827.682000", "185827.685000", "185827.687000", "185827.690000", "185827.692000", "185907.648000", "185907.650000", "185907.653000", "185907.655000", "185907.658000", "185907.660000", "185907.663000", "185907.665000", "185907.668000", "185907.670000", "185907.673000", "185907.675000", "185907.678000", "185907.680000", "185907.683000", "185907.685000", "185907.688000", "185907.690000", "185907.693000", "185907.695000", "185907.698000", "185907.700000", "185907.703000", "185907.705000", "185907.708000", "185907.710000", "185907.713000", "185947.633000", "185947.636000", "185947.639000", "185947.642000", "185947.645000", "185947.648000", "185947.651000", "185947.654000", "185947.656000", "185947.659000", "185947.661000", "185947.664000", "185947.666000", "185947.669000", "185947.671000", "185947.674000", "185947.676000", "185947.679000", "185947.681000", "185947.684000", "185947.686000", "185947.689000", "185947.691000", "185947.694000", "185947.696000", "185947.698000", "190019.764000", "190019.767000", "190019.815000", "190019.817000", "190019.820000", "190019.822000", "190019.825000", "190019.827000", "190019.830000", "190019.832000", "190019.835000", "190019.837000", "190019.840000", "190019.842000", "190019.845000", "190019.847000", "190019.850000", "190019.852000", "190019.855000", "190019.865000", "190019.867000", "190019.870000"],
      "InstanceCreationTime": ["185147.575000", "185147.578000", "185207.596000", "185207.599000", "185207.601000", "185207.604000", "185207.606000", "185207.609000", "185207.611000", "185207.614000", "185207.616000", "185207.618000", "185207.621000", "185207.623000", "185207.631000", "185207.634000", "185207.636000", "185207.638000", "185207.641000", "185207.643000", "185207.646000", "185207.648000", "185227.606000", "185227.609000", "185227.611000", "185227.614000", "185227.616000", "185227.619000", "185227.621000", "185227.624000", "185227.626000", "185227.629000", "185227.631000", "185227.634000", "185227.636000", "185227.639000", "185227.641000", "185227.644000", "185227.646000", "185227.649000", "185227.651000", "185227.654000", "185227.656000", "185247.600000", "185247.602000", "185247.605000", "185247.611000", "185247.614000", "185247.616000", "185247.618000", "185247.621000", "185247.623000", "185247.626000", "185247.628000", "185247.631000", "185247.633000", "185247.636000", "185247.638000", "185247.641000", "185247.643000", "185247.646000", "185247.648000", "185247.651000", "185307.599000", "185307.601000", "185307.604000", "185307.606000", "185307.609000", "185307.611000", "185307.614000", "185307.616000", "185307.619000", "185307.621000", "185307.624000", "185307.626000", "185307.629000", "185307.632000", "185307.634000", "185307.637000", "185307.639000", "185307.642000", "185307.644000", "185307.647000", "185347.653000", "185347.656000", "185347.658000", "185347.661000", "185347.663000", "185347.666000", "185347.668000", "185347.671000", "185347.673000", "185347.675000", "185347.678000", "185347.680000", "185347.683000", "185347.685000", "185347.688000", "185347.691000", "185347.693000", "185347.696000", "185347.698000", "185347.701000", "185347.703000", "185347.706000", "185347.708000", "185347.711000", "185347.713000", "185347.716000", "185347.718000", "185347.721000", "185347.723000", "185347.726000", "185347.729000", "185347.731000", "185427.655000", "185427.658000", "185427.661000", "185427.663000", "185427.666000", "185427.668000", "185427.671000", "185427.673000", "185427.676000", "185427.678000", "185427.681000", "185427.683000", "185427.686000", "185427.688000", "185427.691000", "185427.693000", "185427.696000", "185427.698000", "185427.700000", "185427.703000", "185427.705000", "185427.708000", "185427.710000", "185427.713000", "185427.715000", "185427.718000", "185427.720000", "185507.640000", "185507.643000", "185507.645000", "185507.648000", "185507.650000", "185507.653000", "185507.655000", "185507.658000", "185507.660000", "185507.663000", "185507.665000", "185507.668000", "185507.670000", "185507.673000", "185507.675000", "185507.678000", "185507.680000", "185507.683000", "185507.685000", "185507.688000", "185507.690000", "185507.693000", "185507.695000", "185507.698000", "185507.700000", "185507.703000", "185548.070000", "185548.072000", "185548.075000", "185548.077000", "185548.080000", "185548.082000", "185548.085000", "185548.087000", "185548.090000", "185548.092000", "185548.095000", "185548.097000", "185548.100000", "185548.102000", "185548.105000", "185548.107000", "185548.109000", "185548.112000", "185548.115000", "185548.117000", "185548.120000", "185548.122000", "185548.124000", "185548.127000", "185548.129000", "185548.132000", "185548.134000", "185627.616000", "185627.619000", "185627.621000", "185627.624000", "185627.626000", "185627.629000", "185627.631000", "185627.634000", "185627.636000", "185627.639000", "185627.641000", "185627.644000", "185627.658000", "185627.661000", "185627.663000", "185627.666000", "185627.668000", "185627.671000", "185627.673000", "185627.676000", "185627.678000", "185627.681000", "185627.683000", "185627.686000", "185627.688000", "185627.691000", "185627.693000", "185707.624000", "185707.627000", "185707.629000", "185707.632000", "185707.634000", "185707.637000", "185707.640000", "185707.642000", "185707.645000", "185707.655000", "185707.658000", "185707.660000", "185707.662000", "185707.665000", "185707.667000", "185707.670000", "185707.672000", "185707.675000", "185707.677000", "185707.680000", "185707.682000", "185707.685000", "185707.687000", "185707.690000", "185707.692000", "185707.695000", "185707.697000", "185747.625000", "185747.628000", "185747.630000", "185747.633000", "185747.635000", "185747.638000", "185747.640000", "185747.643000", "185747.645000", "185747.648000", "185747.650000", "185747.653000", "185747.655000", "185747.658000", "185747.660000", "185747.663000", "185747.665000", "185747.668000", "185747.670000", "185747.673000", "185747.675000", "185747.681000", "185747.683000", "185747.686000", "185747.688000", "185747.691000", "185747.694000", "185827.627000", "185827.630000", "185827.632000", "185827.635000", "185827.637000", "185827.640000", "185827.642000", "185827.645000", "185827.647000", "185827.650000", "185827.652000", "185827.655000", "185827.657000", "185827.660000", "185827.662000", "185827.665000", "185827.667000", "185827.670000", "185827.672000", "185827.675000", "185827.677000", "185827.680000", "185827.682000", "185827.685000", "185827.687000", "185827.690000", "185827.692000", "185907.648000", "185907.650000", "185907.653000", "185907.655000", "185907.658000", "185907.660000", "185907.663000", "185907.665000", "185907.668000", "185907.670000", "185907.673000", "185907.675000", "185907.678000", "185907.680000", "185907.683000", "185907.685000", "185907.688000", "185907.690000", "185907.693000", "185907.695000", "185907.698000", "185907.700000", "185907.703000", "185907.705000", "185907.708000", "185907.710000", "185907.713000", "185947.633000", "185947.636000", "185947.639000", "185947.642000", "185947.645000", "185947.648000", "185947.651000", "185947.654000", "185947.656000", "185947.659000", "185947.661000", "185947.664000", "185947.666000", "185947.669000", "185947.671000", "185947.674000", "185947.676000", "185947.679000", "185947.681000", "185947.684000", "185947.686000", "185947.689000", "185947.691000", "185947.694000", "185947.696000", "185947.698000", "190019.764000", "190019.767000", "190019.815000", "190019.817000", "190019.820000", "190019.822000", "190019.825000", "190019.827000", "190019.830000", "190019.832000", "190019.835000", "190019.837000", "190019.840000", "190019.842000", "190019.845000", "190019.847000", "190019.850000", "190019.852000", "190019.855000", "190019.865000", "190019.867000", "190019.870000"],
      "InstanceNumber": [1, 2, 3, 4, 5, 6, 7, 8, 9, 10, 11, 12, 13, 14, 15, 16, 17, 18, 19, 20, 21, 22, 23, 24, 25, 26, 27, 28, 29, 30, 31, 32, 33, 34, 35, 36, 37, 38, 39, 40, 41, 42, 43, 44, 45, 46, 47, 48, 49, 50, 51, 52, 53, 54, 55, 56, 57, 58, 59, 60, 61, 62, 63, 64, 65, 66, 67, 68, 69, 70, 71, 72, 73, 74, 75, 76, 77, 78, 79, 80, 81, 82, 83, 84, 85, 86, 87, 88, 89, 90, 91, 92, 93, 94, 95, 96, 97, 98, 99, 100, 101, 102, 103, 104, 105, 106, 107, 108, 109, 110, 111, 112, 113, 114, 115, 116, 117, 118, 119, 120, 121, 122, 123, 124, 125, 126, 127, 128, 129, 130, 131, 132, 133, 134, 135, 136, 137, 138, 139, 140, 141, 142, 143, 144, 145, 146, 147, 148, 149, 150, 151, 152, 153, 154, 155, 156, 157, 158, 159, 160, 161, 162, 163, 164, 165, 166, 167, 168, 169, 170, 171, 172, 173, 174, 175, 176, 177, 178, 179, 180, 181, 182, 183, 184, 185, 186, 187, 188, 189, 190, 191, 192, 193, 194, 195, 196, 197, 198, 199, 200, 201, 202, 203, 204, 205, 206, 207, 208, 209, 210, 211, 212, 213, 214, 215, 216, 217, 218, 219, 220, 221, 222, 223, 224, 225, 226, 227, 228, 229, 230, 231, 232, 233, 234, 235, 236, 237, 238, 239, 240, 241, 242, 243, 244, 245, 246, 247, 248, 249, 250, 251, 252, 253, 254, 255, 256, 257, 258, 259, 260, 261, 262, 263, 264, 265, 266, 267, 268, 269, 270, 271, 272, 273, 274, 275, 276, 277, 278, 279, 280, 281, 282, 283, 284, 285, 286, 287, 288, 289, 290, 291, 292, 293, 294, 295, 296, 297, 298, 299, 300, 301, 302, 303, 304, 305, 306, 307, 308, 309, 310, 311, 312, 313, 314, 315, 316, 317, 318, 319, 320, 321, 322, 323, 324, 325, 326, 327, 328, 329, 330, 331, 332, 333, 334, 335, 336, 337, 338, 339, 340, 341, 342, 343, 344, 345, 346, 347, 348, 349, 350, 351, 352, 353, 354, 355, 356, 357, 358, 359, 360, 361, 362, 363, 364, 365, 366, 367, 368, 369, 370, 371, 372, 373, 374, 375, 376, 377, 378],
