{
  "AcquisitionMatrixPE": 104,
  "AcquisitionNumber": 1,
  "AcquisitionTime": "19:36:40.962500",
  "BandwidthPerPixelPhaseEncode": 17.17,
  "BaseResolution": 104,
  "BodyPartExamined": "BRAIN",
  "CoilCombinationMethod": "Sum of Squares",
  "ConsistencyInfo": "N4_VE11C_LATEST_20160120",
  "ConversionSoftware": "dcm2niix",
  "ConversionSoftwareVersion": "v1.0.20220505",
  "DerivedVendorReportedEchoSpacing": 0.000560011,
  "DeviceSerialNumber": "167006",
  "DwellTime": 2.1e-06,
  "EchoTime": 0.037,
  "EchoTrainLength": 104,
  "EffectiveEchoSpacing": 0.000560011,
  "FlipAngle": 52,
  "HeudiconvVersion": "0.5.3.post811+g6206e14",
  "ImageComments": "Unaliased MB4/PE3/LB",
  "ImageOrientationPatientDICOM": [0.999832, -0.0126643, 0.0132834, 0.0169285, 0.915955, -0.400923],
  "ImageOrientationText": "Tra>Cor(-23.6)>Sag(0.4)",
  "ImageType": [
    "ORIGINAL",
    "PRIMARY",
    "M",
    "MB",
    "ND",
    "MOSAIC"
],
  "ImagingFrequency": 123.259,
  "InPlanePhaseEncodingDirectionDICOM": "COL",
  "InstitutionAddress": "Chemin Queen-Mary 4565,Montreal,District,CA,H3W 1W5",
  "InstitutionName": "IUGM",
  "InstitutionalDepartmentName": "Department",
  "MRAcquisitionType": "2D",
  "MagneticFieldStrength": 3,
  "Manufacturer": "Siemens",
  "ManufacturersModelName": "Prisma_fit",
  "MatrixCoilMode": "SENSE",
  "Modality": "MR",
  "MultibandAccelerationFactor": 4,
  "PartialFourier": 1,
  "PatientPosition": "HFS",
  "PercentPhaseFOV": 100,
  "PercentSampling": 100,
  "PhaseEncodingDirection": "j",
  "PhaseEncodingSteps": 104,
  "PhaseResolution": 1,
  "PixelBandwidth": 2290,
  "ProcedureStepDescription": "games^mario3",
  "ProtocolName": "func_task-mario3_run-08",
  "PulseSequenceDetails": "%CustomerSeq%\\cmrr_mbep2d_bold",
  "ReceiveCoilActiveElements": "HC1-7;NC1,2",
  "ReceiveCoilName": "HeadNeck_64",
  "ReconMatrixPE": 104,
  "RepetitionTime": 1.49,
  "SAR": 0.0635022,
  "ScanOptions": "FS",
  "ScanningSequence": "EP",
  "SequenceName": "epfid2d1_104",
  "SequenceVariant": "SK\\SS",
  "SeriesDescription": "func_task-mario3_run-08",
  "SeriesNumber": 39,
  "ShimSetting": [593, -7311, -8817, 363, 39, -414, -59, 92],
  "SliceThickness": 2,
  "SliceTiming": [0, 0.7825, 0.0975, 0.88, 0.195, 0.9775, 0.2925, 1.0775, 0.39, 1.175, 0.4875, 1.2725, 0.5875, 1.37, 0.685, 0, 0.7825, 0.0975, 0.88, 0.195, 0.9775, 0.2925, 1.0775, 0.39, 1.175, 0.4875, 1.2725, 0.5875, 1.37, 0.685, 0, 0.7825, 0.0975, 0.88, 0.195, 0.9775, 0.2925, 1.0775, 0.39, 1.175, 0.4875, 1.2725, 0.5875, 1.37, 0.685, 0, 0.7825, 0.0975, 0.88, 0.195, 0.9775, 0.2925, 1.0775, 0.39, 1.175, 0.4875, 1.2725, 0.5875, 1.37, 0.685],
  "SoftwareVersions": "syngo MR E11",
  "SpacingBetweenSlices": 2,
  "StationName": "MRC35049",
  "TaskName": "mario3",
  "TotalReadoutTime": 0.0576811,
  "TxRefAmp": 272.473,
  "WipMemBlock": "390fcfdc-1293-4064-ace4-e7479674b77a||Sequence: R017 ve11c/master r/75a17815+; Jun 28 2022 16:32:11 by eja",
  "dcmmeta_affine": [
    [-1.9996631145477295, 0.03385690227150917, 0.014179193414747715, 102.77134704589844],
    [0.025328677147626877, 1.8319106101989746, -0.802160918712616, -68.2807846069336],
    [0.026566850021481514, 0.8018462657928467, 1.8320307731628418, -61.09757614135742],
    [0.0, 0.0, 0.0, 1.0]
],
  "dcmmeta_reorient_transform": [
    [0.0, -1.0, 0.0, 103.0],
    [1.0, 0.0, 0.0, 0.0],
    [0.0, 0.0, 1.0, 0.0],
    [0.0, 0.0, 0.0, 1.0]
],
  "dcmmeta_shape": [104, 104, 60, 362],
  "dcmmeta_slice_dim": 2,
  "dcmmeta_version": 0.6,
  "global": {
    "const": {
      "AcquisitionMatrix": [104, 0, 0, 104],
      "AngioFlag": "N",
      "BitsAllocated": 16,
      "BitsStored": 16,
      "BodyPartExamined": "BRAIN",
      "Columns": 832,
      "EchoNumbers": 1,
      "EchoTime": 37.0,
      "EchoTrainLength": 104,
      "FlipAngle": 52.0,
      "HighBit": 15,
      "ImageOrientationPatient": [0.9998315683898, -0.0126643386745, 0.0132834249025, 0.01692845140317, 0.91595527939196, -0.4009231269048],
      "ImagePositionPatient": [-846.45990532017, -778.00180970146, 303.69429259748],
      "ImageType": [
        "ORIGINAL",
        "PRIMARY",
        "M",
        "MB",
        "ND",
        "MOSAIC"
],
      "ImagedNucleus": "1H",
      "ImagingFrequency": 123.258843,
      "InPlanePhaseEncodingDirection": "COL",
      "MRAcquisitionType": "2D",
      "MagneticFieldStrength": 3.0,
      "Manufacturer": "SIEMENS",
      "ManufacturerModelName": "Prisma_fit",
      "Modality": "MR",
      "NumberOfAverages": 1.0,
      "NumberOfPhaseEncodingSteps": 104,
      "PercentPhaseFieldOfView": 100.0,
      "PercentSampling": 100.0,
      "PerformedProcedureStepStartTime": "180629.274000",
      "PhotometricInterpretation": "MONOCHROME2",
      "PixelBandwidth": 2290.0,
      "PixelRepresentation": 0,
      "PixelSpacing": [2.0, 2.0],
      "ProtocolName": "func_task-mario3_run-08",
      "RepetitionTime": 1490.0,
      "Rows": 832,
      "SAR": 0.0635022305655,
      "SamplesPerPixel": 1,
      "ScanOptions": "FS",
      "ScanningSequence": "EP",
      "SequenceName": "epfid2d1_104",
      "SequenceVariant": [
        "SK",
        "SS"
],
      "SeriesDescription": "func_task-mario3_run-08",
      "SeriesNumber": 39,
      "SeriesTime": "193809.488000",
      "SliceLocation": -27.85162307446,
      "SliceThickness": 2.0,
      "SmallestImagePixelValue": 0,
      "SoftwareVersions": "syngo MR E11",
      "SpacingBetweenSlices": 1.9999999745766,
      "SpecificCharacterSet": "ISO_IR 100",
      "StudyID": "1",
      "StudyTime": "180629.186000",
      "TransmitCoilName": "Body",
      "VariableFlipAngleFlag": "N",
      "WindowCenterWidthExplanation": "Algo1",
      "dBdt": 0.0},
    "slices": {}
  },
  "time": {
    "samples": {
      "AcquisitionNumber": [1, 2, 3, 4, 5, 6, 7, 8, 9, 10, 11, 12, 13, 14, 15, 16, 17, 18, 19, 20, 21, 22, 23, 24, 25, 26, 27, 28, 29, 30, 31, 32, 33, 34, 35, 36, 37, 38, 39, 40, 41, 42, 43, 44, 45, 46, 47, 48, 49, 50, 51, 52, 53, 54, 55, 56, 57, 58, 59, 60, 61, 62, 63, 64, 65, 66, 67, 68, 69, 70, 71, 72, 73, 74, 75, 76, 77, 78, 79, 80, 81, 82, 83, 84, 85, 86, 87, 88, 89, 90, 91, 92, 93, 94, 95, 96, 97, 98, 99, 100, 101, 102, 103, 104, 105, 106, 107, 108, 109, 110, 111, 112, 113, 114, 115, 116, 117, 118, 119, 120, 121, 122, 123, 124, 125, 126, 127, 128, 129, 130, 131, 132, 133, 134, 135, 136, 137, 138, 139, 140, 141, 142, 143, 144, 145, 146, 147, 148, 149, 150, 151, 152, 153, 154, 155, 156, 157, 158, 159, 160, 161, 162, 163, 164, 165, 166, 167, 168, 169, 170, 171, 172, 173, 174, 175, 176, 177, 178, 179, 180, 181, 182, 183, 184, 185, 186, 187, 188, 189, 190, 191, 192, 193, 194, 195, 196, 197, 198, 199, 200, 201, 202, 203, 204, 205, 206, 207, 208, 209, 210, 211, 212, 213, 214, 215, 216, 217, 218, 219, 220, 221, 222, 223, 224, 225, 226, 227, 228, 229, 230, 231, 232, 233, 234, 235, 236, 237, 238, 239, 240, 241, 242, 243, 244, 245, 246, 247, 248, 249, 250, 251, 252, 253, 254, 255, 256, 257, 258, 259, 260, 261, 262, 263, 264, 265, 266, 267, 268, 269, 270, 271, 272, 273, 274, 275, 276, 277, 278, 279, 280, 281, 282, 283, 284, 285, 286, 287, 288, 289, 290, 291, 292, 293, 294, 295, 296, 297, 298, 299, 300, 301, 302, 303, 304, 305, 306, 307, 308, 309, 310, 311, 312, 313, 314, 315, 316, 317, 318, 319, 320, 321, 322, 323, 324, 325, 326, 327, 328, 329, 330, 331, 332, 333, 334, 335, 336, 337, 338, 339, 340, 341, 342, 343, 344, 345, 346, 347, 348, 349, 350, 351, 352, 353, 354, 355, 356, 357, 358, 359, 360, 361, 362],
      "AcquisitionTime": ["193640.962500", "193642.452500", "193643.942500", "193645.432500", "193646.922500", "193648.412500", "193649.902500", "193651.392500", "193652.882500", "193654.372500", "193655.862500", "193657.352500", "193658.842500", "193700.332500", "193701.822500", "193703.312500", "193704.802500", "193706.292500", "193707.782500", "193709.272500", "193710.762500", "193712.252500", "193713.742500", "193715.232500", "193716.722500", "193718.212500", "193719.702500", "193721.192500", "193722.682500", "193724.172500", "193725.662500", "193727.152500", "193728.642500", "193730.132500", "193731.622500", "193733.112500", "193734.602500", "193736.092500", "193737.582500", "193739.072500", "193740.562500", "193742.052500", "193743.542500", "193745.032500", "193746.522500", "193748.012500", "193749.502500", "193750.992500", "193752.482500", "193753.972500", "193755.462500", "193756.952500", "193758.442500", "193759.932500", "193801.422500", "193802.912500", "193804.402500", "193805.892500", "193807.382500", "193808.872500", "193810.362500", "193811.852500", "193813.342500", "193814.832500", "193816.322500", "193817.812500", "193819.302500", "193820.792500", "193822.282500", "193823.772500", "193825.262500", "193826.752500", "193828.242500", "193829.732500", "193831.222500", "193832.712500", "193834.202500", "193835.692500", "193837.182500", "193838.672500", "193840.162500", "193841.652500", "193843.142500", "193844.632500", "193846.122500", "193847.612500", "193849.102500", "193850.592500", "193852.082500", "193853.572500", "193855.062500", "193856.552500", "193858.042500", "193859.532500", "193901.022500", "193902.512500", "193904.002500", "193905.492500", "193906.982500", "193908.472500", "193909.962500", "193911.452500", "193912.942500", "193914.432500", "193915.922500", "193917.412500", "193918.902500", "193920.392500", "193921.882500", "193923.372500", "193924.862500", "193926.352500", "193927.842500", "193929.332500", "193930.822500", "193932.312500", "193933.802500", "193935.292500", "193936.782500", "193938.272500", "193939.762500", "193941.252500", "193942.742500", "193944.232500", "193945.722500", "193947.212500", "193948.702500", "193950.192500", "193951.682500", "193953.172500", "193954.662500", "193956.152500", "193957.642500", "193959.132500", "194000.622500", "194002.112500", "194003.602500", "194005.092500", "194006.582500", "194008.072500", "194009.562500", "194011.052500", "194012.542500", "194014.032500", "194015.522500", "194017.012500", "194018.502500", "194019.992500", "194021.482500", "194022.972500", "194024.462500", "194025.952500", "194027.442500", "194028.932500", "194030.422500", "194031.912500", "194033.402500", "194034.892500", "194036.382500", "194037.872500", "194039.362500", "194040.852500", "194042.342500", "194043.832500", "194045.322500", "194046.812500", "194048.302500", "194049.792500", "194051.282500", "194052.772500", "194054.262500", "194055.752500", "194057.242500", "194058.732500", "194100.222500", "194101.712500", "194103.202500", "194104.692500", "194106.182500", "194107.672500", "194109.162500", "194110.652500", "194112.142500", "194113.632500", "194115.122500", "194116.612500", "194118.102500", "194119.592500", "194121.082500", "194122.572500", "194124.062500", "194125.552500", "194127.042500", "194128.532500", "194130.022500", "194131.512500", "194133.002500", "194134.492500", "194135.982500", "194137.472500", "194138.962500", "194140.452500", "194141.942500", "194143.432500", "194144.922500", "194146.412500", "194147.902500", "194149.392500", "194150.882500", "194152.372500", "194153.862500", "194155.352500", "194156.842500", "194158.332500", "194159.822500", "194201.312500", "194202.802500", "194204.292500", "194205.782500", "194207.272500", "194208.762500", "194210.252500", "194211.742500", "194213.232500", "194214.722500", "194216.212500", "194217.702500", "194219.192500", "194220.682500", "194222.172500", "194223.662500", "194225.152500", "194226.642500", "194228.132500", "194229.622500", "194231.112500", "194232.602500", "194234.092500", "194235.582500", "194237.072500", "194238.562500", "194240.052500", "194241.542500", "194243.032500", "194244.522500", "194246.012500", "194247.502500", "194248.992500", "194250.482500", "194251.972500", "194253.462500", "194254.952500", "194256.442500", "194257.932500", "194259.422500", "194300.912500", "194302.402500", "194303.892500", "194305.382500", "194306.872500", "194308.362500", "194309.852500", "194311.342500", "194312.832500", "194314.322500", "194315.812500", "194317.302500", "194318.792500", "194320.282500", "194321.772500", "194323.262500", "194324.752500", "194326.242500", "194327.732500", "194329.222500", "194330.712500", "194332.202500", "194333.692500", "194335.182500", "194336.672500", "194338.162500", "194339.652500", "194341.142500", "194342.632500", "194344.122500", "194345.612500", "194347.102500", "194348.592500", "194350.082500", "194351.572500", "194353.062500", "194354.552500", "194356.042500", "194357.532500", "194359.022500", "194400.512500", "194402.002500", "194403.492500", "194404.982500", "194406.472500", "194407.962500", "194409.452500", "194410.942500", "194412.432500", "194413.922500", "194415.412500", "194416.902500", "194418.392500", "194419.882500", "194421.372500", "194422.862500", "194424.352500", "194425.842500", "194427.332500", "194428.822500", "194430.312500", "194431.802500", "194433.292500", "194434.782500", "194436.272500", "194437.762500", "194439.252500", "194440.742500", "194442.232500", "194443.722500", "194445.212500", "194446.702500", "194448.192500", "194449.682500", "194451.172500", "194452.662500", "194454.152500", "194455.642500", "194457.132500", "194458.622500", "194500.112500", "194501.602500", "194503.092500", "194504.582500", "194506.072500", "194507.562500", "194509.052500", "194510.542500", "194512.032500", "194513.522500", "194515.012500", "194516.502500", "194517.992500", "194519.482500", "194520.972500", "194522.462500", "194523.952500", "194525.442500", "194526.932500", "194528.422500", "194529.912500", "194531.402500", "194532.892500", "194534.382500", "194535.872500", "194537.362500", "194538.852500"],
      "ContentTime": ["193809.491000", "193809.494000", "193809.498000", "193809.501000", "193809.504000", "193809.508000", "193809.511000", "193809.514000", "193809.518000", "193809.521000", "193809.524000", "193809.527000", "193809.536000", "193809.539000", "193809.542000", "193809.546000", "193809.549000", "193809.552000", "193809.556000", "193809.559000", "193809.562000", "193809.566000", "193809.569000", "193809.573000", "193809.576000", "193809.579000", "193809.582000", "193809.586000", "193809.599000", "193809.602000", "193809.605000", "193809.608000", "193809.612000", "193809.615000", "193809.618000", "193809.621000", "193809.625000", "193809.628000", "193809.631000", "193829.447000", "193829.451000", "193829.461000", "193829.465000", "193829.475000", "193829.478000", "193829.482000", "193829.485000", "193829.488000", "193829.491000", "193829.495000", "193829.498000", "193829.501000", "193829.505000", "193829.508000", "193829.511000", "193829.514000", "193829.518000", "193829.521000", "193829.526000", "193849.446000", "193849.450000", "193849.453000", "193849.456000", "193849.460000", "193849.463000", "193849.466000", "193849.470000", "193849.473000", "193849.476000", "193849.479000", "193849.483000", "193849.486000", "193849.489000", "193849.492000", "193849.496000", "193849.499000", "193849.502000", "193849.505000", "193849.509000", "193849.512000", "193929.446000", "193929.450000", "193929.453000", "193929.456000", "193929.460000", "193929.463000", "193929.466000", "193929.469000", "193929.473000", "193929.476000", "193929.479000", "193929.482000", "193929.486000", "193929.489000", "193929.492000", "193929.495000", "193929.499000", "193929.502000", "193929.505000", "193929.509000", "193929.512000", "193929.515000", "193929.518000", "193929.522000", "193929.538000", "193929.541000", "193929.544000", "193929.548000", "193929.551000", "193929.554000", "193929.558000", "193929.561000", "194009.446000", "194009.450000", "194009.453000", "194009.456000", "194009.460000", "194009.463000", "194009.466000", "194009.470000", "194009.473000", "194009.476000", "194009.480000", "194009.483000", "194009.500000", "194009.503000", "194009.506000", "194009.509000", "194009.513000", "194009.516000", "194009.519000", "194009.523000", "194009.526000", "194009.529000", "194009.532000", "194009.536000", "194009.539000", "194009.542000", "194009.545000", "194049.447000", "194049.451000", "194049.454000", "194049.457000", "194049.461000", "194049.464000", "194049.467000", "194049.471000", "194049.474000", "194049.477000", "194049.480000", "194049.484000", "194049.487000", "194049.490000", "194049.493000", "194049.497000", "194049.500000", "194049.503000", "194049.507000", "194049.510000", "194049.513000", "194049.516000", "194049.520000", "194049.523000", "194049.526000", "194049.530000", "194049.533000", "194129.466000", "194129.470000", "194129.473000", "194129.477000", "194129.480000", "194129.483000", "194129.487000", "194129.490000", "194129.494000", "194129.497000", "194129.500000", "194129.503000", "194129.507000", "194129.510000", "194129.513000", "194129.517000", "194129.520000", "194129.523000", "194129.526000", "194129.530000", "194129.533000", "194129.536000", "194129.540000", "194129.543000", "194129.546000", "194129.550000", "194209.446000", "194209.450000", "194209.453000", "194209.457000", "194209.468000", "194209.471000", "194209.475000", "194209.478000", "194209.481000", "194209.485000", "194209.488000", "194209.491000", "194209.495000", "194209.498000", "194209.501000", "194209.505000", "194209.508000", "194209.511000", "194209.514000", "194209.518000", "194209.521000", "194209.524000", "194209.528000", "194209.531000", "194209.534000", "194209.537000", "194209.541000", "194249.447000", "194249.468000", "194249.472000", "194249.476000", "194249.479000", "194249.482000", "194249.485000", "194249.489000", "194249.492000", "194249.496000", "194249.499000", "194249.502000", "194249.505000", "194249.509000", "194249.520000", "194249.523000", "194249.526000", "194249.530000", "194249.533000", "194249.536000", "194249.540000", "194249.543000", "194249.547000", "194249.550000", "194249.553000", "194249.556000", "194249.560000", "194329.446000", "194329.450000", "194329.453000", "194329.456000", "194329.460000", "194329.463000", "194329.466000", "194329.470000", "194329.473000", "194329.476000", "194329.479000", "194329.483000", "194329.486000", "194329.489000", "194329.493000", "194329.496000", "194329.499000", "194329.502000", "194329.506000", "194329.509000", "194329.512000", "194329.515000", "194329.519000", "194329.522000", "194329.525000", "194329.529000", "194329.532000", "194409.446000", "194409.450000", "194409.453000", "194409.456000", "194409.460000", "194409.463000", "194409.466000", "194409.470000", "194409.473000", "194409.477000", "194409.480000", "194409.483000", "194409.486000", "194409.490000", "194409.493000", "194409.497000", "194409.500000", "194409.503000", "194409.506000", "194409.510000", "194409.513000", "194409.516000", "194409.520000", "194409.523000", "194409.526000", "194409.529000", "194409.533000", "194449.446000", "194449.450000", "194449.453000", "194449.457000", "194449.460000", "194449.463000", "194449.467000", "194449.470000", "194449.473000", "194449.477000", "194449.480000", "194449.483000", "194449.486000", "194449.504000", "194449.508000", "194449.512000", "194449.515000", "194449.518000", "194449.521000", "194449.525000", "194449.528000", "194449.531000", "194449.535000", "194449.538000", "194449.541000", "194449.544000", "194449.547000", "194529.447000", "194529.452000", "194529.455000", "194529.458000", "194529.462000", "194529.465000", "194529.468000", "194529.472000", "194529.475000", "194529.478000", "194529.482000", "194529.485000", "194529.488000", "194529.491000", "194529.495000", "194529.498000", "194529.501000", "194529.505000", "194529.508000", "194529.511000", "194529.515000", "194529.518000", "194529.521000", "194529.526000", "194529.529000", "194529.533000", "194542.467000", "194542.470000", "194542.474000", "194542.477000", "194542.480000", "194542.483000", "194542.487000", "194542.490000", "194542.493000"],
      "InstanceCreationTime": ["193809.491000", "193809.494000", "193809.498000", "193809.501000", "193809.504000", "193809.508000", "193809.511000", "193809.514000", "193809.518000", "193809.521000", "193809.524000", "193809.527000", "193809.536000", "193809.539000", "193809.542000", "193809.546000", "193809.549000", "193809.552000", "193809.556000", "193809.559000", "193809.562000", "193809.566000", "193809.569000", "193809.573000", "193809.576000", "193809.579000", "193809.582000", "193809.586000", "193809.599000", "193809.602000", "193809.605000", "193809.608000", "193809.612000", "193809.615000", "193809.618000", "193809.621000", "193809.625000", "193809.628000", "193809.631000", "193829.447000", "193829.451000", "193829.461000", "193829.465000", "193829.475000", "193829.478000", "193829.482000", "193829.485000", "193829.488000", "193829.491000", "193829.495000", "193829.498000", "193829.501000", "193829.505000", "193829.508000", "193829.511000", "193829.514000", "193829.518000", "193829.521000", "193829.526000", "193849.446000", "193849.450000", "193849.453000", "193849.456000", "193849.460000", "193849.463000", "193849.466000", "193849.470000", "193849.473000", "193849.476000", "193849.479000", "193849.483000", "193849.486000", "193849.489000", "193849.492000", "193849.496000", "193849.499000", "193849.502000", "193849.505000", "193849.509000", "193849.512000", "193929.446000", "193929.450000", "193929.453000", "193929.456000", "193929.460000", "193929.463000", "193929.466000", "193929.469000", "193929.473000", "193929.476000", "193929.479000", "193929.482000", "193929.486000", "193929.489000", "193929.492000", "193929.495000", "193929.499000", "193929.502000", "193929.505000", "193929.509000", "193929.512000", "193929.515000", "193929.518000", "193929.522000", "193929.538000", "193929.541000", "193929.544000", "193929.548000", "193929.551000", "193929.554000", "193929.558000", "193929.561000", "194009.446000", "194009.450000", "194009.453000", "194009.456000", "194009.460000", "194009.463000", "194009.466000", "194009.470000", "194009.473000", "194009.476000", "194009.480000", "194009.483000", "194009.500000", "194009.503000", "194009.506000", "194009.509000", "194009.513000", "194009.516000", "194009.519000", "194009.523000", "194009.526000", "194009.529000", "194009.532000", "194009.536000", "194009.539000", "194009.542000", "194009.545000", "194049.447000", "194049.451000", "194049.454000", "194049.457000", "194049.461000", "194049.464000", "194049.467000", "194049.471000", "194049.474000", "194049.477000", "194049.480000", "194049.484000", "194049.487000", "194049.490000", "194049.493000", "194049.497000", "194049.500000", "194049.503000", "194049.507000", "194049.510000", "194049.513000", "194049.516000", "194049.520000", "194049.523000", "194049.526000", "194049.530000", "194049.533000", "194129.466000", "194129.470000", "194129.473000", "194129.477000", "194129.480000", "194129.483000", "194129.487000", "194129.490000", "194129.494000", "194129.497000", "194129.500000", "194129.503000", "194129.507000", "194129.510000", "194129.513000", "194129.517000", "194129.520000", "194129.523000", "194129.526000", "194129.530000", "194129.533000", "194129.536000", "194129.540000", "194129.543000", "194129.546000", "194129.550000", "194209.446000", "194209.450000", "194209.453000", "194209.457000", "194209.468000", "194209.471000", "194209.475000", "194209.478000", "194209.481000", "194209.485000", "194209.488000", "194209.491000", "194209.495000", "194209.498000", "194209.501000", "194209.505000", "194209.508000", "194209.511000", "194209.514000", "194209.518000", "194209.521000", "194209.524000", "194209.528000", "194209.531000", "194209.534000", "194209.537000", "194209.541000", "194249.447000", "194249.468000", "194249.472000", "194249.476000", "194249.479000", "194249.482000", "194249.485000", "194249.489000", "194249.492000", "194249.496000", "194249.499000", "194249.502000", "194249.505000", "194249.509000", "194249.520000", "194249.523000", "194249.526000", "194249.530000", "194249.533000", "194249.536000", "194249.540000", "194249.543000", "194249.547000", "194249.550000", "194249.553000", "194249.556000", "194249.560000", "194329.446000", "194329.450000", "194329.453000", "194329.456000", "194329.460000", "194329.463000", "194329.466000", "194329.470000", "194329.473000", "194329.476000", "194329.479000", "194329.483000", "194329.486000", "194329.489000", "194329.493000", "194329.496000", "194329.499000", "194329.502000", "194329.506000", "194329.509000", "194329.512000", "194329.515000", "194329.519000", "194329.522000", "194329.525000", "194329.529000", "194329.532000", "194409.446000", "194409.450000", "194409.453000", "194409.456000", "194409.460000", "194409.463000", "194409.466000", "194409.470000", "194409.473000", "194409.477000", "194409.480000", "194409.483000", "194409.486000", "194409.490000", "194409.493000", "194409.497000", "194409.500000", "194409.503000", "194409.506000", "194409.510000", "194409.513000", "194409.516000", "194409.520000", "194409.523000", "194409.526000", "194409.529000", "194409.533000", "194449.446000", "194449.450000", "194449.453000", "194449.457000", "194449.460000", "194449.463000", "194449.467000", "194449.470000", "194449.473000", "194449.477000", "194449.480000", "194449.483000", "194449.486000", "194449.504000", "194449.508000", "194449.512000", "194449.515000", "194449.518000", "194449.521000", "194449.525000", "194449.528000", "194449.531000", "194449.535000", "194449.538000", "194449.541000", "194449.544000", "194449.547000", "194529.447000", "194529.452000", "194529.455000", "194529.458000", "194529.462000", "194529.465000", "194529.468000", "194529.472000", "194529.475000", "194529.478000", "194529.482000", "194529.485000", "194529.488000", "194529.491000", "194529.495000", "194529.498000", "194529.501000", "194529.505000", "194529.508000", "194529.511000", "194529.515000", "194529.518000", "194529.521000", "194529.526000", "194529.529000", "194529.533000", "194542.467000", "194542.470000", "194542.474000", "194542.477000", "194542.480000", "194542.483000", "194542.487000", "194542.490000", "194542.493000"],
      "InstanceNumber": [1, 2, 3, 4, 5, 6, 7, 8, 9, 10, 11, 12, 13, 14, 15, 16, 17, 18, 19, 20, 21, 22, 23, 24, 25, 26, 27, 28, 29, 30, 31, 32, 33, 34, 35, 36, 37, 38, 39, 40, 41, 42, 43, 44, 45, 46, 47, 48, 49, 50, 51, 52, 53, 54, 55, 56, 57, 58, 59, 60, 61, 62, 63, 64, 65, 66, 67, 68, 69, 70, 71, 72, 73, 74, 75, 76, 77, 78, 79, 80, 81, 82, 83, 84, 85, 86, 87, 88, 89, 90, 91, 92, 93, 94, 95, 96, 97, 98, 99, 100, 101, 102, 103, 104, 105, 106, 107, 108, 109, 110, 111, 112, 113, 114, 115, 116, 117, 118, 119, 120, 121, 122, 123, 124, 125, 126, 127, 128, 129, 130, 131, 132, 133, 134, 135, 136, 137, 138, 139, 140, 141, 142, 143, 144, 145, 146, 147, 148, 149, 150, 151, 152, 153, 154, 155, 156, 157, 158, 159, 160, 161, 162, 163, 164, 165, 166, 167, 168, 169, 170, 171, 172, 173, 174, 175, 176, 177, 178, 179, 180, 181, 182, 183, 184, 185, 186, 187, 188, 189, 190, 191, 192, 193, 194, 195, 196, 197, 198, 199, 200, 201, 202, 203, 204, 205, 206, 207, 208, 209, 210, 211, 212, 213, 214, 215, 216, 217, 218, 219, 220, 221, 222, 223, 224, 225, 226, 227, 228, 229, 230, 231, 232, 233, 234, 235, 236, 237, 238, 239, 240, 241, 242, 243, 244, 245, 246, 247, 248, 249, 250, 251, 252, 253, 254, 255, 256, 257, 258, 259, 260, 261, 262, 263, 264, 265, 266, 267, 268, 269, 270, 271, 272, 273, 274, 275, 276, 277, 278, 279, 280, 281, 282, 283, 284, 285, 286, 287, 288, 289, 290, 291, 292, 293, 294, 295, 296, 297, 298, 299, 300, 301, 302, 303, 304, 305, 306, 307, 308, 309, 310, 311, 312, 313, 314, 315, 316, 317, 318, 319, 320, 321, 322, 323, 324, 325, 326, 327, 328, 329, 330, 331, 332, 333, 334, 335, 336, 337, 338, 339, 340, 341, 342, 343, 344, 345, 346, 347, 348, 349, 350, 351, 352, 353, 354, 355, 356, 357, 358, 359, 360, 361, 362],
