{
  "AcquisitionMatrixPE": 104,
  "AcquisitionNumber": 1,
  "AcquisitionTime": "18:10:5.157500",
  "BandwidthPerPixelPhaseEncode": 17.17,
  "BaseResolution": 104,
  "BodyPartExamined": "BRAIN",
  "CoilCombinationMethod": "Sum of Squares",
  "ConsistencyInfo": "N4_VE11C_LATEST_20160120",
  "ConversionSoftware": "dcm2niix",
  "ConversionSoftwareVersion": "v1.0.20220505",
  "DerivedVendorReportedEchoSpacing": 0.000560011,
  "DeviceSerialNumber": "167006",
  "DwellTime": 2.1e-06,
  "EchoTime": 0.037,
  "EchoTrainLength": 104,
  "EffectiveEchoSpacing": 0.000560011,
  "FlipAngle": 52,
  "HeudiconvVersion": "0.5.3.post811+g6206e14",
  "ImageComments": "Unaliased MB4/PE3/LB",
  "ImageOrientationPatientDICOM": [0.99942, -0.0307991, 0.0145336, 0.0340273, 0.920597, -0.389028],
  "ImageOrientationText": "Tra>Cor(-22.9)>Sag(0.1)",
  "ImageType": [
    "ORIGINAL",
    "PRIMARY",
    "M",
    "MB",
    "ND",
    "MOSAIC"
],
  "ImagingFrequency": 123.259,
  "InPlanePhaseEncodingDirectionDICOM": "COL",
  "InstitutionAddress": "Chemin Queen-Mary 4565,Montreal,District,CA,H3W 1W5",
  "InstitutionName": "IUGM",
  "InstitutionalDepartmentName": "Department",
  "MRAcquisitionType": "2D",
  "MagneticFieldStrength": 3,
  "Manufacturer": "Siemens",
  "ManufacturersModelName": "Prisma_fit",
  "MatrixCoilMode": "SENSE",
  "Modality": "MR",
  "MultibandAccelerationFactor": 4,
  "PartialFourier": 1,
  "PatientPosition": "HFS",
  "PercentPhaseFOV": 100,
  "PercentSampling": 100,
  "PhaseEncodingDirection": "j",
  "PhaseEncodingSteps": 104,
  "PhaseResolution": 1,
  "PixelBandwidth": 2290,
  "ProcedureStepDescription": "games^mario3",
  "ProtocolName": "func_task-mario3_run-01",
  "PulseSequenceDetails": "%CustomerSeq%\\cmrr_mbep2d_bold",
  "ReceiveCoilActiveElements": "HC1-7;NC1,2",
  "ReceiveCoilName": "HeadNeck_64",
  "ReconMatrixPE": 104,
  "RepetitionTime": 1.49,
  "SAR": 0.0573551,
  "ScanOptions": "FS",
  "ScanningSequence": "EP",
  "SequenceName": "epfid2d1_104",
  "SequenceVariant": "SK\\SS",
  "SeriesDescription": "func_task-mario3_run-01",
  "SeriesNumber": 10,
  "ShimSetting": [585, -7292, -8813, 375, 24, -372, -69, 94],
  "SliceThickness": 2,
  "SliceTiming": [0, 0.785, 0.0975, 0.8825, 0.1975, 0.98, 0.295, 1.0775, 0.3925, 1.175, 0.49, 1.275, 0.5875, 1.3725, 0.685, 0, 0.785, 0.0975, 0.8825, 0.1975, 0.98, 0.295, 1.0775, 0.3925, 1.175, 0.49, 1.275, 0.5875, 1.3725, 0.685, 0, 0.785, 0.0975, 0.8825, 0.1975, 0.98, 0.295, 1.0775, 0.3925, 1.175, 0.49, 1.275, 0.5875, 1.3725, 0.685, 0, 0.785, 0.0975, 0.8825, 0.1975, 0.98, 0.295, 1.0775, 0.3925, 1.175, 0.49, 1.275, 0.5875, 1.3725, 0.685],
  "SoftwareVersions": "syngo MR E11",
  "SpacingBetweenSlices": 2,
  "StationName": "MRC35049",
  "TaskName": "mario3",
  "TotalReadoutTime": 0.0576811,
  "TxRefAmp": 266.736,
  "WipMemBlock": "270c6190-7a4c-40a7-b72c-e99c91c43e75||Sequence: R017 ve11c/master r/75a17815+; Jun 28 2022 16:32:11 by eja",
  "dcmmeta_affine": [
    [-1.9988398551940918, 0.06805466115474701, 0.0027957772836089134, 101.31775665283203],
    [0.0615982860326767, 1.8411946296691895, -0.7785934805870056, -71.13552856445312],
    [0.02906724251806736, 0.778055727481842, 1.8422226905822754, -63.43790817260742],
    [0.0, 0.0, 0.0, 1.0]
],
  "dcmmeta_reorient_transform": [
    [0.0, -1.0, 0.0, 103.0],
    [1.0, 0.0, 0.0, 0.0],
    [0.0, 0.0, 1.0, 0.0],
    [0.0, 0.0, 0.0, 1.0]
],
  "dcmmeta_shape": [104, 104, 60, 333],
  "dcmmeta_slice_dim": 2,
  "dcmmeta_version": 0.6,
  "global": {
    "const": {
      "AcquisitionMatrix": [104, 0, 0, 104],
      "AngioFlag": "N",
      "BitsAllocated": 16,
      "BitsStored": 16,
      "BodyPartExamined": "BRAIN",
      "Columns": 832,
      "EchoNumbers": 1,
      "EchoTime": 37.0,
      "EchoTrainLength": 104,
      "FlipAngle": 52.0,
      "HighBit": 15,
      "ImageOrientationPatient": [0.99941992506129, -0.030799143342, 0.01453362170567, 0.0340273316325, 0.92059734009449, -0.3890278629005],
      "ImagePositionPatient": [-860.6769912441, -766.2806074648, 289.33363944497],
      "ImageType": [
        "ORIGINAL",
        "PRIMARY",
        "M",
        "MB",
        "ND",
        "MOSAIC"
],
      "ImagedNucleus": "1H",
      "ImagingFrequency": 123.258837,
      "InPlanePhaseEncodingDirection": "COL",
      "MRAcquisitionType": "2D",
      "MagneticFieldStrength": 3.0,
      "Manufacturer": "SIEMENS",
      "ManufacturerModelName": "Prisma_fit",
      "Modality": "MR",
      "NumberOfAverages": 1.0,
      "NumberOfPhaseEncodingSteps": 104,
      "PercentPhaseFieldOfView": 100.0,
      "PercentSampling": 100.0,
      "PerformedProcedureStepStartTime": "180629.274000",
      "PhotometricInterpretation": "MONOCHROME2",
      "PixelBandwidth": 2290.0,
      "PixelRepresentation": 0,
      "PixelSpacing": [2.0, 2.0],
      "ProtocolName": "func_task-mario3_run-01",
      "RepetitionTime": 1490.0,
      "Rows": 832,
      "SAR": 0.05735512673251,
      "SamplesPerPixel": 1,
      "ScanOptions": "FS",
      "ScanningSequence": "EP",
      "SequenceName": "epfid2d1_104",
      "SequenceVariant": [
        "SK",
        "SS"
],
      "SeriesDescription": "func_task-mario3_run-01",
      "SeriesNumber": 10,
      "SeriesTime": "181116.552000",
      "SliceLocation": -30.598914754205,
      "SliceThickness": 2.0,
      "SmallestImagePixelValue": 0,
      "SoftwareVersions": "syngo MR E11",
      "SpacingBetweenSlices": 2.0000000548805,
      "SpecificCharacterSet": "ISO_IR 100",
      "StudyID": "1",
      "StudyTime": "180629.186000",
      "TransmitCoilName": "Body",
      "VariableFlipAngleFlag": "N",
      "WindowCenterWidthExplanation": "Algo1",
      "dBdt": 0.0},
    "slices": {}
  },
  "time": {
    "samples": {
      "AcquisitionNumber": [1, 2, 3, 4, 5, 6, 7, 8, 9, 10, 11, 12, 13, 14, 15, 16, 17, 18, 19, 20, 21, 22, 23, 24, 25, 26, 27, 28, 29, 30, 31, 32, 33, 34, 35, 36, 37, 38, 39, 40, 41, 42, 43, 44, 45, 46, 47, 48, 49, 50, 51, 52, 53, 54, 55, 56, 57, 58, 59, 60, 61, 62, 63, 64, 65, 66, 67, 68, 69, 70, 71, 72, 73, 74, 75, 76, 77, 78, 79, 80, 81, 82, 83, 84, 85, 86, 87, 88, 89, 90, 91, 92, 93, 94, 95, 96, 97, 98, 99, 100, 101, 102, 103, 104, 105, 106, 107, 108, 109, 110, 111, 112, 113, 114, 115, 116, 117, 118, 119, 120, 121, 122, 123, 124, 125, 126, 127, 128, 129, 130, 131, 132, 133, 134, 135, 136, 137, 138, 139, 140, 141, 142, 143, 144, 145, 146, 147, 148, 149, 150, 151, 152, 153, 154, 155, 156, 157, 158, 159, 160, 161, 162, 163, 164, 165, 166, 167, 168, 169, 170, 171, 172, 173, 174, 175, 176, 177, 178, 179, 180, 181, 182, 183, 184, 185, 186, 187, 188, 189, 190, 191, 192, 193, 194, 195, 196, 197, 198, 199, 200, 201, 202, 203, 204, 205, 206, 207, 208, 209, 210, 211, 212, 213, 214, 215, 216, 217, 218, 219, 220, 221, 222, 223, 224, 225, 226, 227, 228, 229, 230, 231, 232, 233, 234, 235, 236, 237, 238, 239, 240, 241, 242, 243, 244, 245, 246, 247, 248, 249, 250, 251, 252, 253, 254, 255, 256, 257, 258, 259, 260, 261, 262, 263, 264, 265, 266, 267, 268, 269, 270, 271, 272, 273, 274, 275, 276, 277, 278, 279, 280, 281, 282, 283, 284, 285, 286, 287, 288, 289, 290, 291, 292, 293, 294, 295, 296, 297, 298, 299, 300, 301, 302, 303, 304, 305, 306, 307, 308, 309, 310, 311, 312, 313, 314, 315, 316, 317, 318, 319, 320, 321, 322, 323, 324, 325, 326, 327, 328, 329, 330, 331, 332, 333],
      "AcquisitionTime": ["181005.157500", "181006.647500", "181008.137500", "181009.627500", "181011.117500", "181012.607500", "181014.097500", "181015.587500", "181017.077500", "181018.567500", "181020.057500", "181021.547500", "181023.037500", "181024.527500", "181026.017500", "181027.507500", "181028.997500", "181030.487500", "181031.977500", "181033.467500", "181034.957500", "181036.447500", "181037.937500", "181039.427500", "181040.917500", "181042.407500", "181043.897500", "181045.387500", "181046.877500", "181048.367500", "181049.857500", "181051.347500", "181052.837500", "181054.327500", "181055.817500", "181057.307500", "181058.797500", "181100.287500", "181101.777500", "181103.267500", "181104.757500", "181106.247500", "181107.737500", "181109.227500", "181110.717500", "181112.207500", "181113.697500", "181115.187500", "181116.677500", "181118.167500", "181119.657500", "181121.147500", "181122.637500", "181124.127500", "181125.617500", "181127.107500", "181128.597500", "181130.087500", "181131.577500", "181133.067500", "181134.557500", "181136.047500", "181137.537500", "181139.027500", "181140.517500", "181142.007500", "181143.497500", "181144.987500", "181146.477500", "181147.967500", "181149.457500", "181150.947500", "181152.437500", "181153.927500", "181155.417500", "181156.907500", "181158.397500", "181159.887500", "181201.377500", "181202.867500", "181204.357500", "181205.847500", "181207.337500", "181208.827500", "181210.317500", "181211.807500", "181213.297500", "181214.787500", "181216.277500", "181217.767500", "181219.257500", "181220.747500", "181222.237500", "181223.727500", "181225.217500", "181226.707500", "181228.197500", "181229.687500", "181231.177500", "181232.667500", "181234.157500", "181235.647500", "181237.137500", "181238.627500", "181240.117500", "181241.607500", "181243.097500", "181244.587500", "181246.077500", "181247.567500", "181249.057500", "181250.547500", "181252.037500", "181253.527500", "181255.017500", "181256.507500", "181257.997500", "181259.487500", "181300.977500", "181302.467500", "181303.957500", "181305.447500", "181306.937500", "181308.427500", "181309.917500", "181311.407500", "181312.897500", "181314.387500", "181315.877500", "181317.367500", "181318.857500", "181320.347500", "181321.837500", "181323.327500", "181324.817500", "181326.307500", "181327.797500", "181329.287500", "181330.777500", "181332.267500", "181333.757500", "181335.247500", "181336.737500", "181338.227500", "181339.717500", "181341.207500", "181342.697500", "181344.187500", "181345.677500", "181347.167500", "181348.657500", "181350.147500", "181351.637500", "181353.127500", "181354.617500", "181356.107500", "181357.597500", "181359.087500", "181400.577500", "181402.067500", "181403.557500", "181405.047500", "181406.537500", "181408.027500", "181409.517500", "181411.007500", "181412.497500", "181413.987500", "181415.477500", "181416.967500", "181418.457500", "181419.947500", "181421.437500", "181422.927500", "181424.417500", "181425.907500", "181427.397500", "181428.887500", "181430.377500", "181431.867500", "181433.357500", "181434.847500", "181436.337500", "181437.827500", "181439.317500", "181440.807500", "181442.297500", "181443.787500", "181445.277500", "181446.767500", "181448.257500", "181449.747500", "181451.237500", "181452.727500", "181454.217500", "181455.707500", "181457.197500", "181458.687500", "181500.177500", "181501.667500", "181503.157500", "181504.647500", "181506.137500", "181507.627500", "181509.117500", "181510.607500", "181512.097500", "181513.587500", "181515.077500", "181516.567500", "181518.057500", "181519.547500", "181521.037500", "181522.527500", "181524.017500", "181525.507500", "181526.997500", "181528.487500", "181529.977500", "181531.467500", "181532.957500", "181534.447500", "181535.937500", "181537.427500", "181538.917500", "181540.407500", "181541.897500", "181543.387500", "181544.877500", "181546.367500", "181547.857500", "181549.347500", "181550.837500", "181552.327500", "181553.817500", "181555.307500", "181556.797500", "181558.287500", "181559.777500", "181601.267500", "181602.757500", "181604.247500", "181605.737500", "181607.227500", "181608.717500", "181610.207500", "181611.697500", "181613.187500", "181614.677500", "181616.167500", "181617.657500", "181619.147500", "181620.637500", "181622.127500", "181623.617500", "181625.107500", "181626.597500", "181628.087500", "181629.577500", "181631.067500", "181632.557500", "181634.047500", "181635.537500", "181637.027500", "181638.517500", "181640.007500", "181641.497500", "181642.987500", "181644.477500", "181645.967500", "181647.457500", "181648.947500", "181650.437500", "181651.927500", "181653.417500", "181654.907500", "181656.397500", "181657.887500", "181659.377500", "181700.867500", "181702.357500", "181703.847500", "181705.337500", "181706.827500", "181708.317500", "181709.807500", "181711.297500", "181712.787500", "181714.277500", "181715.767500", "181717.257500", "181718.747500", "181720.237500", "181721.727500", "181723.217500", "181724.707500", "181726.197500", "181727.687500", "181729.177500", "181730.667500", "181732.157500", "181733.647500", "181735.137500", "181736.627500", "181738.117500", "181739.607500", "181741.097500", "181742.587500", "181744.077500", "181745.567500", "181747.057500", "181748.547500", "181750.037500", "181751.527500", "181753.017500", "181754.507500", "181755.997500", "181757.487500", "181758.977500", "181800.467500", "181801.957500", "181803.447500", "181804.937500", "181806.427500", "181807.917500", "181809.407500", "181810.897500", "181812.387500", "181813.877500", "181815.367500", "181816.857500", "181818.347500", "181819.837500"],
      "ContentTime": ["181116.555000", "181116.559000", "181116.562000", "181116.566000", "181116.569000", "181116.572000", "181116.575000", "181116.579000", "181116.582000", "181116.585000", "181116.592000", "181116.596000", "181116.599000", "181116.602000", "181116.606000", "181116.609000", "181116.612000", "181116.615000", "181116.619000", "181116.622000", "181116.625000", "181116.628000", "181136.513000", "181136.517000", "181136.520000", "181136.523000", "181136.526000", "181136.530000", "181136.533000", "181136.536000", "181136.539000", "181136.542000", "181136.546000", "181136.549000", "181136.552000", "181136.555000", "181136.559000", "181136.562000", "181136.565000", "181136.569000", "181136.572000", "181136.575000", "181156.513000", "181156.516000", "181156.520000", "181156.523000", "181156.526000", "181156.529000", "181156.533000", "181156.536000", "181156.539000", "181156.542000", "181156.546000", "181156.549000", "181156.552000", "181156.555000", "181156.559000", "181156.562000", "181156.566000", "181156.569000", "181156.573000", "181156.584000", "181156.588000", "181216.512000", "181216.515000", "181216.519000", "181216.522000", "181216.525000", "181216.529000", "181216.532000", "181216.535000", "181216.550000", "181216.554000", "181216.558000", "181216.561000", "181216.564000", "181216.567000", "181216.571000", "181216.574000", "181216.577000", "181216.580000", "181216.583000", "181216.587000", "181256.512000", "181256.516000", "181256.519000", "181256.522000", "181256.525000", "181256.529000", "181256.532000", "181256.536000", "181256.539000", "181256.542000", "181256.546000", "181256.549000", "181256.552000", "181256.556000", "181256.559000", "181256.563000", "181256.566000", "181256.569000", "181256.573000", "181256.576000", "181256.579000", "181256.582000", "181256.586000", "181256.589000", "181256.592000", "181256.596000", "181256.599000", "181256.609000", "181256.612000", "181256.616000", "181256.619000", "181336.512000", "181336.516000", "181336.519000", "181336.522000", "181336.525000", "181336.529000", "181336.532000", "181336.535000", "181336.538000", "181336.542000", "181336.545000", "181336.548000", "181336.551000", "181336.555000", "181336.558000", "181336.561000", "181336.564000", "181336.568000", "181336.571000", "181336.575000", "181336.578000", "181336.581000", "181336.584000", "181336.587000", "181336.591000", "181336.594000", "181336.597000", "181416.513000", "181416.517000", "181416.520000", "181416.523000", "181416.527000", "181416.530000", "181416.533000", "181416.536000", "181416.540000", "181416.543000", "181416.546000", "181416.549000", "181416.553000", "181416.556000", "181416.559000", "181416.562000", "181416.566000", "181416.569000", "181416.572000", "181416.576000", "181416.579000", "181416.582000", "181416.586000", "181416.589000", "181416.593000", "181416.596000", "181416.599000", "181456.526000", "181456.530000", "181456.533000", "181456.537000", "181456.540000", "181456.544000", "181456.547000", "181456.551000", "181456.555000", "181456.558000", "181456.561000", "181456.565000", "181456.568000", "181456.572000", "181456.575000", "181456.578000", "181456.581000", "181456.585000", "181456.588000", "181456.591000", "181456.594000", "181456.598000", "181456.601000", "181456.604000", "181456.607000", "181456.611000", "181536.512000", "181536.516000", "181536.519000", "181536.523000", "181536.526000", "181536.529000", "181536.533000", "181536.536000", "181536.540000", "181536.543000", "181536.547000", "181536.550000", "181536.554000", "181536.557000", "181536.560000", "181536.564000", "181536.567000", "181536.570000", "181536.574000", "181536.577000", "181536.580000", "181536.584000", "181536.587000", "181536.590000", "181536.593000", "181536.597000", "181536.600000", "181616.513000", "181616.517000", "181616.520000", "181616.523000", "181616.527000", "181616.530000", "181616.534000", "181616.537000", "181616.540000", "181616.544000", "181616.547000", "181616.550000", "181616.554000", "181616.557000", "181616.560000", "181616.563000", "181616.567000", "181616.570000", "181616.573000", "181616.577000", "181616.580000", "181616.584000", "181616.587000", "181616.590000", "181616.593000", "181616.597000", "181616.600000", "181656.512000", "181656.516000", "181656.519000", "181656.522000", "181656.526000", "181656.552000", "181656.555000", "181656.559000", "181656.562000", "181656.565000", "181656.569000", "181656.572000", "181656.575000", "181656.579000", "181656.582000", "181656.585000", "181656.588000", "181656.592000", "181656.595000", "181656.598000", "181656.602000", "181656.605000", "181656.608000", "181656.611000", "181656.615000", "181656.618000", "181656.621000", "181736.512000", "181736.516000", "181736.519000", "181736.522000", "181736.526000", "181736.529000", "181736.532000", "181736.535000", "181736.539000", "181736.542000", "181736.545000", "181736.549000", "181736.552000", "181736.555000", "181736.559000", "181736.562000", "181736.566000", "181736.569000", "181736.572000", "181736.576000", "181736.580000", "181736.583000", "181736.586000", "181736.590000", "181736.593000", "181736.601000", "181736.605000", "181816.512000", "181816.516000", "181816.519000", "181816.526000", "181816.530000", "181816.533000", "181816.536000", "181816.539000", "181816.543000", "181816.546000", "181816.549000", "181816.553000", "181816.556000", "181816.559000", "181816.562000", "181816.566000", "181816.569000", "181816.572000", "181816.576000", "181816.579000", "181816.582000", "181816.585000", "181816.589000", "181816.592000", "181816.596000", "181816.599000", "181816.602000", "181823.276000", "181823.280000", "181823.284000", "181823.287000"],
      "InstanceCreationTime": ["181116.555000", "181116.559000", "181116.562000", "181116.566000", "181116.569000", "181116.572000", "181116.575000", "181116.579000", "181116.582000", "181116.585000", "181116.592000", "181116.596000", "181116.599000", "181116.602000", "181116.606000", "181116.609000", "181116.612000", "181116.615000", "181116.619000", "181116.622000", "181116.625000", "181116.628000", "181136.513000", "181136.517000", "181136.520000", "181136.523000", "181136.526000", "181136.530000", "181136.533000", "181136.536000", "181136.539000", "181136.542000", "181136.546000", "181136.549000", "181136.552000", "181136.555000", "181136.559000", "181136.562000", "181136.565000", "181136.569000", "181136.572000", "181136.575000", "181156.513000", "181156.516000", "181156.520000", "181156.523000", "181156.526000", "181156.529000", "181156.533000", "181156.536000", "181156.539000", "181156.542000", "181156.546000", "181156.549000", "181156.552000", "181156.555000", "181156.559000", "181156.562000", "181156.566000", "181156.569000", "181156.573000", "181156.584000", "181156.588000", "181216.512000", "181216.515000", "181216.519000", "181216.522000", "181216.525000", "181216.529000", "181216.532000", "181216.535000", "181216.550000", "181216.554000", "181216.558000", "181216.561000", "181216.564000", "181216.567000", "181216.571000", "181216.574000", "181216.577000", "181216.580000", "181216.583000", "181216.587000", "181256.512000", "181256.516000", "181256.519000", "181256.522000", "181256.525000", "181256.529000", "181256.532000", "181256.536000", "181256.539000", "181256.542000", "181256.546000", "181256.549000", "181256.552000", "181256.556000", "181256.559000", "181256.563000", "181256.566000", "181256.569000", "181256.573000", "181256.576000", "181256.579000", "181256.582000", "181256.586000", "181256.589000", "181256.592000", "181256.596000", "181256.599000", "181256.609000", "181256.612000", "181256.616000", "181256.619000", "181336.512000", "181336.516000", "181336.519000", "181336.522000", "181336.525000", "181336.529000", "181336.532000", "181336.535000", "181336.538000", "181336.542000", "181336.545000", "181336.548000", "181336.551000", "181336.555000", "181336.558000", "181336.561000", "181336.564000", "181336.568000", "181336.571000", "181336.575000", "181336.578000", "181336.581000", "181336.584000", "181336.587000", "181336.591000", "181336.594000", "181336.597000", "181416.513000", "181416.517000", "181416.520000", "181416.523000", "181416.527000", "181416.530000", "181416.533000", "181416.536000", "181416.540000", "181416.543000", "181416.546000", "181416.549000", "181416.553000", "181416.556000", "181416.559000", "181416.562000", "181416.566000", "181416.569000", "181416.572000", "181416.576000", "181416.579000", "181416.582000", "181416.586000", "181416.589000", "181416.593000", "181416.596000", "181416.599000", "181456.526000", "181456.530000", "181456.533000", "181456.537000", "181456.540000", "181456.544000", "181456.547000", "181456.551000", "181456.555000", "181456.558000", "181456.561000", "181456.565000", "181456.568000", "181456.572000", "181456.575000", "181456.578000", "181456.581000", "181456.585000", "181456.588000", "181456.591000", "181456.594000", "181456.598000", "181456.601000", "181456.604000", "181456.607000", "181456.611000", "181536.512000", "181536.516000", "181536.519000", "181536.523000", "181536.526000", "181536.529000", "181536.533000", "181536.536000", "181536.540000", "181536.543000", "181536.547000", "181536.550000", "181536.554000", "181536.557000", "181536.560000", "181536.564000", "181536.567000", "181536.570000", "181536.574000", "181536.577000", "181536.580000", "181536.584000", "181536.587000", "181536.590000", "181536.593000", "181536.597000", "181536.600000", "181616.513000", "181616.517000", "181616.520000", "181616.523000", "181616.527000", "181616.530000", "181616.534000", "181616.537000", "181616.540000", "181616.544000", "181616.547000", "181616.550000", "181616.554000", "181616.557000", "181616.560000", "181616.563000", "181616.567000", "181616.570000", "181616.573000", "181616.577000", "181616.580000", "181616.584000", "181616.587000", "181616.590000", "181616.593000", "181616.597000", "181616.600000", "181656.512000", "181656.516000", "181656.519000", "181656.522000", "181656.526000", "181656.552000", "181656.555000", "181656.559000", "181656.562000", "181656.565000", "181656.569000", "181656.572000", "181656.575000", "181656.579000", "181656.582000", "181656.585000", "181656.588000", "181656.592000", "181656.595000", "181656.598000", "181656.602000", "181656.605000", "181656.608000", "181656.611000", "181656.615000", "181656.618000", "181656.621000", "181736.512000", "181736.516000", "181736.519000", "181736.522000", "181736.526000", "181736.529000", "181736.532000", "181736.535000", "181736.539000", "181736.542000", "181736.545000", "181736.549000", "181736.552000", "181736.555000", "181736.559000", "181736.562000", "181736.566000", "181736.569000", "181736.572000", "181736.576000", "181736.580000", "181736.583000", "181736.586000", "181736.590000", "181736.593000", "181736.601000", "181736.605000", "181816.512000", "181816.516000", "181816.519000", "181816.526000", "181816.530000", "181816.533000", "181816.536000", "181816.539000", "181816.543000", "181816.546000", "181816.549000", "181816.553000", "181816.556000", "181816.559000", "181816.562000", "181816.566000", "181816.569000", "181816.572000", "181816.576000", "181816.579000", "181816.582000", "181816.585000", "181816.589000", "181816.592000", "181816.596000", "181816.599000", "181816.602000", "181823.276000", "181823.280000", "181823.284000", "181823.287000"],
      "InstanceNumber": [1, 2, 3, 4, 5, 6, 7, 8, 9, 10, 11, 12, 13, 14, 15, 16, 17, 18, 19, 20, 21, 22, 23, 24, 25, 26, 27, 28, 29, 30, 31, 32, 33, 34, 35, 36, 37, 38, 39, 40, 41, 42, 43, 44, 45, 46, 47, 48, 49, 50, 51, 52, 53, 54, 55, 56, 57, 58, 59, 60, 61, 62, 63, 64, 65, 66, 67, 68, 69, 70, 71, 72, 73, 74, 75, 76, 77, 78, 79, 80, 81, 82, 83, 84, 85, 86, 87, 88, 89, 90, 91, 92, 93, 94, 95, 96, 97, 98, 99, 100, 101, 102, 103, 104, 105, 106, 107, 108, 109, 110, 111, 112, 113, 114, 115, 116, 117, 118, 119, 120, 121, 122, 123, 124, 125, 126, 127, 128, 129, 130, 131, 132, 133, 134, 135, 136, 137, 138, 139, 140, 141, 142, 143, 144, 145, 146, 147, 148, 149, 150, 151, 152, 153, 154, 155, 156, 157, 158, 159, 160, 161, 162, 163, 164, 165, 166, 167, 168, 169, 170, 171, 172, 173, 174, 175, 176, 177, 178, 179, 180, 181, 182, 183, 184, 185, 186, 187, 188, 189, 190, 191, 192, 193, 194, 195, 196, 197, 198, 199, 200, 201, 202, 203, 204, 205, 206, 207, 208, 209, 210, 211, 212, 213, 214, 215, 216, 217, 218, 219, 220, 221, 222, 223, 224, 225, 226, 227, 228, 229, 230, 231, 232, 233, 234, 235, 236, 237, 238, 239, 240, 241, 242, 243, 244, 245, 246, 247, 248, 249, 250, 251, 252, 253, 254, 255, 256, 257, 258, 259, 260, 261, 262, 263, 264, 265, 266, 267, 268, 269, 270, 271, 272, 273, 274, 275, 276, 277, 278, 279, 280, 281, 282, 283, 284, 285, 286, 287, 288, 289, 290, 291, 292, 293, 294, 295, 296, 297, 298, 299, 300, 301, 302, 303, 304, 305, 306, 307, 308, 309, 310, 311, 312, 313, 314, 315, 316, 317, 318, 319, 320, 321, 322, 323, 324, 325, 326, 327, 328, 329, 330, 331, 332, 333],
      "LargestImagePixelValue": [63234, 61184, 60424, 59712, 59277, 58908, 59146, 58956, 59727, 58438, 59176, 59561, 58780, 58577, 58377, 58882, 58827, 58313, 58779, 58259, 58205, 57852, 57691, 58946, 57958, 58597, 57879, 58352, 57588, 57183, 58927, 57889, 58198, 57759, 58230, 58399, 58433, 59063, 58394, 58979, 58819, 58795, 58413, 58764, 58163, 58670, 58459, 58317, 59123, 58036, 58615, 58782, 59236, 58460, 58721, 58171, 58240, 58386, 58757, 58451, 59043, 58644, 58513, 58253, 58357, 57949, 58231, 58726, 58403, 58341, 58384, 58791, 59001, 58855, 58776, 59031, 58778, 59075, 58625, 59049, 58593, 59144, 58368, 58537, 58150, 58625, 58721, 58385, 58753, 59509, 58907, 59056, 58675, 59203, 58819, 58469, 59200, 58405, 58991, 58575, 57691, 58576, 57637, 58126, 57876, 58339, 57930, 58213, 58021, 59303, 57986, 58850, 58197, 58319, 59834, 59378, 59417, 58175, 56970, 57954, 58939, 58110, 58680, 58437, 58792, 58658, 59041, 57997, 58631, 59157, 58320, 59064, 58439, 58716, 57828, 58512, 58497, 58997, 58768, 59029, 58761, 58710, 58371, 58893, 58489, 58757, 58387, 58476, 58317, 58266, 58259, 58249, 59289, 58376, 59054, 58066, 58745, 58116, 58891, 57940, 59066, 58181, 58899, 58451, 58895, 58337, 58928, 59230, 58566, 58114, 57637, 57771, 58183, 58085, 58986, 58719, 59239, 58984, 58178, 58578, 58447, 58173, 58386, 58049, 58526, 58536, 58435, 58673, 58012, 58067, 58370, 58026, 57531, 58038, 58154, 57112, 58529, 57987, 58575, 57802, 58498, 59036, 58529, 58445, 58146, 58044, 58111, 58147, 57500, 58295, 57665, 56352, 57483, 56775, 57314, 57052, 57590, 58017, 58878, 58409, 57295, 56816, 56228, 56780, 56908, 57406, 58410, 58304, 58616, 57938, 58366, 58075, 58129, 58395, 58342, 57770, 59236, 58428, 58757, 58718, 58183, 58850, 57836, 58570, 57935, 58249, 58043, 57174, 58284, 57686, 58301, 57030, 57624, 57698, 57382, 57865, 56980, 57473, 56952, 56675, 57132, 57454, 57456, 57149, 56862, 56801, 57296, 57016, 56649, 56660, 56902, 56739, 56986, 57319, 56648, 57555, 57546, 57674, 57717, 57242, 57588, 57451, 57571, 57549, 57386, 56935, 57345, 56888, 57266, 57499, 57092, 57224, 57905, 57491, 57884, 56895, 57702, 57105, 56882, 56682, 56761, 56111, 56319, 56545, 56707, 57307, 56699, 56891, 56753, 57928, 58125, 58328, 58059, 57072, 56930, 56564, 56558, 56462, 57036, 56883, 57015, 57419, 57051, 56739, 56420, 56236, 56338, 56202, 56286, 56405, 56226, 56704, 56088],
