{
  "AcquisitionMatrixPE": 104,
  "AcquisitionNumber": 1,
  "AcquisitionTime": "16:16:46.475000",
  "BandwidthPerPixelPhaseEncode": 17.17,
  "BaseResolution": 104,
  "BodyPartExamined": "BRAIN",
  "CoilCombinationMethod": "Sum of Squares",
  "ConsistencyInfo": "N4_VE11C_LATEST_20160120",
  "ConversionSoftware": "dcm2niix",
  "ConversionSoftwareVersion": "v1.0.20220505",
  "DerivedVendorReportedEchoSpacing": 0.000560011,
  "DeviceSerialNumber": "167006",
  "DwellTime": 2.1e-06,
  "EchoTime": 0.037,
  "EchoTrainLength": 104,
  "EffectiveEchoSpacing": 0.000560011,
  "FlipAngle": 52,
  "HeudiconvVersion": "0.5.3.post811+g6206e14",
  "ImageComments": "Unaliased MB4/PE3/LB",
  "ImageOrientationPatientDICOM": [0.999287, -0.0377577, 0.000458971, 0.035769, 0.942619, -0.331948],
  "ImageOrientationText": "Tra>Cor(-19.4)>Sag(-0.7)",
  "ImageType": [
    "ORIGINAL",
    "PRIMARY",
    "M",
    "MB",
    "ND",
    "MOSAIC"
],
  "ImagingFrequency": 123.259,
  "InPlanePhaseEncodingDirectionDICOM": "COL",
  "InstitutionAddress": "Chemin Queen-Mary 4565,Montreal,District,CA,H3W 1W5",
  "InstitutionName": "IUGM",
  "InstitutionalDepartmentName": "Department",
  "MRAcquisitionType": "2D",
  "MagneticFieldStrength": 3,
  "Manufacturer": "Siemens",
  "ManufacturersModelName": "Prisma_fit",
  "MatrixCoilMode": "SENSE",
  "Modality": "MR",
  "MultibandAccelerationFactor": 4,
  "PartialFourier": 1,
  "PatientPosition": "HFS",
  "PercentPhaseFOV": 100,
  "PercentSampling": 100,
  "PhaseEncodingDirection": "j",
  "PhaseEncodingSteps": 104,
  "PhaseResolution": 1,
  "PixelBandwidth": 2290,
  "ProcedureStepDescription": "games^mario3",
  "ProtocolName": "func_task-mario3_run-03",
  "PulseSequenceDetails": "%CustomerSeq%\\cmrr_mbep2d_bold",
  "ReceiveCoilActiveElements": "HC1-7;NC1,2",
  "ReceiveCoilName": "HeadNeck_64",
  "ReconMatrixPE": 104,
  "RepetitionTime": 1.49,
  "SAR": 0.0655465,
  "ScanOptions": "FS",
  "ScanningSequence": "EP",
  "SequenceName": "epfid2d1_104",
  "SequenceVariant": "SK\\SS",
  "SeriesDescription": "func_task-mario3_run-03",
  "SeriesNumber": 16,
  "ShimSetting": [618, -7254, -8843, 562, 8, -232, -47, -34],
  "SliceThickness": 2,
  "SliceTiming": [0, 0.785, 0.1, 0.8825, 0.1975, 0.98, 0.295, 1.0775, 0.3925, 1.1775, 0.49, 1.275, 0.59, 1.3725, 0.6875, 0, 0.785, 0.1, 0.8825, 0.1975, 0.98, 0.295, 1.0775, 0.3925, 1.1775, 0.49, 1.275, 0.59, 1.3725, 0.6875, 0, 0.785, 0.1, 0.8825, 0.1975, 0.98, 0.295, 1.0775, 0.3925, 1.1775, 0.49, 1.275, 0.59, 1.3725, 0.6875, 0, 0.785, 0.1, 0.8825, 0.1975, 0.98, 0.295, 1.0775, 0.3925, 1.1775, 0.49, 1.275, 0.59, 1.3725, 0.6875],
  "SoftwareVersions": "syngo MR E11",
  "SpacingBetweenSlices": 2,
  "StationName": "MRC35049",
  "TaskName": "mario3",
  "TotalReadoutTime": 0.0576811,
  "TxRefAmp": 271.29,
  "WipMemBlock": "7c78bf00-5b22-4313-b656-0a10163acf41||Sequence: R017 ve11c/master r/75a17815+; Jun 28 2022 16:32:11 by eja",
  "dcmmeta_affine": [
    [-1.998573660850525, 0.07153793424367905, -0.02420191653072834, 103.03850555419922],
    [0.07551533728837967, 1.8852382898330688, -0.6634559631347656, -68.8121566772461],
    [0.0009179428452625871, 0.6638966202735901, 1.8865948915481567, -73.0420150756836],
    [0.0, 0.0, 0.0, 1.0]
],
  "dcmmeta_reorient_transform": [
    [0.0, -1.0, 0.0, 103.0],
    [1.0, 0.0, 0.0, 0.0],
    [0.0, 0.0, 1.0, 0.0],
    [0.0, 0.0, 0.0, 1.0]
],
  "dcmmeta_shape": [104, 104, 60, 472],
  "dcmmeta_slice_dim": 2,
  "dcmmeta_version": 0.6,
  "global": {
    "const": {
      "AcquisitionMatrix": [104, 0, 0, 104],
      "AngioFlag": "N",
      "BitsAllocated": 16,
      "BitsStored": 16,
      "BodyPartExamined": "BRAIN",
      "Columns": 832,
      "EchoNumbers": 1,
      "EchoTime": 37.0,
      "EchoTrainLength": 104,
      "FlipAngle": 52.0,
      "HighBit": 15,
      "ImageOrientationPatient": [0.99928681955976, -0.0377576694112, 0.00045897143514, 0.03576896764383, 0.94261917333094, -0.3319483017318],
      "ImagePositionPatient": [-863.92752621285, -784.10657011985, 236.66356372476],
      "ImageType": [
        "ORIGINAL",
        "PRIMARY",
        "M",
        "MB",
        "ND",
        "MOSAIC"
],
      "ImagedNucleus": "1H",
      "ImagingFrequency": 123.2588,
      "InPlanePhaseEncodingDirection": "COL",
      "MRAcquisitionType": "2D",
      "MagneticFieldStrength": 3.0,
      "Manufacturer": "SIEMENS",
      "ManufacturerModelName": "Prisma_fit",
      "Modality": "MR",
      "NumberOfAverages": 1.0,
      "NumberOfPhaseEncodingSteps": 104,
      "PercentPhaseFieldOfView": 100.0,
      "PercentSampling": 100.0,
      "PerformedProcedureStepStartTime": "154440.180000",
      "PhotometricInterpretation": "MONOCHROME2",
      "PixelBandwidth": 2290.0,
      "PixelRepresentation": 0,
      "PixelSpacing": [2.0, 2.0],
      "ProtocolName": "func_task-mario3_run-03",
      "RepetitionTime": 1490.0,
      "Rows": 832,
      "SAR": 0.06554653915953,
      "SamplesPerPixel": 1,
      "ScanOptions": "FS",
      "ScanningSequence": "EP",
      "SequenceName": "epfid2d1_104",
      "SequenceVariant": [
        "SK",
        "SS"
],
      "SeriesDescription": "func_task-mario3_run-03",
      "SeriesNumber": 16,
      "SeriesTime": "161800.835000",
      "SliceLocation": -47.320299284504,
      "SliceThickness": 2.0,
      "SmallestImagePixelValue": 0,
      "SoftwareVersions": "syngo MR E11",
      "SpacingBetweenSlices": 1.9999999319679,
      "SpecificCharacterSet": "ISO_IR 100",
      "StudyID": "1",
      "StudyTime": "154440.107000",
      "TransmitCoilName": "Body",
      "VariableFlipAngleFlag": "N",
      "WindowCenterWidthExplanation": "Algo1",
      "dBdt": 0.0},
    "slices": {}
  },
  "time": {
    "samples": {
      "AcquisitionNumber": [1, 2, 3, 4, 5, 6, 7, 8, 9, 10, 11, 12, 13, 14, 15, 16, 17, 18, 19, 20, 21, 22, 23, 24, 25, 26, 27, 28, 29, 30, 31, 32, 33, 34, 35, 36, 37, 38, 39, 40, 41, 42, 43, 44, 45, 46, 47, 48, 49, 50, 51, 52, 53, 54, 55, 56, 57, 58, 59, 60, 61, 62, 63, 64, 65, 66, 67, 68, 69, 70, 71, 72, 73, 74, 75, 76, 77, 78, 79, 80, 81, 82, 83, 84, 85, 86, 87, 88, 89, 90, 91, 92, 93, 94, 95, 96, 97, 98, 99, 100, 101, 102, 103, 104, 105, 106, 107, 108, 109, 110, 111, 112, 113, 114, 115, 116, 117, 118, 119, 120, 121, 122, 123, 124, 125, 126, 127, 128, 129, 130, 131, 132, 133, 134, 135, 136, 137, 138, 139, 140, 141, 142, 143, 144, 145, 146, 147, 148, 149, 150, 151, 152, 153, 154, 155, 156, 157, 158, 159, 160, 161, 162, 163, 164, 165, 166, 167, 168, 169, 170, 171, 172, 173, 174, 175, 176, 177, 178, 179, 180, 181, 182, 183, 184, 185, 186, 187, 188, 189, 190, 191, 192, 193, 194, 195, 196, 197, 198, 199, 200, 201, 202, 203, 204, 205, 206, 207, 208, 209, 210, 211, 212, 213, 214, 215, 216, 217, 218, 219, 220, 221, 222, 223, 224, 225, 226, 227, 228, 229, 230, 231, 232, 233, 234, 235, 236, 237, 238, 239, 240, 241, 242, 243, 244, 245, 246, 247, 248, 249, 250, 251, 252, 253, 254, 255, 256, 257, 258, 259, 260, 261, 262, 263, 264, 265, 266, 267, 268, 269, 270, 271, 272, 273, 274, 275, 276, 277, 278, 279, 280, 281, 282, 283, 284, 285, 286, 287, 288, 289, 290, 291, 292, 293, 294, 295, 296, 297, 298, 299, 300, 301, 302, 303, 304, 305, 306, 307, 308, 309, 310, 311, 312, 313, 314, 315, 316, 317, 318, 319, 320, 321, 322, 323, 324, 325, 326, 327, 328, 329, 330, 331, 332, 333, 334, 335, 336, 337, 338, 339, 340, 341, 342, 343, 344, 345, 346, 347, 348, 349, 350, 351, 352, 353, 354, 355, 356, 357, 358, 359, 360, 361, 362, 363, 364, 365, 366, 367, 368, 369, 370, 371, 372, 373, 374, 375, 376, 377, 378, 379, 380, 381, 382, 383, 384, 385, 386, 387, 388, 389, 390, 391, 392, 393, 394, 395, 396, 397, 398, 399, 400, 401, 402, 403, 404, 405, 406, 407, 408, 409, 410, 411, 412, 413, 414, 415, 416, 417, 418, 419, 420, 421, 422, 423, 424, 425, 426, 427, 428, 429, 430, 431, 432, 433, 434, 435, 436, 437, 438, 439, 440, 441, 442, 443, 444, 445, 446, 447, 448, 449, 450, 451, 452, 453, 454, 455, 456, 457, 458, 459, 460, 461, 462, 463, 464, 465, 466, 467, 468, 469, 470, 471, 472],
      "AcquisitionTime": ["161646.475000", "161647.965000", "161649.455000", "161650.945000", "161652.435000", "161653.925000", "161655.415000", "161656.905000", "161658.395000", "161659.885000", "161701.375000", "161702.865000", "161704.355000", "161705.845000", "161707.335000", "161708.825000", "161710.315000", "161711.805000", "161713.295000", "161714.785000", "161716.275000", "161717.765000", "161719.255000", "161720.745000", "161722.235000", "161723.725000", "161725.215000", "161726.705000", "161728.195000", "161729.685000", "161731.175000", "161732.665000", "161734.155000", "161735.645000", "161737.135000", "161738.625000", "161740.115000", "161741.605000", "161743.095000", "161744.585000", "161746.075000", "161747.565000", "161749.055000", "161750.545000", "161752.035000", "161753.525000", "161755.015000", "161756.505000", "161757.995000", "161759.485000", "161800.975000", "161802.465000", "161803.955000", "161805.445000", "161806.935000", "161808.425000", "161809.915000", "161811.405000", "161812.895000", "161814.385000", "161815.875000", "161817.365000", "161818.855000", "161820.345000", "161821.835000", "161823.325000", "161824.815000", "161826.305000", "161827.795000", "161829.285000", "161830.775000", "161832.265000", "161833.755000", "161835.245000", "161836.735000", "161838.225000", "161839.715000", "161841.205000", "161842.695000", "161844.185000", "161845.675000", "161847.165000", "161848.655000", "161850.145000", "161851.635000", "161853.125000", "161854.615000", "161856.105000", "161857.595000", "161859.085000", "161900.575000", "161902.065000", "161903.555000", "161905.045000", "161906.535000", "161908.025000", "161909.515000", "161911.005000", "161912.495000", "161913.985000", "161915.475000", "161916.965000", "161918.455000", "161919.945000", "161921.435000", "161922.925000", "161924.415000", "161925.905000", "161927.395000", "161928.885000", "161930.375000", "161931.865000", "161933.355000", "161934.845000", "161936.335000", "161937.825000", "161939.315000", "161940.805000", "161942.295000", "161943.785000", "161945.275000", "161946.765000", "161948.255000", "161949.745000", "161951.235000", "161952.725000", "161954.215000", "161955.705000", "161957.195000", "161958.685000", "162000.175000", "162001.665000", "162003.155000", "162004.645000", "162006.135000", "162007.625000", "162009.115000", "162010.605000", "162012.095000", "162013.585000", "162015.075000", "162016.565000", "162018.055000", "162019.545000", "162021.035000", "162022.525000", "162024.015000", "162025.505000", "162026.995000", "162028.485000", "162029.975000", "162031.465000", "162032.955000", "162034.445000", "162035.935000", "162037.425000", "162038.915000", "162040.405000", "162041.895000", "162043.385000", "162044.875000", "162046.365000", "162047.855000", "162049.345000", "162050.835000", "162052.325000", "162053.815000", "162055.305000", "162056.795000", "162058.285000", "162059.775000", "162101.265000", "162102.755000", "162104.245000", "162105.735000", "162107.225000", "162108.715000", "162110.205000", "162111.695000", "162113.185000", "162114.675000", "162116.165000", "162117.655000", "162119.145000", "162120.635000", "162122.125000", "162123.615000", "162125.105000", "162126.595000", "162128.085000", "162129.575000", "162131.065000", "162132.555000", "162134.045000", "162135.535000", "162137.025000", "162138.515000", "162140.005000", "162141.495000", "162142.985000", "162144.475000", "162145.965000", "162147.455000", "162148.945000", "162150.435000", "162151.925000", "162153.415000", "162154.905000", "162156.395000", "162157.885000", "162159.375000", "162200.865000", "162202.355000", "162203.845000", "162205.335000", "162206.825000", "162208.315000", "162209.805000", "162211.295000", "162212.785000", "162214.275000", "162215.765000", "162217.255000", "162218.745000", "162220.235000", "162221.725000", "162223.215000", "162224.705000", "162226.195000", "162227.685000", "162229.175000", "162230.665000", "162232.155000", "162233.645000", "162235.135000", "162236.625000", "162238.115000", "162239.605000", "162241.095000", "162242.585000", "162244.075000", "162245.565000", "162247.055000", "162248.545000", "162250.035000", "162251.525000", "162253.015000", "162254.505000", "162255.995000", "162257.485000", "162258.975000", "162300.465000", "162301.955000", "162303.445000", "162304.935000", "162306.425000", "162307.915000", "162309.405000", "162310.895000", "162312.385000", "162313.875000", "162315.365000", "162316.855000", "162318.345000", "162319.835000", "162321.325000", "162322.815000", "162324.305000", "162325.795000", "162327.285000", "162328.775000", "162330.265000", "162331.755000", "162333.245000", "162334.735000", "162336.225000", "162337.715000", "162339.205000", "162340.695000", "162342.185000", "162343.675000", "162345.165000", "162346.655000", "162348.145000", "162349.635000", "162351.125000", "162352.615000", "162354.105000", "162355.595000", "162357.085000", "162358.575000", "162400.065000", "162401.555000", "162403.045000", "162404.535000", "162406.025000", "162407.515000", "162409.005000", "162410.495000", "162411.985000", "162413.475000", "162414.965000", "162416.455000", "162417.945000", "162419.435000", "162420.925000", "162422.415000", "162423.905000", "162425.395000", "162426.885000", "162428.375000", "162429.865000", "162431.355000", "162432.845000", "162434.335000", "162435.825000", "162437.315000", "162438.805000", "162440.295000", "162441.785000", "162443.275000", "162444.765000", "162446.255000", "162447.745000", "162449.235000", "162450.725000", "162452.215000", "162453.705000", "162455.195000", "162456.685000", "162458.175000", "162459.665000", "162501.155000", "162502.645000", "162504.135000", "162505.625000", "162507.115000", "162508.605000", "162510.095000", "162511.585000", "162513.075000", "162514.565000", "162516.055000", "162517.545000", "162519.035000", "162520.525000", "162522.015000", "162523.505000", "162524.995000", "162526.485000", "162527.975000", "162529.465000", "162530.955000", "162532.445000", "162533.935000", "162535.425000", "162536.915000", "162538.405000", "162539.895000", "162541.385000", "162542.875000", "162544.365000", "162545.855000", "162547.345000", "162548.835000", "162550.325000", "162551.815000", "162553.305000", "162554.795000", "162556.285000", "162557.775000", "162559.265000", "162600.755000", "162602.245000", "162603.735000", "162605.225000", "162606.715000", "162608.205000", "162609.695000", "162611.185000", "162612.675000", "162614.165000", "162615.655000", "162617.145000", "162618.635000", "162620.125000", "162621.615000", "162623.105000", "162624.595000", "162626.085000", "162627.575000", "162629.065000", "162630.555000", "162632.045000", "162633.535000", "162635.025000", "162636.515000", "162638.005000", "162639.495000", "162640.985000", "162642.475000", "162643.965000", "162645.455000", "162646.945000", "162648.435000", "162649.925000", "162651.415000", "162652.905000", "162654.395000", "162655.885000", "162657.375000", "162658.865000", "162700.355000", "162701.845000", "162703.335000", "162704.825000", "162706.315000", "162707.805000", "162709.295000", "162710.785000", "162712.275000", "162713.765000", "162715.255000", "162716.745000", "162718.235000", "162719.725000", "162721.215000", "162722.705000", "162724.195000", "162725.685000", "162727.175000", "162728.665000", "162730.155000", "162731.645000", "162733.135000", "162734.625000", "162736.115000", "162737.605000", "162739.095000", "162740.585000", "162742.075000", "162743.565000", "162745.055000", "162746.545000", "162748.035000", "162749.525000", "162751.015000", "162752.505000", "162753.995000", "162755.485000", "162756.975000", "162758.465000", "162759.955000", "162801.445000", "162802.935000", "162804.425000", "162805.915000", "162807.405000", "162808.895000", "162810.385000", "162811.875000", "162813.365000", "162814.855000", "162816.345000", "162817.835000", "162819.325000", "162820.815000", "162822.305000", "162823.795000", "162825.285000", "162826.775000", "162828.265000"],
      "ContentTime": ["161800.840000", "161800.847000", "161800.851000", "161800.855000", "161800.859000", "161800.862000", "161800.877000", "161800.881000", "161800.884000", "161800.887000", "161800.891000", "161800.894000", "161800.897000", "161800.900000", "161800.904000", "161800.907000", "161800.910000", "161800.913000", "161800.923000", "161800.927000", "161800.930000", "161800.933000", "161800.936000", "161800.940000", "161800.943000", "161820.796000", "161820.800000", "161820.803000", "161820.806000", "161820.810000", "161820.813000", "161820.816000", "161820.819000", "161820.823000", "161820.826000", "161820.829000", "161820.832000", "161820.836000", "161820.839000", "161820.842000", "161820.845000", "161820.849000", "161820.852000", "161820.855000", "161820.858000", "161820.862000", "161840.796000", "161840.800000", "161840.803000", "161840.806000", "161840.809000", "161840.813000", "161840.816000", "161840.819000", "161840.822000", "161840.826000", "161840.829000", "161840.832000", "161840.836000", "161840.839000", "161840.842000", "161840.846000", "161840.849000", "161840.852000", "161840.855000", "161840.859000", "161900.796000", "161900.800000", "161900.803000", "161900.806000", "161900.810000", "161900.813000", "161900.816000", "161900.819000", "161900.823000", "161900.826000", "161900.848000", "161900.851000", "161900.855000", "161900.858000", "161900.861000", "161900.864000", "161900.868000", "161900.871000", "161900.874000", "161900.877000", "161940.796000", "161940.800000", "161940.803000", "161940.806000", "161940.810000", "161940.813000", "161940.816000", "161940.819000", "161940.823000", "161940.826000", "161940.829000", "161940.833000", "161940.836000", "161940.839000", "161940.843000", "161940.846000", "161940.849000", "161940.853000", "161940.856000", "161940.859000", "161940.862000", "161940.866000", "161940.882000", "161940.885000", "161940.888000", "161940.892000", "161940.895000", "161940.898000", "161940.902000", "161940.905000", "162020.796000", "162020.800000", "162020.803000", "162020.806000", "162020.810000", "162020.813000", "162020.816000", "162020.819000", "162020.823000", "162020.826000", "162020.829000", "162020.833000", "162020.836000", "162020.839000", "162020.843000", "162020.846000", "162020.849000", "162020.852000", "162020.856000", "162020.859000", "162020.862000", "162020.865000", "162020.869000", "162020.872000", "162020.875000", "162020.879000", "162020.882000", "162100.796000", "162100.800000", "162100.803000", "162100.807000", "162100.810000", "162100.813000", "162100.816000", "162100.820000", "162100.823000", "162100.826000", "162100.830000", "162100.845000", "162100.848000", "162100.851000", "162100.855000", "162100.858000", "162100.861000", "162100.865000", "162100.868000", "162100.871000", "162100.874000", "162100.878000", "162100.881000", "162100.884000", "162100.887000", "162100.891000", "162100.894000", "162140.795000", "162140.799000", "162140.802000", "162140.805000", "162140.809000", "162140.812000", "162140.815000", "162140.818000", "162140.822000", "162140.825000", "162140.828000", "162140.832000", "162140.835000", "162140.838000", "162140.841000", "162140.845000", "162140.848000", "162140.851000", "162140.854000", "162140.858000", "162140.861000", "162140.864000", "162140.867000", "162140.871000", "162140.874000", "162140.877000", "162140.881000", "162220.796000", "162220.800000", "162220.803000", "162220.806000", "162220.810000", "162220.813000", "162220.816000", "162220.820000", "162220.823000", "162220.826000", "162220.845000", "162220.848000", "162220.851000", "162220.855000", "162220.858000", "162220.861000", "162220.864000", "162220.868000", "162220.871000", "162220.875000", "162220.878000", "162220.881000", "162220.885000", "162220.888000", "162220.891000", "162220.895000", "162220.898000", "162300.796000", "162300.800000", "162300.804000", "162300.807000", "162300.810000", "162300.823000", "162300.827000", "162300.830000", "162300.833000", "162300.836000", "162300.840000", "162300.843000", "162300.846000", "162300.850000", "162300.853000", "162300.856000", "162300.860000", "162300.863000", "162300.866000", "162300.869000", "162300.873000", "162300.876000", "162300.879000", "162300.883000", "162300.886000", "162300.889000", "162340.796000", "162340.800000", "162340.803000", "162340.806000", "162340.810000", "162340.813000", "162340.816000", "162340.820000", "162340.823000", "162340.826000", "162340.830000", "162340.833000", "162340.836000", "162340.840000", "162340.843000", "162340.846000", "162340.849000", "162340.853000", "162340.856000", "162340.859000", "162340.863000", "162340.866000", "162340.869000", "162340.872000", "162340.876000", "162340.879000", "162340.882000", "162420.796000", "162420.800000", "162420.803000", "162420.807000", "162420.810000", "162420.813000", "162420.817000", "162420.820000", "162420.823000", "162420.827000", "162420.830000", "162420.834000", "162420.837000", "162420.840000", "162420.844000", "162420.847000", "162420.850000", "162420.854000", "162420.857000", "162420.860000", "162420.864000", "162420.867000", "162420.870000", "162420.873000", "162420.877000", "162420.880000", "162420.883000", "162500.796000", "162500.800000", "162500.803000", "162500.806000", "162500.810000", "162500.813000", "162500.816000", "162500.820000", "162500.823000", "162500.826000", "162500.830000", "162500.833000", "162500.836000", "162500.839000", "162500.843000", "162500.846000", "162500.849000", "162500.853000", "162500.856000", "162500.859000", "162500.863000", "162500.866000", "162500.869000", "162500.872000", "162500.876000", "162500.879000", "162500.882000", "162540.796000", "162540.800000", "162540.803000", "162540.807000", "162540.810000", "162540.813000", "162540.816000", "162540.820000", "162540.823000", "162540.827000", "162540.830000", "162540.833000", "162540.836000", "162540.840000", "162540.843000", "162540.846000", "162540.850000", "162540.853000", "162540.856000", "162540.860000", "162540.863000", "162540.866000", "162540.869000", "162540.873000", "162540.876000", "162540.879000", "162540.883000", "162620.795000", "162620.799000", "162620.802000", "162620.806000", "162620.809000", "162620.812000", "162620.815000", "162620.819000", "162620.822000", "162620.825000", "162620.829000", "162620.832000", "162620.835000", "162620.838000", "162620.842000", "162620.845000", "162620.848000", "162620.853000", "162620.857000", "162620.860000", "162620.863000", "162620.866000", "162620.870000", "162620.873000", "162620.876000", "162620.879000", "162620.883000", "162700.796000", "162700.800000", "162700.803000", "162700.807000", "162700.810000", "162700.813000", "162700.817000", "162700.821000", "162700.824000", "162700.845000", "162700.848000", "162700.852000", "162700.855000", "162700.858000", "162700.862000", "162700.865000", "162700.868000", "162700.872000", "162700.875000", "162700.878000", "162700.881000", "162700.885000", "162700.888000", "162700.891000", "162700.895000", "162700.898000", "162740.796000", "162740.800000", "162740.803000", "162740.806000", "162740.810000", "162740.813000", "162740.816000", "162740.820000", "162740.823000", "162740.826000", "162740.830000", "162740.833000", "162740.836000", "162740.840000", "162740.843000", "162740.846000", "162740.850000", "162740.853000", "162740.856000", "162740.860000", "162740.863000", "162740.866000", "162740.870000", "162740.873000", "162740.876000", "162740.879000", "162740.883000", "162820.796000", "162820.800000", "162820.803000", "162820.806000", "162820.810000", "162820.813000", "162820.816000", "162820.820000", "162820.823000", "162820.826000", "162820.830000", "162820.833000", "162820.836000", "162820.839000", "162820.843000", "162820.846000", "162820.849000", "162820.853000", "162820.856000", "162820.859000", "162820.862000", "162820.866000", "162820.869000", "162820.872000", "162820.876000", "162820.879000", "162820.882000", "162831.521000", "162831.525000", "162831.528000", "162831.531000", "162831.534000", "162831.538000", "162831.541000"],
