{
  "AcquisitionMatrixPE": 104,
  "AcquisitionNumber": 1,
  "AcquisitionTime": "15:49:53.132500",
  "BandwidthPerPixelPhaseEncode": 17.17,
  "BaseResolution": 104,
  "BodyPartExamined": "BRAIN",
  "CoilCombinationMethod": "Sum of Squares",
  "ConsistencyInfo": "N4_VE11C_LATEST_20160120",
  "ConversionSoftware": "dcm2niix",
  "ConversionSoftwareVersion": "v1.0.20220505",
  "DerivedVendorReportedEchoSpacing": 0.000560011,
  "DeviceSerialNumber": "167006",
  "DwellTime": 2.1e-06,
  "EchoTime": 0.037,
  "EchoTime1": 0.037,
  "EchoTime2": 0.001,
  "EchoTrainLength": 104,
  "EffectiveEchoSpacing": 0.000560011,
  "FlipAngle": 52,
  "HeudiconvVersion": "0.5.3.post811+g6206e14",
  "ImageComments": "Unaliased MB4/PE3/LB",
  "ImageOrientationPatientDICOM": [0.999287, -0.0377577, 0.000458971, 0.035769, 0.942619, -0.331948],
  "ImageOrientationText": "Tra>Cor(-19.4)>Sag(-0.7)",
  "ImageType": [
    "ORIGINAL",
    "PRIMARY",
    "P",
    "MB",
    "ND",
    "MOSAIC",
    "PHASE"
],
  "ImagingFrequency": 123.259,
  "InPlanePhaseEncodingDirectionDICOM": "COL",
  "InstitutionAddress": "Chemin Queen-Mary 4565,Montreal,District,CA,H3W 1W5",
  "InstitutionName": "IUGM",
  "InstitutionalDepartmentName": "Department",
  "MRAcquisitionType": "2D",
  "MagneticFieldStrength": 3,
  "Manufacturer": "Siemens",
  "ManufacturersModelName": "Prisma_fit",
  "MatrixCoilMode": "SENSE",
  "Modality": "MR",
  "MultibandAccelerationFactor": 4,
  "PartialFourier": 1,
  "PatientPosition": "HFS",
  "PercentPhaseFOV": 100,
  "PercentSampling": 100,
  "PhaseEncodingDirection": "j",
  "PhaseEncodingSteps": 104,
  "PhaseResolution": 1,
  "PixelBandwidth": 2290,
  "ProcedureStepDescription": "games^mario3",
  "ProtocolName": "func_task-mario3_run-01",
  "PulseSequenceDetails": "%CustomerSeq%\\cmrr_mbep2d_bold",
  "ReceiveCoilActiveElements": "HC1-7;NC1,2",
  "ReceiveCoilName": "HeadNeck_64",
  "ReconMatrixPE": 104,
  "RepetitionTime": 1.49,
  "SAR": 0.0655465,
  "ScanOptions": "FS",
  "ScanningSequence": "EP",
  "SequenceName": "epfid2d1_104",
  "SequenceVariant": "SK\\SS",
  "SeriesDescription": "func_task-mario3_run-01",
  "SeriesNumber": 11,
  "ShimSetting": [618, -7254, -8843, 562, 8, -232, -47, -34],
  "SliceThickness": 2,
  "SliceTiming": [0, 0.785, 0.1, 0.8825, 0.1975, 0.98, 0.295, 1.08, 0.3925, 1.1775, 0.49, 1.275, 0.59, 1.3725, 0.6875, 0, 0.785, 0.1, 0.8825, 0.1975, 0.98, 0.295, 1.08, 0.3925, 1.1775, 0.49, 1.275, 0.59, 1.3725, 0.6875, 0, 0.785, 0.1, 0.8825, 0.1975, 0.98, 0.295, 1.08, 0.3925, 1.1775, 0.49, 1.275, 0.59, 1.3725, 0.6875, 0, 0.785, 0.1, 0.8825, 0.1975, 0.98, 0.295, 1.08, 0.3925, 1.1775, 0.49, 1.275, 0.59, 1.3725, 0.6875],
  "SoftwareVersions": "syngo MR E11",
  "SpacingBetweenSlices": 2,
  "StationName": "MRC35049",
  "TaskName": "mario3",
  "TotalReadoutTime": 0.0576811,
  "TxRefAmp": 271.29,
  "WipMemBlock": "a8ca7558-552d-4c14-b8d6-d28fd5b85b8d||Sequence: R017 ve11c/master r/75a17815+; Jun 28 2022 16:32:11 by eja",
  "dcmmeta_affine": [
    [-1.998573660850525, 0.07153793424367905, -0.02420191653072834, 103.03850555419922],
    [0.07551533728837967, 1.8852382898330688, -0.6634559631347656, -68.8121566772461],
    [0.0009179428452625871, 0.6638966202735901, 1.8865948915481567, -73.0420150756836],
    [0.0, 0.0, 0.0, 1.0]
],
  "dcmmeta_reorient_transform": [
    [0.0, -1.0, 0.0, 103.0],
    [1.0, 0.0, 0.0, 0.0],
    [0.0, 0.0, 1.0, 0.0],
    [0.0, 0.0, 0.0, 1.0]
],
  "dcmmeta_shape": [104, 104, 60, 424],
  "dcmmeta_slice_dim": 2,
  "dcmmeta_version": 0.6,
  "global": {
    "const": {
      "AcquisitionMatrix": [104, 0, 0, 104],
      "AngioFlag": "N",
      "BitsAllocated": 16,
      "BitsStored": 16,
      "BodyPartExamined": "BRAIN",
      "Columns": 832,
      "EchoNumbers": 1,
      "EchoTime": 37.0,
      "EchoTrainLength": 104,
      "FlipAngle": 52.0,
      "HighBit": 15,
      "ImageOrientationPatient": [0.99928681955976, -0.0377576694112, 0.00045897143514, 0.03576896764383, 0.94261917333094, -0.3319483017318],
      "ImagePositionPatient": [-863.92752621285, -784.10657011985, 236.66356372476],
      "ImageType": [
        "ORIGINAL",
        "PRIMARY",
        "P",
        "MB",
        "ND",
        "MOSAIC"
],
      "ImagedNucleus": "1H",
      "ImagingFrequency": 123.25879,
      "InPlanePhaseEncodingDirection": "COL",
      "LargestImagePixelValue": 4095,
      "MRAcquisitionType": "2D",
      "MagneticFieldStrength": 3.0,
      "Manufacturer": "SIEMENS",
      "ManufacturerModelName": "Prisma_fit",
      "Modality": "MR",
      "NumberOfAverages": 1.0,
      "NumberOfPhaseEncodingSteps": 104,
      "PercentPhaseFieldOfView": 100.0,
      "PercentSampling": 100.0,
      "PerformedProcedureStepStartTime": "154440.180000",
      "PhotometricInterpretation": "MONOCHROME2",
      "PixelBandwidth": 2290.0,
      "PixelRepresentation": 0,
      "PixelSpacing": [2.0, 2.0],
      "ProtocolName": "func_task-mario3_run-01",
      "RepetitionTime": 1490.0,
      "RescaleIntercept": -4096.0,
      "RescaleSlope": 2.0,
      "RescaleType": "US",
      "Rows": 832,
      "SAR": 0.06554653915953,
      "SamplesPerPixel": 1,
      "ScanOptions": "FS",
      "ScanningSequence": "EP",
      "SequenceName": "epfid2d1_104",
      "SequenceVariant": [
        "SK",
        "SS"
],
      "SeriesDescription": "func_task-mario3_run-01",
      "SeriesNumber": 11,
      "SeriesTime": "155120.018000",
      "SliceLocation": -47.320299284504,
      "SliceThickness": 2.0,
      "SmallestImagePixelValue": 0,
      "SoftwareVersions": "syngo MR E11",
      "SpacingBetweenSlices": 1.9999999319679,
      "SpecificCharacterSet": "ISO_IR 100",
      "StudyID": "1",
      "StudyTime": "154440.107000",
      "TransmitCoilName": "Body",
      "VariableFlipAngleFlag": "N",
      "WindowCenterWidthExplanation": "Algo1",
      "dBdt": 0.0},
    "slices": {}
  },
  "time": {
    "samples": {
      "AcquisitionNumber": [1, 2, 3, 4, 5, 6, 7, 8, 9, 10, 11, 12, 13, 14, 15, 16, 17, 18, 19, 20, 21, 22, 23, 24, 25, 26, 27, 28, 29, 30, 31, 32, 33, 34, 35, 36, 37, 38, 39, 40, 41, 42, 43, 44, 45, 46, 47, 48, 49, 50, 51, 52, 53, 54, 55, 56, 57, 58, 59, 60, 61, 62, 63, 64, 65, 66, 67, 68, 69, 70, 71, 72, 73, 74, 75, 76, 77, 78, 79, 80, 81, 82, 83, 84, 85, 86, 87, 88, 89, 90, 91, 92, 93, 94, 95, 96, 97, 98, 99, 100, 101, 102, 103, 104, 105, 106, 107, 108, 109, 110, 111, 112, 113, 114, 115, 116, 117, 118, 119, 120, 121, 122, 123, 124, 125, 126, 127, 128, 129, 130, 131, 132, 133, 134, 135, 136, 137, 138, 139, 140, 141, 142, 143, 144, 145, 146, 147, 148, 149, 150, 151, 152, 153, 154, 155, 156, 157, 158, 159, 160, 161, 162, 163, 164, 165, 166, 167, 168, 169, 170, 171, 172, 173, 174, 175, 176, 177, 178, 179, 180, 181, 182, 183, 184, 185, 186, 187, 188, 189, 190, 191, 192, 193, 194, 195, 196, 197, 198, 199, 200, 201, 202, 203, 204, 205, 206, 207, 208, 209, 210, 211, 212, 213, 214, 215, 216, 217, 218, 219, 220, 221, 222, 223, 224, 225, 226, 227, 228, 229, 230, 231, 232, 233, 234, 235, 236, 237, 238, 239, 240, 241, 242, 243, 244, 245, 246, 247, 248, 249, 250, 251, 252, 253, 254, 255, 256, 257, 258, 259, 260, 261, 262, 263, 264, 265, 266, 267, 268, 269, 270, 271, 272, 273, 274, 275, 276, 277, 278, 279, 280, 281, 282, 283, 284, 285, 286, 287, 288, 289, 290, 291, 292, 293, 294, 295, 296, 297, 298, 299, 300, 301, 302, 303, 304, 305, 306, 307, 308, 309, 310, 311, 312, 313, 314, 315, 316, 317, 318, 319, 320, 321, 322, 323, 324, 325, 326, 327, 328, 329, 330, 331, 332, 333, 334, 335, 336, 337, 338, 339, 340, 341, 342, 343, 344, 345, 346, 347, 348, 349, 350, 351, 352, 353, 354, 355, 356, 357, 358, 359, 360, 361, 362, 363, 364, 365, 366, 367, 368, 369, 370, 371, 372, 373, 374, 375, 376, 377, 378, 379, 380, 381, 382, 383, 384, 385, 386, 387, 388, 389, 390, 391, 392, 393, 394, 395, 396, 397, 398, 399, 400, 401, 402, 403, 404, 405, 406, 407, 408, 409, 410, 411, 412, 413, 414, 415, 416, 417, 418, 419, 420, 421, 422, 423, 424],
      "AcquisitionTime": ["154953.132500", "154954.622500", "154956.112500", "154957.602500", "154959.092500", "155000.582500", "155002.072500", "155003.562500", "155005.052500", "155006.542500", "155008.032500", "155009.522500", "155011.012500", "155012.502500", "155013.992500", "155015.482500", "155016.972500", "155018.462500", "155019.952500", "155021.442500", "155022.932500", "155024.422500", "155025.912500", "155027.402500", "155028.892500", "155030.382500", "155031.872500", "155033.362500", "155034.852500", "155036.342500", "155037.832500", "155039.322500", "155040.812500", "155042.302500", "155043.792500", "155045.282500", "155046.772500", "155048.262500", "155049.752500", "155051.242500", "155052.732500", "155054.222500", "155055.712500", "155057.202500", "155058.692500", "155100.182500", "155101.672500", "155103.162500", "155104.652500", "155106.142500", "155107.632500", "155109.122500", "155110.612500", "155112.102500", "155113.592500", "155115.082500", "155116.572500", "155118.062500", "155119.552500", "155121.042500", "155122.532500", "155124.022500", "155125.512500", "155127.002500", "155128.492500", "155129.982500", "155131.472500", "155132.962500", "155134.452500", "155135.942500", "155137.432500", "155138.922500", "155140.412500", "155141.902500", "155143.392500", "155144.882500", "155146.372500", "155147.862500", "155149.352500", "155150.842500", "155152.332500", "155153.822500", "155155.312500", "155156.802500", "155158.292500", "155159.782500", "155201.272500", "155202.762500", "155204.252500", "155205.742500", "155207.232500", "155208.722500", "155210.212500", "155211.702500", "155213.192500", "155214.682500", "155216.172500", "155217.662500", "155219.152500", "155220.642500", "155222.132500", "155223.622500", "155225.112500", "155226.602500", "155228.092500", "155229.582500", "155231.072500", "155232.562500", "155234.052500", "155235.542500", "155237.032500", "155238.522500", "155240.012500", "155241.502500", "155242.992500", "155244.482500", "155245.972500", "155247.462500", "155248.952500", "155250.442500", "155251.932500", "155253.422500", "155254.912500", "155256.402500", "155257.892500", "155259.382500", "155300.872500", "155302.362500", "155303.852500", "155305.342500", "155306.832500", "155308.322500", "155309.812500", "155311.302500", "155312.792500", "155314.282500", "155315.772500", "155317.262500", "155318.752500", "155320.242500", "155321.732500", "155323.222500", "155324.712500", "155326.202500", "155327.692500", "155329.182500", "155330.672500", "155332.162500", "155333.652500", "155335.142500", "155336.632500", "155338.122500", "155339.612500", "155341.102500", "155342.592500", "155344.082500", "155345.572500", "155347.062500", "155348.552500", "155350.042500", "155351.532500", "155353.022500", "155354.512500", "155356.002500", "155357.492500", "155358.982500", "155400.472500", "155401.962500", "155403.452500", "155404.942500", "155406.432500", "155407.922500", "155409.412500", "155410.902500", "155412.392500", "155413.882500", "155415.372500", "155416.862500", "155418.352500", "155419.842500", "155421.332500", "155422.822500", "155424.312500", "155425.802500", "155427.292500", "155428.782500", "155430.272500", "155431.762500", "155433.252500", "155434.742500", "155436.232500", "155437.722500", "155439.212500", "155440.702500", "155442.192500", "155443.682500", "155445.172500", "155446.662500", "155448.152500", "155449.642500", "155451.132500", "155452.622500", "155454.112500", "155455.602500", "155457.092500", "155458.582500", "155500.072500", "155501.562500", "155503.052500", "155504.542500", "155506.032500", "155507.522500", "155509.012500", "155510.502500", "155511.992500", "155513.482500", "155514.972500", "155516.462500", "155517.952500", "155519.442500", "155520.932500", "155522.422500", "155523.912500", "155525.402500", "155526.892500", "155528.382500", "155529.872500", "155531.362500", "155532.852500", "155534.342500", "155535.832500", "155537.322500", "155538.812500", "155540.302500", "155541.792500", "155543.282500", "155544.772500", "155546.262500", "155547.752500", "155549.242500", "155550.732500", "155552.222500", "155553.712500", "155555.202500", "155556.692500", "155558.182500", "155559.672500", "155601.162500", "155602.652500", "155604.142500", "155605.632500", "155607.122500", "155608.612500", "155610.102500", "155611.592500", "155613.082500", "155614.572500", "155616.062500", "155617.552500", "155619.042500", "155620.532500", "155622.022500", "155623.512500", "155625.002500", "155626.492500", "155627.982500", "155629.472500", "155630.962500", "155632.452500", "155633.942500", "155635.432500", "155636.922500", "155638.412500", "155639.902500", "155641.392500", "155642.882500", "155644.372500", "155645.862500", "155647.352500", "155648.842500", "155650.332500", "155651.822500", "155653.312500", "155654.802500", "155656.292500", "155657.782500", "155659.272500", "155700.762500", "155702.252500", "155703.742500", "155705.232500", "155706.722500", "155708.212500", "155709.702500", "155711.192500", "155712.682500", "155714.172500", "155715.662500", "155717.152500", "155718.642500", "155720.132500", "155721.622500", "155723.112500", "155724.602500", "155726.092500", "155727.582500", "155729.072500", "155730.562500", "155732.052500", "155733.542500", "155735.032500", "155736.522500", "155738.012500", "155739.502500", "155740.992500", "155742.482500", "155743.972500", "155745.462500", "155746.952500", "155748.442500", "155749.932500", "155751.422500", "155752.912500", "155754.402500", "155755.892500", "155757.382500", "155758.872500", "155800.362500", "155801.852500", "155803.342500", "155804.832500", "155806.322500", "155807.812500", "155809.302500", "155810.792500", "155812.282500", "155813.772500", "155815.262500", "155816.752500", "155818.242500", "155819.732500", "155821.222500", "155822.712500", "155824.202500", "155825.692500", "155827.182500", "155828.672500", "155830.162500", "155831.652500", "155833.142500", "155834.632500", "155836.122500", "155837.612500", "155839.102500", "155840.592500", "155842.082500", "155843.572500", "155845.062500", "155846.552500", "155848.042500", "155849.532500", "155851.022500", "155852.512500", "155854.002500", "155855.492500", "155856.982500", "155858.472500", "155859.962500", "155901.452500", "155902.942500", "155904.432500", "155905.922500", "155907.412500", "155908.902500", "155910.392500", "155911.882500", "155913.372500", "155914.862500", "155916.352500", "155917.842500", "155919.332500", "155920.822500", "155922.312500", "155923.802500", "155925.292500", "155926.782500", "155928.272500", "155929.762500", "155931.252500", "155932.742500", "155934.232500", "155935.722500", "155937.212500", "155938.702500", "155940.192500", "155941.682500", "155943.172500", "155944.662500", "155946.152500", "155947.642500", "155949.132500", "155950.622500", "155952.112500", "155953.602500", "155955.092500", "155956.582500", "155958.072500", "155959.562500", "160001.052500", "160002.542500", "160004.032500", "160005.522500", "160007.012500", "160008.502500", "160009.992500", "160011.482500", "160012.972500", "160014.462500", "160015.952500", "160017.442500", "160018.932500", "160020.422500", "160021.912500", "160023.402500"],
      "ContentTime": ["155120.020000", "155120.023000", "155120.026000", "155120.031000", "155120.033000", "155120.035000", "155120.038000", "155120.040000", "155120.043000", "155120.045000", "155120.048000", "155120.050000", "155120.053000", "155120.055000", "155120.058000", "155120.060000", "155120.063000", "155120.065000", "155120.068000", "155120.070000", "155120.073000", "155120.075000", "155120.078000", "155120.080000", "155120.083000", "155120.085000", "155120.087000", "155120.090000", "155120.092000", "155120.095000", "155120.097000", "155120.099000", "155120.102000", "155120.104000", "155120.107000", "155120.109000", "155120.112000", "155120.114000", "155139.914000", "155139.917000", "155139.919000", "155139.922000", "155139.924000", "155139.927000", "155139.929000", "155139.932000", "155139.934000", "155139.937000", "155139.939000", "155139.942000", "155139.944000", "155139.947000", "155139.949000", "155139.952000", "155139.954000", "155139.957000", "155139.959000", "155139.961000", "155159.948000", "155159.951000", "155159.954000", "155159.956000", "155159.958000", "155159.961000", "155159.963000", "155159.966000", "155159.968000", "155159.971000", "155159.974000", "155159.976000", "155159.978000", "155159.981000", "155159.983000", "155159.986000", "155159.988000", "155159.991000", "155159.993000", "155159.996000", "155159.998000", "155239.963000", "155239.965000", "155239.968000", "155239.970000", "155239.973000", "155239.975000", "155239.987000", "155239.990000", "155239.992000", "155239.995000", "155239.997000", "155240.000000", "155240.003000", "155240.005000", "155240.008000", "155240.011000", "155240.013000", "155240.015000", "155240.018000", "155240.020000", "155240.023000", "155240.025000", "155240.028000", "155240.030000", "155240.033000", "155240.035000", "155240.038000", "155240.040000", "155240.043000", "155240.045000", "155240.048000", "155240.050000", "155319.941000", "155319.944000", "155319.946000", "155319.949000", "155319.951000", "155319.954000", "155319.956000", "155319.959000", "155319.961000", "155319.964000", "155319.966000", "155319.969000", "155319.979000", "155319.982000", "155319.984000", "155319.987000", "155319.989000", "155319.992000", "155319.994000", "155319.997000", "155319.999000", "155320.002000", "155320.004000", "155320.007000", "155320.009000", "155320.012000", "155320.014000", "155359.954000", "155359.957000", "155359.959000", "155359.962000", "155359.964000", "155359.967000", "155359.969000", "155359.972000", "155359.974000", "155359.977000", "155359.979000", "155359.981000", "155359.984000", "155359.986000", "155359.989000", "155359.992000", "155359.994000", "155359.997000", "155400.000000", "155400.003000", "155400.005000", "155400.008000", "155400.010000", "155400.013000", "155400.015000", "155400.018000", "155400.020000", "155439.957000", "155439.960000", "155439.962000", "155439.965000", "155439.967000", "155439.970000", "155439.972000", "155439.975000", "155439.977000", "155439.980000", "155439.982000", "155439.985000", "155439.987000", "155439.989000", "155439.992000", "155439.994000", "155439.997000", "155440.000000", "155440.003000", "155440.005000", "155440.008000", "155440.010000", "155440.013000", "155440.015000", "155440.018000", "155440.020000", "155440.023000", "155519.947000", "155519.950000", "155519.952000", "155519.955000", "155519.958000", "155519.960000", "155519.962000", "155519.965000", "155519.967000", "155519.970000", "155519.972000", "155519.975000", "155519.977000", "155519.980000", "155519.982000", "155519.985000", "155519.987000", "155519.990000", "155519.992000", "155519.995000", "155519.997000", "155519.999000", "155520.002000", "155520.005000", "155520.007000", "155520.010000", "155520.012000", "155539.877000", "155539.880000", "155539.882000", "155539.885000", "155539.887000", "155539.890000", "155539.892000", "155539.895000", "155539.897000", "155539.900000", "155539.902000", "155539.905000", "155539.907000", "155619.942000", "155619.945000", "155619.948000", "155619.950000", "155619.952000", "155619.955000", "155619.957000", "155619.960000", "155619.962000", "155619.965000", "155619.967000", "155619.970000", "155619.972000", "155619.975000", "155619.977000", "155619.980000", "155619.982000", "155619.985000", "155619.987000", "155619.990000", "155619.992000", "155619.995000", "155619.997000", "155620.001000", "155620.003000", "155620.006000", "155620.008000", "155659.962000", "155659.965000", "155659.968000", "155659.970000", "155659.973000", "155659.975000", "155659.977000", "155659.980000", "155659.982000", "155659.985000", "155659.987000", "155659.990000", "155659.992000", "155659.995000", "155659.997000", "155700.001000", "155700.003000", "155700.006000", "155700.008000", "155700.011000", "155700.013000", "155700.016000", "155700.019000", "155700.022000", "155700.024000", "155700.027000", "155700.029000", "155739.947000", "155739.950000", "155739.952000", "155739.955000", "155739.957000", "155739.960000", "155739.962000", "155739.965000", "155739.967000", "155739.969000", "155739.972000", "155739.975000", "155739.977000", "155739.980000", "155739.982000", "155739.985000", "155739.987000", "155739.989000", "155739.992000", "155739.994000", "155739.997000", "155740.000000", "155740.003000", "155740.005000", "155740.008000", "155740.010000", "155740.013000", "155820.417000", "155820.420000", "155820.423000", "155820.426000", "155820.428000", "155820.431000", "155820.433000", "155820.436000", "155820.439000", "155820.441000", "155820.444000", "155820.447000", "155820.449000", "155820.452000", "155820.454000", "155820.457000", "155820.460000", "155820.462000", "155820.465000", "155820.467000", "155820.470000", "155820.472000", "155820.476000", "155820.479000", "155820.481000", "155820.484000", "155859.958000", "155859.961000", "155859.964000", "155859.966000", "155859.968000", "155859.971000", "155859.973000", "155859.976000", "155859.978000", "155859.981000", "155859.983000", "155859.986000", "155859.988000", "155859.991000", "155859.993000", "155859.996000", "155859.998000", "155900.001000", "155900.005000", "155900.008000", "155900.010000", "155900.013000", "155900.015000", "155900.018000", "155900.020000", "155900.022000", "155900.025000", "155939.938000", "155939.941000", "155939.947000", "155939.950000", "155939.952000", "155939.954000", "155939.957000", "155939.960000", "155939.962000", "155939.964000", "155939.967000", "155939.969000", "155939.972000", "155939.974000", "155939.977000", "155939.979000", "155939.982000", "155939.984000", "155939.987000", "155939.989000", "155939.992000", "155939.994000", "155939.997000", "155940.000000", "155940.003000", "155940.005000", "155940.008000", "160019.952000", "160019.954000", "160019.957000", "160019.959000", "160019.962000", "160019.965000", "160019.967000", "160019.969000", "160019.972000", "160019.974000", "160019.977000", "160019.979000", "160019.982000", "160019.984000", "160019.987000", "160019.989000", "160019.992000", "160019.994000", "160019.997000", "160020.000000", "160020.003000", "160020.005000", "160020.008000", "160020.011000", "160020.013000", "160020.016000", "160020.018000", "160026.311000", "160026.314000", "160026.316000", "160026.319000"],
      "InstanceCreationTime": ["155120.020000", "155120.023000", "155120.026000", "155120.031000", "155120.033000", "155120.035000", "155120.038000", "155120.040000", "155120.043000", "155120.045000", "155120.048000", "155120.050000", "155120.053000", "155120.055000", "155120.058000", "155120.060000", "155120.063000", "155120.065000", "155120.068000", "155120.070000", "155120.073000", "155120.075000", "155120.078000", "155120.080000", "155120.083000", "155120.085000", "155120.087000", "155120.090000", "155120.092000", "155120.095000", "155120.097000", "155120.099000", "155120.102000", "155120.104000", "155120.107000", "155120.109000", "155120.112000", "155120.114000", "155139.914000", "155139.917000", "155139.919000", "155139.922000", "155139.924000", "155139.927000", "155139.929000", "155139.932000", "155139.934000", "155139.937000", "155139.939000", "155139.942000", "155139.944000", "155139.947000", "155139.949000", "155139.952000", "155139.954000", "155139.957000", "155139.959000", "155139.961000", "155159.948000", "155159.951000", "155159.954000", "155159.956000", "155159.958000", "155159.961000", "155159.963000", "155159.966000", "155159.968000", "155159.971000", "155159.974000", "155159.976000", "155159.978000", "155159.981000", "155159.983000", "155159.986000", "155159.988000", "155159.991000", "155159.993000", "155159.996000", "155159.998000", "155239.963000", "155239.965000", "155239.968000", "155239.970000", "155239.973000", "155239.975000", "155239.987000", "155239.990000", "155239.992000", "155239.995000", "155239.997000", "155240.000000", "155240.003000", "155240.005000", "155240.008000", "155240.011000", "155240.013000", "155240.015000", "155240.018000", "155240.020000", "155240.023000", "155240.025000", "155240.028000", "155240.030000", "155240.033000", "155240.035000", "155240.038000", "155240.040000", "155240.043000", "155240.045000", "155240.048000", "155240.050000", "155319.941000", "155319.944000", "155319.946000", "155319.949000", "155319.951000", "155319.954000", "155319.956000", "155319.959000", "155319.961000", "155319.964000", "155319.966000", "155319.969000", "155319.979000", "155319.982000", "155319.984000", "155319.987000", "155319.989000", "155319.992000", "155319.994000", "155319.997000", "155319.999000", "155320.002000", "155320.004000", "155320.007000", "155320.009000", "155320.012000", "155320.014000", "155359.954000", "155359.957000", "155359.959000", "155359.962000", "155359.964000", "155359.967000", "155359.969000", "155359.972000", "155359.974000", "155359.977000", "155359.979000", "155359.981000", "155359.984000", "155359.986000", "155359.989000", "155359.992000", "155359.994000", "155359.997000", "155400.000000", "155400.003000", "155400.005000", "155400.008000", "155400.010000", "155400.013000", "155400.015000", "155400.018000", "155400.020000", "155439.957000", "155439.960000", "155439.962000", "155439.965000", "155439.967000", "155439.970000", "155439.972000", "155439.975000", "155439.977000", "155439.980000", "155439.982000", "155439.985000", "155439.987000", "155439.989000", "155439.992000", "155439.994000", "155439.997000", "155440.000000", "155440.003000", "155440.005000", "155440.008000", "155440.010000", "155440.013000", "155440.015000", "155440.018000", "155440.020000", "155440.023000", "155519.947000", "155519.950000", "155519.952000", "155519.955000", "155519.958000", "155519.960000", "155519.962000", "155519.965000", "155519.967000", "155519.970000", "155519.972000", "155519.975000", "155519.977000", "155519.980000", "155519.982000", "155519.985000", "155519.987000", "155519.990000", "155519.992000", "155519.995000", "155519.997000", "155519.999000", "155520.002000", "155520.005000", "155520.007000", "155520.010000", "155520.012000", "155539.877000", "155539.880000", "155539.882000", "155539.885000", "155539.887000", "155539.890000", "155539.892000", "155539.895000", "155539.897000", "155539.900000", "155539.902000", "155539.905000", "155539.907000", "155619.942000", "155619.945000", "155619.948000", "155619.950000", "155619.952000", "155619.955000", "155619.957000", "155619.960000", "155619.962000", "155619.965000", "155619.967000", "155619.970000", "155619.972000", "155619.975000", "155619.977000", "155619.980000", "155619.982000", "155619.985000", "155619.987000", "155619.990000", "155619.992000", "155619.995000", "155619.997000", "155620.001000", "155620.003000", "155620.006000", "155620.008000", "155659.962000", "155659.965000", "155659.968000", "155659.970000", "155659.973000", "155659.975000", "155659.977000", "155659.980000", "155659.982000", "155659.985000", "155659.987000", "155659.990000", "155659.992000", "155659.995000", "155659.997000", "155700.001000", "155700.003000", "155700.006000", "155700.008000", "155700.011000", "155700.013000", "155700.016000", "155700.019000", "155700.022000", "155700.024000", "155700.027000", "155700.029000", "155739.947000", "155739.950000", "155739.952000", "155739.955000", "155739.957000", "155739.960000", "155739.962000", "155739.965000", "155739.967000", "155739.969000", "155739.972000", "155739.975000", "155739.977000", "155739.980000", "155739.982000", "155739.985000", "155739.987000", "155739.989000", "155739.992000", "155739.994000", "155739.997000", "155740.000000", "155740.003000", "155740.005000", "155740.008000", "155740.010000", "155740.013000", "155820.417000", "155820.420000", "155820.423000", "155820.426000", "155820.428000", "155820.431000", "155820.433000", "155820.436000", "155820.439000", "155820.441000", "155820.444000", "155820.447000", "155820.449000", "155820.452000", "155820.454000", "155820.457000", "155820.460000", "155820.462000", "155820.465000", "155820.467000", "155820.470000", "155820.472000", "155820.476000", "155820.479000", "155820.481000", "155820.484000", "155859.958000", "155859.961000", "155859.964000", "155859.966000", "155859.968000", "155859.971000", "155859.973000", "155859.976000", "155859.978000", "155859.981000", "155859.983000", "155859.986000", "155859.988000", "155859.991000", "155859.993000", "155859.996000", "155859.998000", "155900.001000", "155900.005000", "155900.008000", "155900.010000", "155900.013000", "155900.015000", "155900.018000", "155900.020000", "155900.022000", "155900.025000", "155939.938000", "155939.941000", "155939.947000", "155939.950000", "155939.952000", "155939.954000", "155939.957000", "155939.960000", "155939.962000", "155939.964000", "155939.967000", "155939.969000", "155939.972000", "155939.974000", "155939.977000", "155939.979000", "155939.982000", "155939.984000", "155939.987000", "155939.989000", "155939.992000", "155939.994000", "155939.997000", "155940.000000", "155940.003000", "155940.005000", "155940.008000", "160019.952000", "160019.954000", "160019.957000", "160019.959000", "160019.962000", "160019.965000", "160019.967000", "160019.969000", "160019.972000", "160019.974000", "160019.977000", "160019.979000", "160019.982000", "160019.984000", "160019.987000", "160019.989000", "160019.992000", "160019.994000", "160019.997000", "160020.000000", "160020.003000", "160020.005000", "160020.008000", "160020.011000", "160020.013000", "160020.016000", "160020.018000", "160026.311000", "160026.314000", "160026.316000", "160026.319000"],
