{
  "AcquisitionMatrixPE": 104,
  "AcquisitionNumber": 1,
  "AcquisitionTime": "16:04:31.330000",
  "BandwidthPerPixelPhaseEncode": 17.17,
  "BaseResolution": 104,
  "BodyPartExamined": "BRAIN",
  "CoilCombinationMethod": "Sum of Squares",
  "ConsistencyInfo": "N4_VE11C_LATEST_20160120",
  "ConversionSoftware": "dcm2niix",
  "ConversionSoftwareVersion": "v1.0.20220505",
  "DerivedVendorReportedEchoSpacing": 0.000560011,
  "DeviceSerialNumber": "167006",
  "DwellTime": 2.1e-06,
  "EchoTime": 0.037,
  "EchoTime1": 0.037,
  "EchoTime2": 0.001,
  "EchoTrainLength": 104,
  "EffectiveEchoSpacing": 0.000560011,
  "FlipAngle": 52,
  "HeudiconvVersion": "0.5.3.post811+g6206e14",
  "ImageComments": "Unaliased MB4/PE3/LB",
  "ImageOrientationPatientDICOM": [0.999287, -0.0377577, 0.000458971, 0.035769, 0.942619, -0.331948],
  "ImageOrientationText": "Tra>Cor(-19.4)>Sag(-0.7)",
  "ImageType": [
    "ORIGINAL",
    "PRIMARY",
    "P",
    "MB",
    "ND",
    "MOSAIC",
    "PHASE"
],
  "ImagingFrequency": 123.259,
  "InPlanePhaseEncodingDirectionDICOM": "COL",
  "InstitutionAddress": "Chemin Queen-Mary 4565,Montreal,District,CA,H3W 1W5",
  "InstitutionName": "IUGM",
  "InstitutionalDepartmentName": "Department",
  "MRAcquisitionType": "2D",
  "MagneticFieldStrength": 3,
  "Manufacturer": "Siemens",
  "ManufacturersModelName": "Prisma_fit",
  "MatrixCoilMode": "SENSE",
  "Modality": "MR",
  "MultibandAccelerationFactor": 4,
  "PartialFourier": 1,
  "PatientPosition": "HFS",
  "PercentPhaseFOV": 100,
  "PercentSampling": 100,
  "PhaseEncodingDirection": "j",
  "PhaseEncodingSteps": 104,
  "PhaseResolution": 1,
  "PixelBandwidth": 2290,
  "ProcedureStepDescription": "games^mario3",
  "ProtocolName": "func_task-mario3_run-02",
  "PulseSequenceDetails": "%CustomerSeq%\\cmrr_mbep2d_bold",
  "ReceiveCoilActiveElements": "HC1-7;NC1,2",
  "ReceiveCoilName": "HeadNeck_64",
  "ReconMatrixPE": 104,
  "RepetitionTime": 1.49,
  "SAR": 0.0655465,
  "ScanOptions": "FS",
  "ScanningSequence": "EP",
  "SequenceName": "epfid2d1_104",
  "SequenceVariant": "SK\\SS",
  "SeriesDescription": "func_task-mario3_run-02",
  "SeriesNumber": 14,
  "ShimSetting": [618, -7254, -8843, 562, 8, -232, -47, -34],
  "SliceThickness": 2,
  "SliceTiming": [0, 0.785, 0.0975, 0.8825, 0.195, 0.98, 0.295, 1.0775, 0.3925, 1.175, 0.49, 1.275, 0.5875, 1.3725, 0.685, 0, 0.785, 0.0975, 0.8825, 0.195, 0.98, 0.295, 1.0775, 0.3925, 1.175, 0.49, 1.275, 0.5875, 1.3725, 0.685, 0, 0.785, 0.0975, 0.8825, 0.195, 0.98, 0.295, 1.0775, 0.3925, 1.175, 0.49, 1.275, 0.5875, 1.3725, 0.685, 0, 0.785, 0.0975, 0.8825, 0.195, 0.98, 0.295, 1.0775, 0.3925, 1.175, 0.49, 1.275, 0.5875, 1.3725, 0.685],
  "SoftwareVersions": "syngo MR E11",
  "SpacingBetweenSlices": 2,
  "StationName": "MRC35049",
  "TaskName": "mario3",
  "TotalReadoutTime": 0.0576811,
  "TxRefAmp": 271.29,
  "WipMemBlock": "a1a10a4f-6422-4e77-9393-506dd19069f2||Sequence: R017 ve11c/master r/75a17815+; Jun 28 2022 16:32:11 by eja",
  "dcmmeta_affine": [
    [-1.998573660850525, 0.07153793424367905, -0.02420191653072834, 103.03850555419922],
    [0.07551533728837967, 1.8852382898330688, -0.6634559631347656, -68.8121566772461],
    [0.0009179428452625871, 0.6638966202735901, 1.8865948915481567, -73.0420150756836],
    [0.0, 0.0, 0.0, 1.0]
],
  "dcmmeta_reorient_transform": [
    [0.0, -1.0, 0.0, 103.0],
    [1.0, 0.0, 0.0, 0.0],
    [0.0, 0.0, 1.0, 0.0],
    [0.0, 0.0, 0.0, 1.0]
],
  "dcmmeta_shape": [104, 104, 60, 445],
  "dcmmeta_slice_dim": 2,
  "dcmmeta_version": 0.6,
  "global": {
    "const": {
      "AcquisitionMatrix": [104, 0, 0, 104],
      "AngioFlag": "N",
      "BitsAllocated": 16,
      "BitsStored": 16,
      "BodyPartExamined": "BRAIN",
      "Columns": 832,
      "EchoNumbers": 1,
      "EchoTime": 37.0,
      "EchoTrainLength": 104,
      "FlipAngle": 52.0,
      "HighBit": 15,
      "ImageOrientationPatient": [0.99928681955976, -0.0377576694112, 0.00045897143514, 0.03576896764383, 0.94261917333094, -0.3319483017318],
      "ImagePositionPatient": [-863.92752621285, -784.10657011985, 236.66356372476],
      "ImageType": [
        "ORIGINAL",
        "PRIMARY",
        "P",
        "MB",
        "ND",
        "MOSAIC"
],
      "ImagedNucleus": "1H",
      "ImagingFrequency": 123.258798,
      "InPlanePhaseEncodingDirection": "COL",
      "LargestImagePixelValue": 4095,
      "MRAcquisitionType": "2D",
      "MagneticFieldStrength": 3.0,
      "Manufacturer": "SIEMENS",
      "ManufacturerModelName": "Prisma_fit",
      "Modality": "MR",
      "NumberOfAverages": 1.0,
      "NumberOfPhaseEncodingSteps": 104,
      "PercentPhaseFieldOfView": 100.0,
      "PercentSampling": 100.0,
      "PerformedProcedureStepStartTime": "154440.180000",
      "PhotometricInterpretation": "MONOCHROME2",
      "PixelBandwidth": 2290.0,
      "PixelRepresentation": 0,
      "PixelSpacing": [2.0, 2.0],
      "ProtocolName": "func_task-mario3_run-02",
      "RepetitionTime": 1490.0,
      "RescaleIntercept": -4096.0,
      "RescaleSlope": 2.0,
      "RescaleType": "US",
      "Rows": 832,
      "SAR": 0.06554653915953,
      "SamplesPerPixel": 1,
      "ScanOptions": "FS",
      "ScanningSequence": "EP",
      "SequenceName": "epfid2d1_104",
      "SequenceVariant": [
        "SK",
        "SS"
],
      "SeriesDescription": "func_task-mario3_run-02",
      "SeriesNumber": 14,
      "SeriesTime": "160541.370000",
      "SliceLocation": -47.320299284504,
      "SliceThickness": 2.0,
      "SmallestImagePixelValue": 0,
      "SoftwareVersions": "syngo MR E11",
      "SpacingBetweenSlices": 1.9999999319679,
      "SpecificCharacterSet": "ISO_IR 100",
      "StudyID": "1",
      "StudyTime": "154440.107000",
      "TransmitCoilName": "Body",
      "VariableFlipAngleFlag": "N",
      "WindowCenterWidthExplanation": "Algo1",
      "dBdt": 0.0},
    "slices": {}
  },
  "time": {
    "samples": {
      "AcquisitionNumber": [1, 2, 3, 4, 5, 6, 7, 8, 9, 10, 11, 12, 13, 14, 15, 16, 17, 18, 19, 20, 21, 22, 23, 24, 25, 26, 27, 28, 29, 30, 31, 32, 33, 34, 35, 36, 37, 38, 39, 40, 41, 42, 43, 44, 45, 46, 47, 48, 49, 50, 51, 52, 53, 54, 55, 56, 57, 58, 59, 60, 61, 62, 63, 64, 65, 66, 67, 68, 69, 70, 71, 72, 73, 74, 75, 76, 77, 78, 79, 80, 81, 82, 83, 84, 85, 86, 87, 88, 89, 90, 91, 92, 93, 94, 95, 96, 97, 98, 99, 100, 101, 102, 103, 104, 105, 106, 107, 108, 109, 110, 111, 112, 113, 114, 115, 116, 117, 118, 119, 120, 121, 122, 123, 124, 125, 126, 127, 128, 129, 130, 131, 132, 133, 134, 135, 136, 137, 138, 139, 140, 141, 142, 143, 144, 145, 146, 147, 148, 149, 150, 151, 152, 153, 154, 155, 156, 157, 158, 159, 160, 161, 162, 163, 164, 165, 166, 167, 168, 169, 170, 171, 172, 173, 174, 175, 176, 177, 178, 179, 180, 181, 182, 183, 184, 185, 186, 187, 188, 189, 190, 191, 192, 193, 194, 195, 196, 197, 198, 199, 200, 201, 202, 203, 204, 205, 206, 207, 208, 209, 210, 211, 212, 213, 214, 215, 216, 217, 218, 219, 220, 221, 222, 223, 224, 225, 226, 227, 228, 229, 230, 231, 232, 233, 234, 235, 236, 237, 238, 239, 240, 241, 242, 243, 244, 245, 246, 247, 248, 249, 250, 251, 252, 253, 254, 255, 256, 257, 258, 259, 260, 261, 262, 263, 264, 265, 266, 267, 268, 269, 270, 271, 272, 273, 274, 275, 276, 277, 278, 279, 280, 281, 282, 283, 284, 285, 286, 287, 288, 289, 290, 291, 292, 293, 294, 295, 296, 297, 298, 299, 300, 301, 302, 303, 304, 305, 306, 307, 308, 309, 310, 311, 312, 313, 314, 315, 316, 317, 318, 319, 320, 321, 322, 323, 324, 325, 326, 327, 328, 329, 330, 331, 332, 333, 334, 335, 336, 337, 338, 339, 340, 341, 342, 343, 344, 345, 346, 347, 348, 349, 350, 351, 352, 353, 354, 355, 356, 357, 358, 359, 360, 361, 362, 363, 364, 365, 366, 367, 368, 369, 370, 371, 372, 373, 374, 375, 376, 377, 378, 379, 380, 381, 382, 383, 384, 385, 386, 387, 388, 389, 390, 391, 392, 393, 394, 395, 396, 397, 398, 399, 400, 401, 402, 403, 404, 405, 406, 407, 408, 409, 410, 411, 412, 413, 414, 415, 416, 417, 418, 419, 420, 421, 422, 423, 424, 425, 426, 427, 428, 429, 430, 431, 432, 433, 434, 435, 436, 437, 438, 439, 440, 441, 442, 443, 444, 445],
      "AcquisitionTime": ["160431.330000", "160432.820000", "160434.310000", "160435.800000", "160437.290000", "160438.780000", "160440.270000", "160441.760000", "160443.250000", "160444.740000", "160446.230000", "160447.720000", "160449.210000", "160450.700000", "160452.190000", "160453.680000", "160455.170000", "160456.660000", "160458.150000", "160459.640000", "160501.130000", "160502.620000", "160504.110000", "160505.600000", "160507.090000", "160508.580000", "160510.070000", "160511.560000", "160513.050000", "160514.540000", "160516.030000", "160517.520000", "160519.010000", "160520.500000", "160521.990000", "160523.480000", "160524.970000", "160526.460000", "160527.950000", "160529.440000", "160530.930000", "160532.420000", "160533.910000", "160535.400000", "160536.890000", "160538.380000", "160539.870000", "160541.360000", "160542.850000", "160544.340000", "160545.830000", "160547.320000", "160548.810000", "160550.300000", "160551.790000", "160553.280000", "160554.770000", "160556.260000", "160557.750000", "160559.240000", "160600.730000", "160602.220000", "160603.710000", "160605.200000", "160606.690000", "160608.180000", "160609.670000", "160611.160000", "160612.650000", "160614.140000", "160615.630000", "160617.120000", "160618.610000", "160620.100000", "160621.590000", "160623.080000", "160624.570000", "160626.060000", "160627.550000", "160629.040000", "160630.530000", "160632.020000", "160633.510000", "160635.000000", "160636.490000", "160637.980000", "160639.470000", "160640.960000", "160642.450000", "160643.940000", "160645.430000", "160646.920000", "160648.410000", "160649.900000", "160651.390000", "160652.880000", "160654.370000", "160655.860000", "160657.350000", "160658.840000", "160700.330000", "160701.820000", "160703.310000", "160704.800000", "160706.290000", "160707.780000", "160709.270000", "160710.760000", "160712.250000", "160713.740000", "160715.230000", "160716.720000", "160718.210000", "160719.700000", "160721.190000", "160722.680000", "160724.170000", "160725.660000", "160727.150000", "160728.640000", "160730.130000", "160731.620000", "160733.110000", "160734.600000", "160736.090000", "160737.580000", "160739.070000", "160740.560000", "160742.050000", "160743.540000", "160745.030000", "160746.520000", "160748.010000", "160749.500000", "160750.990000", "160752.480000", "160753.970000", "160755.460000", "160756.950000", "160758.440000", "160759.930000", "160801.420000", "160802.910000", "160804.400000", "160805.890000", "160807.380000", "160808.870000", "160810.360000", "160811.850000", "160813.340000", "160814.830000", "160816.320000", "160817.810000", "160819.300000", "160820.790000", "160822.280000", "160823.770000", "160825.260000", "160826.750000", "160828.240000", "160829.730000", "160831.220000", "160832.710000", "160834.200000", "160835.690000", "160837.180000", "160838.670000", "160840.160000", "160841.650000", "160843.140000", "160844.630000", "160846.120000", "160847.610000", "160849.100000", "160850.590000", "160852.080000", "160853.570000", "160855.060000", "160856.550000", "160858.040000", "160859.530000", "160901.020000", "160902.510000", "160904.000000", "160905.490000", "160906.980000", "160908.470000", "160909.960000", "160911.450000", "160912.940000", "160914.430000", "160915.920000", "160917.410000", "160918.900000", "160920.390000", "160921.880000", "160923.370000", "160924.860000", "160926.350000", "160927.840000", "160929.330000", "160930.820000", "160932.310000", "160933.800000", "160935.290000", "160936.780000", "160938.270000", "160939.760000", "160941.250000", "160942.740000", "160944.230000", "160945.720000", "160947.210000", "160948.700000", "160950.190000", "160951.680000", "160953.170000", "160954.660000", "160956.150000", "160957.640000", "160959.130000", "161000.620000", "161002.110000", "161003.600000", "161005.090000", "161006.580000", "161008.070000", "161009.560000", "161011.050000", "161012.540000", "161014.030000", "161015.520000", "161017.010000", "161018.500000", "161019.990000", "161021.480000", "161022.970000", "161024.460000", "161025.950000", "161027.440000", "161028.930000", "161030.420000", "161031.910000", "161033.400000", "161034.890000", "161036.380000", "161037.870000", "161039.360000", "161040.850000", "161042.340000", "161043.830000", "161045.320000", "161046.810000", "161048.300000", "161049.790000", "161051.280000", "161052.770000", "161054.260000", "161055.750000", "161057.240000", "161058.730000", "161100.220000", "161101.710000", "161103.200000", "161104.690000", "161106.180000", "161107.670000", "161109.160000", "161110.650000", "161112.140000", "161113.630000", "161115.120000", "161116.610000", "161118.100000", "161119.590000", "161121.080000", "161122.570000", "161124.060000", "161125.550000", "161127.040000", "161128.530000", "161130.020000", "161131.510000", "161133.000000", "161134.490000", "161135.980000", "161137.470000", "161138.960000", "161140.450000", "161141.940000", "161143.430000", "161144.920000", "161146.410000", "161147.900000", "161149.390000", "161150.880000", "161152.370000", "161153.860000", "161155.350000", "161156.840000", "161158.330000", "161159.820000", "161201.310000", "161202.800000", "161204.290000", "161205.780000", "161207.270000", "161208.760000", "161210.250000", "161211.740000", "161213.230000", "161214.720000", "161216.210000", "161217.700000", "161219.190000", "161220.680000", "161222.170000", "161223.660000", "161225.150000", "161226.640000", "161228.130000", "161229.620000", "161231.110000", "161232.600000", "161234.090000", "161235.580000", "161237.070000", "161238.560000", "161240.050000", "161241.540000", "161243.030000", "161244.520000", "161246.010000", "161247.500000", "161248.990000", "161250.480000", "161251.970000", "161253.460000", "161254.950000", "161256.440000", "161257.930000", "161259.420000", "161300.910000", "161302.400000", "161303.890000", "161305.380000", "161306.870000", "161308.360000", "161309.850000", "161311.340000", "161312.830000", "161314.320000", "161315.810000", "161317.300000", "161318.790000", "161320.280000", "161321.770000", "161323.260000", "161324.750000", "161326.240000", "161327.730000", "161329.220000", "161330.710000", "161332.200000", "161333.690000", "161335.180000", "161336.670000", "161338.160000", "161339.650000", "161341.140000", "161342.630000", "161344.120000", "161345.610000", "161347.100000", "161348.590000", "161350.080000", "161351.570000", "161353.060000", "161354.550000", "161356.040000", "161357.530000", "161359.020000", "161400.510000", "161402.000000", "161403.490000", "161404.980000", "161406.470000", "161407.960000", "161409.450000", "161410.940000", "161412.430000", "161413.920000", "161415.410000", "161416.900000", "161418.390000", "161419.880000", "161421.370000", "161422.860000", "161424.350000", "161425.840000", "161427.330000", "161428.820000", "161430.310000", "161431.800000", "161433.290000", "161434.780000", "161436.270000", "161437.760000", "161439.250000", "161440.740000", "161442.230000", "161443.720000", "161445.210000", "161446.700000", "161448.190000", "161449.680000", "161451.170000", "161452.660000", "161454.150000", "161455.640000", "161457.130000", "161458.620000", "161500.110000", "161501.600000", "161503.090000", "161504.580000", "161506.070000", "161507.560000", "161509.050000", "161510.540000", "161512.030000", "161513.520000", "161515.010000", "161516.500000", "161517.990000", "161519.480000", "161520.970000", "161522.460000", "161523.950000", "161525.440000", "161526.930000", "161528.420000", "161529.910000", "161531.400000", "161532.890000"],
      "ContentTime": ["160541.372000", "160541.374000", "160541.377000", "160541.379000", "160541.382000", "160541.384000", "160541.387000", "160541.389000", "160541.392000", "160541.394000", "160541.397000", "160541.399000", "160541.402000", "160541.404000", "160541.406000", "160541.409000", "160541.411000", "160541.414000", "160541.416000", "160541.419000", "160541.421000", "160541.424000", "160601.587000", "160601.589000", "160601.592000", "160601.594000", "160601.597000", "160601.599000", "160601.602000", "160601.604000", "160601.607000", "160601.609000", "160601.611000", "160601.614000", "160601.616000", "160601.619000", "160601.621000", "160601.624000", "160601.626000", "160601.628000", "160601.631000", "160601.633000", "160621.877000", "160621.880000", "160621.883000", "160621.885000", "160621.888000", "160621.890000", "160621.893000", "160621.895000", "160621.898000", "160621.900000", "160621.902000", "160621.905000", "160621.907000", "160621.910000", "160621.912000", "160621.915000", "160621.924000", "160621.926000", "160621.929000", "160621.931000", "160641.361000", "160641.363000", "160641.366000", "160641.368000", "160641.371000", "160641.373000", "160641.376000", "160641.378000", "160641.381000", "160641.383000", "160641.386000", "160641.388000", "160641.390000", "160641.393000", "160641.395000", "160641.398000", "160641.400000", "160641.403000", "160641.406000", "160641.408000", "160641.411000", "160721.396000", "160721.398000", "160721.401000", "160721.403000", "160721.406000", "160721.408000", "160721.411000", "160721.413000", "160721.416000", "160721.418000", "160721.421000", "160721.423000", "160721.426000", "160721.428000", "160721.431000", "160721.433000", "160721.436000", "160721.438000", "160721.441000", "160721.443000", "160721.446000", "160721.448000", "160721.451000", "160721.453000", "160721.456000", "160721.458000", "160721.460000", "160721.463000", "160721.465000", "160721.468000", "160801.338000", "160801.341000", "160801.344000", "160801.346000", "160801.349000", "160801.352000", "160801.354000", "160801.357000", "160801.359000", "160801.362000", "160801.364000", "160801.367000", "160801.369000", "160801.372000", "160801.375000", "160801.377000", "160801.380000", "160801.382000", "160801.385000", "160801.387000", "160801.390000", "160801.393000", "160801.395000", "160801.398000", "160801.400000", "160801.403000", "160801.406000", "160841.332000", "160841.335000", "160841.337000", "160841.340000", "160841.342000", "160841.344000", "160841.347000", "160841.349000", "160841.352000", "160841.354000", "160841.357000", "160841.359000", "160841.362000", "160841.364000", "160841.367000", "160841.369000", "160841.372000", "160841.374000", "160841.377000", "160841.379000", "160841.382000", "160841.384000", "160841.387000", "160841.389000", "160841.392000", "160841.394000", "160841.397000", "160921.447000", "160921.450000", "160921.453000", "160921.455000", "160921.458000", "160921.460000", "160921.463000", "160921.465000", "160921.468000", "160921.470000", "160921.473000", "160921.475000", "160921.478000", "160921.480000", "160921.483000", "160921.485000", "160921.487000", "160921.490000", "160921.492000", "160921.495000", "160921.497000", "160921.500000", "160921.502000", "160921.505000", "160921.507000", "160921.510000", "161001.335000", "161001.338000", "161001.341000", "161001.343000", "161001.345000", "161001.348000", "161001.350000", "161001.353000", "161001.356000", "161001.359000", "161001.362000", "161001.364000", "161001.367000", "161001.369000", "161001.372000", "161001.375000", "161001.379000", "161001.382000", "161001.385000", "161001.388000", "161001.390000", "161001.393000", "161001.395000", "161001.398000", "161001.400000", "161001.403000", "161001.405000", "161041.344000", "161041.347000", "161041.349000", "161041.352000", "161041.354000", "161041.357000", "161041.359000", "161041.362000", "161041.364000", "161041.367000", "161041.369000", "161041.372000", "161041.374000", "161041.377000", "161041.379000", "161041.382000", "161041.384000", "161041.387000", "161041.389000", "161041.392000", "161041.394000", "161041.397000", "161041.399000", "161041.401000", "161041.404000", "161041.406000", "161041.409000", "161121.346000", "161121.349000", "161121.351000", "161121.353000", "161121.356000", "161121.358000", "161121.361000", "161121.363000", "161121.366000", "161121.368000", "161121.371000", "161121.373000", "161121.376000", "161121.378000", "161121.381000", "161121.383000", "161121.386000", "161121.388000", "161121.391000", "161121.393000", "161121.396000", "161121.398000", "161121.400000", "161121.403000", "161121.405000", "161121.408000", "161121.410000", "161201.337000", "161201.339000", "161201.342000", "161201.344000", "161201.347000", "161201.349000", "161201.352000", "161201.354000", "161201.356000", "161201.359000", "161201.361000", "161201.364000", "161201.366000", "161201.369000", "161201.371000", "161201.374000", "161201.376000", "161201.379000", "161201.381000", "161201.383000", "161201.386000", "161201.388000", "161201.391000", "161201.393000", "161201.396000", "161201.398000", "161201.401000", "161241.340000", "161241.343000", "161241.345000", "161241.347000", "161241.350000", "161241.352000", "161241.355000", "161241.357000", "161241.360000", "161241.362000", "161241.365000", "161241.367000", "161241.370000", "161241.373000", "161241.376000", "161241.378000", "161241.381000", "161241.383000", "161241.386000", "161241.388000", "161241.391000", "161241.393000", "161241.396000", "161241.398000", "161241.401000", "161241.403000", "161241.406000", "161321.354000", "161321.357000", "161321.359000", "161321.362000", "161321.364000", "161321.367000", "161321.369000", "161321.372000", "161321.374000", "161321.377000", "161321.379000", "161321.382000", "161321.384000", "161321.387000", "161321.389000", "161321.392000", "161321.394000", "161321.397000", "161321.399000", "161321.401000", "161321.404000", "161321.406000", "161321.409000", "161321.411000", "161321.414000", "161321.416000", "161321.419000", "161401.532000", "161401.537000", "161401.539000", "161401.542000", "161401.544000", "161401.546000", "161401.549000", "161401.551000", "161401.554000", "161401.556000", "161401.559000", "161401.562000", "161401.564000", "161401.567000", "161401.569000", "161401.572000", "161401.574000", "161401.577000", "161401.579000", "161401.581000", "161401.584000", "161401.586000", "161401.589000", "161401.591000", "161401.594000", "161401.596000", "161441.335000", "161441.338000", "161441.340000", "161441.343000", "161441.345000", "161441.347000", "161441.350000", "161441.352000", "161441.356000", "161441.358000", "161441.361000", "161441.363000", "161441.366000", "161441.369000", "161441.371000", "161441.373000", "161441.376000", "161441.378000", "161441.381000", "161441.383000", "161441.386000", "161441.388000", "161441.391000", "161441.393000", "161441.396000", "161441.398000", "161441.401000", "161521.320000", "161521.323000", "161521.325000", "161521.328000", "161521.330000", "161521.333000", "161521.335000", "161521.338000", "161521.340000", "161521.343000", "161521.345000", "161521.348000", "161521.350000", "161521.353000", "161521.355000", "161521.358000", "161521.360000", "161521.363000", "161521.365000", "161521.368000", "161521.370000", "161521.372000", "161521.375000", "161521.377000", "161521.380000", "161521.383000", "161521.385000", "161535.465000", "161535.468000", "161535.471000", "161535.473000", "161535.476000", "161535.478000", "161535.481000", "161535.483000", "161535.486000", "161535.498000"],
