{
  "AcquisitionMatrixPE": 104,
  "AcquisitionNumber": 1,
  "AcquisitionTime": "16:15:18.962500",
  "BandwidthPerPixelPhaseEncode": 17.17,
  "BaseResolution": 104,
  "BodyPartExamined": "BRAIN",
  "CoilCombinationMethod": "Sum of Squares",
  "ConsistencyInfo": "N4_VE11C_LATEST_20160120",
  "ConversionSoftware": "dcm2niix",
  "ConversionSoftwareVersion": "v1.0.20220505",
  "DerivedVendorReportedEchoSpacing": 0.000560011,
  "DeviceSerialNumber": "167006",
  "DwellTime": 2.1e-06,
  "EchoTime": 0.037,
  "EchoTrainLength": 104,
  "EffectiveEchoSpacing": 0.000560011,
  "FlipAngle": 52,
  "HeudiconvVersion": "0.5.3.post811+g6206e14",
  "ImageComments": "Unaliased MB4/PE3/LB",
  "ImageOrientationPatientDICOM": [0.999129, -0.0416066, 0.00312938, 0.0401292, 0.93769, -0.345148],
  "ImageOrientationText": "Tra>Cor(-20.2)>Sag(-0.7)",
  "ImageType": [
    "ORIGINAL",
    "PRIMARY",
    "M",
    "MB",
    "ND",
    "MOSAIC"
],
  "ImagingFrequency": 123.259,
  "InPlanePhaseEncodingDirectionDICOM": "COL",
  "InstitutionAddress": "Chemin Queen-Mary 4565,Montreal,District,CA,H3W 1W5",
  "InstitutionName": "IUGM",
  "InstitutionalDepartmentName": "Department",
  "MRAcquisitionType": "2D",
  "MagneticFieldStrength": 3,
  "Manufacturer": "Siemens",
  "ManufacturersModelName": "Prisma_fit",
  "MatrixCoilMode": "SENSE",
  "Modality": "MR",
  "MultibandAccelerationFactor": 4,
  "PartialFourier": 1,
  "PatientPosition": "HFS",
  "PercentPhaseFOV": 100,
  "PercentSampling": 100,
  "PhaseEncodingDirection": "j",
  "PhaseEncodingSteps": 104,
  "PhaseResolution": 1,
  "PixelBandwidth": 2290,
  "ProcedureStepDescription": "games^mario3",
  "ProtocolName": "func_task-mario3_run-02",
  "PulseSequenceDetails": "%CustomerSeq%\\cmrr_mbep2d_bold",
  "ReceiveCoilActiveElements": "HC1-7;NC1,2",
  "ReceiveCoilName": "HeadNeck_64",
  "ReconMatrixPE": 104,
  "RepetitionTime": 1.49,
  "SAR": 0.0519077,
  "ScanOptions": "FS",
  "ScanningSequence": "EP",
  "SequenceName": "epfid2d1_104",
  "SequenceVariant": "SK\\SS",
  "SeriesDescription": "func_task-mario3_run-02",
  "SeriesNumber": 13,
  "ShimSetting": [630, -7251, -8833, 530, 22, -217, -147, 11],
  "SliceThickness": 2,
  "SliceTiming": [0, 0.785, 0.1, 0.8825, 0.1975, 0.98, 0.295, 1.08, 0.3925, 1.1775, 0.49, 1.275, 0.59, 1.3725, 0.6875, 0, 0.785, 0.1, 0.8825, 0.1975, 0.98, 0.295, 1.08, 0.3925, 1.1775, 0.49, 1.275, 0.59, 1.3725, 0.6875, 0, 0.785, 0.1, 0.8825, 0.1975, 0.98, 0.295, 1.08, 0.3925, 1.1775, 0.49, 1.275, 0.59, 1.3725, 0.6875, 0, 0.785, 0.1, 0.8825, 0.1975, 0.98, 0.295, 1.08, 0.3925, 1.1775, 0.49, 1.275, 0.59, 1.3725, 0.6875],
  "SoftwareVersions": "syngo MR E11",
  "SpacingBetweenSlices": 2,
  "StationName": "MRC35049",
  "TaskName": "mario3",
  "TotalReadoutTime": 0.0576811,
  "TxRefAmp": 251.463,
  "WipMemBlock": "7e702a9d-fbfb-4906-9cbb-0dc108e1bc11||Sequence: R017 ve11c/master r/75a17815+; Jun 28 2022 16:32:11 by eja",
  "dcmmeta_affine": [
    [-1.998258352279663, 0.0802583172917366, -0.022852065041661263, 102.71678924560547],
    [0.08321323245763779, 1.875380277633667, -0.6899451613426208, -68.9932632446289],
    [0.0062587629072368145, 0.6902951598167419, 1.8770864009857178, -70.71192932128906],
    [0.0, 0.0, 0.0, 1.0]
],
  "dcmmeta_reorient_transform": [
    [0.0, -1.0, 0.0, 103.0],
    [1.0, 0.0, 0.0, 0.0],
    [0.0, 0.0, 1.0, 0.0],
    [0.0, 0.0, 0.0, 1.0]
],
  "dcmmeta_shape": [104, 104, 60, 366],
  "dcmmeta_slice_dim": 2,
  "dcmmeta_version": 0.6,
  "global": {
    "const": {
      "AcquisitionMatrix": [104, 0, 0, 104],
      "AngioFlag": "N",
      "BitsAllocated": 16,
      "BitsStored": 16,
      "BodyPartExamined": "BRAIN",
      "Columns": 832,
      "EchoNumbers": 1,
      "EchoTime": 37.0,
      "EchoTrainLength": 104,
      "FlipAngle": 52.0,
      "HighBit": 15,
      "ImageOrientationPatient": [0.99912916903306, -0.0416066167744, 0.00312938139219, 0.04012915857423, 0.93769014416198, -0.3451475686914],
      "ImagePositionPatient": [-867.56346176858, -776.51971477246, 249.37770864571],
      "ImageType": [
        "ORIGINAL",
        "PRIMARY",
        "M",
        "MB",
        "ND",
        "MOSAIC"
],
      "ImagedNucleus": "1H",
      "ImagingFrequency": 123.258797,
      "InPlanePhaseEncodingDirection": "COL",
      "MRAcquisitionType": "2D",
      "MagneticFieldStrength": 3.0,
      "Manufacturer": "SIEMENS",
      "ManufacturerModelName": "Prisma_fit",
      "Modality": "MR",
      "NumberOfAverages": 1.0,
      "NumberOfPhaseEncodingSteps": 104,
      "PercentPhaseFieldOfView": 100.0,
      "PercentSampling": 100.0,
      "PerformedProcedureStepStartTime": "155242.197000",
      "PhotometricInterpretation": "MONOCHROME2",
      "PixelBandwidth": 2290.0,
      "PixelRepresentation": 0,
      "PixelSpacing": [2.0, 2.0],
      "ProtocolName": "func_task-mario3_run-02",
      "RepetitionTime": 1490.0,
      "Rows": 832,
      "SAR": 0.05190771506416,
      "SamplesPerPixel": 1,
      "ScanOptions": "FS",
      "ScanningSequence": "EP",
      "SequenceName": "epfid2d1_104",
      "SequenceVariant": [
        "SK",
        "SS"
],
      "SeriesDescription": "func_task-mario3_run-02",
      "SeriesNumber": 13,
      "SeriesTime": "161622.244000",
      "SliceLocation": -43.739064108736,
      "SliceThickness": 2.0,
      "SmallestImagePixelValue": 0,
      "SoftwareVersions": "syngo MR E11",
      "SpacingBetweenSlices": 1.9999999541216,
      "SpecificCharacterSet": "ISO_IR 100",
      "StudyID": "1",
      "StudyTime": "155242.123000",
      "TransmitCoilName": "Body",
      "VariableFlipAngleFlag": "N",
      "WindowCenterWidthExplanation": "Algo1",
      "dBdt": 0.0},
    "slices": {}
  },
  "time": {
    "samples": {
      "AcquisitionNumber": [1, 2, 3, 4, 5, 6, 7, 8, 9, 10, 11, 12, 13, 14, 15, 16, 17, 18, 19, 20, 21, 22, 23, 24, 25, 26, 27, 28, 29, 30, 31, 32, 33, 34, 35, 36, 37, 38, 39, 40, 41, 42, 43, 44, 45, 46, 47, 48, 49, 50, 51, 52, 53, 54, 55, 56, 57, 58, 59, 60, 61, 62, 63, 64, 65, 66, 67, 68, 69, 70, 71, 72, 73, 74, 75, 76, 77, 78, 79, 80, 81, 82, 83, 84, 85, 86, 87, 88, 89, 90, 91, 92, 93, 94, 95, 96, 97, 98, 99, 100, 101, 102, 103, 104, 105, 106, 107, 108, 109, 110, 111, 112, 113, 114, 115, 116, 117, 118, 119, 120, 121, 122, 123, 124, 125, 126, 127, 128, 129, 130, 131, 132, 133, 134, 135, 136, 137, 138, 139, 140, 141, 142, 143, 144, 145, 146, 147, 148, 149, 150, 151, 152, 153, 154, 155, 156, 157, 158, 159, 160, 161, 162, 163, 164, 165, 166, 167, 168, 169, 170, 171, 172, 173, 174, 175, 176, 177, 178, 179, 180, 181, 182, 183, 184, 185, 186, 187, 188, 189, 190, 191, 192, 193, 194, 195, 196, 197, 198, 199, 200, 201, 202, 203, 204, 205, 206, 207, 208, 209, 210, 211, 212, 213, 214, 215, 216, 217, 218, 219, 220, 221, 222, 223, 224, 225, 226, 227, 228, 229, 230, 231, 232, 233, 234, 235, 236, 237, 238, 239, 240, 241, 242, 243, 244, 245, 246, 247, 248, 249, 250, 251, 252, 253, 254, 255, 256, 257, 258, 259, 260, 261, 262, 263, 264, 265, 266, 267, 268, 269, 270, 271, 272, 273, 274, 275, 276, 277, 278, 279, 280, 281, 282, 283, 284, 285, 286, 287, 288, 289, 290, 291, 292, 293, 294, 295, 296, 297, 298, 299, 300, 301, 302, 303, 304, 305, 306, 307, 308, 309, 310, 311, 312, 313, 314, 315, 316, 317, 318, 319, 320, 321, 322, 323, 324, 325, 326, 327, 328, 329, 330, 331, 332, 333, 334, 335, 336, 337, 338, 339, 340, 341, 342, 343, 344, 345, 346, 347, 348, 349, 350, 351, 352, 353, 354, 355, 356, 357, 358, 359, 360, 361, 362, 363, 364, 365, 366],
      "AcquisitionTime": ["161518.962500", "161520.452500", "161521.942500", "161523.432500", "161524.922500", "161526.412500", "161527.902500", "161529.392500", "161530.882500", "161532.372500", "161533.862500", "161535.352500", "161536.842500", "161538.332500", "161539.822500", "161541.312500", "161542.802500", "161544.292500", "161545.782500", "161547.272500", "161548.762500", "161550.252500", "161551.742500", "161553.232500", "161554.722500", "161556.212500", "161557.702500", "161559.192500", "161600.682500", "161602.172500", "161603.662500", "161605.152500", "161606.642500", "161608.132500", "161609.622500", "161611.112500", "161612.602500", "161614.092500", "161615.582500", "161617.072500", "161618.562500", "161620.052500", "161621.542500", "161623.032500", "161624.522500", "161626.012500", "161627.502500", "161628.992500", "161630.482500", "161631.972500", "161633.462500", "161634.952500", "161636.442500", "161637.932500", "161639.422500", "161640.912500", "161642.402500", "161643.892500", "161645.382500", "161646.872500", "161648.362500", "161649.852500", "161651.342500", "161652.832500", "161654.322500", "161655.812500", "161657.302500", "161658.792500", "161700.282500", "161701.772500", "161703.262500", "161704.752500", "161706.242500", "161707.732500", "161709.222500", "161710.712500", "161712.202500", "161713.692500", "161715.182500", "161716.672500", "161718.162500", "161719.652500", "161721.142500", "161722.632500", "161724.122500", "161725.612500", "161727.102500", "161728.592500", "161730.082500", "161731.572500", "161733.062500", "161734.552500", "161736.042500", "161737.532500", "161739.022500", "161740.512500", "161742.002500", "161743.492500", "161744.982500", "161746.472500", "161747.962500", "161749.452500", "161750.942500", "161752.432500", "161753.922500", "161755.412500", "161756.902500", "161758.392500", "161759.882500", "161801.372500", "161802.862500", "161804.352500", "161805.842500", "161807.332500", "161808.822500", "161810.312500", "161811.802500", "161813.292500", "161814.782500", "161816.272500", "161817.762500", "161819.252500", "161820.742500", "161822.232500", "161823.722500", "161825.212500", "161826.702500", "161828.192500", "161829.682500", "161831.172500", "161832.662500", "161834.152500", "161835.642500", "161837.132500", "161838.622500", "161840.112500", "161841.602500", "161843.092500", "161844.582500", "161846.072500", "161847.562500", "161849.052500", "161850.542500", "161852.032500", "161853.522500", "161855.012500", "161856.502500", "161857.992500", "161859.482500", "161900.972500", "161902.462500", "161903.952500", "161905.442500", "161906.932500", "161908.422500", "161909.912500", "161911.402500", "161912.892500", "161914.382500", "161915.872500", "161917.362500", "161918.852500", "161920.342500", "161921.832500", "161923.322500", "161924.812500", "161926.302500", "161927.792500", "161929.282500", "161930.772500", "161932.262500", "161933.752500", "161935.242500", "161936.732500", "161938.222500", "161939.712500", "161941.202500", "161942.692500", "161944.182500", "161945.672500", "161947.162500", "161948.652500", "161950.142500", "161951.632500", "161953.122500", "161954.612500", "161956.102500", "161957.592500", "161959.082500", "162000.572500", "162002.062500", "162003.552500", "162005.042500", "162006.532500", "162008.022500", "162009.512500", "162011.002500", "162012.492500", "162013.982500", "162015.472500", "162016.962500", "162018.452500", "162019.942500", "162021.432500", "162022.922500", "162024.412500", "162025.902500", "162027.392500", "162028.882500", "162030.372500", "162031.862500", "162033.352500", "162034.842500", "162036.332500", "162037.822500", "162039.312500", "162040.802500", "162042.292500", "162043.782500", "162045.272500", "162046.762500", "162048.252500", "162049.742500", "162051.232500", "162052.722500", "162054.212500", "162055.702500", "162057.192500", "162058.682500", "162100.172500", "162101.662500", "162103.152500", "162104.642500", "162106.132500", "162107.622500", "162109.112500", "162110.602500", "162112.092500", "162113.582500", "162115.072500", "162116.562500", "162118.052500", "162119.542500", "162121.032500", "162122.522500", "162124.012500", "162125.502500", "162126.992500", "162128.482500", "162129.972500", "162131.462500", "162132.952500", "162134.442500", "162135.932500", "162137.422500", "162138.912500", "162140.402500", "162141.892500", "162143.382500", "162144.872500", "162146.362500", "162147.852500", "162149.342500", "162150.832500", "162152.322500", "162153.812500", "162155.302500", "162156.792500", "162158.282500", "162159.772500", "162201.262500", "162202.752500", "162204.242500", "162205.732500", "162207.222500", "162208.712500", "162210.202500", "162211.692500", "162213.182500", "162214.672500", "162216.162500", "162217.652500", "162219.142500", "162220.632500", "162222.122500", "162223.612500", "162225.102500", "162226.592500", "162228.082500", "162229.572500", "162231.062500", "162232.552500", "162234.042500", "162235.532500", "162237.022500", "162238.512500", "162240.002500", "162241.492500", "162242.982500", "162244.472500", "162245.962500", "162247.452500", "162248.942500", "162250.432500", "162251.922500", "162253.412500", "162254.902500", "162256.392500", "162257.882500", "162259.372500", "162300.862500", "162302.352500", "162303.842500", "162305.332500", "162306.822500", "162308.312500", "162309.802500", "162311.292500", "162312.782500", "162314.272500", "162315.762500", "162317.252500", "162318.742500", "162320.232500", "162321.722500", "162323.212500", "162324.702500", "162326.192500", "162327.682500", "162329.172500", "162330.662500", "162332.152500", "162333.642500", "162335.132500", "162336.622500", "162338.112500", "162339.602500", "162341.092500", "162342.582500", "162344.072500", "162345.562500", "162347.052500", "162348.542500", "162350.032500", "162351.522500", "162353.012500", "162354.502500", "162355.992500", "162357.482500", "162358.972500", "162400.462500", "162401.952500", "162403.442500", "162404.932500", "162406.422500", "162407.912500", "162409.402500", "162410.892500", "162412.382500", "162413.872500", "162415.362500", "162416.852500", "162418.342500", "162419.832500", "162421.322500", "162422.812500"],
      "ContentTime": ["161622.247000", "161622.251000", "161622.255000", "161622.258000", "161622.262000", "161622.265000", "161622.269000", "161622.272000", "161622.275000", "161622.279000", "161622.282000", "161622.286000", "161622.289000", "161622.292000", "161642.213000", "161642.217000", "161642.220000", "161642.224000", "161642.227000", "161642.231000", "161642.234000", "161642.237000", "161642.241000", "161642.244000", "161642.248000", "161642.251000", "161642.255000", "161642.269000", "161642.272000", "161642.276000", "161642.279000", "161642.282000", "161642.286000", "161642.289000", "161702.213000", "161702.217000", "161702.220000", "161702.224000", "161702.227000", "161702.231000", "161702.234000", "161702.238000", "161702.241000", "161702.244000", "161702.248000", "161702.251000", "161702.255000", "161702.258000", "161702.262000", "161702.265000", "161702.269000", "161702.272000", "161702.276000", "161702.279000", "161722.212000", "161722.216000", "161722.219000", "161722.223000", "161722.226000", "161722.230000", "161722.233000", "161722.237000", "161722.240000", "161722.243000", "161722.247000", "161722.250000", "161722.254000", "161722.257000", "161722.261000", "161722.264000", "161722.268000", "161722.271000", "161722.282000", "161722.286000", "161722.289000", "161742.212000", "161742.216000", "161742.219000", "161742.223000", "161742.226000", "161742.230000", "161742.233000", "161742.237000", "161742.240000", "161742.243000", "161742.247000", "161742.251000", "161742.254000", "161742.258000", "161742.261000", "161742.264000", "161742.268000", "161742.271000", "161742.275000", "161742.278000", "161822.213000", "161822.217000", "161822.221000", "161822.224000", "161822.227000", "161822.231000", "161822.234000", "161822.238000", "161822.241000", "161822.245000", "161822.248000", "161822.251000", "161822.255000", "161822.258000", "161822.262000", "161822.283000", "161822.286000", "161822.290000", "161822.293000", "161822.297000", "161822.300000", "161822.304000", "161822.307000", "161822.310000", "161822.314000", "161822.317000", "161822.321000", "161902.214000", "161902.218000", "161902.222000", "161902.225000", "161902.229000", "161902.232000", "161902.235000", "161902.239000", "161902.243000", "161902.246000", "161902.249000", "161902.253000", "161902.256000", "161902.260000", "161902.263000", "161902.267000", "161902.270000", "161902.274000", "161902.277000", "161902.281000", "161902.284000", "161902.287000", "161902.291000", "161902.294000", "161902.298000", "161902.306000", "161902.310000", "161942.212000", "161942.216000", "161942.219000", "161942.223000", "161942.226000", "161942.230000", "161942.233000", "161942.237000", "161942.240000", "161942.244000", "161942.247000", "161942.251000", "161942.254000", "161942.257000", "161942.261000", "161942.264000", "161942.268000", "161942.271000", "161942.274000", "161942.278000", "161942.286000", "161942.289000", "161942.293000", "161942.296000", "161942.299000", "161942.303000", "161942.306000", "162022.213000", "162022.217000", "162022.220000", "162022.224000", "162022.227000", "162022.231000", "162022.234000", "162022.238000", "162022.241000", "162022.245000", "162022.248000", "162022.252000", "162022.255000", "162022.258000", "162022.262000", "162022.265000", "162022.269000", "162022.272000", "162022.276000", "162022.279000", "162022.283000", "162022.286000", "162022.290000", "162022.293000", "162022.297000", "162022.300000", "162022.304000", "162102.213000", "162102.217000", "162102.220000", "162102.224000", "162102.227000", "162102.231000", "162102.234000", "162102.238000", "162102.241000", "162102.245000", "162102.248000", "162102.252000", "162102.255000", "162102.259000", "162102.262000", "162102.266000", "162102.269000", "162102.272000", "162102.276000", "162102.279000", "162102.283000", "162102.286000", "162102.290000", "162102.293000", "162102.297000", "162102.300000", "162102.304000", "162142.214000", "162142.219000", "162142.222000", "162142.227000", "162142.230000", "162142.234000", "162142.238000", "162142.241000", "162142.245000", "162142.248000", "162142.252000", "162142.255000", "162142.259000", "162142.262000", "162142.266000", "162142.269000", "162142.273000", "162142.276000", "162142.279000", "162142.283000", "162142.286000", "162142.290000", "162142.293000", "162142.297000", "162142.300000", "162142.312000", "162222.212000", "162222.216000", "162222.219000", "162222.223000", "162222.226000", "162222.230000", "162222.233000", "162222.237000", "162222.240000", "162222.244000", "162222.247000", "162222.261000", "162222.265000", "162222.268000", "162222.272000", "162222.275000", "162222.279000", "162222.282000", "162222.286000", "162222.289000", "162222.293000", "162222.296000", "162222.299000", "162222.303000", "162222.307000", "162222.311000", "162222.314000", "162302.213000", "162302.217000", "162302.221000", "162302.224000", "162302.228000", "162302.231000", "162302.234000", "162302.238000", "162302.241000", "162302.245000", "162302.248000", "162302.252000", "162302.255000", "162302.259000", "162302.262000", "162302.265000", "162302.269000", "162302.272000", "162302.276000", "162302.279000", "162302.283000", "162302.286000", "162302.290000", "162302.293000", "162302.296000", "162302.300000", "162302.303000", "162322.213000", "162322.217000", "162322.221000", "162322.224000", "162322.228000", "162322.231000", "162322.235000", "162322.238000", "162322.242000", "162322.245000", "162322.249000", "162322.252000", "162322.255000", "162322.259000", "162402.213000", "162402.217000", "162402.221000", "162402.224000", "162402.228000", "162402.231000", "162402.234000", "162402.242000", "162402.245000", "162402.249000", "162402.252000", "162402.256000", "162402.261000", "162402.265000", "162402.268000", "162402.273000", "162402.277000", "162402.280000", "162402.284000", "162402.288000", "162402.292000", "162402.295000", "162402.299000", "162402.303000", "162402.306000", "162402.310000", "162425.637000", "162425.641000", "162425.644000", "162425.648000", "162425.651000", "162425.654000", "162425.658000", "162425.661000", "162425.665000", "162425.668000", "162425.672000", "162425.675000", "162425.679000", "162425.682000", "162425.685000", "162425.689000"],
      "InstanceCreationTime": ["161622.247000", "161622.251000", "161622.255000", "161622.258000", "161622.262000", "161622.265000", "161622.269000", "161622.272000", "161622.275000", "161622.279000", "161622.282000", "161622.286000", "161622.289000", "161622.292000", "161642.213000", "161642.217000", "161642.220000", "161642.224000", "161642.227000", "161642.231000", "161642.234000", "161642.237000", "161642.241000", "161642.244000", "161642.248000", "161642.251000", "161642.255000", "161642.269000", "161642.272000", "161642.276000", "161642.279000", "161642.282000", "161642.286000", "161642.289000", "161702.213000", "161702.217000", "161702.220000", "161702.224000", "161702.227000", "161702.231000", "161702.234000", "161702.238000", "161702.241000", "161702.244000", "161702.248000", "161702.251000", "161702.255000", "161702.258000", "161702.262000", "161702.265000", "161702.269000", "161702.272000", "161702.276000", "161702.279000", "161722.212000", "161722.216000", "161722.219000", "161722.223000", "161722.226000", "161722.230000", "161722.233000", "161722.237000", "161722.240000", "161722.243000", "161722.247000", "161722.250000", "161722.254000", "161722.257000", "161722.261000", "161722.264000", "161722.268000", "161722.271000", "161722.282000", "161722.286000", "161722.289000", "161742.212000", "161742.216000", "161742.219000", "161742.223000", "161742.226000", "161742.230000", "161742.233000", "161742.237000", "161742.240000", "161742.243000", "161742.247000", "161742.251000", "161742.254000", "161742.258000", "161742.261000", "161742.264000", "161742.268000", "161742.271000", "161742.275000", "161742.278000", "161822.213000", "161822.217000", "161822.221000", "161822.224000", "161822.227000", "161822.231000", "161822.234000", "161822.238000", "161822.241000", "161822.245000", "161822.248000", "161822.251000", "161822.255000", "161822.258000", "161822.262000", "161822.283000", "161822.286000", "161822.290000", "161822.293000", "161822.297000", "161822.300000", "161822.304000", "161822.307000", "161822.310000", "161822.314000", "161822.317000", "161822.321000", "161902.214000", "161902.218000", "161902.222000", "161902.225000", "161902.229000", "161902.232000", "161902.235000", "161902.239000", "161902.243000", "161902.246000", "161902.249000", "161902.253000", "161902.256000", "161902.260000", "161902.263000", "161902.267000", "161902.270000", "161902.274000", "161902.277000", "161902.281000", "161902.284000", "161902.287000", "161902.291000", "161902.294000", "161902.298000", "161902.306000", "161902.310000", "161942.212000", "161942.216000", "161942.219000", "161942.223000", "161942.226000", "161942.230000", "161942.233000", "161942.237000", "161942.240000", "161942.244000", "161942.247000", "161942.251000", "161942.254000", "161942.257000", "161942.261000", "161942.264000", "161942.268000", "161942.271000", "161942.274000", "161942.278000", "161942.286000", "161942.289000", "161942.293000", "161942.296000", "161942.299000", "161942.303000", "161942.306000", "162022.213000", "162022.217000", "162022.220000", "162022.224000", "162022.227000", "162022.231000", "162022.234000", "162022.238000", "162022.241000", "162022.245000", "162022.248000", "162022.252000", "162022.255000", "162022.258000", "162022.262000", "162022.265000", "162022.269000", "162022.272000", "162022.276000", "162022.279000", "162022.283000", "162022.286000", "162022.290000", "162022.293000", "162022.297000", "162022.300000", "162022.304000", "162102.213000", "162102.217000", "162102.220000", "162102.224000", "162102.227000", "162102.231000", "162102.234000", "162102.238000", "162102.241000", "162102.245000", "162102.248000", "162102.252000", "162102.255000", "162102.259000", "162102.262000", "162102.266000", "162102.269000", "162102.272000", "162102.276000", "162102.279000", "162102.283000", "162102.286000", "162102.290000", "162102.293000", "162102.297000", "162102.300000", "162102.304000", "162142.214000", "162142.219000", "162142.222000", "162142.227000", "162142.230000", "162142.234000", "162142.238000", "162142.241000", "162142.245000", "162142.248000", "162142.252000", "162142.255000", "162142.259000", "162142.262000", "162142.266000", "162142.269000", "162142.273000", "162142.276000", "162142.279000", "162142.283000", "162142.286000", "162142.290000", "162142.293000", "162142.297000", "162142.300000", "162142.312000", "162222.212000", "162222.216000", "162222.219000", "162222.223000", "162222.226000", "162222.230000", "162222.233000", "162222.237000", "162222.240000", "162222.244000", "162222.247000", "162222.261000", "162222.265000", "162222.268000", "162222.272000", "162222.275000", "162222.279000", "162222.282000", "162222.286000", "162222.289000", "162222.293000", "162222.296000", "162222.299000", "162222.303000", "162222.307000", "162222.311000", "162222.314000", "162302.213000", "162302.217000", "162302.221000", "162302.224000", "162302.228000", "162302.231000", "162302.234000", "162302.238000", "162302.241000", "162302.245000", "162302.248000", "162302.252000", "162302.255000", "162302.259000", "162302.262000", "162302.265000", "162302.269000", "162302.272000", "162302.276000", "162302.279000", "162302.283000", "162302.286000", "162302.290000", "162302.293000", "162302.296000", "162302.300000", "162302.303000", "162322.213000", "162322.217000", "162322.221000", "162322.224000", "162322.228000", "162322.231000", "162322.235000", "162322.238000", "162322.242000", "162322.245000", "162322.249000", "162322.252000", "162322.255000", "162322.259000", "162402.213000", "162402.217000", "162402.221000", "162402.224000", "162402.228000", "162402.231000", "162402.234000", "162402.242000", "162402.245000", "162402.249000", "162402.252000", "162402.256000", "162402.261000", "162402.265000", "162402.268000", "162402.273000", "162402.277000", "162402.280000", "162402.284000", "162402.288000", "162402.292000", "162402.295000", "162402.299000", "162402.303000", "162402.306000", "162402.310000", "162425.637000", "162425.641000", "162425.644000", "162425.648000", "162425.651000", "162425.654000", "162425.658000", "162425.661000", "162425.665000", "162425.668000", "162425.672000", "162425.675000", "162425.679000", "162425.682000", "162425.685000", "162425.689000"],
      "InstanceNumber": [1, 2, 3, 4, 5, 6, 7, 8, 9, 10, 11, 12, 13, 14, 15, 16, 17, 18, 19, 20, 21, 22, 23, 24, 25, 26, 27, 28, 29, 30, 31, 32, 33, 34, 35, 36, 37, 38, 39, 40, 41, 42, 43, 44, 45, 46, 47, 48, 49, 50, 51, 52, 53, 54, 55, 56, 57, 58, 59, 60, 61, 62, 63, 64, 65, 66, 67, 68, 69, 70, 71, 72, 73, 74, 75, 76, 77, 78, 79, 80, 81, 82, 83, 84, 85, 86, 87, 88, 89, 90, 91, 92, 93, 94, 95, 96, 97, 98, 99, 100, 101, 102, 103, 104, 105, 106, 107, 108, 109, 110, 111, 112, 113, 114, 115, 116, 117, 118, 119, 120, 121, 122, 123, 124, 125, 126, 127, 128, 129, 130, 131, 132, 133, 134, 135, 136, 137, 138, 139, 140, 141, 142, 143, 144, 145, 146, 147, 148, 149, 150, 151, 152, 153, 154, 155, 156, 157, 158, 159, 160, 161, 162, 163, 164, 165, 166, 167, 168, 169, 170, 171, 172, 173, 174, 175, 176, 177, 178, 179, 180, 181, 182, 183, 184, 185, 186, 187, 188, 189, 190, 191, 192, 193, 194, 195, 196, 197, 198, 199, 200, 201, 202, 203, 204, 205, 206, 207, 208, 209, 210, 211, 212, 213, 214, 215, 216, 217, 218, 219, 220, 221, 222, 223, 224, 225, 226, 227, 228, 229, 230, 231, 232, 233, 234, 235, 236, 237, 238, 239, 240, 241, 242, 243, 244, 245, 246, 247, 248, 249, 250, 251, 252, 253, 254, 255, 256, 257, 258, 259, 260, 261, 262, 263, 264, 265, 266, 267, 268, 269, 270, 271, 272, 273, 274, 275, 276, 277, 278, 279, 280, 281, 282, 283, 284, 285, 286, 287, 288, 289, 290, 291, 292, 293, 294, 295, 296, 297, 298, 299, 300, 301, 302, 303, 304, 305, 306, 307, 308, 309, 310, 311, 312, 313, 314, 315, 316, 317, 318, 319, 320, 321, 322, 323, 324, 325, 326, 327, 328, 329, 330, 331, 332, 333, 334, 335, 336, 337, 338, 339, 340, 341, 342, 343, 344, 345, 346, 347, 348, 349, 350, 351, 352, 353, 354, 355, 356, 357, 358, 359, 360, 361, 362, 363, 364, 365, 366],
