{
  "AcquisitionMatrixPE": 104,
  "AcquisitionNumber": 1,
  "AcquisitionTime": "15:55:45.135000",
  "BandwidthPerPixelPhaseEncode": 17.17,
  "BaseResolution": 104,
  "BodyPartExamined": "BRAIN",
  "CoilCombinationMethod": "Sum of Squares",
  "ConsistencyInfo": "N4_VE11C_LATEST_20160120",
  "ConversionSoftware": "dcm2niix",
  "ConversionSoftwareVersion": "v1.0.20220505",
  "DerivedVendorReportedEchoSpacing": 0.000560011,
  "DeviceSerialNumber": "167006",
  "DwellTime": 2.1e-06,
  "EchoTime": 0.037,
  "EchoTime1": 0.037,
  "EchoTime2": 0.001,
  "EchoTrainLength": 104,
  "EffectiveEchoSpacing": 0.000560011,
  "FlipAngle": 52,
  "HeudiconvVersion": "0.5.3.post811+g6206e14",
  "ImageComments": "Unaliased MB4/PE3/LB",
  "ImageOrientationPatientDICOM": [0.999129, -0.0416066, 0.00312938, 0.0401292, 0.93769, -0.345148],
  "ImageOrientationText": "Tra>Cor(-20.2)>Sag(-0.7)",
  "ImageType": [
    "ORIGINAL",
    "PRIMARY",
    "P",
    "MB",
    "ND",
    "MOSAIC",
    "PHASE"
],
  "ImagingFrequency": 123.259,
  "InPlanePhaseEncodingDirectionDICOM": "COL",
  "InstitutionAddress": "Chemin Queen-Mary 4565,Montreal,District,CA,H3W 1W5",
  "InstitutionName": "IUGM",
  "InstitutionalDepartmentName": "Department",
  "MRAcquisitionType": "2D",
  "MagneticFieldStrength": 3,
  "Manufacturer": "Siemens",
  "ManufacturersModelName": "Prisma_fit",
  "MatrixCoilMode": "SENSE",
  "Modality": "MR",
  "MultibandAccelerationFactor": 4,
  "PartialFourier": 1,
  "PatientPosition": "HFS",
  "PercentPhaseFOV": 100,
  "PercentSampling": 100,
  "PhaseEncodingDirection": "j",
  "PhaseEncodingSteps": 104,
  "PhaseResolution": 1,
  "PixelBandwidth": 2290,
  "ProcedureStepDescription": "games^mario3",
  "ProtocolName": "func_task-mario3_run-01",
  "PulseSequenceDetails": "%CustomerSeq%\\cmrr_mbep2d_bold",
  "ReceiveCoilActiveElements": "HC1-7;NC1,2",
  "ReceiveCoilName": "HeadNeck_64",
  "ReconMatrixPE": 104,
  "RepetitionTime": 1.49,
  "SAR": 0.0519077,
  "ScanOptions": "FS",
  "ScanningSequence": "EP",
  "SequenceName": "epfid2d1_104",
  "SequenceVariant": "SK\\SS",
  "SeriesDescription": "func_task-mario3_run-01",
  "SeriesNumber": 11,
  "ShimSetting": [630, -7251, -8833, 530, 22, -217, -147, 11],
  "SliceThickness": 2,
  "SliceTiming": [0, 0.785, 0.0975, 0.8825, 0.1975, 0.98, 0.295, 1.0775, 0.3925, 1.1775, 0.49, 1.275, 0.5875, 1.3725, 0.6875, 0, 0.785, 0.0975, 0.8825, 0.1975, 0.98, 0.295, 1.0775, 0.3925, 1.1775, 0.49, 1.275, 0.5875, 1.3725, 0.6875, 0, 0.785, 0.0975, 0.8825, 0.1975, 0.98, 0.295, 1.0775, 0.3925, 1.1775, 0.49, 1.275, 0.5875, 1.3725, 0.6875, 0, 0.785, 0.0975, 0.8825, 0.1975, 0.98, 0.295, 1.0775, 0.3925, 1.1775, 0.49, 1.275, 0.5875, 1.3725, 0.6875],
  "SoftwareVersions": "syngo MR E11",
  "SpacingBetweenSlices": 2,
  "StationName": "MRC35049",
  "TaskName": "mario3",
  "TotalReadoutTime": 0.0576811,
  "TxRefAmp": 251.463,
  "WipMemBlock": "7e84574a-6df1-406c-8e5f-d7cd2f675f87||Sequence: R017 ve11c/master r/75a17815+; Jun 28 2022 16:32:11 by eja",
  "dcmmeta_affine": [
    [-1.998258352279663, 0.0802583172917366, -0.022852065041661263, 102.71678924560547],
    [0.08321323245763779, 1.875380277633667, -0.6899451613426208, -68.9932632446289],
    [0.0062587629072368145, 0.6902951598167419, 1.8770864009857178, -70.71192932128906],
    [0.0, 0.0, 0.0, 1.0]
],
  "dcmmeta_reorient_transform": [
    [0.0, -1.0, 0.0, 103.0],
    [1.0, 0.0, 0.0, 0.0],
    [0.0, 0.0, 1.0, 0.0],
    [0.0, 0.0, 0.0, 1.0]
],
  "dcmmeta_shape": [104, 104, 60, 393],
  "dcmmeta_slice_dim": 2,
  "dcmmeta_version": 0.6,
  "global": {
    "const": {
      "AcquisitionMatrix": [104, 0, 0, 104],
      "AngioFlag": "N",
      "BitsAllocated": 16,
      "BitsStored": 16,
      "BodyPartExamined": "BRAIN",
      "Columns": 832,
      "EchoNumbers": 1,
      "EchoTime": 37.0,
      "EchoTrainLength": 104,
      "FlipAngle": 52.0,
      "HighBit": 15,
      "ImageOrientationPatient": [0.99912916903306, -0.0416066167744, 0.00312938139219, 0.04012915857423, 0.93769014416198, -0.3451475686914],
      "ImagePositionPatient": [-867.56346176858, -776.51971477246, 249.37770864571],
      "ImageType": [
        "ORIGINAL",
        "PRIMARY",
        "P",
        "MB",
        "ND",
        "MOSAIC"
],
      "ImagedNucleus": "1H",
      "ImagingFrequency": 123.258792,
      "InPlanePhaseEncodingDirection": "COL",
      "LargestImagePixelValue": 4095,
      "MRAcquisitionType": "2D",
      "MagneticFieldStrength": 3.0,
      "Manufacturer": "SIEMENS",
      "ManufacturerModelName": "Prisma_fit",
      "Modality": "MR",
      "NumberOfAverages": 1.0,
      "NumberOfPhaseEncodingSteps": 104,
      "PercentPhaseFieldOfView": 100.0,
      "PercentSampling": 100.0,
      "PerformedProcedureStepStartTime": "155242.197000",
      "PhotometricInterpretation": "MONOCHROME2",
      "PixelBandwidth": 2290.0,
      "PixelRepresentation": 0,
      "PixelSpacing": [2.0, 2.0],
      "ProtocolName": "func_task-mario3_run-01",
      "RepetitionTime": 1490.0,
      "RescaleIntercept": -4096.0,
      "RescaleSlope": 2.0,
      "RescaleType": "US",
      "Rows": 832,
      "SAR": 0.05190771506416,
      "SamplesPerPixel": 1,
      "ScanOptions": "FS",
      "ScanningSequence": "EP",
      "SequenceName": "epfid2d1_104",
      "SequenceVariant": [
        "SK",
        "SS"
],
      "SeriesDescription": "func_task-mario3_run-01",
      "SeriesNumber": 11,
      "SeriesTime": "155707.108000",
      "SliceLocation": -43.739064108736,
      "SliceThickness": 2.0,
      "SmallestImagePixelValue": 0,
      "SoftwareVersions": "syngo MR E11",
      "SpacingBetweenSlices": 1.9999999541216,
      "SpecificCharacterSet": "ISO_IR 100",
      "StudyID": "1",
      "StudyTime": "155242.123000",
      "TransmitCoilName": "Body",
      "VariableFlipAngleFlag": "N",
      "WindowCenterWidthExplanation": "Algo1",
      "dBdt": 0.0},
    "slices": {}
  },
  "time": {
    "samples": {
      "AcquisitionNumber": [1, 2, 3, 4, 5, 6, 7, 8, 9, 10, 11, 12, 13, 14, 15, 16, 17, 18, 19, 20, 21, 22, 23, 24, 25, 26, 27, 28, 29, 30, 31, 32, 33, 34, 35, 36, 37, 38, 39, 40, 41, 42, 43, 44, 45, 46, 47, 48, 49, 50, 51, 52, 53, 54, 55, 56, 57, 58, 59, 60, 61, 62, 63, 64, 65, 66, 67, 68, 69, 70, 71, 72, 73, 74, 75, 76, 77, 78, 79, 80, 81, 82, 83, 84, 85, 86, 87, 88, 89, 90, 91, 92, 93, 94, 95, 96, 97, 98, 99, 100, 101, 102, 103, 104, 105, 106, 107, 108, 109, 110, 111, 112, 113, 114, 115, 116, 117, 118, 119, 120, 121, 122, 123, 124, 125, 126, 127, 128, 129, 130, 131, 132, 133, 134, 135, 136, 137, 138, 139, 140, 141, 142, 143, 144, 145, 146, 147, 148, 149, 150, 151, 152, 153, 154, 155, 156, 157, 158, 159, 160, 161, 162, 163, 164, 165, 166, 167, 168, 169, 170, 171, 172, 173, 174, 175, 176, 177, 178, 179, 180, 181, 182, 183, 184, 185, 186, 187, 188, 189, 190, 191, 192, 193, 194, 195, 196, 197, 198, 199, 200, 201, 202, 203, 204, 205, 206, 207, 208, 209, 210, 211, 212, 213, 214, 215, 216, 217, 218, 219, 220, 221, 222, 223, 224, 225, 226, 227, 228, 229, 230, 231, 232, 233, 234, 235, 236, 237, 238, 239, 240, 241, 242, 243, 244, 245, 246, 247, 248, 249, 250, 251, 252, 253, 254, 255, 256, 257, 258, 259, 260, 261, 262, 263, 264, 265, 266, 267, 268, 269, 270, 271, 272, 273, 274, 275, 276, 277, 278, 279, 280, 281, 282, 283, 284, 285, 286, 287, 288, 289, 290, 291, 292, 293, 294, 295, 296, 297, 298, 299, 300, 301, 302, 303, 304, 305, 306, 307, 308, 309, 310, 311, 312, 313, 314, 315, 316, 317, 318, 319, 320, 321, 322, 323, 324, 325, 326, 327, 328, 329, 330, 331, 332, 333, 334, 335, 336, 337, 338, 339, 340, 341, 342, 343, 344, 345, 346, 347, 348, 349, 350, 351, 352, 353, 354, 355, 356, 357, 358, 359, 360, 361, 362, 363, 364, 365, 366, 367, 368, 369, 370, 371, 372, 373, 374, 375, 376, 377, 378, 379, 380, 381, 382, 383, 384, 385, 386, 387, 388, 389, 390, 391, 392, 393],
      "AcquisitionTime": ["155545.135000", "155546.625000", "155548.115000", "155549.605000", "155551.095000", "155552.585000", "155554.075000", "155555.565000", "155557.055000", "155558.545000", "155600.035000", "155601.525000", "155603.015000", "155604.505000", "155605.995000", "155607.485000", "155608.975000", "155610.465000", "155611.955000", "155613.445000", "155614.935000", "155616.425000", "155617.915000", "155619.405000", "155620.895000", "155622.385000", "155623.875000", "155625.365000", "155626.855000", "155628.345000", "155629.835000", "155631.325000", "155632.815000", "155634.305000", "155635.795000", "155637.285000", "155638.775000", "155640.265000", "155641.755000", "155643.245000", "155644.735000", "155646.225000", "155647.715000", "155649.205000", "155650.695000", "155652.185000", "155653.675000", "155655.165000", "155656.655000", "155658.145000", "155659.635000", "155701.125000", "155702.615000", "155704.105000", "155705.595000", "155707.085000", "155708.575000", "155710.065000", "155711.555000", "155713.045000", "155714.535000", "155716.025000", "155717.515000", "155719.005000", "155720.495000", "155721.985000", "155723.475000", "155724.965000", "155726.455000", "155727.945000", "155729.435000", "155730.925000", "155732.415000", "155733.905000", "155735.395000", "155736.885000", "155738.375000", "155739.865000", "155741.355000", "155742.845000", "155744.335000", "155745.825000", "155747.315000", "155748.805000", "155750.295000", "155751.785000", "155753.275000", "155754.765000", "155756.255000", "155757.745000", "155759.235000", "155800.725000", "155802.215000", "155803.705000", "155805.195000", "155806.685000", "155808.175000", "155809.665000", "155811.155000", "155812.645000", "155814.135000", "155815.625000", "155817.115000", "155818.605000", "155820.095000", "155821.585000", "155823.075000", "155824.565000", "155826.055000", "155827.545000", "155829.035000", "155830.525000", "155832.015000", "155833.505000", "155834.995000", "155836.485000", "155837.975000", "155839.465000", "155840.955000", "155842.445000", "155843.935000", "155845.425000", "155846.915000", "155848.405000", "155849.895000", "155851.385000", "155852.875000", "155854.365000", "155855.855000", "155857.345000", "155858.835000", "155900.325000", "155901.815000", "155903.305000", "155904.795000", "155906.285000", "155907.775000", "155909.265000", "155910.755000", "155912.245000", "155913.735000", "155915.225000", "155916.715000", "155918.205000", "155919.695000", "155921.185000", "155922.675000", "155924.165000", "155925.655000", "155927.145000", "155928.635000", "155930.125000", "155931.615000", "155933.105000", "155934.595000", "155936.085000", "155937.575000", "155939.065000", "155940.555000", "155942.045000", "155943.535000", "155945.025000", "155946.515000", "155948.005000", "155949.495000", "155950.985000", "155952.475000", "155953.965000", "155955.455000", "155956.945000", "155958.435000", "155959.925000", "160001.415000", "160002.905000", "160004.395000", "160005.885000", "160007.375000", "160008.865000", "160010.355000", "160011.845000", "160013.335000", "160014.825000", "160016.315000", "160017.805000", "160019.295000", "160020.785000", "160022.275000", "160023.765000", "160025.255000", "160026.745000", "160028.235000", "160029.725000", "160031.215000", "160032.705000", "160034.195000", "160035.685000", "160037.175000", "160038.665000", "160040.155000", "160041.645000", "160043.135000", "160044.625000", "160046.115000", "160047.605000", "160049.095000", "160050.585000", "160052.075000", "160053.565000", "160055.055000", "160056.545000", "160058.035000", "160059.525000", "160101.015000", "160102.505000", "160103.995000", "160105.485000", "160106.975000", "160108.465000", "160109.955000", "160111.445000", "160112.935000", "160114.425000", "160115.915000", "160117.405000", "160118.895000", "160120.385000", "160121.875000", "160123.365000", "160124.855000", "160126.345000", "160127.835000", "160129.325000", "160130.815000", "160132.305000", "160133.795000", "160135.285000", "160136.775000", "160138.265000", "160139.755000", "160141.245000", "160142.735000", "160144.225000", "160145.715000", "160147.205000", "160148.695000", "160150.185000", "160151.675000", "160153.165000", "160154.655000", "160156.145000", "160157.635000", "160159.125000", "160200.615000", "160202.105000", "160203.595000", "160205.085000", "160206.575000", "160208.065000", "160209.555000", "160211.045000", "160212.535000", "160214.025000", "160215.515000", "160217.005000", "160218.495000", "160219.985000", "160221.475000", "160222.965000", "160224.455000", "160225.945000", "160227.435000", "160228.925000", "160230.415000", "160231.905000", "160233.395000", "160234.885000", "160236.375000", "160237.865000", "160239.355000", "160240.845000", "160242.335000", "160243.825000", "160245.315000", "160246.805000", "160248.295000", "160249.785000", "160251.275000", "160252.765000", "160254.255000", "160255.745000", "160257.235000", "160258.725000", "160300.215000", "160301.705000", "160303.195000", "160304.685000", "160306.175000", "160307.665000", "160309.155000", "160310.645000", "160312.135000", "160313.625000", "160315.115000", "160316.605000", "160318.095000", "160319.585000", "160321.075000", "160322.565000", "160324.055000", "160325.545000", "160327.035000", "160328.525000", "160330.015000", "160331.505000", "160332.995000", "160334.485000", "160335.975000", "160337.465000", "160338.955000", "160340.445000", "160341.935000", "160343.425000", "160344.915000", "160346.405000", "160347.895000", "160349.385000", "160350.875000", "160352.365000", "160353.855000", "160355.345000", "160356.835000", "160358.325000", "160359.815000", "160401.305000", "160402.795000", "160404.285000", "160405.775000", "160407.265000", "160408.755000", "160410.245000", "160411.735000", "160413.225000", "160414.715000", "160416.205000", "160417.695000", "160419.185000", "160420.675000", "160422.165000", "160423.655000", "160425.145000", "160426.635000", "160428.125000", "160429.615000", "160431.105000", "160432.595000", "160434.085000", "160435.575000", "160437.065000", "160438.555000", "160440.045000", "160441.535000", "160443.025000", "160444.515000", "160446.005000", "160447.495000", "160448.985000", "160450.475000", "160451.965000", "160453.455000", "160454.945000", "160456.435000", "160457.925000", "160459.415000", "160500.905000", "160502.395000", "160503.885000", "160505.375000", "160506.865000", "160508.355000", "160509.845000", "160511.335000", "160512.825000", "160514.315000", "160515.805000", "160517.295000", "160518.785000", "160520.275000", "160521.765000", "160523.255000", "160524.745000", "160526.235000", "160527.725000", "160529.215000"],
      "ContentTime": ["155707.110000", "155707.113000", "155707.116000", "155707.118000", "155707.121000", "155707.124000", "155707.126000", "155707.129000", "155707.131000", "155707.134000", "155707.137000", "155707.139000", "155707.142000", "155707.144000", "155707.147000", "155707.149000", "155707.152000", "155707.154000", "155707.157000", "155707.160000", "155707.162000", "155707.165000", "155707.167000", "155707.170000", "155707.172000", "155707.175000", "155707.178000", "155707.180000", "155707.191000", "155707.194000", "155707.196000", "155707.199000", "155707.201000", "155707.204000", "155726.976000", "155726.978000", "155726.981000", "155726.984000", "155726.986000", "155726.989000", "155726.991000", "155726.994000", "155726.996000", "155727.000000", "155727.002000", "155727.005000", "155727.008000", "155727.010000", "155727.013000", "155727.015000", "155727.018000", "155727.020000", "155727.023000", "155727.025000", "155746.974000", "155746.977000", "155746.980000", "155746.982000", "155746.985000", "155746.988000", "155746.990000", "155746.993000", "155746.995000", "155746.998000", "155747.001000", "155747.004000", "155747.007000", "155747.010000", "155747.012000", "155747.015000", "155747.018000", "155747.020000", "155747.023000", "155747.025000", "155806.985000", "155806.988000", "155806.991000", "155806.993000", "155806.996000", "155807.000000", "155807.002000", "155807.005000", "155807.007000", "155807.010000", "155807.012000", "155807.015000", "155807.018000", "155807.020000", "155807.023000", "155807.025000", "155807.028000", "155807.030000", "155807.033000", "155807.036000", "155847.016000", "155847.019000", "155847.022000", "155847.024000", "155847.027000", "155847.030000", "155847.032000", "155847.035000", "155847.037000", "155847.040000", "155847.042000", "155847.045000", "155847.047000", "155847.050000", "155847.053000", "155847.055000", "155847.058000", "155847.061000", "155847.063000", "155847.066000", "155847.068000", "155847.071000", "155847.074000", "155847.076000", "155847.079000", "155847.082000", "155847.084000", "155927.019000", "155927.022000", "155927.024000", "155927.027000", "155927.030000", "155927.032000", "155927.035000", "155927.037000", "155927.040000", "155927.042000", "155927.045000", "155927.048000", "155927.050000", "155927.053000", "155927.055000", "155927.058000", "155927.060000", "155927.063000", "155927.065000", "155927.068000", "155927.071000", "155927.073000", "155927.076000", "155927.078000", "155927.081000", "155927.083000", "155927.086000", "160006.998000", "160007.002000", "160007.005000", "160007.007000", "160007.010000", "160007.013000", "160007.016000", "160007.018000", "160007.021000", "160007.024000", "160007.026000", "160007.035000", "160007.038000", "160007.041000", "160007.043000", "160007.046000", "160007.048000", "160007.051000", "160007.054000", "160007.056000", "160007.059000", "160007.061000", "160007.064000", "160007.066000", "160007.069000", "160007.072000", "160007.074000", "160047.041000", "160047.044000", "160047.046000", "160047.049000", "160047.051000", "160047.054000", "160047.057000", "160047.059000", "160047.062000", "160047.064000", "160047.067000", "160047.070000", "160047.073000", "160047.075000", "160047.078000", "160047.080000", "160047.083000", "160047.086000", "160047.088000", "160047.091000", "160047.094000", "160047.096000", "160047.099000", "160047.101000", "160047.104000", "160047.106000", "160047.109000", "160127.015000", "160127.018000", "160127.020000", "160127.023000", "160127.026000", "160127.028000", "160127.031000", "160127.033000", "160127.036000", "160127.039000", "160127.041000", "160127.044000", "160127.046000", "160127.049000", "160127.051000", "160127.054000", "160127.057000", "160127.059000", "160127.062000", "160127.064000", "160127.067000", "160127.069000", "160127.072000", "160127.075000", "160127.077000", "160127.080000", "160207.006000", "160207.009000", "160207.011000", "160207.014000", "160207.016000", "160207.019000", "160207.021000", "160207.024000", "160207.027000", "160207.029000", "160207.032000", "160207.034000", "160207.037000", "160207.040000", "160207.042000", "160207.045000", "160207.048000", "160207.050000", "160207.053000", "160207.055000", "160207.058000", "160207.060000", "160207.063000", "160207.066000", "160207.068000", "160207.071000", "160207.073000", "160247.019000", "160247.022000", "160247.025000", "160247.027000", "160247.030000", "160247.032000", "160247.035000", "160247.038000", "160247.040000", "160247.043000", "160247.046000", "160247.048000", "160247.051000", "160247.054000", "160247.056000", "160247.059000", "160247.061000", "160247.064000", "160247.067000", "160247.069000", "160247.072000", "160247.074000", "160247.077000", "160247.079000", "160247.082000", "160247.085000", "160247.087000", "160327.027000", "160327.030000", "160327.033000", "160327.035000", "160327.038000", "160327.041000", "160327.043000", "160327.046000", "160327.048000", "160327.051000", "160327.053000", "160327.056000", "160327.059000", "160327.061000", "160327.064000", "160327.066000", "160327.069000", "160327.071000", "160327.074000", "160327.077000", "160327.079000", "160327.082000", "160327.084000", "160327.087000", "160327.089000", "160327.092000", "160327.095000", "160407.013000", "160407.016000", "160407.019000", "160407.021000", "160407.024000", "160407.027000", "160407.029000", "160407.032000", "160407.034000", "160407.037000", "160407.040000", "160407.042000", "160407.045000", "160407.047000", "160407.050000", "160407.052000", "160407.055000", "160407.058000", "160407.060000", "160407.063000", "160407.066000", "160407.068000", "160407.071000", "160407.073000", "160407.076000", "160407.078000", "160407.081000", "160447.008000", "160447.011000", "160447.013000", "160447.016000", "160447.019000", "160447.021000", "160447.024000", "160447.026000", "160447.029000", "160447.031000", "160447.034000", "160447.037000", "160447.039000", "160447.042000", "160447.044000", "160447.047000", "160447.049000", "160447.052000", "160447.055000", "160447.057000", "160447.060000", "160447.062000", "160447.065000", "160447.067000", "160447.070000", "160447.073000", "160447.075000", "160527.034000", "160527.037000", "160527.039000", "160527.042000", "160527.044000", "160527.047000", "160527.050000", "160527.052000", "160527.055000", "160527.057000", "160527.060000", "160527.062000", "160527.065000", "160527.068000", "160527.070000", "160527.073000", "160527.075000", "160527.078000", "160527.081000", "160527.083000", "160527.086000", "160527.088000", "160527.091000", "160527.094000", "160527.096000", "160527.099000", "160527.102000", "160531.449000", "160531.452000", "160531.455000"],
      "InstanceCreationTime": ["155707.110000", "155707.113000", "155707.116000", "155707.118000", "155707.121000", "155707.124000", "155707.126000", "155707.129000", "155707.131000", "155707.134000", "155707.137000", "155707.139000", "155707.142000", "155707.144000", "155707.147000", "155707.149000", "155707.152000", "155707.154000", "155707.157000", "155707.160000", "155707.162000", "155707.165000", "155707.167000", "155707.170000", "155707.172000", "155707.175000", "155707.178000", "155707.180000", "155707.191000", "155707.194000", "155707.196000", "155707.199000", "155707.201000", "155707.204000", "155726.976000", "155726.978000", "155726.981000", "155726.984000", "155726.986000", "155726.989000", "155726.991000", "155726.994000", "155726.996000", "155727.000000", "155727.002000", "155727.005000", "155727.008000", "155727.010000", "155727.013000", "155727.015000", "155727.018000", "155727.020000", "155727.023000", "155727.025000", "155746.974000", "155746.977000", "155746.980000", "155746.982000", "155746.985000", "155746.988000", "155746.990000", "155746.993000", "155746.995000", "155746.998000", "155747.001000", "155747.004000", "155747.007000", "155747.010000", "155747.012000", "155747.015000", "155747.018000", "155747.020000", "155747.023000", "155747.025000", "155806.985000", "155806.988000", "155806.991000", "155806.993000", "155806.996000", "155807.000000", "155807.002000", "155807.005000", "155807.007000", "155807.010000", "155807.012000", "155807.015000", "155807.018000", "155807.020000", "155807.023000", "155807.025000", "155807.028000", "155807.030000", "155807.033000", "155807.036000", "155847.016000", "155847.019000", "155847.022000", "155847.024000", "155847.027000", "155847.030000", "155847.032000", "155847.035000", "155847.037000", "155847.040000", "155847.042000", "155847.045000", "155847.047000", "155847.050000", "155847.053000", "155847.055000", "155847.058000", "155847.061000", "155847.063000", "155847.066000", "155847.068000", "155847.071000", "155847.074000", "155847.076000", "155847.079000", "155847.082000", "155847.084000", "155927.019000", "155927.022000", "155927.024000", "155927.027000", "155927.030000", "155927.032000", "155927.035000", "155927.037000", "155927.040000", "155927.042000", "155927.045000", "155927.048000", "155927.050000", "155927.053000", "155927.055000", "155927.058000", "155927.060000", "155927.063000", "155927.065000", "155927.068000", "155927.071000", "155927.073000", "155927.076000", "155927.078000", "155927.081000", "155927.083000", "155927.086000", "160006.998000", "160007.002000", "160007.005000", "160007.007000", "160007.010000", "160007.013000", "160007.016000", "160007.018000", "160007.021000", "160007.024000", "160007.026000", "160007.035000", "160007.038000", "160007.041000", "160007.043000", "160007.046000", "160007.048000", "160007.051000", "160007.054000", "160007.056000", "160007.059000", "160007.061000", "160007.064000", "160007.066000", "160007.069000", "160007.072000", "160007.074000", "160047.041000", "160047.044000", "160047.046000", "160047.049000", "160047.051000", "160047.054000", "160047.057000", "160047.059000", "160047.062000", "160047.064000", "160047.067000", "160047.070000", "160047.073000", "160047.075000", "160047.078000", "160047.080000", "160047.083000", "160047.086000", "160047.088000", "160047.091000", "160047.094000", "160047.096000", "160047.099000", "160047.101000", "160047.104000", "160047.106000", "160047.109000", "160127.015000", "160127.018000", "160127.020000", "160127.023000", "160127.026000", "160127.028000", "160127.031000", "160127.033000", "160127.036000", "160127.039000", "160127.041000", "160127.044000", "160127.046000", "160127.049000", "160127.051000", "160127.054000", "160127.057000", "160127.059000", "160127.062000", "160127.064000", "160127.067000", "160127.069000", "160127.072000", "160127.075000", "160127.077000", "160127.080000", "160207.006000", "160207.009000", "160207.011000", "160207.014000", "160207.016000", "160207.019000", "160207.021000", "160207.024000", "160207.027000", "160207.029000", "160207.032000", "160207.034000", "160207.037000", "160207.040000", "160207.042000", "160207.045000", "160207.048000", "160207.050000", "160207.053000", "160207.055000", "160207.058000", "160207.060000", "160207.063000", "160207.066000", "160207.068000", "160207.071000", "160207.073000", "160247.019000", "160247.022000", "160247.025000", "160247.027000", "160247.030000", "160247.032000", "160247.035000", "160247.038000", "160247.040000", "160247.043000", "160247.046000", "160247.048000", "160247.051000", "160247.054000", "160247.056000", "160247.059000", "160247.061000", "160247.064000", "160247.067000", "160247.069000", "160247.072000", "160247.074000", "160247.077000", "160247.079000", "160247.082000", "160247.085000", "160247.087000", "160327.027000", "160327.030000", "160327.033000", "160327.035000", "160327.038000", "160327.041000", "160327.043000", "160327.046000", "160327.048000", "160327.051000", "160327.053000", "160327.056000", "160327.059000", "160327.061000", "160327.064000", "160327.066000", "160327.069000", "160327.071000", "160327.074000", "160327.077000", "160327.079000", "160327.082000", "160327.084000", "160327.087000", "160327.089000", "160327.092000", "160327.095000", "160407.013000", "160407.016000", "160407.019000", "160407.021000", "160407.024000", "160407.027000", "160407.029000", "160407.032000", "160407.034000", "160407.037000", "160407.040000", "160407.042000", "160407.045000", "160407.047000", "160407.050000", "160407.052000", "160407.055000", "160407.058000", "160407.060000", "160407.063000", "160407.066000", "160407.068000", "160407.071000", "160407.073000", "160407.076000", "160407.078000", "160407.081000", "160447.008000", "160447.011000", "160447.013000", "160447.016000", "160447.019000", "160447.021000", "160447.024000", "160447.026000", "160447.029000", "160447.031000", "160447.034000", "160447.037000", "160447.039000", "160447.042000", "160447.044000", "160447.047000", "160447.049000", "160447.052000", "160447.055000", "160447.057000", "160447.060000", "160447.062000", "160447.065000", "160447.067000", "160447.070000", "160447.073000", "160447.075000", "160527.034000", "160527.037000", "160527.039000", "160527.042000", "160527.044000", "160527.047000", "160527.050000", "160527.052000", "160527.055000", "160527.057000", "160527.060000", "160527.062000", "160527.065000", "160527.068000", "160527.070000", "160527.073000", "160527.075000", "160527.078000", "160527.081000", "160527.083000", "160527.086000", "160527.088000", "160527.091000", "160527.094000", "160527.096000", "160527.099000", "160527.102000", "160531.449000", "160531.452000", "160531.455000"],
      "InstanceNumber": [1, 2, 3, 4, 5, 6, 7, 8, 9, 10, 11, 12, 13, 14, 15, 16, 17, 18, 19, 20, 21, 22, 23, 24, 25, 26, 27, 28, 29, 30, 31, 32, 33, 34, 35, 36, 37, 38, 39, 40, 41, 42, 43, 44, 45, 46, 47, 48, 49, 50, 51, 52, 53, 54, 55, 56, 57, 58, 59, 60, 61, 62, 63, 64, 65, 66, 67, 68, 69, 70, 71, 72, 73, 74, 75, 76, 77, 78, 79, 80, 81, 82, 83, 84, 85, 86, 87, 88, 89, 90, 91, 92, 93, 94, 95, 96, 97, 98, 99, 100, 101, 102, 103, 104, 105, 106, 107, 108, 109, 110, 111, 112, 113, 114, 115, 116, 117, 118, 119, 120, 121, 122, 123, 124, 125, 126, 127, 128, 129, 130, 131, 132, 133, 134, 135, 136, 137, 138, 139, 140, 141, 142, 143, 144, 145, 146, 147, 148, 149, 150, 151, 152, 153, 154, 155, 156, 157, 158, 159, 160, 161, 162, 163, 164, 165, 166, 167, 168, 169, 170, 171, 172, 173, 174, 175, 176, 177, 178, 179, 180, 181, 182, 183, 184, 185, 186, 187, 188, 189, 190, 191, 192, 193, 194, 195, 196, 197, 198, 199, 200, 201, 202, 203, 204, 205, 206, 207, 208, 209, 210, 211, 212, 213, 214, 215, 216, 217, 218, 219, 220, 221, 222, 223, 224, 225, 226, 227, 228, 229, 230, 231, 232, 233, 234, 235, 236, 237, 238, 239, 240, 241, 242, 243, 244, 245, 246, 247, 248, 249, 250, 251, 252, 253, 254, 255, 256, 257, 258, 259, 260, 261, 262, 263, 264, 265, 266, 267, 268, 269, 270, 271, 272, 273, 274, 275, 276, 277, 278, 279, 280, 281, 282, 283, 284, 285, 286, 287, 288, 289, 290, 291, 292, 293, 294, 295, 296, 297, 298, 299, 300, 301, 302, 303, 304, 305, 306, 307, 308, 309, 310, 311, 312, 313, 314, 315, 316, 317, 318, 319, 320, 321, 322, 323, 324, 325, 326, 327, 328, 329, 330, 331, 332, 333, 334, 335, 336, 337, 338, 339, 340, 341, 342, 343, 344, 345, 346, 347, 348, 349, 350, 351, 352, 353, 354, 355, 356, 357, 358, 359, 360, 361, 362, 363, 364, 365, 366, 367, 368, 369, 370, 371, 372, 373, 374, 375, 376, 377, 378, 379, 380, 381, 382, 383, 384, 385, 386, 387, 388, 389, 390, 391, 392, 393],
