{
  "AcquisitionMatrixPE": 104,
  "AcquisitionNumber": 1,
  "AcquisitionTime": "11:53:26.157500",
  "BandwidthPerPixelPhaseEncode": 17.17,
  "BaseResolution": 104,
  "BodyPartExamined": "BRAIN",
  "CoilCombinationMethod": "Sum of Squares",
  "ConsistencyInfo": "N4_VE11C_LATEST_20160120",
  "ConversionSoftware": "dcm2niix",
  "ConversionSoftwareVersion": "v1.0.20220505",
  "DerivedVendorReportedEchoSpacing": 0.000560011,
  "DeviceSerialNumber": "167006",
  "DwellTime": 2.1e-06,
  "EchoTime": 0.037,
  "EchoTrainLength": 104,
  "EffectiveEchoSpacing": 0.000560011,
  "FlipAngle": 52,
  "HeudiconvVersion": "0.5.3.post811+g6206e14",
  "ImageComments": "Unaliased MB4/PE3/LB",
  "ImageOrientationPatientDICOM": [0.996278, 0.0842897, 0.018012, -0.0745609, 0.947641, -0.310512],
  "ImageOrientationText": "Tra>Cor(-18.0)>Sag(2.5)",
  "ImageType": [
    "ORIGINAL",
    "PRIMARY",
    "M",
    "MB",
    "ND",
    "MOSAIC"
],
  "ImagingFrequency": 123.26,
  "InPlanePhaseEncodingDirectionDICOM": "COL",
  "InstitutionAddress": "Chemin Queen-Mary 4565,Montreal,District,CA,H3W 1W5",
  "InstitutionName": "IUGM",
  "InstitutionalDepartmentName": "Department",
  "MRAcquisitionType": "2D",
  "MagneticFieldStrength": 3,
  "Manufacturer": "Siemens",
  "ManufacturersModelName": "Prisma_fit",
  "MatrixCoilMode": "SENSE",
  "Modality": "MR",
  "MultibandAccelerationFactor": 4,
  "PartialFourier": 1,
  "PatientPosition": "HFS",
  "PercentPhaseFOV": 100,
  "PercentSampling": 100,
  "PhaseEncodingDirection": "j",
  "PhaseEncodingSteps": 104,
  "PhaseResolution": 1,
  "PixelBandwidth": 2290,
  "ProcedureStepDescription": "games^mario3",
  "ProtocolName": "func_task-mario3_run-05",
  "PulseSequenceDetails": "%CustomerSeq%\\cmrr_mbep2d_bold",
  "ReceiveCoilActiveElements": "HC1-7;NC1,2",
  "ReceiveCoilName": "HeadNeck_64",
  "ReconMatrixPE": 104,
  "RepetitionTime": 1.49,
  "SAR": 0.0485791,
  "ScanOptions": "FS",
  "ScanningSequence": "EP",
  "SequenceName": "epfid2d1_104",
  "SequenceVariant": "SK\\SS",
  "SeriesDescription": "func_task-mario3_run-05",
  "SeriesNumber": 22,
  "ShimSetting": [622, -7196, -8826, 661, 122, 44, -47, 13],
  "SliceThickness": 2,
  "SliceTiming": [0, 0.785, 0.0975, 0.8825, 0.1975, 0.98, 0.295, 1.0775, 0.3925, 1.1775, 0.49, 1.275, 0.5875, 1.3725, 0.6875, 0, 0.785, 0.0975, 0.8825, 0.1975, 0.98, 0.295, 1.0775, 0.3925, 1.1775, 0.49, 1.275, 0.5875, 1.3725, 0.6875, 0, 0.785, 0.0975, 0.8825, 0.1975, 0.98, 0.295, 1.0775, 0.3925, 1.1775, 0.49, 1.275, 0.5875, 1.3725, 0.6875, 0, 0.785, 0.0975, 0.8825, 0.1975, 0.98, 0.295, 1.0775, 0.3925, 1.1775, 0.49, 1.275, 0.5875, 1.3725, 0.6875],
  "SoftwareVersions": "syngo MR E11",
  "SpacingBetweenSlices": 2,
  "StationName": "MRC35049",
  "TaskName": "mario3",
  "TotalReadoutTime": 0.0576811,
  "TxRefAmp": 255.023,
  "WipMemBlock": "bbce273d-5ba9-46e2-926b-8baad8f8d3cf||Sequence: R017 ve11c/master r/75a17815+; Jun 28 2022 16:32:11 by eja",
  "dcmmeta_affine": [
    [-1.9925569295883179, -0.1491217464208603, 0.0864836722612381, 110.60840606689453],
    [-0.1685793548822403, 1.895281434059143, -0.6160269379615784, -54.754844665527344],
    [0.03602394089102745, 0.6210240721702576, 1.9007974863052368, -61.78437805175781],
    [0.0, 0.0, 0.0, 1.0]
],
  "dcmmeta_reorient_transform": [
    [0.0, -1.0, 0.0, 103.0],
    [1.0, 0.0, 0.0, 0.0],
    [0.0, 0.0, 1.0, 0.0],
    [0.0, 0.0, 0.0, 1.0]
],
  "dcmmeta_shape": [104, 104, 60, 320],
  "dcmmeta_slice_dim": 2,
  "dcmmeta_version": 0.6,
  "global": {
    "const": {
      "AcquisitionMatrix": [104, 0, 0, 104],
      "AngioFlag": "N",
      "BitsAllocated": 16,
      "BitsStored": 16,
      "BodyPartExamined": "BRAIN",
      "Columns": 832,
      "EchoNumbers": 1,
      "EchoTime": 37.0,
      "EchoTrainLength": 104,
      "FlipAngle": 52.0,
      "HighBit": 15,
      "ImageOrientationPatient": [0.99627848500032, 0.0842896746141, 0.01801197043424, -0.074560874287, 0.94764072753544, -0.3105120408964],
      "ImagePositionPatient": [-766.25928592822, -891.70447654643, 215.12115367155],
      "ImageType": [
        "ORIGINAL",
        "PRIMARY",
        "M",
        "MB",
        "ND",
        "MOSAIC"
],
      "ImagedNucleus": "1H",
      "ImagingFrequency": 123.260323,
      "InPlanePhaseEncodingDirection": "COL",
      "MRAcquisitionType": "2D",
      "MagneticFieldStrength": 3.0,
      "Manufacturer": "SIEMENS",
      "ManufacturerModelName": "Prisma_fit",
      "Modality": "MR",
      "NumberOfAverages": 1.0,
      "NumberOfPhaseEncodingSteps": 104,
      "PercentPhaseFieldOfView": 100.0,
      "PercentSampling": 100.0,
      "PerformedProcedureStepStartTime": "110812.260000",
      "PhotometricInterpretation": "MONOCHROME2",
      "PixelBandwidth": 2290.0,
      "PixelRepresentation": 0,
      "PixelSpacing": [2.0, 2.0],
      "ProtocolName": "func_task-mario3_run-05",
      "RepetitionTime": 1490.0,
      "Rows": 832,
      "SAR": 0.04857905386162,
      "SamplesPerPixel": 1,
      "ScanOptions": "FS",
      "ScanningSequence": "EP",
      "SequenceName": "epfid2d1_104",
      "SequenceVariant": [
        "SK",
        "SS"
],
      "SeriesDescription": "func_task-mario3_run-05",
      "SeriesNumber": 22,
      "SeriesTime": "115449.975000",
      "SliceLocation": -37.071656493109,
      "SliceThickness": 2.0,
      "SmallestImagePixelValue": 0,
      "SoftwareVersions": "syngo MR E11",
      "SpacingBetweenSlices": 1.9999999825196,
      "SpecificCharacterSet": "ISO_IR 100",
      "StudyID": "1",
      "StudyTime": "110812.190000",
      "TransmitCoilName": "Body",
      "VariableFlipAngleFlag": "N",
      "WindowCenterWidthExplanation": "Algo1",
      "dBdt": 0.0},
    "slices": {}
  },
  "time": {
    "samples": {
      "AcquisitionNumber": [1, 2, 3, 4, 5, 6, 7, 8, 9, 10, 11, 12, 13, 14, 15, 16, 17, 18, 19, 20, 21, 22, 23, 24, 25, 26, 27, 28, 29, 30, 31, 32, 33, 34, 35, 36, 37, 38, 39, 40, 41, 42, 43, 44, 45, 46, 47, 48, 49, 50, 51, 52, 53, 54, 55, 56, 57, 58, 59, 60, 61, 62, 63, 64, 65, 66, 67, 68, 69, 70, 71, 72, 73, 74, 75, 76, 77, 78, 79, 80, 81, 82, 83, 84, 85, 86, 87, 88, 89, 90, 91, 92, 93, 94, 95, 96, 97, 98, 99, 100, 101, 102, 103, 104, 105, 106, 107, 108, 109, 110, 111, 112, 113, 114, 115, 116, 117, 118, 119, 120, 121, 122, 123, 124, 125, 126, 127, 128, 129, 130, 131, 132, 133, 134, 135, 136, 137, 138, 139, 140, 141, 142, 143, 144, 145, 146, 147, 148, 149, 150, 151, 152, 153, 154, 155, 156, 157, 158, 159, 160, 161, 162, 163, 164, 165, 166, 167, 168, 169, 170, 171, 172, 173, 174, 175, 176, 177, 178, 179, 180, 181, 182, 183, 184, 185, 186, 187, 188, 189, 190, 191, 192, 193, 194, 195, 196, 197, 198, 199, 200, 201, 202, 203, 204, 205, 206, 207, 208, 209, 210, 211, 212, 213, 214, 215, 216, 217, 218, 219, 220, 221, 222, 223, 224, 225, 226, 227, 228, 229, 230, 231, 232, 233, 234, 235, 236, 237, 238, 239, 240, 241, 242, 243, 244, 245, 246, 247, 248, 249, 250, 251, 252, 253, 254, 255, 256, 257, 258, 259, 260, 261, 262, 263, 264, 265, 266, 267, 268, 269, 270, 271, 272, 273, 274, 275, 276, 277, 278, 279, 280, 281, 282, 283, 284, 285, 286, 287, 288, 289, 290, 291, 292, 293, 294, 295, 296, 297, 298, 299, 300, 301, 302, 303, 304, 305, 306, 307, 308, 309, 310, 311, 312, 313, 314, 315, 316, 317, 318, 319, 320],
      "AcquisitionTime": ["115326.157500", "115327.647500", "115329.137500", "115330.627500", "115332.117500", "115333.607500", "115335.097500", "115336.587500", "115338.077500", "115339.567500", "115341.057500", "115342.547500", "115344.037500", "115345.527500", "115347.017500", "115348.507500", "115349.997500", "115351.487500", "115352.977500", "115354.467500", "115355.957500", "115357.447500", "115358.937500", "115400.427500", "115401.917500", "115403.407500", "115404.897500", "115406.387500", "115407.877500", "115409.367500", "115410.857500", "115412.347500", "115413.837500", "115415.327500", "115416.817500", "115418.307500", "115419.797500", "115421.287500", "115422.777500", "115424.267500", "115425.757500", "115427.247500", "115428.737500", "115430.227500", "115431.717500", "115433.207500", "115434.697500", "115436.187500", "115437.677500", "115439.167500", "115440.657500", "115442.147500", "115443.637500", "115445.127500", "115446.617500", "115448.107500", "115449.597500", "115451.087500", "115452.577500", "115454.067500", "115455.557500", "115457.047500", "115458.537500", "115500.027500", "115501.517500", "115503.007500", "115504.497500", "115505.987500", "115507.477500", "115508.967500", "115510.457500", "115511.947500", "115513.437500", "115514.927500", "115516.417500", "115517.907500", "115519.397500", "115520.887500", "115522.377500", "115523.867500", "115525.357500", "115526.847500", "115528.337500", "115529.827500", "115531.317500", "115532.807500", "115534.297500", "115535.787500", "115537.277500", "115538.767500", "115540.257500", "115541.747500", "115543.237500", "115544.727500", "115546.217500", "115547.707500", "115549.197500", "115550.687500", "115552.177500", "115553.667500", "115555.157500", "115556.647500", "115558.137500", "115559.627500", "115601.117500", "115602.607500", "115604.097500", "115605.587500", "115607.077500", "115608.567500", "115610.057500", "115611.547500", "115613.037500", "115614.527500", "115616.017500", "115617.507500", "115618.997500", "115620.487500", "115621.977500", "115623.467500", "115624.957500", "115626.447500", "115627.937500", "115629.427500", "115630.917500", "115632.407500", "115633.897500", "115635.387500", "115636.877500", "115638.367500", "115639.857500", "115641.347500", "115642.837500", "115644.327500", "115645.817500", "115647.307500", "115648.797500", "115650.287500", "115651.777500", "115653.267500", "115654.757500", "115656.247500", "115657.737500", "115659.227500", "115700.717500", "115702.207500", "115703.697500", "115705.187500", "115706.677500", "115708.167500", "115709.657500", "115711.147500", "115712.637500", "115714.127500", "115715.617500", "115717.107500", "115718.597500", "115720.087500", "115721.577500", "115723.067500", "115724.557500", "115726.047500", "115727.537500", "115729.027500", "115730.517500", "115732.007500", "115733.497500", "115734.987500", "115736.477500", "115737.967500", "115739.457500", "115740.947500", "115742.437500", "115743.927500", "115745.417500", "115746.907500", "115748.397500", "115749.887500", "115751.377500", "115752.867500", "115754.357500", "115755.847500", "115757.337500", "115758.827500", "115800.317500", "115801.807500", "115803.297500", "115804.787500", "115806.277500", "115807.767500", "115809.257500", "115810.747500", "115812.237500", "115813.727500", "115815.217500", "115816.707500", "115818.197500", "115819.687500", "115821.177500", "115822.667500", "115824.157500", "115825.647500", "115827.137500", "115828.627500", "115830.117500", "115831.607500", "115833.097500", "115834.587500", "115836.077500", "115837.567500", "115839.057500", "115840.547500", "115842.037500", "115843.527500", "115845.017500", "115846.507500", "115847.997500", "115849.487500", "115850.977500", "115852.467500", "115853.957500", "115855.447500", "115856.937500", "115858.427500", "115859.917500", "115901.407500", "115902.897500", "115904.387500", "115905.877500", "115907.367500", "115908.857500", "115910.347500", "115911.837500", "115913.327500", "115914.817500", "115916.307500", "115917.797500", "115919.287500", "115920.777500", "115922.267500", "115923.757500", "115925.247500", "115926.737500", "115928.227500", "115929.717500", "115931.207500", "115932.697500", "115934.187500", "115935.677500", "115937.167500", "115938.657500", "115940.147500", "115941.637500", "115943.127500", "115944.617500", "115946.107500", "115947.597500", "115949.087500", "115950.577500", "115952.067500", "115953.557500", "115955.047500", "115956.537500", "115958.027500", "115959.517500", "120001.007500", "120002.497500", "120003.987500", "120005.477500", "120006.967500", "120008.457500", "120009.947500", "120011.437500", "120012.927500", "120014.417500", "120015.907500", "120017.397500", "120018.887500", "120020.377500", "120021.867500", "120023.357500", "120024.847500", "120026.337500", "120027.827500", "120029.317500", "120030.807500", "120032.297500", "120033.787500", "120035.277500", "120036.767500", "120038.257500", "120039.747500", "120041.237500", "120042.727500", "120044.217500", "120045.707500", "120047.197500", "120048.687500", "120050.177500", "120051.667500", "120053.157500", "120054.647500", "120056.137500", "120057.627500", "120059.117500", "120100.607500", "120102.097500", "120103.587500", "120105.077500", "120106.567500", "120108.057500", "120109.547500", "120111.037500", "120112.527500", "120114.017500", "120115.507500", "120116.997500", "120118.487500", "120119.977500", "120121.467500"],
      "ContentTime": ["115449.978000", "115449.982000", "115449.986000", "115449.989000", "115449.992000", "115449.995000", "115450.000000", "115450.003000", "115450.006000", "115450.009000", "115450.013000", "115450.016000", "115450.019000", "115450.031000", "115450.034000", "115450.037000", "115450.040000", "115450.044000", "115450.047000", "115450.050000", "115450.053000", "115450.057000", "115450.060000", "115450.063000", "115450.067000", "115450.070000", "115450.073000", "115450.076000", "115450.080000", "115450.083000", "115450.086000", "115450.089000", "115450.093000", "115450.096000", "115509.940000", "115509.944000", "115509.947000", "115509.950000", "115509.954000", "115509.957000", "115509.960000", "115509.963000", "115509.966000", "115509.970000", "115509.973000", "115509.976000", "115509.979000", "115509.983000", "115509.986000", "115509.989000", "115509.992000", "115509.996000", "115510.000000", "115510.003000", "115529.939000", "115529.943000", "115529.946000", "115529.949000", "115529.952000", "115529.967000", "115529.970000", "115529.973000", "115529.976000", "115529.980000", "115529.983000", "115529.986000", "115529.989000", "115529.993000", "115529.996000", "115530.000000", "115530.003000", "115530.007000", "115530.010000", "115530.013000", "115549.939000", "115549.943000", "115549.946000", "115549.949000", "115549.953000", "115549.956000", "115549.960000", "115549.963000", "115549.966000", "115549.970000", "115549.973000", "115549.976000", "115549.984000", "115549.988000", "115549.991000", "115549.994000", "115549.998000", "115550.002000", "115550.005000", "115550.008000", "115629.939000", "115629.943000", "115629.946000", "115629.949000", "115629.953000", "115629.956000", "115629.959000", "115629.962000", "115629.965000", "115629.969000", "115629.972000", "115629.975000", "115629.978000", "115629.982000", "115629.985000", "115629.988000", "115629.991000", "115629.995000", "115629.998000", "115630.002000", "115630.005000", "115630.009000", "115630.012000", "115630.015000", "115630.018000", "115630.021000", "115630.025000", "115630.028000", "115709.940000", "115709.944000", "115709.947000", "115709.950000", "115709.954000", "115709.957000", "115709.960000", "115709.963000", "115709.967000", "115709.970000", "115709.973000", "115709.977000", "115709.980000", "115709.983000", "115709.986000", "115709.990000", "115709.993000", "115709.996000", "115710.000000", "115710.004000", "115710.007000", "115710.010000", "115710.014000", "115710.017000", "115710.020000", "115710.023000", "115710.026000", "115749.939000", "115749.943000", "115749.946000", "115749.949000", "115749.953000", "115749.956000", "115749.959000", "115749.963000", "115749.966000", "115749.969000", "115749.972000", "115749.976000", "115749.979000", "115749.982000", "115749.986000", "115749.989000", "115749.992000", "115749.995000", "115750.000000", "115750.017000", "115750.020000", "115750.023000", "115750.026000", "115750.030000", "115750.033000", "115750.036000", "115750.040000", "115829.939000", "115829.943000", "115829.946000", "115829.950000", "115829.953000", "115829.956000", "115829.959000", "115829.963000", "115829.966000", "115829.969000", "115829.973000", "115829.976000", "115829.979000", "115829.983000", "115829.986000", "115829.989000", "115829.992000", "115829.996000", "115830.000000", "115830.003000", "115830.007000", "115830.010000", "115830.013000", "115830.016000", "115830.019000", "115830.023000", "115830.026000", "115849.939000", "115849.943000", "115849.946000", "115849.949000", "115849.953000", "115849.956000", "115849.959000", "115849.962000", "115849.966000", "115849.969000", "115849.972000", "115849.976000", "115849.979000", "115929.940000", "115929.944000", "115929.947000", "115929.951000", "115929.954000", "115929.957000", "115929.960000", "115929.964000", "115929.967000", "115929.970000", "115929.973000", "115929.977000", "115929.980000", "115929.983000", "115929.987000", "115929.990000", "115929.993000", "115929.996000", "115930.001000", "115930.004000", "115930.007000", "115930.011000", "115930.014000", "115930.017000", "115930.020000", "115930.024000", "115930.027000", "120009.939000", "120009.943000", "120009.946000", "120009.949000", "120009.953000", "120009.956000", "120009.959000", "120009.962000", "120009.966000", "120009.969000", "120009.972000", "120009.975000", "120009.979000", "120009.982000", "120009.985000", "120009.988000", "120009.992000", "120009.995000", "120010.009000", "120010.012000", "120010.015000", "120010.018000", "120010.022000", "120010.025000", "120010.028000", "120010.031000", "120010.035000", "120049.939000", "120049.943000", "120049.946000", "120049.949000", "120049.953000", "120049.956000", "120049.959000", "120049.962000", "120049.966000", "120049.969000", "120049.972000", "120049.976000", "120049.979000", "120049.982000", "120049.985000", "120049.989000", "120049.992000", "120049.995000", "120049.998000", "120050.003000", "120050.006000", "120050.009000", "120050.013000", "120050.016000", "120050.019000", "120050.022000", "120050.026000", "120124.336000", "120124.340000", "120124.345000", "120124.350000", "120124.354000", "120124.360000", "120124.364000", "120124.368000", "120124.372000", "120124.375000", "120124.379000", "120124.382000", "120124.386000", "120124.389000", "120124.393000", "120124.396000", "120124.399000", "120124.402000", "120124.406000", "120124.409000", "120124.412000", "120124.416000", "120124.419000"],
      "InstanceCreationTime": ["115449.978000", "115449.982000", "115449.986000", "115449.989000", "115449.992000", "115449.995000", "115450.000000", "115450.003000", "115450.006000", "115450.009000", "115450.013000", "115450.016000", "115450.019000", "115450.031000", "115450.034000", "115450.037000", "115450.040000", "115450.044000", "115450.047000", "115450.050000", "115450.053000", "115450.057000", "115450.060000", "115450.063000", "115450.067000", "115450.070000", "115450.073000", "115450.076000", "115450.080000", "115450.083000", "115450.086000", "115450.089000", "115450.093000", "115450.096000", "115509.940000", "115509.944000", "115509.947000", "115509.950000", "115509.954000", "115509.957000", "115509.960000", "115509.963000", "115509.966000", "115509.970000", "115509.973000", "115509.976000", "115509.979000", "115509.983000", "115509.986000", "115509.989000", "115509.992000", "115509.996000", "115510.000000", "115510.003000", "115529.939000", "115529.943000", "115529.946000", "115529.949000", "115529.952000", "115529.967000", "115529.970000", "115529.973000", "115529.976000", "115529.980000", "115529.983000", "115529.986000", "115529.989000", "115529.993000", "115529.996000", "115530.000000", "115530.003000", "115530.007000", "115530.010000", "115530.013000", "115549.939000", "115549.943000", "115549.946000", "115549.949000", "115549.953000", "115549.956000", "115549.960000", "115549.963000", "115549.966000", "115549.970000", "115549.973000", "115549.976000", "115549.984000", "115549.988000", "115549.991000", "115549.994000", "115549.998000", "115550.002000", "115550.005000", "115550.008000", "115629.939000", "115629.943000", "115629.946000", "115629.949000", "115629.953000", "115629.956000", "115629.959000", "115629.962000", "115629.965000", "115629.969000", "115629.972000", "115629.975000", "115629.978000", "115629.982000", "115629.985000", "115629.988000", "115629.991000", "115629.995000", "115629.998000", "115630.002000", "115630.005000", "115630.009000", "115630.012000", "115630.015000", "115630.018000", "115630.021000", "115630.025000", "115630.028000", "115709.940000", "115709.944000", "115709.947000", "115709.950000", "115709.954000", "115709.957000", "115709.960000", "115709.963000", "115709.967000", "115709.970000", "115709.973000", "115709.977000", "115709.980000", "115709.983000", "115709.986000", "115709.990000", "115709.993000", "115709.996000", "115710.000000", "115710.004000", "115710.007000", "115710.010000", "115710.014000", "115710.017000", "115710.020000", "115710.023000", "115710.026000", "115749.939000", "115749.943000", "115749.946000", "115749.949000", "115749.953000", "115749.956000", "115749.959000", "115749.963000", "115749.966000", "115749.969000", "115749.972000", "115749.976000", "115749.979000", "115749.982000", "115749.986000", "115749.989000", "115749.992000", "115749.995000", "115750.000000", "115750.017000", "115750.020000", "115750.023000", "115750.026000", "115750.030000", "115750.033000", "115750.036000", "115750.040000", "115829.939000", "115829.943000", "115829.946000", "115829.950000", "115829.953000", "115829.956000", "115829.959000", "115829.963000", "115829.966000", "115829.969000", "115829.973000", "115829.976000", "115829.979000", "115829.983000", "115829.986000", "115829.989000", "115829.992000", "115829.996000", "115830.000000", "115830.003000", "115830.007000", "115830.010000", "115830.013000", "115830.016000", "115830.019000", "115830.023000", "115830.026000", "115849.939000", "115849.943000", "115849.946000", "115849.949000", "115849.953000", "115849.956000", "115849.959000", "115849.962000", "115849.966000", "115849.969000", "115849.972000", "115849.976000", "115849.979000", "115929.940000", "115929.944000", "115929.947000", "115929.951000", "115929.954000", "115929.957000", "115929.960000", "115929.964000", "115929.967000", "115929.970000", "115929.973000", "115929.977000", "115929.980000", "115929.983000", "115929.987000", "115929.990000", "115929.993000", "115929.996000", "115930.001000", "115930.004000", "115930.007000", "115930.011000", "115930.014000", "115930.017000", "115930.020000", "115930.024000", "115930.027000", "120009.939000", "120009.943000", "120009.946000", "120009.949000", "120009.953000", "120009.956000", "120009.959000", "120009.962000", "120009.966000", "120009.969000", "120009.972000", "120009.975000", "120009.979000", "120009.982000", "120009.985000", "120009.988000", "120009.992000", "120009.995000", "120010.009000", "120010.012000", "120010.015000", "120010.018000", "120010.022000", "120010.025000", "120010.028000", "120010.031000", "120010.035000", "120049.939000", "120049.943000", "120049.946000", "120049.949000", "120049.953000", "120049.956000", "120049.959000", "120049.962000", "120049.966000", "120049.969000", "120049.972000", "120049.976000", "120049.979000", "120049.982000", "120049.985000", "120049.989000", "120049.992000", "120049.995000", "120049.998000", "120050.003000", "120050.006000", "120050.009000", "120050.013000", "120050.016000", "120050.019000", "120050.022000", "120050.026000", "120124.336000", "120124.340000", "120124.345000", "120124.350000", "120124.354000", "120124.360000", "120124.364000", "120124.368000", "120124.372000", "120124.375000", "120124.379000", "120124.382000", "120124.386000", "120124.389000", "120124.393000", "120124.396000", "120124.399000", "120124.402000", "120124.406000", "120124.409000", "120124.412000", "120124.416000", "120124.419000"],
      "InstanceNumber": [1, 2, 3, 4, 5, 6, 7, 8, 9, 10, 11, 12, 13, 14, 15, 16, 17, 18, 19, 20, 21, 22, 23, 24, 25, 26, 27, 28, 29, 30, 31, 32, 33, 34, 35, 36, 37, 38, 39, 40, 41, 42, 43, 44, 45, 46, 47, 48, 49, 50, 51, 52, 53, 54, 55, 56, 57, 58, 59, 60, 61, 62, 63, 64, 65, 66, 67, 68, 69, 70, 71, 72, 73, 74, 75, 76, 77, 78, 79, 80, 81, 82, 83, 84, 85, 86, 87, 88, 89, 90, 91, 92, 93, 94, 95, 96, 97, 98, 99, 100, 101, 102, 103, 104, 105, 106, 107, 108, 109, 110, 111, 112, 113, 114, 115, 116, 117, 118, 119, 120, 121, 122, 123, 124, 125, 126, 127, 128, 129, 130, 131, 132, 133, 134, 135, 136, 137, 138, 139, 140, 141, 142, 143, 144, 145, 146, 147, 148, 149, 150, 151, 152, 153, 154, 155, 156, 157, 158, 159, 160, 161, 162, 163, 164, 165, 166, 167, 168, 169, 170, 171, 172, 173, 174, 175, 176, 177, 178, 179, 180, 181, 182, 183, 184, 185, 186, 187, 188, 189, 190, 191, 192, 193, 194, 195, 196, 197, 198, 199, 200, 201, 202, 203, 204, 205, 206, 207, 208, 209, 210, 211, 212, 213, 214, 215, 216, 217, 218, 219, 220, 221, 222, 223, 224, 225, 226, 227, 228, 229, 230, 231, 232, 233, 234, 235, 236, 237, 238, 239, 240, 241, 242, 243, 244, 245, 246, 247, 248, 249, 250, 251, 252, 253, 254, 255, 256, 257, 258, 259, 260, 261, 262, 263, 264, 265, 266, 267, 268, 269, 270, 271, 272, 273, 274, 275, 276, 277, 278, 279, 280, 281, 282, 283, 284, 285, 286, 287, 288, 289, 290, 291, 292, 293, 294, 295, 296, 297, 298, 299, 300, 301, 302, 303, 304, 305, 306, 307, 308, 309, 310, 311, 312, 313, 314, 315, 316, 317, 318, 319, 320],
      "LargestImagePixelValue": [43055, 42261, 41153, 41205, 40038, 39917, 40355, 40404, 40105, 41150, 40390, 42592, 40553, 40586, 41026, 40520, 40205, 40011, 40203, 40024, 40415, 39617, 39721, 40012, 40447, 39258, 39929, 40261, 41752, 41590, 42093, 54112, 40153, 39345, 41413, 40261, 40585, 41139, 41806, 41566, 42238, 41667, 42772, 42820, 41768, 42265, 43373, 43083, 42919, 44464, 44408, 44036, 42900, 44209, 42175, 42527, 41730, 43012, 43179, 44216, 44453, 45066, 43291, 44640, 44397, 43023, 44228, 43678, 43976, 43413, 43230, 40592, 42128, 41624, 40339, 39907, 39624, 41491, 40742, 41309, 42114, 40622, 41295, 39072, 40743, 39665, 41073, 40046, 41077, 40027, 41176, 39419, 40247, 39312, 37590, 39350, 37020, 37368, 36765, 37661, 36482, 37039, 36520, 37198, 36950, 37283, 37055, 37522, 37383, 40031, 39108, 39978, 37058, 36856, 38097, 37643, 39398, 37912, 40394, 38482, 40023, 37244, 38472, 36872, 37616, 37962, 38665, 38716, 37573, 38570, 39389, 37314, 38035, 37679, 37121, 38378, 38111, 37363, 37822, 37634, 37621, 37347, 37543, 37484, 37642, 39863, 38094, 37076, 39380, 37130, 37332, 37248, 38705, 40804, 41807, 40758, 40378, 40161, 42729, 40702, 41195, 40897, 40302, 38690, 42815, 42745, 42252, 42349, 41989, 42080, 42296, 43481, 41889, 42556, 41703, 43316, 42165, 41713, 43832, 44818, 45360, 43602, 43270, 40092, 39183, 39038, 40350, 40381, 40628, 40769, 41045, 41585, 50388, 38954, 38690, 38873, 38707, 39823, 40714, 41877, 40280, 40665, 42805, 42769, 41241, 40509, 41484, 40801, 40265, 38817, 37619, 40658, 40894, 41483, 40418, 41383, 41840, 41107, 41976, 42433, 43666, 42778, 42371, 43640, 43371, 43576, 45316, 45698, 45552, 45281, 44843, 42801, 41908, 42813, 43788, 41676, 43349, 44094, 42834, 43315, 42667, 44347, 43801, 43697, 45404, 46266, 43721, 44412, 43136, 43292, 43574, 43708, 44429, 44497, 44013, 41684, 41612, 40003, 39388, 42125, 41924, 42033, 42534, 42219, 42407, 43410, 42944, 42181, 42937, 43643, 43222, 41321, 38379, 39289, 39612, 41466, 40441, 39148, 39295, 38485, 39110, 39186, 39821, 42124, 41965, 42550, 41385, 41783, 41651, 40578, 39453, 40189, 39775, 39366, 39720, 39870, 40318, 40556, 40359, 40498, 40395, 40731, 40012, 39483, 40162, 39897, 46056, 42651, 40711, 40090, 39015, 39978, 40515, 39962, 39359, 38904, 39200, 40362, 45260, 39545],
