{
  "AcquisitionMatrixPE": 104,
  "AcquisitionNumber": 1,
  "AcquisitionTime": "11:20:48.500000",
  "BandwidthPerPixelPhaseEncode": 17.17,
  "BaseResolution": 104,
  "BodyPartExamined": "BRAIN",
  "CoilCombinationMethod": "Sum of Squares",
  "ConsistencyInfo": "N4_VE11C_LATEST_20160120",
  "ConversionSoftware": "dcm2niix",
  "ConversionSoftwareVersion": "v1.0.20220505",
  "DerivedVendorReportedEchoSpacing": 0.000560011,
  "DeviceSerialNumber": "167006",
  "DwellTime": 2.1e-06,
  "EchoTime": 0.037,
  "EchoTrainLength": 104,
  "EffectiveEchoSpacing": 0.000560011,
  "FlipAngle": 52,
  "HeudiconvVersion": "0.5.3.post811+g6206e14",
  "ImageComments": "Unaliased MB4/PE3/LB",
  "ImageOrientationPatientDICOM": [0.996278, 0.0842897, 0.018012, -0.0745609, 0.947641, -0.310512],
  "ImageOrientationText": "Tra>Cor(-18.0)>Sag(2.5)",
  "ImageType": [
    "ORIGINAL",
    "PRIMARY",
    "M",
    "MB",
    "ND",
    "MOSAIC"
],
  "ImagingFrequency": 123.26,
  "InPlanePhaseEncodingDirectionDICOM": "COL",
  "InstitutionAddress": "Chemin Queen-Mary 4565,Montreal,District,CA,H3W 1W5",
  "InstitutionName": "IUGM",
  "InstitutionalDepartmentName": "Department",
  "MRAcquisitionType": "2D",
  "MagneticFieldStrength": 3,
  "Manufacturer": "Siemens",
  "ManufacturersModelName": "Prisma_fit",
  "MatrixCoilMode": "SENSE",
  "Modality": "MR",
  "MultibandAccelerationFactor": 4,
  "PartialFourier": 1,
  "PatientPosition": "HFS",
  "PercentPhaseFOV": 100,
  "PercentSampling": 100,
  "PhaseEncodingDirection": "j",
  "PhaseEncodingSteps": 104,
  "PhaseResolution": 1,
  "PixelBandwidth": 2290,
  "ProcedureStepDescription": "games^mario3",
  "ProtocolName": "func_task-mario3_run-02",
  "PulseSequenceDetails": "%CustomerSeq%\\cmrr_mbep2d_bold",
  "ReceiveCoilActiveElements": "HC1-7;NC1,2",
  "ReceiveCoilName": "HeadNeck_64",
  "ReconMatrixPE": 104,
  "RepetitionTime": 1.49,
  "SAR": 0.0485791,
  "ScanOptions": "FS",
  "ScanningSequence": "EP",
  "SequenceName": "epfid2d1_104",
  "SequenceVariant": "SK\\SS",
  "SeriesDescription": "func_task-mario3_run-02",
  "SeriesNumber": 13,
  "ShimSetting": [622, -7196, -8826, 661, 122, 44, -47, 13],
  "SliceThickness": 2,
  "SliceTiming": [0, 0.7825, 0.0975, 0.8825, 0.195, 0.98, 0.2925, 1.0775, 0.3925, 1.175, 0.49, 1.2725, 0.5875, 1.3725, 0.685, 0, 0.7825, 0.0975, 0.8825, 0.195, 0.98, 0.2925, 1.0775, 0.3925, 1.175, 0.49, 1.2725, 0.5875, 1.3725, 0.685, 0, 0.7825, 0.0975, 0.8825, 0.195, 0.98, 0.2925, 1.0775, 0.3925, 1.175, 0.49, 1.2725, 0.5875, 1.3725, 0.685, 0, 0.7825, 0.0975, 0.8825, 0.195, 0.98, 0.2925, 1.0775, 0.3925, 1.175, 0.49, 1.2725, 0.5875, 1.3725, 0.685],
  "SoftwareVersions": "syngo MR E11",
  "SpacingBetweenSlices": 2,
  "StationName": "MRC35049",
  "TaskName": "mario3",
  "TotalReadoutTime": 0.0576811,
  "TxRefAmp": 255.023,
  "WipMemBlock": "2087dffe-3571-45dd-9443-d1b1c2623322||Sequence: R017 ve11c/master r/75a17815+; Jun 28 2022 16:32:11 by eja",
  "dcmmeta_affine": [
    [-1.9925569295883179, -0.1491217464208603, 0.0864836722612381, 110.60840606689453],
    [-0.1685793548822403, 1.895281434059143, -0.6160269379615784, -54.754844665527344],
    [0.03602394089102745, 0.6210240721702576, 1.9007974863052368, -61.78437805175781],
    [0.0, 0.0, 0.0, 1.0]
],
  "dcmmeta_reorient_transform": [
    [0.0, -1.0, 0.0, 103.0],
    [1.0, 0.0, 0.0, 0.0],
    [0.0, 0.0, 1.0, 0.0],
    [0.0, 0.0, 0.0, 1.0]
],
  "dcmmeta_shape": [104, 104, 60, 352],
  "dcmmeta_slice_dim": 2,
  "dcmmeta_version": 0.6,
  "global": {
    "const": {
      "AcquisitionMatrix": [104, 0, 0, 104],
      "AngioFlag": "N",
      "BitsAllocated": 16,
      "BitsStored": 16,
      "BodyPartExamined": "BRAIN",
      "Columns": 832,
      "EchoNumbers": 1,
      "EchoTime": 37.0,
      "EchoTrainLength": 104,
      "FlipAngle": 52.0,
      "HighBit": 15,
      "ImageOrientationPatient": [0.99627848500032, 0.0842896746141, 0.01801197043424, -0.074560874287, 0.94764072753544, -0.3105120408964],
      "ImagePositionPatient": [-766.25928592822, -891.70447654643, 215.12115367155],
      "ImageType": [
        "ORIGINAL",
        "PRIMARY",
        "M",
        "MB",
        "ND",
        "MOSAIC"
],
      "ImagedNucleus": "1H",
      "ImagingFrequency": 123.260311,
      "InPlanePhaseEncodingDirection": "COL",
      "MRAcquisitionType": "2D",
      "MagneticFieldStrength": 3.0,
      "Manufacturer": "SIEMENS",
      "ManufacturerModelName": "Prisma_fit",
      "Modality": "MR",
      "NumberOfAverages": 1.0,
      "NumberOfPhaseEncodingSteps": 104,
      "PercentPhaseFieldOfView": 100.0,
      "PercentSampling": 100.0,
      "PerformedProcedureStepStartTime": "110812.260000",
      "PhotometricInterpretation": "MONOCHROME2",
      "PixelBandwidth": 2290.0,
      "PixelRepresentation": 0,
      "PixelSpacing": [2.0, 2.0],
      "ProtocolName": "func_task-mario3_run-02",
      "RepetitionTime": 1490.0,
      "Rows": 832,
      "SAR": 0.04857905386162,
      "SamplesPerPixel": 1,
      "ScanOptions": "FS",
      "ScanningSequence": "EP",
      "SequenceName": "epfid2d1_104",
      "SequenceVariant": [
        "SK",
        "SS"
],
      "SeriesDescription": "func_task-mario3_run-02",
      "SeriesNumber": 13,
      "SeriesTime": "112209.972000",
      "SliceLocation": -37.071656493109,
      "SliceThickness": 2.0,
      "SmallestImagePixelValue": 0,
      "SoftwareVersions": "syngo MR E11",
      "SpacingBetweenSlices": 1.9999999825196,
      "SpecificCharacterSet": "ISO_IR 100",
      "StudyID": "1",
      "StudyTime": "110812.190000",
      "TransmitCoilName": "Body",
      "VariableFlipAngleFlag": "N",
      "WindowCenterWidthExplanation": "Algo1",
      "dBdt": 0.0},
    "slices": {}
  },
  "time": {
    "samples": {
      "AcquisitionNumber": [1, 2, 3, 4, 5, 6, 7, 8, 9, 10, 11, 12, 13, 14, 15, 16, 17, 18, 19, 20, 21, 22, 23, 24, 25, 26, 27, 28, 29, 30, 31, 32, 33, 34, 35, 36, 37, 38, 39, 40, 41, 42, 43, 44, 45, 46, 47, 48, 49, 50, 51, 52, 53, 54, 55, 56, 57, 58, 59, 60, 61, 62, 63, 64, 65, 66, 67, 68, 69, 70, 71, 72, 73, 74, 75, 76, 77, 78, 79, 80, 81, 82, 83, 84, 85, 86, 87, 88, 89, 90, 91, 92, 93, 94, 95, 96, 97, 98, 99, 100, 101, 102, 103, 104, 105, 106, 107, 108, 109, 110, 111, 112, 113, 114, 115, 116, 117, 118, 119, 120, 121, 122, 123, 124, 125, 126, 127, 128, 129, 130, 131, 132, 133, 134, 135, 136, 137, 138, 139, 140, 141, 142, 143, 144, 145, 146, 147, 148, 149, 150, 151, 152, 153, 154, 155, 156, 157, 158, 159, 160, 161, 162, 163, 164, 165, 166, 167, 168, 169, 170, 171, 172, 173, 174, 175, 176, 177, 178, 179, 180, 181, 182, 183, 184, 185, 186, 187, 188, 189, 190, 191, 192, 193, 194, 195, 196, 197, 198, 199, 200, 201, 202, 203, 204, 205, 206, 207, 208, 209, 210, 211, 212, 213, 214, 215, 216, 217, 218, 219, 220, 221, 222, 223, 224, 225, 226, 227, 228, 229, 230, 231, 232, 233, 234, 235, 236, 237, 238, 239, 240, 241, 242, 243, 244, 245, 246, 247, 248, 249, 250, 251, 252, 253, 254, 255, 256, 257, 258, 259, 260, 261, 262, 263, 264, 265, 266, 267, 268, 269, 270, 271, 272, 273, 274, 275, 276, 277, 278, 279, 280, 281, 282, 283, 284, 285, 286, 287, 288, 289, 290, 291, 292, 293, 294, 295, 296, 297, 298, 299, 300, 301, 302, 303, 304, 305, 306, 307, 308, 309, 310, 311, 312, 313, 314, 315, 316, 317, 318, 319, 320, 321, 322, 323, 324, 325, 326, 327, 328, 329, 330, 331, 332, 333, 334, 335, 336, 337, 338, 339, 340, 341, 342, 343, 344, 345, 346, 347, 348, 349, 350, 351, 352],
      "AcquisitionTime": ["112048.500000", "112049.990000", "112051.480000", "112052.970000", "112054.460000", "112055.950000", "112057.440000", "112058.930000", "112100.420000", "112101.910000", "112103.400000", "112104.890000", "112106.380000", "112107.870000", "112109.360000", "112110.850000", "112112.340000", "112113.830000", "112115.320000", "112116.810000", "112118.300000", "112119.790000", "112121.280000", "112122.770000", "112124.260000", "112125.750000", "112127.240000", "112128.730000", "112130.220000", "112131.710000", "112133.200000", "112134.690000", "112136.180000", "112137.670000", "112139.160000", "112140.650000", "112142.140000", "112143.630000", "112145.120000", "112146.610000", "112148.100000", "112149.590000", "112151.080000", "112152.570000", "112154.060000", "112155.550000", "112157.040000", "112158.530000", "112200.020000", "112201.510000", "112203.000000", "112204.490000", "112205.980000", "112207.470000", "112208.960000", "112210.450000", "112211.940000", "112213.430000", "112214.920000", "112216.410000", "112217.900000", "112219.390000", "112220.880000", "112222.370000", "112223.860000", "112225.350000", "112226.840000", "112228.330000", "112229.820000", "112231.310000", "112232.800000", "112234.290000", "112235.780000", "112237.270000", "112238.760000", "112240.250000", "112241.740000", "112243.230000", "112244.720000", "112246.210000", "112247.700000", "112249.190000", "112250.680000", "112252.170000", "112253.660000", "112255.150000", "112256.640000", "112258.130000", "112259.620000", "112301.110000", "112302.600000", "112304.090000", "112305.580000", "112307.070000", "112308.560000", "112310.050000", "112311.540000", "112313.030000", "112314.520000", "112316.010000", "112317.500000", "112318.990000", "112320.480000", "112321.970000", "112323.460000", "112324.950000", "112326.440000", "112327.930000", "112329.420000", "112330.910000", "112332.400000", "112333.890000", "112335.380000", "112336.870000", "112338.360000", "112339.850000", "112341.340000", "112342.830000", "112344.320000", "112345.810000", "112347.300000", "112348.790000", "112350.280000", "112351.770000", "112353.260000", "112354.750000", "112356.240000", "112357.730000", "112359.220000", "112400.710000", "112402.200000", "112403.690000", "112405.180000", "112406.670000", "112408.160000", "112409.650000", "112411.140000", "112412.630000", "112414.120000", "112415.610000", "112417.100000", "112418.590000", "112420.080000", "112421.570000", "112423.060000", "112424.550000", "112426.040000", "112427.530000", "112429.020000", "112430.510000", "112432.000000", "112433.490000", "112434.980000", "112436.470000", "112437.960000", "112439.450000", "112440.940000", "112442.430000", "112443.920000", "112445.410000", "112446.900000", "112448.390000", "112449.880000", "112451.370000", "112452.860000", "112454.350000", "112455.840000", "112457.330000", "112458.820000", "112500.310000", "112501.800000", "112503.290000", "112504.780000", "112506.270000", "112507.760000", "112509.250000", "112510.740000", "112512.230000", "112513.720000", "112515.210000", "112516.700000", "112518.190000", "112519.680000", "112521.170000", "112522.660000", "112524.150000", "112525.640000", "112527.130000", "112528.620000", "112530.110000", "112531.600000", "112533.090000", "112534.580000", "112536.070000", "112537.560000", "112539.050000", "112540.540000", "112542.030000", "112543.520000", "112545.010000", "112546.500000", "112547.990000", "112549.480000", "112550.970000", "112552.460000", "112553.950000", "112555.440000", "112556.930000", "112558.420000", "112559.910000", "112601.400000", "112602.890000", "112604.380000", "112605.870000", "112607.360000", "112608.850000", "112610.340000", "112611.830000", "112613.320000", "112614.810000", "112616.300000", "112617.790000", "112619.280000", "112620.770000", "112622.260000", "112623.750000", "112625.240000", "112626.730000", "112628.220000", "112629.710000", "112631.200000", "112632.690000", "112634.180000", "112635.670000", "112637.160000", "112638.650000", "112640.140000", "112641.630000", "112643.120000", "112644.610000", "112646.100000", "112647.590000", "112649.080000", "112650.570000", "112652.060000", "112653.550000", "112655.040000", "112656.530000", "112658.020000", "112659.510000", "112701.000000", "112702.490000", "112703.980000", "112705.470000", "112706.960000", "112708.450000", "112709.940000", "112711.430000", "112712.920000", "112714.410000", "112715.900000", "112717.390000", "112718.880000", "112720.370000", "112721.860000", "112723.350000", "112724.840000", "112726.330000", "112727.820000", "112729.310000", "112730.800000", "112732.290000", "112733.780000", "112735.270000", "112736.760000", "112738.250000", "112739.740000", "112741.230000", "112742.720000", "112744.210000", "112745.700000", "112747.190000", "112748.680000", "112750.170000", "112751.660000", "112753.150000", "112754.640000", "112756.130000", "112757.620000", "112759.110000", "112800.600000", "112802.090000", "112803.580000", "112805.070000", "112806.560000", "112808.050000", "112809.540000", "112811.030000", "112812.520000", "112814.010000", "112815.500000", "112816.990000", "112818.480000", "112819.970000", "112821.460000", "112822.950000", "112824.440000", "112825.930000", "112827.420000", "112828.910000", "112830.400000", "112831.890000", "112833.380000", "112834.870000", "112836.360000", "112837.850000", "112839.340000", "112840.830000", "112842.320000", "112843.810000", "112845.300000", "112846.790000", "112848.280000", "112849.770000", "112851.260000", "112852.750000", "112854.240000", "112855.730000", "112857.220000", "112858.710000", "112900.200000", "112901.690000", "112903.180000", "112904.670000", "112906.160000", "112907.650000", "112909.140000", "112910.630000", "112912.120000", "112913.610000", "112915.100000", "112916.590000", "112918.080000", "112919.570000", "112921.060000", "112922.550000", "112924.040000", "112925.530000", "112927.020000", "112928.510000", "112930.000000", "112931.490000"],
      "ContentTime": ["112209.975000", "112209.979000", "112209.982000", "112209.985000", "112209.989000", "112209.992000", "112209.995000", "112210.000000", "112210.003000", "112210.013000", "112210.016000", "112210.019000", "112210.022000", "112210.031000", "112210.035000", "112210.038000", "112210.041000", "112210.044000", "112210.048000", "112210.051000", "112210.054000", "112210.058000", "112210.061000", "112210.064000", "112210.067000", "112210.071000", "112210.074000", "112210.077000", "112210.080000", "112210.084000", "112210.087000", "112210.090000", "112210.093000", "112229.940000", "112229.944000", "112229.947000", "112229.950000", "112229.953000", "112229.956000", "112229.960000", "112229.963000", "112229.966000", "112229.969000", "112229.973000", "112229.976000", "112229.979000", "112229.983000", "112229.986000", "112229.989000", "112229.992000", "112229.996000", "112230.000000", "112230.003000", "112249.940000", "112249.944000", "112249.947000", "112249.961000", "112249.964000", "112249.967000", "112249.971000", "112249.974000", "112249.977000", "112249.980000", "112249.984000", "112249.987000", "112249.990000", "112249.993000", "112249.996000", "112250.001000", "112250.004000", "112250.007000", "112250.010000", "112250.014000", "112309.939000", "112309.943000", "112309.946000", "112309.949000", "112309.952000", "112309.956000", "112309.959000", "112309.962000", "112309.966000", "112309.969000", "112309.972000", "112309.975000", "112309.978000", "112309.982000", "112309.985000", "112309.988000", "112309.991000", "112309.995000", "112309.998000", "112310.002000", "112349.939000", "112349.943000", "112349.946000", "112349.950000", "112349.953000", "112349.956000", "112349.959000", "112349.963000", "112349.966000", "112349.969000", "112349.972000", "112349.975000", "112349.979000", "112349.982000", "112349.985000", "112349.989000", "112349.992000", "112349.995000", "112349.998000", "112350.003000", "112350.006000", "112350.009000", "112350.013000", "112350.016000", "112350.019000", "112350.022000", "112350.025000", "112350.029000", "112429.940000", "112429.944000", "112429.947000", "112429.950000", "112429.953000", "112429.957000", "112429.960000", "112429.963000", "112429.967000", "112429.970000", "112429.973000", "112429.976000", "112429.980000", "112429.983000", "112429.986000", "112429.989000", "112429.993000", "112429.996000", "112430.000000", "112430.004000", "112430.007000", "112430.010000", "112430.013000", "112430.017000", "112430.020000", "112430.023000", "112430.026000", "112509.940000", "112509.944000", "112509.947000", "112509.950000", "112509.954000", "112509.957000", "112509.960000", "112509.964000", "112509.967000", "112509.971000", "112509.974000", "112509.977000", "112509.981000", "112509.984000", "112509.987000", "112509.990000", "112509.994000", "112509.997000", "112510.001000", "112510.004000", "112510.008000", "112510.011000", "112510.014000", "112510.018000", "112510.021000", "112510.024000", "112549.939000", "112549.943000", "112549.946000", "112549.949000", "112549.952000", "112549.956000", "112549.959000", "112549.962000", "112549.966000", "112549.969000", "112549.972000", "112549.976000", "112549.979000", "112549.982000", "112549.985000", "112549.989000", "112549.992000", "112549.995000", "112550.000000", "112550.003000", "112550.006000", "112550.009000", "112550.013000", "112550.016000", "112550.019000", "112550.022000", "112550.026000", "112629.940000", "112629.944000", "112629.947000", "112629.950000", "112629.954000", "112629.957000", "112629.960000", "112629.964000", "112629.967000", "112629.970000", "112629.973000", "112629.977000", "112629.980000", "112630.011000", "112630.015000", "112630.018000", "112630.021000", "112630.025000", "112630.028000", "112630.031000", "112630.034000", "112630.038000", "112630.041000", "112630.044000", "112630.047000", "112630.051000", "112630.054000", "112709.940000", "112709.944000", "112709.947000", "112709.950000", "112709.953000", "112709.957000", "112709.960000", "112709.963000", "112709.967000", "112709.970000", "112709.973000", "112709.977000", "112709.980000", "112709.983000", "112709.987000", "112709.990000", "112709.993000", "112709.996000", "112710.001000", "112710.004000", "112710.007000", "112710.010000", "112710.014000", "112710.017000", "112710.020000", "112710.023000", "112710.027000", "112749.939000", "112749.943000", "112749.946000", "112749.949000", "112749.953000", "112749.956000", "112749.959000", "112749.962000", "112749.966000", "112749.969000", "112749.972000", "112749.975000", "112749.979000", "112749.982000", "112749.985000", "112749.989000", "112749.992000", "112749.995000", "112749.998000", "112750.003000", "112750.006000", "112750.009000", "112750.012000", "112750.016000", "112750.019000", "112750.022000", "112750.025000", "112829.939000", "112829.943000", "112829.946000", "112829.949000", "112829.953000", "112829.956000", "112829.959000", "112829.963000", "112829.966000", "112829.969000", "112829.973000", "112829.976000", "112829.979000", "112829.982000", "112829.986000", "112829.989000", "112829.992000", "112829.995000", "112830.000000", "112830.003000", "112830.006000", "112830.010000", "112830.013000", "112830.016000", "112830.019000", "112830.023000", "112830.026000", "112849.940000", "112849.944000", "112849.947000", "112849.950000", "112849.954000", "112849.957000", "112849.960000", "112849.964000", "112849.967000", "112849.970000", "112849.973000", "112849.977000", "112849.980000", "112929.940000", "112929.944000", "112929.947000", "112929.950000", "112929.954000", "112929.957000", "112929.960000", "112929.964000", "112929.967000", "112929.970000", "112929.973000", "112929.976000", "112929.980000", "112929.983000", "112929.986000", "112929.990000", "112929.993000", "112929.996000", "112930.000000", "112930.004000", "112930.007000", "112930.010000", "112930.013000", "112930.017000", "112930.020000", "112930.023000", "112930.026000", "112933.926000", "112933.930000", "112933.933000"],
      "InstanceCreationTime": ["112209.975000", "112209.979000", "112209.982000", "112209.985000", "112209.989000", "112209.992000", "112209.995000", "112210.000000", "112210.003000", "112210.013000", "112210.016000", "112210.019000", "112210.022000", "112210.031000", "112210.035000", "112210.038000", "112210.041000", "112210.044000", "112210.048000", "112210.051000", "112210.054000", "112210.058000", "112210.061000", "112210.064000", "112210.067000", "112210.071000", "112210.074000", "112210.077000", "112210.080000", "112210.084000", "112210.087000", "112210.090000", "112210.093000", "112229.940000", "112229.944000", "112229.947000", "112229.950000", "112229.953000", "112229.956000", "112229.960000", "112229.963000", "112229.966000", "112229.969000", "112229.973000", "112229.976000", "112229.979000", "112229.983000", "112229.986000", "112229.989000", "112229.992000", "112229.996000", "112230.000000", "112230.003000", "112249.940000", "112249.944000", "112249.947000", "112249.961000", "112249.964000", "112249.967000", "112249.971000", "112249.974000", "112249.977000", "112249.980000", "112249.984000", "112249.987000", "112249.990000", "112249.993000", "112249.996000", "112250.001000", "112250.004000", "112250.007000", "112250.010000", "112250.014000", "112309.939000", "112309.943000", "112309.946000", "112309.949000", "112309.952000", "112309.956000", "112309.959000", "112309.962000", "112309.966000", "112309.969000", "112309.972000", "112309.975000", "112309.978000", "112309.982000", "112309.985000", "112309.988000", "112309.991000", "112309.995000", "112309.998000", "112310.002000", "112349.939000", "112349.943000", "112349.946000", "112349.950000", "112349.953000", "112349.956000", "112349.959000", "112349.963000", "112349.966000", "112349.969000", "112349.972000", "112349.975000", "112349.979000", "112349.982000", "112349.985000", "112349.989000", "112349.992000", "112349.995000", "112349.998000", "112350.003000", "112350.006000", "112350.009000", "112350.013000", "112350.016000", "112350.019000", "112350.022000", "112350.025000", "112350.029000", "112429.940000", "112429.944000", "112429.947000", "112429.950000", "112429.953000", "112429.957000", "112429.960000", "112429.963000", "112429.967000", "112429.970000", "112429.973000", "112429.976000", "112429.980000", "112429.983000", "112429.986000", "112429.989000", "112429.993000", "112429.996000", "112430.000000", "112430.004000", "112430.007000", "112430.010000", "112430.013000", "112430.017000", "112430.020000", "112430.023000", "112430.026000", "112509.940000", "112509.944000", "112509.947000", "112509.950000", "112509.954000", "112509.957000", "112509.960000", "112509.964000", "112509.967000", "112509.971000", "112509.974000", "112509.977000", "112509.981000", "112509.984000", "112509.987000", "112509.990000", "112509.994000", "112509.997000", "112510.001000", "112510.004000", "112510.008000", "112510.011000", "112510.014000", "112510.018000", "112510.021000", "112510.024000", "112549.939000", "112549.943000", "112549.946000", "112549.949000", "112549.952000", "112549.956000", "112549.959000", "112549.962000", "112549.966000", "112549.969000", "112549.972000", "112549.976000", "112549.979000", "112549.982000", "112549.985000", "112549.989000", "112549.992000", "112549.995000", "112550.000000", "112550.003000", "112550.006000", "112550.009000", "112550.013000", "112550.016000", "112550.019000", "112550.022000", "112550.026000", "112629.940000", "112629.944000", "112629.947000", "112629.950000", "112629.954000", "112629.957000", "112629.960000", "112629.964000", "112629.967000", "112629.970000", "112629.973000", "112629.977000", "112629.980000", "112630.011000", "112630.015000", "112630.018000", "112630.021000", "112630.025000", "112630.028000", "112630.031000", "112630.034000", "112630.038000", "112630.041000", "112630.044000", "112630.047000", "112630.051000", "112630.054000", "112709.940000", "112709.944000", "112709.947000", "112709.950000", "112709.953000", "112709.957000", "112709.960000", "112709.963000", "112709.967000", "112709.970000", "112709.973000", "112709.977000", "112709.980000", "112709.983000", "112709.987000", "112709.990000", "112709.993000", "112709.996000", "112710.001000", "112710.004000", "112710.007000", "112710.010000", "112710.014000", "112710.017000", "112710.020000", "112710.023000", "112710.027000", "112749.939000", "112749.943000", "112749.946000", "112749.949000", "112749.953000", "112749.956000", "112749.959000", "112749.962000", "112749.966000", "112749.969000", "112749.972000", "112749.975000", "112749.979000", "112749.982000", "112749.985000", "112749.989000", "112749.992000", "112749.995000", "112749.998000", "112750.003000", "112750.006000", "112750.009000", "112750.012000", "112750.016000", "112750.019000", "112750.022000", "112750.025000", "112829.939000", "112829.943000", "112829.946000", "112829.949000", "112829.953000", "112829.956000", "112829.959000", "112829.963000", "112829.966000", "112829.969000", "112829.973000", "112829.976000", "112829.979000", "112829.982000", "112829.986000", "112829.989000", "112829.992000", "112829.995000", "112830.000000", "112830.003000", "112830.006000", "112830.010000", "112830.013000", "112830.016000", "112830.019000", "112830.023000", "112830.026000", "112849.940000", "112849.944000", "112849.947000", "112849.950000", "112849.954000", "112849.957000", "112849.960000", "112849.964000", "112849.967000", "112849.970000", "112849.973000", "112849.977000", "112849.980000", "112929.940000", "112929.944000", "112929.947000", "112929.950000", "112929.954000", "112929.957000", "112929.960000", "112929.964000", "112929.967000", "112929.970000", "112929.973000", "112929.976000", "112929.980000", "112929.983000", "112929.986000", "112929.990000", "112929.993000", "112929.996000", "112930.000000", "112930.004000", "112930.007000", "112930.010000", "112930.013000", "112930.017000", "112930.020000", "112930.023000", "112930.026000", "112933.926000", "112933.930000", "112933.933000"],
      "InstanceNumber": [1, 2, 3, 4, 5, 6, 7, 8, 9, 10, 11, 12, 13, 14, 15, 16, 17, 18, 19, 20, 21, 22, 23, 24, 25, 26, 27, 28, 29, 30, 31, 32, 33, 34, 35, 36, 37, 38, 39, 40, 41, 42, 43, 44, 45, 46, 47, 48, 49, 50, 51, 52, 53, 54, 55, 56, 57, 58, 59, 60, 61, 62, 63, 64, 65, 66, 67, 68, 69, 70, 71, 72, 73, 74, 75, 76, 77, 78, 79, 80, 81, 82, 83, 84, 85, 86, 87, 88, 89, 90, 91, 92, 93, 94, 95, 96, 97, 98, 99, 100, 101, 102, 103, 104, 105, 106, 107, 108, 109, 110, 111, 112, 113, 114, 115, 116, 117, 118, 119, 120, 121, 122, 123, 124, 125, 126, 127, 128, 129, 130, 131, 132, 133, 134, 135, 136, 137, 138, 139, 140, 141, 142, 143, 144, 145, 146, 147, 148, 149, 150, 151, 152, 153, 154, 155, 156, 157, 158, 159, 160, 161, 162, 163, 164, 165, 166, 167, 168, 169, 170, 171, 172, 173, 174, 175, 176, 177, 178, 179, 180, 181, 182, 183, 184, 185, 186, 187, 188, 189, 190, 191, 192, 193, 194, 195, 196, 197, 198, 199, 200, 201, 202, 203, 204, 205, 206, 207, 208, 209, 210, 211, 212, 213, 214, 215, 216, 217, 218, 219, 220, 221, 222, 223, 224, 225, 226, 227, 228, 229, 230, 231, 232, 233, 234, 235, 236, 237, 238, 239, 240, 241, 242, 243, 244, 245, 246, 247, 248, 249, 250, 251, 252, 253, 254, 255, 256, 257, 258, 259, 260, 261, 262, 263, 264, 265, 266, 267, 268, 269, 270, 271, 272, 273, 274, 275, 276, 277, 278, 279, 280, 281, 282, 283, 284, 285, 286, 287, 288, 289, 290, 291, 292, 293, 294, 295, 296, 297, 298, 299, 300, 301, 302, 303, 304, 305, 306, 307, 308, 309, 310, 311, 312, 313, 314, 315, 316, 317, 318, 319, 320, 321, 322, 323, 324, 325, 326, 327, 328, 329, 330, 331, 332, 333, 334, 335, 336, 337, 338, 339, 340, 341, 342, 343, 344, 345, 346, 347, 348, 349, 350, 351, 352],
      "LargestImagePixelValue": [44523, 44044, 42267, 43303, 44394, 42400, 42412, 42034, 42274, 41788, 39778, 38465, 41077, 39862, 39996, 40616, 40663, 40006, 39173, 39812, 40166, 39286, 40005, 39465, 38826, 37676, 39527, 38199, 38092, 37835, 37977, 37420, 38011, 37505, 39973, 41134, 41107, 40737, 40129, 37820, 38090, 38726, 37829, 38629, 38597, 39765, 38084, 38239, 38330, 38139, 38203, 38595, 38195, 37806, 38449, 40002, 55098, 44093, 39528, 38685, 39429, 39467, 39595, 40122, 39613, 39412, 39462, 39190, 39177, 39540, 38934, 39368, 39471, 39159, 39016, 38666, 38777, 52005, 39430, 40425, 39523, 39268, 40140, 40259, 40063, 39799, 39794, 39545, 40125, 40142, 41408, 40703, 41396, 40640, 40286, 40587, 40503, 40185, 40633, 40597, 40023, 39705, 40098, 39646, 39694, 39536, 39699, 39747, 39988, 39811, 39506, 39069, 39373, 39595, 38920, 39442, 39350, 39519, 40042, 39989, 39676, 39840, 39837, 39717, 39630, 39379, 39200, 39753, 38498, 38681, 39062, 39482, 39277, 39746, 39560, 39636, 39255, 39548, 39616, 39789, 39985, 40198, 39338, 39672, 40428, 39692, 39785, 39661, 39600, 39128, 39380, 39359, 39926, 39223, 38566, 39153, 39523, 40269, 52902, 40373, 39660, 38670, 39208, 40031, 39879, 40188, 39531, 39384, 39699, 39648, 39749, 39266, 39121, 38731, 38418, 38661, 39031, 39379, 39338, 39273, 39638, 39829, 39485, 39358, 39398, 39161, 39878, 39239, 39628, 39495, 38479, 39268, 39282, 39368, 39074, 38582, 39493, 39047, 39561, 39292, 39717, 39997, 39681, 39254, 39358, 39409, 39675, 39477, 39347, 39664, 39861, 39531, 39835, 39242, 39371, 39442, 39863, 39794, 39850, 39922, 39861, 39908, 40349, 39863, 39950, 39905, 40162, 42156, 50218, 42716, 39799, 39599, 39882, 39153, 39431, 40611, 40034, 40679, 40388, 40337, 39749, 39700, 39706, 39116, 39302, 39382, 39898, 39734, 39339, 39765, 39474, 39775, 39853, 52237, 42430, 38484, 38157, 37975, 38962, 38645, 38753, 39060, 39195, 38769, 39068, 38760, 38749, 38443, 38750, 38261, 38871, 38790, 39011, 38576, 38513, 38917, 38302, 39852, 39901, 40127, 38785, 50465, 44666, 38299, 38618, 39230, 38112, 39070, 38864, 38700, 38574, 39095, 38634, 38749, 39155, 39161, 38923, 39199, 38466, 39187, 38609, 38625, 38489, 38420, 38432, 38316, 38517, 38473, 39376, 38447, 38625, 38825, 39172, 39461, 40053, 40840, 39862, 39397, 39604, 39976, 40365, 38818, 38933, 39835, 38636, 41552, 40197, 39056, 38146, 38063, 37960, 38349, 38769, 38377, 38618, 38262, 38325, 38484, 38170, 38265, 38341, 38216, 39319, 38513, 38208, 38232, 38408, 38288, 37900, 37786, 38241, 38209],
