{
  "AcquisitionMatrixPE": 104,
  "AcquisitionNumber": 1,
  "AcquisitionTime": "11:11:14.832500",
  "BandwidthPerPixelPhaseEncode": 17.17,
  "BaseResolution": 104,
  "BodyPartExamined": "BRAIN",
  "CoilCombinationMethod": "Sum of Squares",
  "ConsistencyInfo": "N4_VE11C_LATEST_20160120",
  "ConversionSoftware": "dcm2niix",
  "ConversionSoftwareVersion": "v1.0.20220505",
  "DerivedVendorReportedEchoSpacing": 0.000560011,
  "DeviceSerialNumber": "167006",
  "DwellTime": 2.1e-06,
  "EchoTime": 0.037,
  "EchoTrainLength": 104,
  "EffectiveEchoSpacing": 0.000560011,
  "FlipAngle": 52,
  "HeudiconvVersion": "0.5.3.post811+g6206e14",
  "ImageComments": "Unaliased MB4/PE3/LB",
  "ImageOrientationPatientDICOM": [0.996278, 0.0842897, 0.018012, -0.0745609, 0.947641, -0.310512],
  "ImageOrientationText": "Tra>Cor(-18.0)>Sag(2.5)",
  "ImageType": [
    "ORIGINAL",
    "PRIMARY",
    "M",
    "MB",
    "ND",
    "MOSAIC"
],
  "ImagingFrequency": 123.26,
  "InPlanePhaseEncodingDirectionDICOM": "COL",
  "InstitutionAddress": "Chemin Queen-Mary 4565,Montreal,District,CA,H3W 1W5",
  "InstitutionName": "IUGM",
  "InstitutionalDepartmentName": "Department",
  "MRAcquisitionType": "2D",
  "MagneticFieldStrength": 3,
  "Manufacturer": "Siemens",
  "ManufacturersModelName": "Prisma_fit",
  "MatrixCoilMode": "SENSE",
  "Modality": "MR",
  "MultibandAccelerationFactor": 4,
  "PartialFourier": 1,
  "PatientPosition": "HFS",
  "PercentPhaseFOV": 100,
  "PercentSampling": 100,
  "PhaseEncodingDirection": "j",
  "PhaseEncodingSteps": 104,
  "PhaseResolution": 1,
  "PixelBandwidth": 2290,
  "ProcedureStepDescription": "games^mario3",
  "ProtocolName": "func_task-mario3_run-01",
  "PulseSequenceDetails": "%CustomerSeq%\\cmrr_mbep2d_bold",
  "ReceiveCoilActiveElements": "HC1-7;NC1,2",
  "ReceiveCoilName": "HeadNeck_64",
  "ReconMatrixPE": 104,
  "RepetitionTime": 1.49,
  "SAR": 0.0485791,
  "ScanOptions": "FS",
  "ScanningSequence": "EP",
  "SequenceName": "epfid2d1_104",
  "SequenceVariant": "SK\\SS",
  "SeriesDescription": "func_task-mario3_run-01",
  "SeriesNumber": 10,
  "ShimSetting": [622, -7196, -8826, 661, 122, 44, -47, 13],
  "SliceThickness": 2,
  "SliceTiming": [0, 0.785, 0.1, 0.8825, 0.1975, 0.98, 0.295, 1.0775, 0.3925, 1.1775, 0.49, 1.275, 0.5875, 1.3725, 0.6875, 0, 0.785, 0.1, 0.8825, 0.1975, 0.98, 0.295, 1.0775, 0.3925, 1.1775, 0.49, 1.275, 0.5875, 1.3725, 0.6875, 0, 0.785, 0.1, 0.8825, 0.1975, 0.98, 0.295, 1.0775, 0.3925, 1.1775, 0.49, 1.275, 0.5875, 1.3725, 0.6875, 0, 0.785, 0.1, 0.8825, 0.1975, 0.98, 0.295, 1.0775, 0.3925, 1.1775, 0.49, 1.275, 0.5875, 1.3725, 0.6875],
  "SoftwareVersions": "syngo MR E11",
  "SpacingBetweenSlices": 2,
  "StationName": "MRC35049",
  "TaskName": "mario3",
  "TotalReadoutTime": 0.0576811,
  "TxRefAmp": 255.023,
  "WipMemBlock": "2f929cfa-6457-4adc-8f27-630301dced2c||Sequence: R017 ve11c/master r/75a17815+; Jun 28 2022 16:32:11 by eja",
  "dcmmeta_affine": [
    [-1.9925569295883179, -0.1491217464208603, 0.0864836722612381, 110.60840606689453],
    [-0.1685793548822403, 1.895281434059143, -0.6160269379615784, -54.754844665527344],
    [0.03602394089102745, 0.6210240721702576, 1.9007974863052368, -61.78437805175781],
    [0.0, 0.0, 0.0, 1.0]
],
  "dcmmeta_reorient_transform": [
    [0.0, -1.0, 0.0, 103.0],
    [1.0, 0.0, 0.0, 0.0],
    [0.0, 0.0, 1.0, 0.0],
    [0.0, 0.0, 0.0, 1.0]
],
  "dcmmeta_shape": [104, 104, 60, 331],
  "dcmmeta_slice_dim": 2,
  "dcmmeta_version": 0.6,
  "global": {
    "const": {
      "AcquisitionMatrix": [104, 0, 0, 104],
      "AngioFlag": "N",
      "BitsAllocated": 16,
      "BitsStored": 16,
      "BodyPartExamined": "BRAIN",
      "Columns": 832,
      "EchoNumbers": 1,
      "EchoTime": 37.0,
      "EchoTrainLength": 104,
      "FlipAngle": 52.0,
      "HighBit": 15,
      "ImageOrientationPatient": [0.99627848500032, 0.0842896746141, 0.01801197043424, -0.074560874287, 0.94764072753544, -0.3105120408964],
      "ImagePositionPatient": [-766.25928592822, -891.70447654643, 215.12115367155],
      "ImageType": [
        "ORIGINAL",
        "PRIMARY",
        "M",
        "MB",
        "ND",
        "MOSAIC"
],
      "ImagedNucleus": "1H",
      "ImagingFrequency": 123.260305,
      "InPlanePhaseEncodingDirection": "COL",
      "MRAcquisitionType": "2D",
      "MagneticFieldStrength": 3.0,
      "Manufacturer": "SIEMENS",
      "ManufacturerModelName": "Prisma_fit",
      "Modality": "MR",
      "NumberOfAverages": 1.0,
      "NumberOfPhaseEncodingSteps": 104,
      "PercentPhaseFieldOfView": 100.0,
      "PercentSampling": 100.0,
      "PerformedProcedureStepStartTime": "110812.260000",
      "PhotometricInterpretation": "MONOCHROME2",
      "PixelBandwidth": 2290.0,
      "PixelRepresentation": 0,
      "PixelSpacing": [2.0, 2.0],
      "ProtocolName": "func_task-mario3_run-01",
      "RepetitionTime": 1490.0,
      "Rows": 832,
      "SAR": 0.04857905386162,
      "SamplesPerPixel": 1,
      "ScanOptions": "FS",
      "ScanningSequence": "EP",
      "SequenceName": "epfid2d1_104",
      "SequenceVariant": [
        "SK",
        "SS"
],
      "SeriesDescription": "func_task-mario3_run-01",
      "SeriesNumber": 10,
      "SeriesTime": "111235.932000",
      "SliceLocation": -37.071656493109,
      "SliceThickness": 2.0,
      "SmallestImagePixelValue": 0,
      "SoftwareVersions": "syngo MR E11",
      "SpacingBetweenSlices": 1.9999999825196,
      "SpecificCharacterSet": "ISO_IR 100",
      "StudyID": "1",
      "StudyTime": "110812.190000",
      "TransmitCoilName": "Body",
      "VariableFlipAngleFlag": "N",
      "WindowCenterWidthExplanation": "Algo1",
      "dBdt": 0.0},
    "slices": {}
  },
  "time": {
    "samples": {
      "AcquisitionNumber": [1, 2, 3, 4, 5, 6, 7, 8, 9, 10, 11, 12, 13, 14, 15, 16, 17, 18, 19, 20, 21, 22, 23, 24, 25, 26, 27, 28, 29, 30, 31, 32, 33, 34, 35, 36, 37, 38, 39, 40, 41, 42, 43, 44, 45, 46, 47, 48, 49, 50, 51, 52, 53, 54, 55, 56, 57, 58, 59, 60, 61, 62, 63, 64, 65, 66, 67, 68, 69, 70, 71, 72, 73, 74, 75, 76, 77, 78, 79, 80, 81, 82, 83, 84, 85, 86, 87, 88, 89, 90, 91, 92, 93, 94, 95, 96, 97, 98, 99, 100, 101, 102, 103, 104, 105, 106, 107, 108, 109, 110, 111, 112, 113, 114, 115, 116, 117, 118, 119, 120, 121, 122, 123, 124, 125, 126, 127, 128, 129, 130, 131, 132, 133, 134, 135, 136, 137, 138, 139, 140, 141, 142, 143, 144, 145, 146, 147, 148, 149, 150, 151, 152, 153, 154, 155, 156, 157, 158, 159, 160, 161, 162, 163, 164, 165, 166, 167, 168, 169, 170, 171, 172, 173, 174, 175, 176, 177, 178, 179, 180, 181, 182, 183, 184, 185, 186, 187, 188, 189, 190, 191, 192, 193, 194, 195, 196, 197, 198, 199, 200, 201, 202, 203, 204, 205, 206, 207, 208, 209, 210, 211, 212, 213, 214, 215, 216, 217, 218, 219, 220, 221, 222, 223, 224, 225, 226, 227, 228, 229, 230, 231, 232, 233, 234, 235, 236, 237, 238, 239, 240, 241, 242, 243, 244, 245, 246, 247, 248, 249, 250, 251, 252, 253, 254, 255, 256, 257, 258, 259, 260, 261, 262, 263, 264, 265, 266, 267, 268, 269, 270, 271, 272, 273, 274, 275, 276, 277, 278, 279, 280, 281, 282, 283, 284, 285, 286, 287, 288, 289, 290, 291, 292, 293, 294, 295, 296, 297, 298, 299, 300, 301, 302, 303, 304, 305, 306, 307, 308, 309, 310, 311, 312, 313, 314, 315, 316, 317, 318, 319, 320, 321, 322, 323, 324, 325, 326, 327, 328, 329, 330, 331],
      "AcquisitionTime": ["111114.832500", "111116.322500", "111117.812500", "111119.302500", "111120.792500", "111122.282500", "111123.772500", "111125.262500", "111126.752500", "111128.242500", "111129.732500", "111131.222500", "111132.712500", "111134.202500", "111135.692500", "111137.182500", "111138.672500", "111140.162500", "111141.652500", "111143.142500", "111144.632500", "111146.122500", "111147.612500", "111149.102500", "111150.592500", "111152.082500", "111153.572500", "111155.062500", "111156.552500", "111158.042500", "111159.532500", "111201.022500", "111202.512500", "111204.002500", "111205.492500", "111206.982500", "111208.472500", "111209.962500", "111211.452500", "111212.942500", "111214.432500", "111215.922500", "111217.412500", "111218.902500", "111220.392500", "111221.882500", "111223.372500", "111224.862500", "111226.352500", "111227.842500", "111229.332500", "111230.822500", "111232.312500", "111233.802500", "111235.292500", "111236.782500", "111238.272500", "111239.762500", "111241.252500", "111242.742500", "111244.232500", "111245.722500", "111247.212500", "111248.702500", "111250.192500", "111251.682500", "111253.172500", "111254.662500", "111256.152500", "111257.642500", "111259.132500", "111300.622500", "111302.112500", "111303.602500", "111305.092500", "111306.582500", "111308.072500", "111309.562500", "111311.052500", "111312.542500", "111314.032500", "111315.522500", "111317.012500", "111318.502500", "111319.992500", "111321.482500", "111322.972500", "111324.462500", "111325.952500", "111327.442500", "111328.932500", "111330.422500", "111331.912500", "111333.402500", "111334.892500", "111336.382500", "111337.872500", "111339.362500", "111340.852500", "111342.342500", "111343.832500", "111345.322500", "111346.812500", "111348.302500", "111349.792500", "111351.282500", "111352.772500", "111354.262500", "111355.752500", "111357.242500", "111358.732500", "111400.222500", "111401.712500", "111403.202500", "111404.692500", "111406.182500", "111407.672500", "111409.162500", "111410.652500", "111412.142500", "111413.632500", "111415.122500", "111416.612500", "111418.102500", "111419.592500", "111421.082500", "111422.572500", "111424.062500", "111425.552500", "111427.042500", "111428.532500", "111430.022500", "111431.512500", "111433.002500", "111434.492500", "111435.982500", "111437.472500", "111438.962500", "111440.452500", "111441.942500", "111443.432500", "111444.922500", "111446.412500", "111447.902500", "111449.392500", "111450.882500", "111452.372500", "111453.862500", "111455.352500", "111456.842500", "111458.332500", "111459.822500", "111501.312500", "111502.802500", "111504.292500", "111505.782500", "111507.272500", "111508.762500", "111510.252500", "111511.742500", "111513.232500", "111514.722500", "111516.212500", "111517.702500", "111519.192500", "111520.682500", "111522.172500", "111523.662500", "111525.152500", "111526.642500", "111528.132500", "111529.622500", "111531.112500", "111532.602500", "111534.092500", "111535.582500", "111537.072500", "111538.562500", "111540.052500", "111541.542500", "111543.032500", "111544.522500", "111546.012500", "111547.502500", "111548.992500", "111550.482500", "111551.972500", "111553.462500", "111554.952500", "111556.442500", "111557.932500", "111559.422500", "111600.912500", "111602.402500", "111603.892500", "111605.382500", "111606.872500", "111608.362500", "111609.852500", "111611.342500", "111612.832500", "111614.322500", "111615.812500", "111617.302500", "111618.792500", "111620.282500", "111621.772500", "111623.262500", "111624.752500", "111626.242500", "111627.732500", "111629.222500", "111630.712500", "111632.202500", "111633.692500", "111635.182500", "111636.672500", "111638.162500", "111639.652500", "111641.142500", "111642.632500", "111644.122500", "111645.612500", "111647.102500", "111648.592500", "111650.082500", "111651.572500", "111653.062500", "111654.552500", "111656.042500", "111657.532500", "111659.022500", "111700.512500", "111702.002500", "111703.492500", "111704.982500", "111706.472500", "111707.962500", "111709.452500", "111710.942500", "111712.432500", "111713.922500", "111715.412500", "111716.902500", "111718.392500", "111719.882500", "111721.372500", "111722.862500", "111724.352500", "111725.842500", "111727.332500", "111728.822500", "111730.312500", "111731.802500", "111733.292500", "111734.782500", "111736.272500", "111737.762500", "111739.252500", "111740.742500", "111742.232500", "111743.722500", "111745.212500", "111746.702500", "111748.192500", "111749.682500", "111751.172500", "111752.662500", "111754.152500", "111755.642500", "111757.132500", "111758.622500", "111800.112500", "111801.602500", "111803.092500", "111804.582500", "111806.072500", "111807.562500", "111809.052500", "111810.542500", "111812.032500", "111813.522500", "111815.012500", "111816.502500", "111817.992500", "111819.482500", "111820.972500", "111822.462500", "111823.952500", "111825.442500", "111826.932500", "111828.422500", "111829.912500", "111831.402500", "111832.892500", "111834.382500", "111835.872500", "111837.362500", "111838.852500", "111840.342500", "111841.832500", "111843.322500", "111844.812500", "111846.302500", "111847.792500", "111849.282500", "111850.772500", "111852.262500", "111853.752500", "111855.242500", "111856.732500", "111858.222500", "111859.712500", "111901.202500", "111902.692500", "111904.182500", "111905.672500", "111907.162500", "111908.652500", "111910.142500", "111911.632500", "111913.122500", "111914.612500", "111916.102500", "111917.592500", "111919.082500", "111920.572500", "111922.062500", "111923.552500", "111925.042500", "111926.532500"],
      "ContentTime": ["111235.936000", "111235.939000", "111235.943000", "111235.946000", "111235.949000", "111235.952000", "111235.956000", "111235.959000", "111235.962000", "111235.965000", "111235.969000", "111235.972000", "111235.975000", "111235.979000", "111235.982000", "111235.985000", "111235.988000", "111235.991000", "111235.995000", "111235.998000", "111236.002000", "111236.006000", "111236.009000", "111236.012000", "111236.015000", "111236.019000", "111236.022000", "111236.025000", "111236.028000", "111236.031000", "111236.035000", "111236.038000", "111255.889000", "111255.893000", "111255.896000", "111255.899000", "111255.902000", "111255.905000", "111255.909000", "111255.912000", "111255.915000", "111255.918000", "111255.922000", "111255.925000", "111255.928000", "111255.931000", "111255.935000", "111255.938000", "111255.941000", "111255.944000", "111255.948000", "111255.951000", "111315.889000", "111315.893000", "111315.896000", "111315.899000", "111315.902000", "111315.905000", "111315.909000", "111315.934000", "111315.937000", "111315.940000", "111315.944000", "111315.947000", "111315.950000", "111315.953000", "111315.956000", "111315.960000", "111315.963000", "111315.966000", "111315.970000", "111315.973000", "111315.976000", "111335.889000", "111335.893000", "111335.896000", "111335.899000", "111335.902000", "111335.906000", "111335.909000", "111335.912000", "111335.916000", "111335.919000", "111335.922000", "111335.925000", "111335.928000", "111335.932000", "111335.935000", "111335.938000", "111335.941000", "111335.945000", "111335.948000", "111335.951000", "111415.889000", "111415.893000", "111415.896000", "111415.919000", "111415.922000", "111415.925000", "111415.929000", "111415.932000", "111415.935000", "111415.938000", "111415.942000", "111415.945000", "111415.948000", "111415.951000", "111415.955000", "111415.958000", "111415.961000", "111415.964000", "111415.968000", "111415.971000", "111415.974000", "111415.977000", "111415.981000", "111415.984000", "111415.987000", "111415.991000", "111415.994000", "111415.997000", "111455.889000", "111455.893000", "111455.896000", "111455.899000", "111455.902000", "111455.906000", "111455.909000", "111455.912000", "111455.916000", "111455.919000", "111455.922000", "111455.925000", "111455.929000", "111455.932000", "111455.935000", "111455.938000", "111455.941000", "111455.945000", "111455.948000", "111455.951000", "111455.955000", "111455.958000", "111455.961000", "111455.964000", "111455.968000", "111455.971000", "111455.974000", "111535.889000", "111535.893000", "111535.896000", "111535.899000", "111535.903000", "111535.906000", "111535.909000", "111535.912000", "111535.916000", "111535.919000", "111535.922000", "111535.926000", "111535.937000", "111535.940000", "111535.943000", "111535.947000", "111535.950000", "111535.953000", "111535.956000", "111535.960000", "111535.963000", "111535.966000", "111535.969000", "111535.973000", "111535.976000", "111535.979000", "111535.982000", "111615.888000", "111615.892000", "111615.895000", "111615.898000", "111615.903000", "111615.906000", "111615.909000", "111615.913000", "111615.916000", "111615.919000", "111615.923000", "111615.926000", "111615.929000", "111615.932000", "111615.936000", "111615.939000", "111615.942000", "111615.945000", "111615.949000", "111615.952000", "111615.955000", "111615.959000", "111615.962000", "111615.965000", "111615.969000", "111615.972000", "111655.889000", "111655.893000", "111655.896000", "111655.899000", "111655.903000", "111655.906000", "111655.909000", "111655.912000", "111655.916000", "111655.919000", "111655.922000", "111655.925000", "111655.929000", "111655.932000", "111655.935000", "111655.938000", "111655.942000", "111655.945000", "111655.948000", "111655.951000", "111655.955000", "111655.958000", "111655.961000", "111655.965000", "111655.968000", "111655.971000", "111655.974000", "111735.889000", "111735.893000", "111735.896000", "111735.899000", "111735.903000", "111735.906000", "111735.909000", "111735.913000", "111735.916000", "111735.919000", "111735.922000", "111735.926000", "111735.929000", "111735.933000", "111735.936000", "111735.939000", "111735.943000", "111735.946000", "111735.949000", "111735.952000", "111735.956000", "111735.959000", "111735.962000", "111735.965000", "111735.969000", "111735.972000", "111735.975000", "111815.889000", "111815.893000", "111815.896000", "111815.899000", "111815.903000", "111815.906000", "111815.909000", "111815.912000", "111815.916000", "111815.919000", "111815.922000", "111815.925000", "111815.929000", "111815.932000", "111815.935000", "111815.938000", "111815.942000", "111815.945000", "111815.948000", "111815.952000", "111815.955000", "111815.958000", "111815.961000", "111815.965000", "111815.968000", "111815.971000", "111815.975000", "111855.889000", "111855.893000", "111855.896000", "111855.899000", "111855.903000", "111855.906000", "111855.909000", "111855.913000", "111855.916000", "111855.919000", "111855.922000", "111855.925000", "111855.929000", "111855.932000", "111855.935000", "111855.939000", "111855.942000", "111855.945000", "111855.948000", "111855.952000", "111855.955000", "111855.958000", "111855.961000", "111855.965000", "111855.968000", "111855.971000", "111855.974000", "111929.457000", "111929.461000", "111929.464000", "111929.468000", "111929.471000", "111929.474000", "111929.477000", "111929.481000", "111929.484000", "111929.487000", "111929.490000", "111929.494000", "111929.497000", "111929.500000", "111929.504000", "111929.507000", "111929.510000", "111929.514000", "111929.517000", "111929.520000", "111929.523000", "111929.527000"],
      "InstanceCreationTime": ["111235.936000", "111235.939000", "111235.943000", "111235.946000", "111235.949000", "111235.952000", "111235.956000", "111235.959000", "111235.962000", "111235.965000", "111235.969000", "111235.972000", "111235.975000", "111235.979000", "111235.982000", "111235.985000", "111235.988000", "111235.991000", "111235.995000", "111235.998000", "111236.002000", "111236.006000", "111236.009000", "111236.012000", "111236.015000", "111236.019000", "111236.022000", "111236.025000", "111236.028000", "111236.031000", "111236.035000", "111236.038000", "111255.889000", "111255.893000", "111255.896000", "111255.899000", "111255.902000", "111255.905000", "111255.909000", "111255.912000", "111255.915000", "111255.918000", "111255.922000", "111255.925000", "111255.928000", "111255.931000", "111255.935000", "111255.938000", "111255.941000", "111255.944000", "111255.948000", "111255.951000", "111315.889000", "111315.893000", "111315.896000", "111315.899000", "111315.902000", "111315.905000", "111315.909000", "111315.934000", "111315.937000", "111315.940000", "111315.944000", "111315.947000", "111315.950000", "111315.953000", "111315.956000", "111315.960000", "111315.963000", "111315.966000", "111315.970000", "111315.973000", "111315.976000", "111335.889000", "111335.893000", "111335.896000", "111335.899000", "111335.902000", "111335.906000", "111335.909000", "111335.912000", "111335.916000", "111335.919000", "111335.922000", "111335.925000", "111335.928000", "111335.932000", "111335.935000", "111335.938000", "111335.941000", "111335.945000", "111335.948000", "111335.951000", "111415.889000", "111415.893000", "111415.896000", "111415.919000", "111415.922000", "111415.925000", "111415.929000", "111415.932000", "111415.935000", "111415.938000", "111415.942000", "111415.945000", "111415.948000", "111415.951000", "111415.955000", "111415.958000", "111415.961000", "111415.964000", "111415.968000", "111415.971000", "111415.974000", "111415.977000", "111415.981000", "111415.984000", "111415.987000", "111415.991000", "111415.994000", "111415.997000", "111455.889000", "111455.893000", "111455.896000", "111455.899000", "111455.902000", "111455.906000", "111455.909000", "111455.912000", "111455.916000", "111455.919000", "111455.922000", "111455.925000", "111455.929000", "111455.932000", "111455.935000", "111455.938000", "111455.941000", "111455.945000", "111455.948000", "111455.951000", "111455.955000", "111455.958000", "111455.961000", "111455.964000", "111455.968000", "111455.971000", "111455.974000", "111535.889000", "111535.893000", "111535.896000", "111535.899000", "111535.903000", "111535.906000", "111535.909000", "111535.912000", "111535.916000", "111535.919000", "111535.922000", "111535.926000", "111535.937000", "111535.940000", "111535.943000", "111535.947000", "111535.950000", "111535.953000", "111535.956000", "111535.960000", "111535.963000", "111535.966000", "111535.969000", "111535.973000", "111535.976000", "111535.979000", "111535.982000", "111615.888000", "111615.892000", "111615.895000", "111615.898000", "111615.903000", "111615.906000", "111615.909000", "111615.913000", "111615.916000", "111615.919000", "111615.923000", "111615.926000", "111615.929000", "111615.932000", "111615.936000", "111615.939000", "111615.942000", "111615.945000", "111615.949000", "111615.952000", "111615.955000", "111615.959000", "111615.962000", "111615.965000", "111615.969000", "111615.972000", "111655.889000", "111655.893000", "111655.896000", "111655.899000", "111655.903000", "111655.906000", "111655.909000", "111655.912000", "111655.916000", "111655.919000", "111655.922000", "111655.925000", "111655.929000", "111655.932000", "111655.935000", "111655.938000", "111655.942000", "111655.945000", "111655.948000", "111655.951000", "111655.955000", "111655.958000", "111655.961000", "111655.965000", "111655.968000", "111655.971000", "111655.974000", "111735.889000", "111735.893000", "111735.896000", "111735.899000", "111735.903000", "111735.906000", "111735.909000", "111735.913000", "111735.916000", "111735.919000", "111735.922000", "111735.926000", "111735.929000", "111735.933000", "111735.936000", "111735.939000", "111735.943000", "111735.946000", "111735.949000", "111735.952000", "111735.956000", "111735.959000", "111735.962000", "111735.965000", "111735.969000", "111735.972000", "111735.975000", "111815.889000", "111815.893000", "111815.896000", "111815.899000", "111815.903000", "111815.906000", "111815.909000", "111815.912000", "111815.916000", "111815.919000", "111815.922000", "111815.925000", "111815.929000", "111815.932000", "111815.935000", "111815.938000", "111815.942000", "111815.945000", "111815.948000", "111815.952000", "111815.955000", "111815.958000", "111815.961000", "111815.965000", "111815.968000", "111815.971000", "111815.975000", "111855.889000", "111855.893000", "111855.896000", "111855.899000", "111855.903000", "111855.906000", "111855.909000", "111855.913000", "111855.916000", "111855.919000", "111855.922000", "111855.925000", "111855.929000", "111855.932000", "111855.935000", "111855.939000", "111855.942000", "111855.945000", "111855.948000", "111855.952000", "111855.955000", "111855.958000", "111855.961000", "111855.965000", "111855.968000", "111855.971000", "111855.974000", "111929.457000", "111929.461000", "111929.464000", "111929.468000", "111929.471000", "111929.474000", "111929.477000", "111929.481000", "111929.484000", "111929.487000", "111929.490000", "111929.494000", "111929.497000", "111929.500000", "111929.504000", "111929.507000", "111929.510000", "111929.514000", "111929.517000", "111929.520000", "111929.523000", "111929.527000"],
      "InstanceNumber": [1, 2, 3, 4, 5, 6, 7, 8, 9, 10, 11, 12, 13, 14, 15, 16, 17, 18, 19, 20, 21, 22, 23, 24, 25, 26, 27, 28, 29, 30, 31, 32, 33, 34, 35, 36, 37, 38, 39, 40, 41, 42, 43, 44, 45, 46, 47, 48, 49, 50, 51, 52, 53, 54, 55, 56, 57, 58, 59, 60, 61, 62, 63, 64, 65, 66, 67, 68, 69, 70, 71, 72, 73, 74, 75, 76, 77, 78, 79, 80, 81, 82, 83, 84, 85, 86, 87, 88, 89, 90, 91, 92, 93, 94, 95, 96, 97, 98, 99, 100, 101, 102, 103, 104, 105, 106, 107, 108, 109, 110, 111, 112, 113, 114, 115, 116, 117, 118, 119, 120, 121, 122, 123, 124, 125, 126, 127, 128, 129, 130, 131, 132, 133, 134, 135, 136, 137, 138, 139, 140, 141, 142, 143, 144, 145, 146, 147, 148, 149, 150, 151, 152, 153, 154, 155, 156, 157, 158, 159, 160, 161, 162, 163, 164, 165, 166, 167, 168, 169, 170, 171, 172, 173, 174, 175, 176, 177, 178, 179, 180, 181, 182, 183, 184, 185, 186, 187, 188, 189, 190, 191, 192, 193, 194, 195, 196, 197, 198, 199, 200, 201, 202, 203, 204, 205, 206, 207, 208, 209, 210, 211, 212, 213, 214, 215, 216, 217, 218, 219, 220, 221, 222, 223, 224, 225, 226, 227, 228, 229, 230, 231, 232, 233, 234, 235, 236, 237, 238, 239, 240, 241, 242, 243, 244, 245, 246, 247, 248, 249, 250, 251, 252, 253, 254, 255, 256, 257, 258, 259, 260, 261, 262, 263, 264, 265, 266, 267, 268, 269, 270, 271, 272, 273, 274, 275, 276, 277, 278, 279, 280, 281, 282, 283, 284, 285, 286, 287, 288, 289, 290, 291, 292, 293, 294, 295, 296, 297, 298, 299, 300, 301, 302, 303, 304, 305, 306, 307, 308, 309, 310, 311, 312, 313, 314, 315, 316, 317, 318, 319, 320, 321, 322, 323, 324, 325, 326, 327, 328, 329, 330, 331],
      "LargestImagePixelValue": [41535, 40333, 39820, 40410, 39337, 40055, 39566, 40668, 39669, 40241, 39553, 40547, 40639, 40843, 40554, 40405, 40602, 38955, 42356, 39437, 39642, 40311, 41246, 39141, 39416, 39268, 39592, 39023, 39165, 38384, 38779, 39241, 38884, 52752, 43494, 39038, 39551, 39466, 40483, 39638, 40279, 40043, 40675, 40528, 40912, 41283, 40775, 42508, 41861, 40806, 43516, 41248, 41506, 42565, 42834, 42250, 43761, 42684, 53561, 42882, 41805, 43124, 43960, 42520, 42418, 41611, 41937, 42233, 41084, 43681, 42615, 42073, 42452, 41477, 39600, 38275, 38519, 39768, 40076, 40647, 38984, 40289, 39102, 40327, 40631, 39279, 39217, 38433, 38951, 39770, 39919, 39388, 38720, 40134, 39773, 39422, 39724, 38815, 39422, 38461, 39384, 39174, 39196, 40564, 41431, 39085, 41246, 42966, 41115, 42592, 41068, 42197, 40428, 42029, 53986, 42113, 41158, 40750, 42921, 40933, 42086, 40737, 42170, 40410, 41258, 39469, 40690, 40520, 40869, 39195, 38186, 40597, 51208, 39942, 40997, 40360, 39425, 39729, 38388, 39943, 39280, 40389, 38567, 40354, 38915, 40440, 40475, 39976, 38964, 40323, 38415, 39798, 38762, 41045, 39769, 41172, 40272, 40950, 39290, 38852, 40033, 39350, 40288, 40545, 40813, 40640, 39254, 40181, 39254, 49971, 43612, 39880, 38220, 39422, 39149, 38649, 39031, 38752, 39324, 48899, 40203, 39576, 40031, 38464, 38736, 38143, 40177, 38859, 40325, 39753, 40583, 39223, 40166, 37895, 39742, 38990, 40459, 38978, 40885, 38963, 40622, 38973, 39479, 40231, 39807, 39137, 39955, 39725, 41095, 39531, 40962, 39150, 40147, 40303, 40636, 40803, 40028, 40364, 39221, 39855, 40898, 41272, 39266, 39665, 38885, 40025, 40061, 40272, 40339, 40401, 40090, 40476, 41276, 40000, 40957, 39885, 41726, 40468, 40716, 39857, 47247, 39257, 40704, 44042, 44480, 39948, 38459, 37544, 39615, 39043, 39287, 38331, 39420, 38883, 37699, 38810, 48348, 39775, 41989, 42828, 41130, 39143, 38070, 38204, 38266, 40258, 39767, 38297, 38235, 37421, 39630, 39195, 39497, 40334, 39783, 38503, 39527, 37772, 38371, 37480, 37252, 37528, 37719, 37446, 37419, 37797, 38037, 43507, 37983, 39435, 41648, 39245, 37359, 38179, 38343, 37990, 38371, 38402, 38627, 38439, 38414, 38420, 38236, 41740, 39738, 41618, 42925, 39407, 38982, 38585, 39396, 39806, 39698, 40021, 39638, 39637, 39955, 38789, 39210, 39222, 48319, 39689, 40111, 39289, 39095, 38825, 39221, 38958, 39262, 39154, 39631],
