{
  "AcquisitionMatrixPE": 104,
  "AcquisitionNumber": 1,
  "AcquisitionTime": "11:53:26.157500",
  "BandwidthPerPixelPhaseEncode": 17.17,
  "BaseResolution": 104,
  "BodyPartExamined": "BRAIN",
  "CoilCombinationMethod": "Sum of Squares",
  "ConsistencyInfo": "N4_VE11C_LATEST_20160120",
  "ConversionSoftware": "dcm2niix",
  "ConversionSoftwareVersion": "v1.0.20220505",
  "DerivedVendorReportedEchoSpacing": 0.000560011,
  "DeviceSerialNumber": "167006",
  "DwellTime": 2.1e-06,
  "EchoTime": 0.037,
  "EchoTime1": 0.037,
  "EchoTime2": 0.001,
  "EchoTrainLength": 104,
  "EffectiveEchoSpacing": 0.000560011,
  "FlipAngle": 52,
  "HeudiconvVersion": "0.5.3.post811+g6206e14",
  "ImageComments": "Unaliased MB4/PE3/LB",
  "ImageOrientationPatientDICOM": [0.996278, 0.0842897, 0.018012, -0.0745609, 0.947641, -0.310512],
  "ImageOrientationText": "Tra>Cor(-18.0)>Sag(2.5)",
  "ImageType": [
    "ORIGINAL",
    "PRIMARY",
    "P",
    "MB",
    "ND",
    "MOSAIC",
    "PHASE"
],
  "ImagingFrequency": 123.26,
  "InPlanePhaseEncodingDirectionDICOM": "COL",
  "InstitutionAddress": "Chemin Queen-Mary 4565,Montreal,District,CA,H3W 1W5",
  "InstitutionName": "IUGM",
  "InstitutionalDepartmentName": "Department",
  "MRAcquisitionType": "2D",
  "MagneticFieldStrength": 3,
  "Manufacturer": "Siemens",
  "ManufacturersModelName": "Prisma_fit",
  "MatrixCoilMode": "SENSE",
  "Modality": "MR",
  "MultibandAccelerationFactor": 4,
  "PartialFourier": 1,
  "PatientPosition": "HFS",
  "PercentPhaseFOV": 100,
  "PercentSampling": 100,
  "PhaseEncodingDirection": "j",
  "PhaseEncodingSteps": 104,
  "PhaseResolution": 1,
  "PixelBandwidth": 2290,
  "ProcedureStepDescription": "games^mario3",
  "ProtocolName": "func_task-mario3_run-05",
  "PulseSequenceDetails": "%CustomerSeq%\\cmrr_mbep2d_bold",
  "ReceiveCoilActiveElements": "HC1-7;NC1,2",
  "ReceiveCoilName": "HeadNeck_64",
  "ReconMatrixPE": 104,
  "RepetitionTime": 1.49,
  "SAR": 0.0485791,
  "ScanOptions": "FS",
  "ScanningSequence": "EP",
  "SequenceName": "epfid2d1_104",
  "SequenceVariant": "SK\\SS",
  "SeriesDescription": "func_task-mario3_run-05",
  "SeriesNumber": 23,
  "ShimSetting": [622, -7196, -8826, 661, 122, 44, -47, 13],
  "SliceThickness": 2,
  "SliceTiming": [0, 0.785, 0.0975, 0.8825, 0.1975, 0.98, 0.295, 1.0775, 0.3925, 1.1775, 0.49, 1.275, 0.5875, 1.3725, 0.6875, 0, 0.785, 0.0975, 0.8825, 0.1975, 0.98, 0.295, 1.0775, 0.3925, 1.1775, 0.49, 1.275, 0.5875, 1.3725, 0.6875, 0, 0.785, 0.0975, 0.8825, 0.1975, 0.98, 0.295, 1.0775, 0.3925, 1.1775, 0.49, 1.275, 0.5875, 1.3725, 0.6875, 0, 0.785, 0.0975, 0.8825, 0.1975, 0.98, 0.295, 1.0775, 0.3925, 1.1775, 0.49, 1.275, 0.5875, 1.3725, 0.6875],
  "SoftwareVersions": "syngo MR E11",
  "SpacingBetweenSlices": 2,
  "StationName": "MRC35049",
  "TaskName": "mario3",
  "TotalReadoutTime": 0.0576811,
  "TxRefAmp": 255.023,
  "WipMemBlock": "bbce273d-5ba9-46e2-926b-8baad8f8d3cf||Sequence: R017 ve11c/master r/75a17815+; Jun 28 2022 16:32:11 by eja",
  "dcmmeta_affine": [
    [-1.9925569295883179, -0.1491217464208603, 0.0864836722612381, 110.60840606689453],
    [-0.1685793548822403, 1.895281434059143, -0.6160269379615784, -54.754844665527344],
    [0.03602394089102745, 0.6210240721702576, 1.9007974863052368, -61.78437805175781],
    [0.0, 0.0, 0.0, 1.0]
],
  "dcmmeta_reorient_transform": [
    [0.0, -1.0, 0.0, 103.0],
    [1.0, 0.0, 0.0, 0.0],
    [0.0, 0.0, 1.0, 0.0],
    [0.0, 0.0, 0.0, 1.0]
],
  "dcmmeta_shape": [104, 104, 60, 320],
  "dcmmeta_slice_dim": 2,
  "dcmmeta_version": 0.6,
  "global": {
    "const": {
      "AcquisitionMatrix": [104, 0, 0, 104],
      "AngioFlag": "N",
      "BitsAllocated": 16,
      "BitsStored": 16,
      "BodyPartExamined": "BRAIN",
      "Columns": 832,
      "EchoNumbers": 1,
      "EchoTime": 37.0,
      "EchoTrainLength": 104,
      "FlipAngle": 52.0,
      "HighBit": 15,
      "ImageOrientationPatient": [0.99627848500032, 0.0842896746141, 0.01801197043424, -0.074560874287, 0.94764072753544, -0.3105120408964],
      "ImagePositionPatient": [-766.25928592822, -891.70447654643, 215.12115367155],
      "ImageType": [
        "ORIGINAL",
        "PRIMARY",
        "P",
        "MB",
        "ND",
        "MOSAIC"
],
      "ImagedNucleus": "1H",
      "ImagingFrequency": 123.260323,
      "InPlanePhaseEncodingDirection": "COL",
      "LargestImagePixelValue": 4095,
      "MRAcquisitionType": "2D",
      "MagneticFieldStrength": 3.0,
      "Manufacturer": "SIEMENS",
      "ManufacturerModelName": "Prisma_fit",
      "Modality": "MR",
      "NumberOfAverages": 1.0,
      "NumberOfPhaseEncodingSteps": 104,
      "PercentPhaseFieldOfView": 100.0,
      "PercentSampling": 100.0,
      "PerformedProcedureStepStartTime": "110812.260000",
      "PhotometricInterpretation": "MONOCHROME2",
      "PixelBandwidth": 2290.0,
      "PixelRepresentation": 0,
      "PixelSpacing": [2.0, 2.0],
      "ProtocolName": "func_task-mario3_run-05",
      "RepetitionTime": 1490.0,
      "RescaleIntercept": -4096.0,
      "RescaleSlope": 2.0,
      "RescaleType": "US",
      "Rows": 832,
      "SAR": 0.04857905386162,
      "SamplesPerPixel": 1,
      "ScanOptions": "FS",
      "ScanningSequence": "EP",
      "SequenceName": "epfid2d1_104",
      "SequenceVariant": [
        "SK",
        "SS"
],
      "SeriesDescription": "func_task-mario3_run-05",
      "SeriesNumber": 23,
      "SeriesTime": "115450.158000",
      "SliceLocation": -37.071656493109,
      "SliceThickness": 2.0,
      "SmallestImagePixelValue": 0,
      "SoftwareVersions": "syngo MR E11",
      "SpacingBetweenSlices": 1.9999999825196,
      "SpecificCharacterSet": "ISO_IR 100",
      "StudyID": "1",
      "StudyTime": "110812.190000",
      "TransmitCoilName": "Body",
      "VariableFlipAngleFlag": "N",
      "WindowCenterWidthExplanation": "Algo1",
      "dBdt": 0.0},
    "slices": {}
  },
  "time": {
    "samples": {
      "AcquisitionNumber": [1, 2, 3, 4, 5, 6, 7, 8, 9, 10, 11, 12, 13, 14, 15, 16, 17, 18, 19, 20, 21, 22, 23, 24, 25, 26, 27, 28, 29, 30, 31, 32, 33, 34, 35, 36, 37, 38, 39, 40, 41, 42, 43, 44, 45, 46, 47, 48, 49, 50, 51, 52, 53, 54, 55, 56, 57, 58, 59, 60, 61, 62, 63, 64, 65, 66, 67, 68, 69, 70, 71, 72, 73, 74, 75, 76, 77, 78, 79, 80, 81, 82, 83, 84, 85, 86, 87, 88, 89, 90, 91, 92, 93, 94, 95, 96, 97, 98, 99, 100, 101, 102, 103, 104, 105, 106, 107, 108, 109, 110, 111, 112, 113, 114, 115, 116, 117, 118, 119, 120, 121, 122, 123, 124, 125, 126, 127, 128, 129, 130, 131, 132, 133, 134, 135, 136, 137, 138, 139, 140, 141, 142, 143, 144, 145, 146, 147, 148, 149, 150, 151, 152, 153, 154, 155, 156, 157, 158, 159, 160, 161, 162, 163, 164, 165, 166, 167, 168, 169, 170, 171, 172, 173, 174, 175, 176, 177, 178, 179, 180, 181, 182, 183, 184, 185, 186, 187, 188, 189, 190, 191, 192, 193, 194, 195, 196, 197, 198, 199, 200, 201, 202, 203, 204, 205, 206, 207, 208, 209, 210, 211, 212, 213, 214, 215, 216, 217, 218, 219, 220, 221, 222, 223, 224, 225, 226, 227, 228, 229, 230, 231, 232, 233, 234, 235, 236, 237, 238, 239, 240, 241, 242, 243, 244, 245, 246, 247, 248, 249, 250, 251, 252, 253, 254, 255, 256, 257, 258, 259, 260, 261, 262, 263, 264, 265, 266, 267, 268, 269, 270, 271, 272, 273, 274, 275, 276, 277, 278, 279, 280, 281, 282, 283, 284, 285, 286, 287, 288, 289, 290, 291, 292, 293, 294, 295, 296, 297, 298, 299, 300, 301, 302, 303, 304, 305, 306, 307, 308, 309, 310, 311, 312, 313, 314, 315, 316, 317, 318, 319, 320],
      "AcquisitionTime": ["115326.157500", "115327.647500", "115329.137500", "115330.627500", "115332.117500", "115333.607500", "115335.097500", "115336.587500", "115338.077500", "115339.567500", "115341.057500", "115342.547500", "115344.037500", "115345.527500", "115347.017500", "115348.507500", "115349.997500", "115351.487500", "115352.977500", "115354.467500", "115355.957500", "115357.447500", "115358.937500", "115400.427500", "115401.917500", "115403.407500", "115404.897500", "115406.387500", "115407.877500", "115409.367500", "115410.857500", "115412.347500", "115413.837500", "115415.327500", "115416.817500", "115418.307500", "115419.797500", "115421.287500", "115422.777500", "115424.267500", "115425.757500", "115427.247500", "115428.737500", "115430.227500", "115431.717500", "115433.207500", "115434.697500", "115436.187500", "115437.677500", "115439.167500", "115440.657500", "115442.147500", "115443.637500", "115445.127500", "115446.617500", "115448.107500", "115449.597500", "115451.087500", "115452.577500", "115454.067500", "115455.557500", "115457.047500", "115458.537500", "115500.027500", "115501.517500", "115503.007500", "115504.497500", "115505.987500", "115507.477500", "115508.967500", "115510.457500", "115511.947500", "115513.437500", "115514.927500", "115516.417500", "115517.907500", "115519.397500", "115520.887500", "115522.377500", "115523.867500", "115525.357500", "115526.847500", "115528.337500", "115529.827500", "115531.317500", "115532.807500", "115534.297500", "115535.787500", "115537.277500", "115538.767500", "115540.257500", "115541.747500", "115543.237500", "115544.727500", "115546.217500", "115547.707500", "115549.197500", "115550.687500", "115552.177500", "115553.667500", "115555.157500", "115556.647500", "115558.137500", "115559.627500", "115601.117500", "115602.607500", "115604.097500", "115605.587500", "115607.077500", "115608.567500", "115610.057500", "115611.547500", "115613.037500", "115614.527500", "115616.017500", "115617.507500", "115618.997500", "115620.487500", "115621.977500", "115623.467500", "115624.957500", "115626.447500", "115627.937500", "115629.427500", "115630.917500", "115632.407500", "115633.897500", "115635.387500", "115636.877500", "115638.367500", "115639.857500", "115641.347500", "115642.837500", "115644.327500", "115645.817500", "115647.307500", "115648.797500", "115650.287500", "115651.777500", "115653.267500", "115654.757500", "115656.247500", "115657.737500", "115659.227500", "115700.717500", "115702.207500", "115703.697500", "115705.187500", "115706.677500", "115708.167500", "115709.657500", "115711.147500", "115712.637500", "115714.127500", "115715.617500", "115717.107500", "115718.597500", "115720.087500", "115721.577500", "115723.067500", "115724.557500", "115726.047500", "115727.537500", "115729.027500", "115730.517500", "115732.007500", "115733.497500", "115734.987500", "115736.477500", "115737.967500", "115739.457500", "115740.947500", "115742.437500", "115743.927500", "115745.417500", "115746.907500", "115748.397500", "115749.887500", "115751.377500", "115752.867500", "115754.357500", "115755.847500", "115757.337500", "115758.827500", "115800.317500", "115801.807500", "115803.297500", "115804.787500", "115806.277500", "115807.767500", "115809.257500", "115810.747500", "115812.237500", "115813.727500", "115815.217500", "115816.707500", "115818.197500", "115819.687500", "115821.177500", "115822.667500", "115824.157500", "115825.647500", "115827.137500", "115828.627500", "115830.117500", "115831.607500", "115833.097500", "115834.587500", "115836.077500", "115837.567500", "115839.057500", "115840.547500", "115842.037500", "115843.527500", "115845.017500", "115846.507500", "115847.997500", "115849.487500", "115850.977500", "115852.467500", "115853.957500", "115855.447500", "115856.937500", "115858.427500", "115859.917500", "115901.407500", "115902.897500", "115904.387500", "115905.877500", "115907.367500", "115908.857500", "115910.347500", "115911.837500", "115913.327500", "115914.817500", "115916.307500", "115917.797500", "115919.287500", "115920.777500", "115922.267500", "115923.757500", "115925.247500", "115926.737500", "115928.227500", "115929.717500", "115931.207500", "115932.697500", "115934.187500", "115935.677500", "115937.167500", "115938.657500", "115940.147500", "115941.637500", "115943.127500", "115944.617500", "115946.107500", "115947.597500", "115949.087500", "115950.577500", "115952.067500", "115953.557500", "115955.047500", "115956.537500", "115958.027500", "115959.517500", "120001.007500", "120002.497500", "120003.987500", "120005.477500", "120006.967500", "120008.457500", "120009.947500", "120011.437500", "120012.927500", "120014.417500", "120015.907500", "120017.397500", "120018.887500", "120020.377500", "120021.867500", "120023.357500", "120024.847500", "120026.337500", "120027.827500", "120029.317500", "120030.807500", "120032.297500", "120033.787500", "120035.277500", "120036.767500", "120038.257500", "120039.747500", "120041.237500", "120042.727500", "120044.217500", "120045.707500", "120047.197500", "120048.687500", "120050.177500", "120051.667500", "120053.157500", "120054.647500", "120056.137500", "120057.627500", "120059.117500", "120100.607500", "120102.097500", "120103.587500", "120105.077500", "120106.567500", "120108.057500", "120109.547500", "120111.037500", "120112.527500", "120114.017500", "120115.507500", "120116.997500", "120118.487500", "120119.977500", "120121.467500"],
      "ContentTime": ["115450.160000", "115450.162000", "115450.165000", "115450.167000", "115450.170000", "115450.173000", "115450.175000", "115450.177000", "115450.180000", "115450.183000", "115450.186000", "115450.188000", "115450.191000", "115450.193000", "115450.196000", "115450.198000", "115450.200000", "115450.203000", "115450.205000", "115450.208000", "115450.210000", "115450.213000", "115450.215000", "115450.218000", "115450.221000", "115450.224000", "115450.227000", "115450.229000", "115450.231000", "115450.234000", "115450.236000", "115450.239000", "115450.241000", "115450.244000", "115510.048000", "115510.050000", "115510.053000", "115510.055000", "115510.058000", "115510.060000", "115510.063000", "115510.065000", "115510.068000", "115510.070000", "115510.073000", "115510.075000", "115510.078000", "115510.080000", "115510.083000", "115510.085000", "115510.088000", "115510.090000", "115510.093000", "115510.095000", "115530.058000", "115530.061000", "115530.063000", "115530.066000", "115530.068000", "115530.071000", "115530.073000", "115530.076000", "115530.078000", "115530.081000", "115530.083000", "115530.086000", "115530.088000", "115530.091000", "115530.093000", "115530.096000", "115530.098000", "115530.101000", "115530.103000", "115530.106000", "115550.057000", "115550.060000", "115550.063000", "115550.065000", "115550.067000", "115550.070000", "115550.073000", "115550.075000", "115550.077000", "115550.080000", "115550.082000", "115550.085000", "115550.087000", "115550.090000", "115550.092000", "115550.095000", "115550.097000", "115550.100000", "115550.102000", "115550.105000", "115630.631000", "115630.633000", "115630.636000", "115630.638000", "115630.641000", "115630.643000", "115630.646000", "115630.648000", "115630.651000", "115630.653000", "115630.656000", "115630.658000", "115630.661000", "115630.663000", "115630.666000", "115630.668000", "115630.671000", "115630.673000", "115630.676000", "115630.678000", "115630.681000", "115630.683000", "115630.686000", "115630.688000", "115630.691000", "115630.693000", "115630.696000", "115630.698000", "115710.079000", "115710.082000", "115710.084000", "115710.087000", "115710.089000", "115710.092000", "115710.094000", "115710.097000", "115710.099000", "115710.102000", "115710.104000", "115710.106000", "115710.109000", "115710.111000", "115710.114000", "115710.116000", "115710.119000", "115710.121000", "115710.123000", "115710.126000", "115710.128000", "115710.131000", "115710.133000", "115710.136000", "115710.138000", "115710.141000", "115710.143000", "115750.091000", "115750.094000", "115750.096000", "115750.099000", "115750.101000", "115750.104000", "115750.106000", "115750.109000", "115750.111000", "115750.113000", "115750.116000", "115750.118000", "115750.121000", "115750.123000", "115750.126000", "115750.128000", "115750.131000", "115750.133000", "115750.135000", "115750.138000", "115750.140000", "115750.143000", "115750.145000", "115750.148000", "115750.150000", "115750.153000", "115750.155000", "115830.093000", "115830.096000", "115830.098000", "115830.101000", "115830.103000", "115830.106000", "115830.108000", "115830.111000", "115830.113000", "115830.116000", "115830.118000", "115830.120000", "115830.123000", "115830.126000", "115830.128000", "115830.131000", "115830.133000", "115830.135000", "115830.138000", "115830.140000", "115830.143000", "115830.145000", "115830.148000", "115830.150000", "115830.153000", "115830.155000", "115830.158000", "115850.011000", "115850.013000", "115850.016000", "115850.018000", "115850.021000", "115850.023000", "115850.026000", "115850.028000", "115850.031000", "115850.033000", "115850.036000", "115850.038000", "115850.041000", "115930.082000", "115930.085000", "115930.088000", "115930.090000", "115930.093000", "115930.096000", "115930.098000", "115930.101000", "115930.103000", "115930.106000", "115930.108000", "115930.111000", "115930.113000", "115930.116000", "115930.118000", "115930.121000", "115930.123000", "115930.126000", "115930.128000", "115930.131000", "115930.133000", "115930.136000", "115930.138000", "115930.141000", "115930.143000", "115930.146000", "115930.148000", "120010.079000", "120010.081000", "120010.084000", "120010.086000", "120010.089000", "120010.091000", "120010.094000", "120010.096000", "120010.099000", "120010.101000", "120010.104000", "120010.106000", "120010.109000", "120010.111000", "120010.113000", "120010.116000", "120010.118000", "120010.121000", "120010.123000", "120010.126000", "120010.128000", "120010.131000", "120010.134000", "120010.136000", "120010.139000", "120010.141000", "120010.144000", "120050.081000", "120050.083000", "120050.086000", "120050.088000", "120050.091000", "120050.093000", "120050.096000", "120050.098000", "120050.101000", "120050.103000", "120050.106000", "120050.108000", "120050.111000", "120050.113000", "120050.116000", "120050.119000", "120050.121000", "120050.124000", "120050.126000", "120050.129000", "120050.131000", "120050.134000", "120050.136000", "120050.139000", "120050.141000", "120050.144000", "120050.146000", "120124.459000", "120124.462000", "120124.465000", "120124.467000", "120124.470000", "120124.473000", "120124.475000", "120124.478000", "120124.480000", "120124.483000", "120124.486000", "120124.489000", "120124.491000", "120124.494000", "120124.497000", "120124.499000", "120124.502000", "120124.504000", "120124.507000", "120124.509000", "120124.512000", "120124.515000", "120124.517000"],
      "InstanceCreationTime": ["115450.160000", "115450.162000", "115450.165000", "115450.167000", "115450.170000", "115450.173000", "115450.175000", "115450.177000", "115450.180000", "115450.183000", "115450.186000", "115450.188000", "115450.191000", "115450.193000", "115450.196000", "115450.198000", "115450.200000", "115450.203000", "115450.205000", "115450.208000", "115450.210000", "115450.213000", "115450.215000", "115450.218000", "115450.221000", "115450.224000", "115450.227000", "115450.229000", "115450.231000", "115450.234000", "115450.236000", "115450.239000", "115450.241000", "115450.244000", "115510.048000", "115510.050000", "115510.053000", "115510.055000", "115510.058000", "115510.060000", "115510.063000", "115510.065000", "115510.068000", "115510.070000", "115510.073000", "115510.075000", "115510.078000", "115510.080000", "115510.083000", "115510.085000", "115510.088000", "115510.090000", "115510.093000", "115510.095000", "115530.058000", "115530.061000", "115530.063000", "115530.066000", "115530.068000", "115530.071000", "115530.073000", "115530.076000", "115530.078000", "115530.081000", "115530.083000", "115530.086000", "115530.088000", "115530.091000", "115530.093000", "115530.096000", "115530.098000", "115530.101000", "115530.103000", "115530.106000", "115550.057000", "115550.060000", "115550.063000", "115550.065000", "115550.067000", "115550.070000", "115550.073000", "115550.075000", "115550.077000", "115550.080000", "115550.082000", "115550.085000", "115550.087000", "115550.090000", "115550.092000", "115550.095000", "115550.097000", "115550.100000", "115550.102000", "115550.105000", "115630.631000", "115630.633000", "115630.636000", "115630.638000", "115630.641000", "115630.643000", "115630.646000", "115630.648000", "115630.651000", "115630.653000", "115630.656000", "115630.658000", "115630.661000", "115630.663000", "115630.666000", "115630.668000", "115630.671000", "115630.673000", "115630.676000", "115630.678000", "115630.681000", "115630.683000", "115630.686000", "115630.688000", "115630.691000", "115630.693000", "115630.696000", "115630.698000", "115710.079000", "115710.082000", "115710.084000", "115710.087000", "115710.089000", "115710.092000", "115710.094000", "115710.097000", "115710.099000", "115710.102000", "115710.104000", "115710.106000", "115710.109000", "115710.111000", "115710.114000", "115710.116000", "115710.119000", "115710.121000", "115710.123000", "115710.126000", "115710.128000", "115710.131000", "115710.133000", "115710.136000", "115710.138000", "115710.141000", "115710.143000", "115750.091000", "115750.094000", "115750.096000", "115750.099000", "115750.101000", "115750.104000", "115750.106000", "115750.109000", "115750.111000", "115750.113000", "115750.116000", "115750.118000", "115750.121000", "115750.123000", "115750.126000", "115750.128000", "115750.131000", "115750.133000", "115750.135000", "115750.138000", "115750.140000", "115750.143000", "115750.145000", "115750.148000", "115750.150000", "115750.153000", "115750.155000", "115830.093000", "115830.096000", "115830.098000", "115830.101000", "115830.103000", "115830.106000", "115830.108000", "115830.111000", "115830.113000", "115830.116000", "115830.118000", "115830.120000", "115830.123000", "115830.126000", "115830.128000", "115830.131000", "115830.133000", "115830.135000", "115830.138000", "115830.140000", "115830.143000", "115830.145000", "115830.148000", "115830.150000", "115830.153000", "115830.155000", "115830.158000", "115850.011000", "115850.013000", "115850.016000", "115850.018000", "115850.021000", "115850.023000", "115850.026000", "115850.028000", "115850.031000", "115850.033000", "115850.036000", "115850.038000", "115850.041000", "115930.082000", "115930.085000", "115930.088000", "115930.090000", "115930.093000", "115930.096000", "115930.098000", "115930.101000", "115930.103000", "115930.106000", "115930.108000", "115930.111000", "115930.113000", "115930.116000", "115930.118000", "115930.121000", "115930.123000", "115930.126000", "115930.128000", "115930.131000", "115930.133000", "115930.136000", "115930.138000", "115930.141000", "115930.143000", "115930.146000", "115930.148000", "120010.079000", "120010.081000", "120010.084000", "120010.086000", "120010.089000", "120010.091000", "120010.094000", "120010.096000", "120010.099000", "120010.101000", "120010.104000", "120010.106000", "120010.109000", "120010.111000", "120010.113000", "120010.116000", "120010.118000", "120010.121000", "120010.123000", "120010.126000", "120010.128000", "120010.131000", "120010.134000", "120010.136000", "120010.139000", "120010.141000", "120010.144000", "120050.081000", "120050.083000", "120050.086000", "120050.088000", "120050.091000", "120050.093000", "120050.096000", "120050.098000", "120050.101000", "120050.103000", "120050.106000", "120050.108000", "120050.111000", "120050.113000", "120050.116000", "120050.119000", "120050.121000", "120050.124000", "120050.126000", "120050.129000", "120050.131000", "120050.134000", "120050.136000", "120050.139000", "120050.141000", "120050.144000", "120050.146000", "120124.459000", "120124.462000", "120124.465000", "120124.467000", "120124.470000", "120124.473000", "120124.475000", "120124.478000", "120124.480000", "120124.483000", "120124.486000", "120124.489000", "120124.491000", "120124.494000", "120124.497000", "120124.499000", "120124.502000", "120124.504000", "120124.507000", "120124.509000", "120124.512000", "120124.515000", "120124.517000"],
      "InstanceNumber": [1, 2, 3, 4, 5, 6, 7, 8, 9, 10, 11, 12, 13, 14, 15, 16, 17, 18, 19, 20, 21, 22, 23, 24, 25, 26, 27, 28, 29, 30, 31, 32, 33, 34, 35, 36, 37, 38, 39, 40, 41, 42, 43, 44, 45, 46, 47, 48, 49, 50, 51, 52, 53, 54, 55, 56, 57, 58, 59, 60, 61, 62, 63, 64, 65, 66, 67, 68, 69, 70, 71, 72, 73, 74, 75, 76, 77, 78, 79, 80, 81, 82, 83, 84, 85, 86, 87, 88, 89, 90, 91, 92, 93, 94, 95, 96, 97, 98, 99, 100, 101, 102, 103, 104, 105, 106, 107, 108, 109, 110, 111, 112, 113, 114, 115, 116, 117, 118, 119, 120, 121, 122, 123, 124, 125, 126, 127, 128, 129, 130, 131, 132, 133, 134, 135, 136, 137, 138, 139, 140, 141, 142, 143, 144, 145, 146, 147, 148, 149, 150, 151, 152, 153, 154, 155, 156, 157, 158, 159, 160, 161, 162, 163, 164, 165, 166, 167, 168, 169, 170, 171, 172, 173, 174, 175, 176, 177, 178, 179, 180, 181, 182, 183, 184, 185, 186, 187, 188, 189, 190, 191, 192, 193, 194, 195, 196, 197, 198, 199, 200, 201, 202, 203, 204, 205, 206, 207, 208, 209, 210, 211, 212, 213, 214, 215, 216, 217, 218, 219, 220, 221, 222, 223, 224, 225, 226, 227, 228, 229, 230, 231, 232, 233, 234, 235, 236, 237, 238, 239, 240, 241, 242, 243, 244, 245, 246, 247, 248, 249, 250, 251, 252, 253, 254, 255, 256, 257, 258, 259, 260, 261, 262, 263, 264, 265, 266, 267, 268, 269, 270, 271, 272, 273, 274, 275, 276, 277, 278, 279, 280, 281, 282, 283, 284, 285, 286, 287, 288, 289, 290, 291, 292, 293, 294, 295, 296, 297, 298, 299, 300, 301, 302, 303, 304, 305, 306, 307, 308, 309, 310, 311, 312, 313, 314, 315, 316, 317, 318, 319, 320],
      "WindowCenter": [4782.0, 4784.0, 4786.0, 4786.0, 4786.0, 4786.0, 4786.0, 4788.0, 4786.0, 4786.0, 4784.0, 4786.0, 4788.0, 4808.0, 4806.0, 4812.0, 4786.0, 4786.0, 4788.0, 4808.0, 4810.0, 4808.0, 4786.0, 4810.0, 4788.0, 4814.0, 4808.0, 4810.0, 4808.0, 4812.0, 4788.0, 4812.0, 4814.0, 4818.0, 4820.0, 4814.0, 4816.0, 4812.0, 4814.0, 4804.0, 4808.0, 4808.0, 4812.0, 4814.0, 4816.0, 4814.0, 4818.0, 4816.0, 4814.0, 4814.0, 4810.0, 4812.0, 4814.0, 4816.0, 4810.0, 4816.0, 4816.0, 4818.0, 4812.0, 4812.0, 4814.0, 4814.0, 4814.0, 4788.0, 4812.0, 4810.0, 4814.0, 4810.0, 4814.0, 4812.0, 4812.0, 4816.0, 4814.0, 4814.0, 4816.0, 4810.0, 4812.0, 4818.0, 4812.0, 4816.0, 4814.0, 4814.0, 4814.0, 4816.0, 4816.0, 4816.0, 4792.0, 4812.0, 4814.0, 4814.0, 4816.0, 4812.0, 4818.0, 4814.0, 4816.0, 4814.0, 4818.0, 4818.0, 4816.0, 4814.0, 4816.0, 4814.0, 4816.0, 4814.0, 4818.0, 4820.0, 4820.0, 4818.0, 4818.0, 4818.0, 4816.0, 4816.0, 4822.0, 4816.0, 4816.0, 4814.0, 4818.0, 4816.0, 4816.0, 4816.0, 4816.0, 4814.0, 4816.0, 4816.0, 4816.0, 4820.0, 4814.0, 4814.0, 4816.0, 4818.0, 4816.0, 4814.0, 4812.0, 4818.0, 4792.0, 4816.0, 4818.0, 4814.0, 4808.0, 4812.0, 4814.0, 4814.0, 4816.0, 4814.0, 4818.0, 4814.0, 4816.0, 4816.0, 4816.0, 4814.0, 4816.0, 4818.0, 4816.0, 4814.0, 4814.0, 4816.0, 4818.0, 4812.0, 4820.0, 4818.0, 4818.0, 4814.0, 4818.0, 4814.0, 4814.0, 4814.0, 4814.0, 4816.0, 4816.0, 4818.0, 4812.0, 4818.0, 4818.0, 4818.0, 4814.0, 4820.0, 4820.0, 4814.0, 4816.0, 4814.0, 4820.0, 4816.0, 4812.0, 4814.0, 4818.0, 4814.0, 4816.0, 4810.0, 4816.0, 4818.0, 4812.0, 4810.0, 4812.0, 4816.0, 4816.0, 4814.0, 4814.0, 4812.0, 4814.0, 4822.0, 4814.0, 4816.0, 4814.0, 4814.0, 4814.0, 4790.0, 4812.0, 4814.0, 4814.0, 4820.0, 4816.0, 4812.0, 4812.0, 4814.0, 4812.0, 4814.0, 4814.0, 4814.0, 4820.0, 4814.0, 4816.0, 4814.0, 4812.0, 4814.0, 4790.0, 4814.0, 4812.0, 4814.0, 4814.0, 4816.0, 4816.0, 4814.0, 4812.0, 4814.0, 4814.0, 4818.0, 4812.0, 4814.0, 4790.0, 4814.0, 4812.0, 4814.0, 4816.0, 4812.0, 4820.0, 4816.0, 4820.0, 4818.0, 4812.0, 4810.0, 4810.0, 4810.0, 4806.0, 4818.0, 4820.0, 4814.0, 4814.0, 4814.0, 4816.0, 4810.0, 4814.0, 4812.0, 4812.0, 4814.0, 4818.0, 4816.0, 4818.0, 4818.0, 4818.0, 4814.0, 4810.0, 4816.0, 4818.0, 4812.0, 4784.0, 4812.0, 4794.0, 4792.0, 4814.0, 4816.0, 4818.0, 4812.0, 4816.0, 4814.0, 4790.0, 4814.0, 4816.0, 4824.0, 4818.0, 4790.0, 4786.0, 4812.0, 4810.0, 4812.0, 4816.0, 4818.0, 4814.0, 4818.0, 4818.0, 4816.0, 4810.0, 4814.0, 4812.0, 4814.0, 4814.0, 4814.0, 4816.0, 4816.0, 4814.0, 4816.0, 4818.0, 4818.0, 4792.0, 4786.0, 4790.0, 4814.0, 4816.0, 4818.0, 4810.0, 4818.0],
