{
  "AcquisitionMatrixPE": 104,
  "AcquisitionNumber": 1,
  "AcquisitionTime": "11:20:48.500000",
  "BandwidthPerPixelPhaseEncode": 17.17,
  "BaseResolution": 104,
  "BodyPartExamined": "BRAIN",
  "CoilCombinationMethod": "Sum of Squares",
  "ConsistencyInfo": "N4_VE11C_LATEST_20160120",
  "ConversionSoftware": "dcm2niix",
  "ConversionSoftwareVersion": "v1.0.20220505",
  "DerivedVendorReportedEchoSpacing": 0.000560011,
  "DeviceSerialNumber": "167006",
  "DwellTime": 2.1e-06,
  "EchoTime": 0.037,
  "EchoTime1": 0.037,
  "EchoTime2": 0.001,
  "EchoTrainLength": 104,
  "EffectiveEchoSpacing": 0.000560011,
  "FlipAngle": 52,
  "HeudiconvVersion": "0.5.3.post811+g6206e14",
  "ImageComments": "Unaliased MB4/PE3/LB",
  "ImageOrientationPatientDICOM": [0.996278, 0.0842897, 0.018012, -0.0745609, 0.947641, -0.310512],
  "ImageOrientationText": "Tra>Cor(-18.0)>Sag(2.5)",
  "ImageType": [
    "ORIGINAL",
    "PRIMARY",
    "P",
    "MB",
    "ND",
    "MOSAIC",
    "PHASE"
],
  "ImagingFrequency": 123.26,
  "InPlanePhaseEncodingDirectionDICOM": "COL",
  "InstitutionAddress": "Chemin Queen-Mary 4565,Montreal,District,CA,H3W 1W5",
  "InstitutionName": "IUGM",
  "InstitutionalDepartmentName": "Department",
  "MRAcquisitionType": "2D",
  "MagneticFieldStrength": 3,
  "Manufacturer": "Siemens",
  "ManufacturersModelName": "Prisma_fit",
  "MatrixCoilMode": "SENSE",
  "Modality": "MR",
  "MultibandAccelerationFactor": 4,
  "PartialFourier": 1,
  "PatientPosition": "HFS",
  "PercentPhaseFOV": 100,
  "PercentSampling": 100,
  "PhaseEncodingDirection": "j",
  "PhaseEncodingSteps": 104,
  "PhaseResolution": 1,
  "PixelBandwidth": 2290,
  "ProcedureStepDescription": "games^mario3",
  "ProtocolName": "func_task-mario3_run-02",
  "PulseSequenceDetails": "%CustomerSeq%\\cmrr_mbep2d_bold",
  "ReceiveCoilActiveElements": "HC1-7;NC1,2",
  "ReceiveCoilName": "HeadNeck_64",
  "ReconMatrixPE": 104,
  "RepetitionTime": 1.49,
  "SAR": 0.0485791,
  "ScanOptions": "FS",
  "ScanningSequence": "EP",
  "SequenceName": "epfid2d1_104",
  "SequenceVariant": "SK\\SS",
  "SeriesDescription": "func_task-mario3_run-02",
  "SeriesNumber": 14,
  "ShimSetting": [622, -7196, -8826, 661, 122, 44, -47, 13],
  "SliceThickness": 2,
  "SliceTiming": [0, 0.7825, 0.0975, 0.8825, 0.195, 0.98, 0.2925, 1.0775, 0.3925, 1.175, 0.49, 1.2725, 0.5875, 1.3725, 0.685, 0, 0.7825, 0.0975, 0.8825, 0.195, 0.98, 0.2925, 1.0775, 0.3925, 1.175, 0.49, 1.2725, 0.5875, 1.3725, 0.685, 0, 0.7825, 0.0975, 0.8825, 0.195, 0.98, 0.2925, 1.0775, 0.3925, 1.175, 0.49, 1.2725, 0.5875, 1.3725, 0.685, 0, 0.7825, 0.0975, 0.8825, 0.195, 0.98, 0.2925, 1.0775, 0.3925, 1.175, 0.49, 1.2725, 0.5875, 1.3725, 0.685],
  "SoftwareVersions": "syngo MR E11",
  "SpacingBetweenSlices": 2,
  "StationName": "MRC35049",
  "TaskName": "mario3",
  "TotalReadoutTime": 0.0576811,
  "TxRefAmp": 255.023,
  "WipMemBlock": "2087dffe-3571-45dd-9443-d1b1c2623322||Sequence: R017 ve11c/master r/75a17815+; Jun 28 2022 16:32:11 by eja",
  "dcmmeta_affine": [
    [-1.9925569295883179, -0.1491217464208603, 0.0864836722612381, 110.60840606689453],
    [-0.1685793548822403, 1.895281434059143, -0.6160269379615784, -54.754844665527344],
    [0.03602394089102745, 0.6210240721702576, 1.9007974863052368, -61.78437805175781],
    [0.0, 0.0, 0.0, 1.0]
],
  "dcmmeta_reorient_transform": [
    [0.0, -1.0, 0.0, 103.0],
    [1.0, 0.0, 0.0, 0.0],
    [0.0, 0.0, 1.0, 0.0],
    [0.0, 0.0, 0.0, 1.0]
],
  "dcmmeta_shape": [104, 104, 60, 352],
  "dcmmeta_slice_dim": 2,
  "dcmmeta_version": 0.6,
  "global": {
    "const": {
      "AcquisitionMatrix": [104, 0, 0, 104],
      "AngioFlag": "N",
      "BitsAllocated": 16,
      "BitsStored": 16,
      "BodyPartExamined": "BRAIN",
      "Columns": 832,
      "EchoNumbers": 1,
      "EchoTime": 37.0,
      "EchoTrainLength": 104,
      "FlipAngle": 52.0,
      "HighBit": 15,
      "ImageOrientationPatient": [0.99627848500032, 0.0842896746141, 0.01801197043424, -0.074560874287, 0.94764072753544, -0.3105120408964],
      "ImagePositionPatient": [-766.25928592822, -891.70447654643, 215.12115367155],
      "ImageType": [
        "ORIGINAL",
        "PRIMARY",
        "P",
        "MB",
        "ND",
        "MOSAIC"
],
      "ImagedNucleus": "1H",
      "ImagingFrequency": 123.260311,
      "InPlanePhaseEncodingDirection": "COL",
      "LargestImagePixelValue": 4095,
      "MRAcquisitionType": "2D",
      "MagneticFieldStrength": 3.0,
      "Manufacturer": "SIEMENS",
      "ManufacturerModelName": "Prisma_fit",
      "Modality": "MR",
      "NumberOfAverages": 1.0,
      "NumberOfPhaseEncodingSteps": 104,
      "PercentPhaseFieldOfView": 100.0,
      "PercentSampling": 100.0,
      "PerformedProcedureStepStartTime": "110812.260000",
      "PhotometricInterpretation": "MONOCHROME2",
      "PixelBandwidth": 2290.0,
      "PixelRepresentation": 0,
      "PixelSpacing": [2.0, 2.0],
      "ProtocolName": "func_task-mario3_run-02",
      "RepetitionTime": 1490.0,
      "RescaleIntercept": -4096.0,
      "RescaleSlope": 2.0,
      "RescaleType": "US",
      "Rows": 832,
      "SAR": 0.04857905386162,
      "SamplesPerPixel": 1,
      "ScanOptions": "FS",
      "ScanningSequence": "EP",
      "SequenceName": "epfid2d1_104",
      "SequenceVariant": [
        "SK",
        "SS"
],
      "SeriesDescription": "func_task-mario3_run-02",
      "SeriesNumber": 14,
      "SeriesTime": "112210.153000",
      "SliceLocation": -37.071656493109,
      "SliceThickness": 2.0,
      "SmallestImagePixelValue": 0,
      "SoftwareVersions": "syngo MR E11",
      "SpacingBetweenSlices": 1.9999999825196,
      "SpecificCharacterSet": "ISO_IR 100",
      "StudyID": "1",
      "StudyTime": "110812.190000",
      "TransmitCoilName": "Body",
      "VariableFlipAngleFlag": "N",
      "WindowCenterWidthExplanation": "Algo1",
      "dBdt": 0.0},
    "slices": {}
  },
  "time": {
    "samples": {
      "AcquisitionNumber": [1, 2, 3, 4, 5, 6, 7, 8, 9, 10, 11, 12, 13, 14, 15, 16, 17, 18, 19, 20, 21, 22, 23, 24, 25, 26, 27, 28, 29, 30, 31, 32, 33, 34, 35, 36, 37, 38, 39, 40, 41, 42, 43, 44, 45, 46, 47, 48, 49, 50, 51, 52, 53, 54, 55, 56, 57, 58, 59, 60, 61, 62, 63, 64, 65, 66, 67, 68, 69, 70, 71, 72, 73, 74, 75, 76, 77, 78, 79, 80, 81, 82, 83, 84, 85, 86, 87, 88, 89, 90, 91, 92, 93, 94, 95, 96, 97, 98, 99, 100, 101, 102, 103, 104, 105, 106, 107, 108, 109, 110, 111, 112, 113, 114, 115, 116, 117, 118, 119, 120, 121, 122, 123, 124, 125, 126, 127, 128, 129, 130, 131, 132, 133, 134, 135, 136, 137, 138, 139, 140, 141, 142, 143, 144, 145, 146, 147, 148, 149, 150, 151, 152, 153, 154, 155, 156, 157, 158, 159, 160, 161, 162, 163, 164, 165, 166, 167, 168, 169, 170, 171, 172, 173, 174, 175, 176, 177, 178, 179, 180, 181, 182, 183, 184, 185, 186, 187, 188, 189, 190, 191, 192, 193, 194, 195, 196, 197, 198, 199, 200, 201, 202, 203, 204, 205, 206, 207, 208, 209, 210, 211, 212, 213, 214, 215, 216, 217, 218, 219, 220, 221, 222, 223, 224, 225, 226, 227, 228, 229, 230, 231, 232, 233, 234, 235, 236, 237, 238, 239, 240, 241, 242, 243, 244, 245, 246, 247, 248, 249, 250, 251, 252, 253, 254, 255, 256, 257, 258, 259, 260, 261, 262, 263, 264, 265, 266, 267, 268, 269, 270, 271, 272, 273, 274, 275, 276, 277, 278, 279, 280, 281, 282, 283, 284, 285, 286, 287, 288, 289, 290, 291, 292, 293, 294, 295, 296, 297, 298, 299, 300, 301, 302, 303, 304, 305, 306, 307, 308, 309, 310, 311, 312, 313, 314, 315, 316, 317, 318, 319, 320, 321, 322, 323, 324, 325, 326, 327, 328, 329, 330, 331, 332, 333, 334, 335, 336, 337, 338, 339, 340, 341, 342, 343, 344, 345, 346, 347, 348, 349, 350, 351, 352],
      "AcquisitionTime": ["112048.500000", "112049.990000", "112051.480000", "112052.970000", "112054.460000", "112055.950000", "112057.440000", "112058.930000", "112100.420000", "112101.910000", "112103.400000", "112104.890000", "112106.380000", "112107.870000", "112109.360000", "112110.850000", "112112.340000", "112113.830000", "112115.320000", "112116.810000", "112118.300000", "112119.790000", "112121.280000", "112122.770000", "112124.260000", "112125.750000", "112127.240000", "112128.730000", "112130.220000", "112131.710000", "112133.200000", "112134.690000", "112136.180000", "112137.670000", "112139.160000", "112140.650000", "112142.140000", "112143.630000", "112145.120000", "112146.610000", "112148.100000", "112149.590000", "112151.080000", "112152.570000", "112154.060000", "112155.550000", "112157.040000", "112158.530000", "112200.020000", "112201.510000", "112203.000000", "112204.490000", "112205.980000", "112207.470000", "112208.960000", "112210.450000", "112211.940000", "112213.430000", "112214.920000", "112216.410000", "112217.900000", "112219.390000", "112220.880000", "112222.370000", "112223.860000", "112225.350000", "112226.840000", "112228.330000", "112229.820000", "112231.310000", "112232.800000", "112234.290000", "112235.780000", "112237.270000", "112238.760000", "112240.250000", "112241.740000", "112243.230000", "112244.720000", "112246.210000", "112247.700000", "112249.190000", "112250.680000", "112252.170000", "112253.660000", "112255.150000", "112256.640000", "112258.130000", "112259.620000", "112301.110000", "112302.600000", "112304.090000", "112305.580000", "112307.070000", "112308.560000", "112310.050000", "112311.540000", "112313.030000", "112314.520000", "112316.010000", "112317.500000", "112318.990000", "112320.480000", "112321.970000", "112323.460000", "112324.950000", "112326.440000", "112327.930000", "112329.420000", "112330.910000", "112332.400000", "112333.890000", "112335.380000", "112336.870000", "112338.360000", "112339.850000", "112341.340000", "112342.830000", "112344.320000", "112345.810000", "112347.300000", "112348.790000", "112350.280000", "112351.770000", "112353.260000", "112354.750000", "112356.240000", "112357.730000", "112359.220000", "112400.710000", "112402.200000", "112403.690000", "112405.180000", "112406.670000", "112408.160000", "112409.650000", "112411.140000", "112412.630000", "112414.120000", "112415.610000", "112417.100000", "112418.590000", "112420.080000", "112421.570000", "112423.060000", "112424.550000", "112426.040000", "112427.530000", "112429.020000", "112430.510000", "112432.000000", "112433.490000", "112434.980000", "112436.470000", "112437.960000", "112439.450000", "112440.940000", "112442.430000", "112443.920000", "112445.410000", "112446.900000", "112448.390000", "112449.880000", "112451.370000", "112452.860000", "112454.350000", "112455.840000", "112457.330000", "112458.820000", "112500.310000", "112501.800000", "112503.290000", "112504.780000", "112506.270000", "112507.760000", "112509.250000", "112510.740000", "112512.230000", "112513.720000", "112515.210000", "112516.700000", "112518.190000", "112519.680000", "112521.170000", "112522.660000", "112524.150000", "112525.640000", "112527.130000", "112528.620000", "112530.110000", "112531.600000", "112533.090000", "112534.580000", "112536.070000", "112537.560000", "112539.050000", "112540.540000", "112542.030000", "112543.520000", "112545.010000", "112546.500000", "112547.990000", "112549.480000", "112550.970000", "112552.460000", "112553.950000", "112555.440000", "112556.930000", "112558.420000", "112559.910000", "112601.400000", "112602.890000", "112604.380000", "112605.870000", "112607.360000", "112608.850000", "112610.340000", "112611.830000", "112613.320000", "112614.810000", "112616.300000", "112617.790000", "112619.280000", "112620.770000", "112622.260000", "112623.750000", "112625.240000", "112626.730000", "112628.220000", "112629.710000", "112631.200000", "112632.690000", "112634.180000", "112635.670000", "112637.160000", "112638.650000", "112640.140000", "112641.630000", "112643.120000", "112644.610000", "112646.100000", "112647.590000", "112649.080000", "112650.570000", "112652.060000", "112653.550000", "112655.040000", "112656.530000", "112658.020000", "112659.510000", "112701.000000", "112702.490000", "112703.980000", "112705.470000", "112706.960000", "112708.450000", "112709.940000", "112711.430000", "112712.920000", "112714.410000", "112715.900000", "112717.390000", "112718.880000", "112720.370000", "112721.860000", "112723.350000", "112724.840000", "112726.330000", "112727.820000", "112729.310000", "112730.800000", "112732.290000", "112733.780000", "112735.270000", "112736.760000", "112738.250000", "112739.740000", "112741.230000", "112742.720000", "112744.210000", "112745.700000", "112747.190000", "112748.680000", "112750.170000", "112751.660000", "112753.150000", "112754.640000", "112756.130000", "112757.620000", "112759.110000", "112800.600000", "112802.090000", "112803.580000", "112805.070000", "112806.560000", "112808.050000", "112809.540000", "112811.030000", "112812.520000", "112814.010000", "112815.500000", "112816.990000", "112818.480000", "112819.970000", "112821.460000", "112822.950000", "112824.440000", "112825.930000", "112827.420000", "112828.910000", "112830.400000", "112831.890000", "112833.380000", "112834.870000", "112836.360000", "112837.850000", "112839.340000", "112840.830000", "112842.320000", "112843.810000", "112845.300000", "112846.790000", "112848.280000", "112849.770000", "112851.260000", "112852.750000", "112854.240000", "112855.730000", "112857.220000", "112858.710000", "112900.200000", "112901.690000", "112903.180000", "112904.670000", "112906.160000", "112907.650000", "112909.140000", "112910.630000", "112912.120000", "112913.610000", "112915.100000", "112916.590000", "112918.080000", "112919.570000", "112921.060000", "112922.550000", "112924.040000", "112925.530000", "112927.020000", "112928.510000", "112930.000000", "112931.490000"],
      "ContentTime": ["112210.156000", "112210.158000", "112210.161000", "112210.163000", "112210.166000", "112210.168000", "112210.171000", "112210.173000", "112210.176000", "112210.178000", "112210.181000", "112210.191000", "112210.193000", "112210.196000", "112210.198000", "112210.201000", "112210.203000", "112210.205000", "112210.208000", "112210.210000", "112210.213000", "112210.215000", "112210.218000", "112210.220000", "112210.223000", "112210.225000", "112210.228000", "112210.230000", "112210.233000", "112210.235000", "112210.238000", "112210.240000", "112210.243000", "112230.067000", "112230.070000", "112230.072000", "112230.075000", "112230.077000", "112230.080000", "112230.082000", "112230.085000", "112230.087000", "112230.090000", "112230.092000", "112230.095000", "112230.097000", "112230.099000", "112230.102000", "112230.104000", "112230.107000", "112230.109000", "112230.112000", "112230.114000", "112250.060000", "112250.063000", "112250.065000", "112250.068000", "112250.070000", "112250.073000", "112250.075000", "112250.078000", "112250.080000", "112250.082000", "112250.085000", "112250.087000", "112250.090000", "112250.092000", "112250.095000", "112250.097000", "112250.100000", "112250.102000", "112250.105000", "112250.107000", "112310.053000", "112310.056000", "112310.059000", "112310.061000", "112310.064000", "112310.066000", "112310.069000", "112310.071000", "112310.074000", "112310.076000", "112310.079000", "112310.081000", "112310.083000", "112310.086000", "112310.089000", "112310.091000", "112310.094000", "112310.096000", "112310.099000", "112310.101000", "112350.090000", "112350.093000", "112350.095000", "112350.097000", "112350.100000", "112350.102000", "112350.105000", "112350.107000", "112350.110000", "112350.112000", "112350.115000", "112350.127000", "112350.129000", "112350.132000", "112350.134000", "112350.137000", "112350.139000", "112350.142000", "112350.144000", "112350.146000", "112350.149000", "112350.151000", "112350.154000", "112350.157000", "112350.160000", "112350.162000", "112350.165000", "112350.167000", "112430.081000", "112430.083000", "112430.086000", "112430.089000", "112430.091000", "112430.093000", "112430.096000", "112430.098000", "112430.101000", "112430.103000", "112430.106000", "112430.108000", "112430.111000", "112430.113000", "112430.116000", "112430.118000", "112430.121000", "112430.123000", "112430.126000", "112430.128000", "112430.131000", "112430.133000", "112430.136000", "112430.138000", "112430.141000", "112430.143000", "112430.146000", "112510.088000", "112510.091000", "112510.093000", "112510.096000", "112510.098000", "112510.101000", "112510.103000", "112510.106000", "112510.108000", "112510.111000", "112510.113000", "112510.116000", "112510.118000", "112510.121000", "112510.123000", "112510.126000", "112510.128000", "112510.131000", "112510.133000", "112510.136000", "112510.138000", "112510.141000", "112510.143000", "112510.146000", "112510.148000", "112510.151000", "112550.078000", "112550.081000", "112550.084000", "112550.086000", "112550.089000", "112550.091000", "112550.094000", "112550.096000", "112550.099000", "112550.101000", "112550.104000", "112550.106000", "112550.109000", "112550.111000", "112550.113000", "112550.116000", "112550.118000", "112550.121000", "112550.123000", "112550.126000", "112550.128000", "112550.131000", "112550.133000", "112550.136000", "112550.138000", "112550.141000", "112550.144000", "112630.121000", "112630.124000", "112630.127000", "112630.129000", "112630.132000", "112630.134000", "112630.136000", "112630.139000", "112630.141000", "112630.144000", "112630.146000", "112630.149000", "112630.151000", "112630.154000", "112630.156000", "112630.159000", "112630.161000", "112630.164000", "112630.166000", "112630.169000", "112630.171000", "112630.174000", "112630.176000", "112630.179000", "112630.181000", "112630.184000", "112630.186000", "112710.591000", "112710.594000", "112710.596000", "112710.599000", "112710.602000", "112710.605000", "112710.607000", "112710.610000", "112710.612000", "112710.615000", "112710.617000", "112710.620000", "112710.622000", "112710.625000", "112710.627000", "112710.630000", "112710.632000", "112710.635000", "112710.637000", "112710.640000", "112710.642000", "112710.645000", "112710.647000", "112710.650000", "112710.652000", "112710.655000", "112710.658000", "112750.073000", "112750.075000", "112750.078000", "112750.080000", "112750.083000", "112750.085000", "112750.088000", "112750.090000", "112750.093000", "112750.095000", "112750.098000", "112750.100000", "112750.103000", "112750.105000", "112750.107000", "112750.110000", "112750.112000", "112750.115000", "112750.117000", "112750.120000", "112750.122000", "112750.125000", "112750.127000", "112750.130000", "112750.132000", "112750.135000", "112750.137000", "112830.080000", "112830.083000", "112830.086000", "112830.088000", "112830.091000", "112830.093000", "112830.096000", "112830.098000", "112830.101000", "112830.103000", "112830.106000", "112830.108000", "112830.111000", "112830.113000", "112830.116000", "112830.118000", "112830.121000", "112830.123000", "112830.126000", "112830.128000", "112830.131000", "112830.133000", "112830.136000", "112830.138000", "112830.140000", "112830.143000", "112830.145000", "112850.012000", "112850.014000", "112850.017000", "112850.019000", "112850.022000", "112850.024000", "112850.027000", "112850.029000", "112850.031000", "112850.034000", "112850.036000", "112850.039000", "112850.041000", "112930.082000", "112930.085000", "112930.088000", "112930.090000", "112930.093000", "112930.095000", "112930.098000", "112930.100000", "112930.103000", "112930.105000", "112930.108000", "112930.110000", "112930.112000", "112930.115000", "112930.117000", "112930.120000", "112930.122000", "112930.125000", "112930.127000", "112930.130000", "112930.132000", "112930.135000", "112930.137000", "112930.140000", "112930.142000", "112930.145000", "112930.147000", "112933.954000", "112933.957000", "112933.960000"],
      "InstanceCreationTime": ["112210.156000", "112210.158000", "112210.161000", "112210.163000", "112210.166000", "112210.168000", "112210.171000", "112210.173000", "112210.176000", "112210.178000", "112210.181000", "112210.191000", "112210.193000", "112210.196000", "112210.198000", "112210.201000", "112210.203000", "112210.205000", "112210.208000", "112210.210000", "112210.213000", "112210.215000", "112210.218000", "112210.220000", "112210.223000", "112210.225000", "112210.228000", "112210.230000", "112210.233000", "112210.235000", "112210.238000", "112210.240000", "112210.243000", "112230.067000", "112230.070000", "112230.072000", "112230.075000", "112230.077000", "112230.080000", "112230.082000", "112230.085000", "112230.087000", "112230.090000", "112230.092000", "112230.095000", "112230.097000", "112230.099000", "112230.102000", "112230.104000", "112230.107000", "112230.109000", "112230.112000", "112230.114000", "112250.060000", "112250.063000", "112250.065000", "112250.068000", "112250.070000", "112250.073000", "112250.075000", "112250.078000", "112250.080000", "112250.082000", "112250.085000", "112250.087000", "112250.090000", "112250.092000", "112250.095000", "112250.097000", "112250.100000", "112250.102000", "112250.105000", "112250.107000", "112310.053000", "112310.056000", "112310.059000", "112310.061000", "112310.064000", "112310.066000", "112310.069000", "112310.071000", "112310.074000", "112310.076000", "112310.079000", "112310.081000", "112310.083000", "112310.086000", "112310.089000", "112310.091000", "112310.094000", "112310.096000", "112310.099000", "112310.101000", "112350.090000", "112350.093000", "112350.095000", "112350.097000", "112350.100000", "112350.102000", "112350.105000", "112350.107000", "112350.110000", "112350.112000", "112350.115000", "112350.127000", "112350.129000", "112350.132000", "112350.134000", "112350.137000", "112350.139000", "112350.142000", "112350.144000", "112350.146000", "112350.149000", "112350.151000", "112350.154000", "112350.157000", "112350.160000", "112350.162000", "112350.165000", "112350.167000", "112430.081000", "112430.083000", "112430.086000", "112430.089000", "112430.091000", "112430.093000", "112430.096000", "112430.098000", "112430.101000", "112430.103000", "112430.106000", "112430.108000", "112430.111000", "112430.113000", "112430.116000", "112430.118000", "112430.121000", "112430.123000", "112430.126000", "112430.128000", "112430.131000", "112430.133000", "112430.136000", "112430.138000", "112430.141000", "112430.143000", "112430.146000", "112510.088000", "112510.091000", "112510.093000", "112510.096000", "112510.098000", "112510.101000", "112510.103000", "112510.106000", "112510.108000", "112510.111000", "112510.113000", "112510.116000", "112510.118000", "112510.121000", "112510.123000", "112510.126000", "112510.128000", "112510.131000", "112510.133000", "112510.136000", "112510.138000", "112510.141000", "112510.143000", "112510.146000", "112510.148000", "112510.151000", "112550.078000", "112550.081000", "112550.084000", "112550.086000", "112550.089000", "112550.091000", "112550.094000", "112550.096000", "112550.099000", "112550.101000", "112550.104000", "112550.106000", "112550.109000", "112550.111000", "112550.113000", "112550.116000", "112550.118000", "112550.121000", "112550.123000", "112550.126000", "112550.128000", "112550.131000", "112550.133000", "112550.136000", "112550.138000", "112550.141000", "112550.144000", "112630.121000", "112630.124000", "112630.127000", "112630.129000", "112630.132000", "112630.134000", "112630.136000", "112630.139000", "112630.141000", "112630.144000", "112630.146000", "112630.149000", "112630.151000", "112630.154000", "112630.156000", "112630.159000", "112630.161000", "112630.164000", "112630.166000", "112630.169000", "112630.171000", "112630.174000", "112630.176000", "112630.179000", "112630.181000", "112630.184000", "112630.186000", "112710.591000", "112710.594000", "112710.596000", "112710.599000", "112710.602000", "112710.605000", "112710.607000", "112710.610000", "112710.612000", "112710.615000", "112710.617000", "112710.620000", "112710.622000", "112710.625000", "112710.627000", "112710.630000", "112710.632000", "112710.635000", "112710.637000", "112710.640000", "112710.642000", "112710.645000", "112710.647000", "112710.650000", "112710.652000", "112710.655000", "112710.658000", "112750.073000", "112750.075000", "112750.078000", "112750.080000", "112750.083000", "112750.085000", "112750.088000", "112750.090000", "112750.093000", "112750.095000", "112750.098000", "112750.100000", "112750.103000", "112750.105000", "112750.107000", "112750.110000", "112750.112000", "112750.115000", "112750.117000", "112750.120000", "112750.122000", "112750.125000", "112750.127000", "112750.130000", "112750.132000", "112750.135000", "112750.137000", "112830.080000", "112830.083000", "112830.086000", "112830.088000", "112830.091000", "112830.093000", "112830.096000", "112830.098000", "112830.101000", "112830.103000", "112830.106000", "112830.108000", "112830.111000", "112830.113000", "112830.116000", "112830.118000", "112830.121000", "112830.123000", "112830.126000", "112830.128000", "112830.131000", "112830.133000", "112830.136000", "112830.138000", "112830.140000", "112830.143000", "112830.145000", "112850.012000", "112850.014000", "112850.017000", "112850.019000", "112850.022000", "112850.024000", "112850.027000", "112850.029000", "112850.031000", "112850.034000", "112850.036000", "112850.039000", "112850.041000", "112930.082000", "112930.085000", "112930.088000", "112930.090000", "112930.093000", "112930.095000", "112930.098000", "112930.100000", "112930.103000", "112930.105000", "112930.108000", "112930.110000", "112930.112000", "112930.115000", "112930.117000", "112930.120000", "112930.122000", "112930.125000", "112930.127000", "112930.130000", "112930.132000", "112930.135000", "112930.137000", "112930.140000", "112930.142000", "112930.145000", "112930.147000", "112933.954000", "112933.957000", "112933.960000"],
      "InstanceNumber": [1, 2, 3, 4, 5, 6, 7, 8, 9, 10, 11, 12, 13, 14, 15, 16, 17, 18, 19, 20, 21, 22, 23, 24, 25, 26, 27, 28, 29, 30, 31, 32, 33, 34, 35, 36, 37, 38, 39, 40, 41, 42, 43, 44, 45, 46, 47, 48, 49, 50, 51, 52, 53, 54, 55, 56, 57, 58, 59, 60, 61, 62, 63, 64, 65, 66, 67, 68, 69, 70, 71, 72, 73, 74, 75, 76, 77, 78, 79, 80, 81, 82, 83, 84, 85, 86, 87, 88, 89, 90, 91, 92, 93, 94, 95, 96, 97, 98, 99, 100, 101, 102, 103, 104, 105, 106, 107, 108, 109, 110, 111, 112, 113, 114, 115, 116, 117, 118, 119, 120, 121, 122, 123, 124, 125, 126, 127, 128, 129, 130, 131, 132, 133, 134, 135, 136, 137, 138, 139, 140, 141, 142, 143, 144, 145, 146, 147, 148, 149, 150, 151, 152, 153, 154, 155, 156, 157, 158, 159, 160, 161, 162, 163, 164, 165, 166, 167, 168, 169, 170, 171, 172, 173, 174, 175, 176, 177, 178, 179, 180, 181, 182, 183, 184, 185, 186, 187, 188, 189, 190, 191, 192, 193, 194, 195, 196, 197, 198, 199, 200, 201, 202, 203, 204, 205, 206, 207, 208, 209, 210, 211, 212, 213, 214, 215, 216, 217, 218, 219, 220, 221, 222, 223, 224, 225, 226, 227, 228, 229, 230, 231, 232, 233, 234, 235, 236, 237, 238, 239, 240, 241, 242, 243, 244, 245, 246, 247, 248, 249, 250, 251, 252, 253, 254, 255, 256, 257, 258, 259, 260, 261, 262, 263, 264, 265, 266, 267, 268, 269, 270, 271, 272, 273, 274, 275, 276, 277, 278, 279, 280, 281, 282, 283, 284, 285, 286, 287, 288, 289, 290, 291, 292, 293, 294, 295, 296, 297, 298, 299, 300, 301, 302, 303, 304, 305, 306, 307, 308, 309, 310, 311, 312, 313, 314, 315, 316, 317, 318, 319, 320, 321, 322, 323, 324, 325, 326, 327, 328, 329, 330, 331, 332, 333, 334, 335, 336, 337, 338, 339, 340, 341, 342, 343, 344, 345, 346, 347, 348, 349, 350, 351, 352],
