{
  "AcquisitionMatrixPE": 104,
  "AcquisitionNumber": 1,
  "AcquisitionTime": "11:31:54.312500",
  "BandwidthPerPixelPhaseEncode": 17.17,
  "BaseResolution": 104,
  "BodyPartExamined": "BRAIN",
  "CoilCombinationMethod": "Sum of Squares",
  "ConsistencyInfo": "N4_VE11C_LATEST_20160120",
  "ConversionSoftware": "dcm2niix",
  "ConversionSoftwareVersion": "v1.0.20220505",
  "DerivedVendorReportedEchoSpacing": 0.000560011,
  "DeviceSerialNumber": "167006",
  "DwellTime": 2.1e-06,
  "EchoTime": 0.037,
  "EchoTrainLength": 104,
  "EffectiveEchoSpacing": 0.000560011,
  "FlipAngle": 52,
  "HeudiconvVersion": "0.5.3.post811+g6206e14",
  "ImageComments": "Unaliased MB4/PE3/LB",
  "ImageOrientationPatientDICOM": [0.996278, 0.0842897, 0.018012, -0.0745609, 0.947641, -0.310512],
  "ImageOrientationText": "Tra>Cor(-18.0)>Sag(2.5)",
  "ImageType": [
    "ORIGINAL",
    "PRIMARY",
    "M",
    "MB",
    "ND",
    "MOSAIC"
],
  "ImagingFrequency": 123.26,
  "InPlanePhaseEncodingDirectionDICOM": "COL",
  "InstitutionAddress": "Chemin Queen-Mary 4565,Montreal,District,CA,H3W 1W5",
  "InstitutionName": "IUGM",
  "InstitutionalDepartmentName": "Department",
  "MRAcquisitionType": "2D",
  "MagneticFieldStrength": 3,
  "Manufacturer": "Siemens",
  "ManufacturersModelName": "Prisma_fit",
  "MatrixCoilMode": "SENSE",
  "Modality": "MR",
  "MultibandAccelerationFactor": 4,
  "PartialFourier": 1,
  "PatientPosition": "HFS",
  "PercentPhaseFOV": 100,
  "PercentSampling": 100,
  "PhaseEncodingDirection": "j",
  "PhaseEncodingSteps": 104,
  "PhaseResolution": 1,
  "PixelBandwidth": 2290,
  "ProcedureStepDescription": "games^mario3",
  "ProtocolName": "func_task-mario3_run-03",
  "PulseSequenceDetails": "%CustomerSeq%\\cmrr_mbep2d_bold",
  "ReceiveCoilActiveElements": "HC1-7;NC1,2",
  "ReceiveCoilName": "HeadNeck_64",
  "ReconMatrixPE": 104,
  "RepetitionTime": 1.49,
  "SAR": 0.0485791,
  "ScanOptions": "FS",
  "ScanningSequence": "EP",
  "SequenceName": "epfid2d1_104",
  "SequenceVariant": "SK\\SS",
  "SeriesDescription": "func_task-mario3_run-03",
  "SeriesNumber": 16,
  "ShimSetting": [622, -7196, -8826, 661, 122, 44, -47, 13],
  "SliceThickness": 2,
  "SliceTiming": [0, 0.785, 0.0975, 0.8825, 0.195, 0.98, 0.295, 1.0775, 0.3925, 1.175, 0.49, 1.275, 0.5875, 1.3725, 0.685, 0, 0.785, 0.0975, 0.8825, 0.195, 0.98, 0.295, 1.0775, 0.3925, 1.175, 0.49, 1.275, 0.5875, 1.3725, 0.685, 0, 0.785, 0.0975, 0.8825, 0.195, 0.98, 0.295, 1.0775, 0.3925, 1.175, 0.49, 1.275, 0.5875, 1.3725, 0.685, 0, 0.785, 0.0975, 0.8825, 0.195, 0.98, 0.295, 1.0775, 0.3925, 1.175, 0.49, 1.275, 0.5875, 1.3725, 0.685],
  "SoftwareVersions": "syngo MR E11",
  "SpacingBetweenSlices": 2,
  "StationName": "MRC35049",
  "TaskName": "mario3",
  "TotalReadoutTime": 0.0576811,
  "TxRefAmp": 255.023,
  "WipMemBlock": "dd3b3cef-f524-42bf-932f-9152d1a77f45||Sequence: R017 ve11c/master r/75a17815+; Jun 28 2022 16:32:11 by eja",
  "dcmmeta_affine": [
    [-1.9925569295883179, -0.1491217464208603, 0.0864836722612381, 110.60840606689453],
    [-0.1685793548822403, 1.895281434059143, -0.6160269379615784, -54.754844665527344],
    [0.03602394089102745, 0.6210240721702576, 1.9007974863052368, -61.78437805175781],
    [0.0, 0.0, 0.0, 1.0]
],
  "dcmmeta_reorient_transform": [
    [0.0, -1.0, 0.0, 103.0],
    [1.0, 0.0, 0.0, 0.0],
    [0.0, 0.0, 1.0, 0.0],
    [0.0, 0.0, 0.0, 1.0]
],
  "dcmmeta_shape": [104, 104, 60, 329],
  "dcmmeta_slice_dim": 2,
  "dcmmeta_version": 0.6,
  "global": {
    "const": {
      "AcquisitionMatrix": [104, 0, 0, 104],
      "AngioFlag": "N",
      "BitsAllocated": 16,
      "BitsStored": 16,
      "BodyPartExamined": "BRAIN",
      "Columns": 832,
      "EchoNumbers": 1,
      "EchoTime": 37.0,
      "EchoTrainLength": 104,
      "FlipAngle": 52.0,
      "HighBit": 15,
      "ImageOrientationPatient": [0.99627848500032, 0.0842896746141, 0.01801197043424, -0.074560874287, 0.94764072753544, -0.3105120408964],
      "ImagePositionPatient": [-766.25928592822, -891.70447654643, 215.12115367155],
      "ImageType": [
        "ORIGINAL",
        "PRIMARY",
        "M",
        "MB",
        "ND",
        "MOSAIC"
],
      "ImagedNucleus": "1H",
      "ImagingFrequency": 123.260314,
      "InPlanePhaseEncodingDirection": "COL",
      "MRAcquisitionType": "2D",
      "MagneticFieldStrength": 3.0,
      "Manufacturer": "SIEMENS",
      "ManufacturerModelName": "Prisma_fit",
      "Modality": "MR",
      "NumberOfAverages": 1.0,
      "NumberOfPhaseEncodingSteps": 104,
      "PercentPhaseFieldOfView": 100.0,
      "PercentSampling": 100.0,
      "PerformedProcedureStepStartTime": "110812.260000",
      "PhotometricInterpretation": "MONOCHROME2",
      "PixelBandwidth": 2290.0,
      "PixelRepresentation": 0,
      "PixelSpacing": [2.0, 2.0],
      "ProtocolName": "func_task-mario3_run-03",
      "RepetitionTime": 1490.0,
      "Rows": 832,
      "SAR": 0.04857905386162,
      "SamplesPerPixel": 1,
      "ScanOptions": "FS",
      "ScanningSequence": "EP",
      "SequenceName": "epfid2d1_104",
      "SequenceVariant": [
        "SK",
        "SS"
],
      "SeriesDescription": "func_task-mario3_run-03",
      "SeriesNumber": 16,
      "SeriesTime": "113304.513000",
      "SliceLocation": -37.071656493109,
      "SliceThickness": 2.0,
      "SmallestImagePixelValue": 0,
      "SoftwareVersions": "syngo MR E11",
      "SpacingBetweenSlices": 1.9999999825196,
      "SpecificCharacterSet": "ISO_IR 100",
      "StudyID": "1",
      "StudyTime": "110812.190000",
      "TransmitCoilName": "Body",
      "VariableFlipAngleFlag": "N",
      "WindowCenterWidthExplanation": "Algo1",
      "dBdt": 0.0},
    "slices": {}
  },
  "time": {
    "samples": {
      "AcquisitionNumber": [1, 2, 3, 4, 5, 6, 7, 8, 9, 10, 11, 12, 13, 14, 15, 16, 17, 18, 19, 20, 21, 22, 23, 24, 25, 26, 27, 28, 29, 30, 31, 32, 33, 34, 35, 36, 37, 38, 39, 40, 41, 42, 43, 44, 45, 46, 47, 48, 49, 50, 51, 52, 53, 54, 55, 56, 57, 58, 59, 60, 61, 62, 63, 64, 65, 66, 67, 68, 69, 70, 71, 72, 73, 74, 75, 76, 77, 78, 79, 80, 81, 82, 83, 84, 85, 86, 87, 88, 89, 90, 91, 92, 93, 94, 95, 96, 97, 98, 99, 100, 101, 102, 103, 104, 105, 106, 107, 108, 109, 110, 111, 112, 113, 114, 115, 116, 117, 118, 119, 120, 121, 122, 123, 124, 125, 126, 127, 128, 129, 130, 131, 132, 133, 134, 135, 136, 137, 138, 139, 140, 141, 142, 143, 144, 145, 146, 147, 148, 149, 150, 151, 152, 153, 154, 155, 156, 157, 158, 159, 160, 161, 162, 163, 164, 165, 166, 167, 168, 169, 170, 171, 172, 173, 174, 175, 176, 177, 178, 179, 180, 181, 182, 183, 184, 185, 186, 187, 188, 189, 190, 191, 192, 193, 194, 195, 196, 197, 198, 199, 200, 201, 202, 203, 204, 205, 206, 207, 208, 209, 210, 211, 212, 213, 214, 215, 216, 217, 218, 219, 220, 221, 222, 223, 224, 225, 226, 227, 228, 229, 230, 231, 232, 233, 234, 235, 236, 237, 238, 239, 240, 241, 242, 243, 244, 245, 246, 247, 248, 249, 250, 251, 252, 253, 254, 255, 256, 257, 258, 259, 260, 261, 262, 263, 264, 265, 266, 267, 268, 269, 270, 271, 272, 273, 274, 275, 276, 277, 278, 279, 280, 281, 282, 283, 284, 285, 286, 287, 288, 289, 290, 291, 292, 293, 294, 295, 296, 297, 298, 299, 300, 301, 302, 303, 304, 305, 306, 307, 308, 309, 310, 311, 312, 313, 314, 315, 316, 317, 318, 319, 320, 321, 322, 323, 324, 325, 326, 327, 328, 329],
      "AcquisitionTime": ["113154.312500", "113155.802500", "113157.292500", "113158.782500", "113200.272500", "113201.762500", "113203.252500", "113204.742500", "113206.232500", "113207.722500", "113209.212500", "113210.702500", "113212.192500", "113213.682500", "113215.172500", "113216.662500", "113218.152500", "113219.642500", "113221.132500", "113222.622500", "113224.112500", "113225.602500", "113227.092500", "113228.582500", "113230.072500", "113231.562500", "113233.052500", "113234.542500", "113236.032500", "113237.522500", "113239.012500", "113240.502500", "113241.992500", "113243.482500", "113244.972500", "113246.462500", "113247.952500", "113249.442500", "113250.932500", "113252.422500", "113253.912500", "113255.402500", "113256.892500", "113258.382500", "113259.872500", "113301.362500", "113302.852500", "113304.342500", "113305.832500", "113307.322500", "113308.812500", "113310.302500", "113311.792500", "113313.282500", "113314.772500", "113316.262500", "113317.752500", "113319.242500", "113320.732500", "113322.222500", "113323.712500", "113325.202500", "113326.692500", "113328.182500", "113329.672500", "113331.162500", "113332.652500", "113334.142500", "113335.632500", "113337.122500", "113338.612500", "113340.102500", "113341.592500", "113343.082500", "113344.572500", "113346.062500", "113347.552500", "113349.042500", "113350.532500", "113352.022500", "113353.512500", "113355.002500", "113356.492500", "113357.982500", "113359.472500", "113400.962500", "113402.452500", "113403.942500", "113405.432500", "113406.922500", "113408.412500", "113409.902500", "113411.392500", "113412.882500", "113414.372500", "113415.862500", "113417.352500", "113418.842500", "113420.332500", "113421.822500", "113423.312500", "113424.802500", "113426.292500", "113427.782500", "113429.272500", "113430.762500", "113432.252500", "113433.742500", "113435.232500", "113436.722500", "113438.212500", "113439.702500", "113441.192500", "113442.682500", "113444.172500", "113445.662500", "113447.152500", "113448.642500", "113450.132500", "113451.622500", "113453.112500", "113454.602500", "113456.092500", "113457.582500", "113459.072500", "113500.562500", "113502.052500", "113503.542500", "113505.032500", "113506.522500", "113508.012500", "113509.502500", "113510.992500", "113512.482500", "113513.972500", "113515.462500", "113516.952500", "113518.442500", "113519.932500", "113521.422500", "113522.912500", "113524.402500", "113525.892500", "113527.382500", "113528.872500", "113530.362500", "113531.852500", "113533.342500", "113534.832500", "113536.322500", "113537.812500", "113539.302500", "113540.792500", "113542.282500", "113543.772500", "113545.262500", "113546.752500", "113548.242500", "113549.732500", "113551.222500", "113552.712500", "113554.202500", "113555.692500", "113557.182500", "113558.672500", "113600.162500", "113601.652500", "113603.142500", "113604.632500", "113606.122500", "113607.612500", "113609.102500", "113610.592500", "113612.082500", "113613.572500", "113615.062500", "113616.552500", "113618.042500", "113619.532500", "113621.022500", "113622.512500", "113624.002500", "113625.492500", "113626.982500", "113628.472500", "113629.962500", "113631.452500", "113632.942500", "113634.432500", "113635.922500", "113637.412500", "113638.902500", "113640.392500", "113641.882500", "113643.372500", "113644.862500", "113646.352500", "113647.842500", "113649.332500", "113650.822500", "113652.312500", "113653.802500", "113655.292500", "113656.782500", "113658.272500", "113659.762500", "113701.252500", "113702.742500", "113704.232500", "113705.722500", "113707.212500", "113708.702500", "113710.192500", "113711.682500", "113713.172500", "113714.662500", "113716.152500", "113717.642500", "113719.132500", "113720.622500", "113722.112500", "113723.602500", "113725.092500", "113726.582500", "113728.072500", "113729.562500", "113731.052500", "113732.542500", "113734.032500", "113735.522500", "113737.012500", "113738.502500", "113739.992500", "113741.482500", "113742.972500", "113744.462500", "113745.952500", "113747.442500", "113748.932500", "113750.422500", "113751.912500", "113753.402500", "113754.892500", "113756.382500", "113757.872500", "113759.362500", "113800.852500", "113802.342500", "113803.832500", "113805.322500", "113806.812500", "113808.302500", "113809.792500", "113811.282500", "113812.772500", "113814.262500", "113815.752500", "113817.242500", "113818.732500", "113820.222500", "113821.712500", "113823.202500", "113824.692500", "113826.182500", "113827.672500", "113829.162500", "113830.652500", "113832.142500", "113833.632500", "113835.122500", "113836.612500", "113838.102500", "113839.592500", "113841.082500", "113842.572500", "113844.062500", "113845.552500", "113847.042500", "113848.532500", "113850.022500", "113851.512500", "113853.002500", "113854.492500", "113855.982500", "113857.472500", "113858.962500", "113900.452500", "113901.942500", "113903.432500", "113904.922500", "113906.412500", "113907.902500", "113909.392500", "113910.882500", "113912.372500", "113913.862500", "113915.352500", "113916.842500", "113918.332500", "113919.822500", "113921.312500", "113922.802500", "113924.292500", "113925.782500", "113927.272500", "113928.762500", "113930.252500", "113931.742500", "113933.232500", "113934.722500", "113936.212500", "113937.702500", "113939.192500", "113940.682500", "113942.172500", "113943.662500", "113945.152500", "113946.642500", "113948.132500", "113949.622500", "113951.112500", "113952.602500", "113954.092500", "113955.582500", "113957.072500", "113958.562500", "114000.052500", "114001.542500", "114003.032500"],
      "ContentTime": ["113304.517000", "113304.520000", "113304.535000", "113304.538000", "113304.541000", "113304.544000", "113304.548000", "113304.551000", "113304.554000", "113304.569000", "113304.572000", "113304.575000", "113304.578000", "113304.581000", "113304.585000", "113304.588000", "113304.591000", "113304.594000", "113304.598000", "113304.601000", "113304.604000", "113304.607000", "113324.478000", "113324.482000", "113324.485000", "113324.488000", "113324.491000", "113324.494000", "113324.498000", "113324.501000", "113324.504000", "113324.507000", "113324.510000", "113324.514000", "113324.517000", "113324.520000", "113324.523000", "113324.527000", "113324.530000", "113324.533000", "113324.536000", "113324.539000", "113344.478000", "113344.483000", "113344.486000", "113344.490000", "113344.505000", "113344.508000", "113344.511000", "113344.514000", "113344.518000", "113344.521000", "113344.524000", "113344.527000", "113344.531000", "113344.534000", "113344.537000", "113344.540000", "113344.543000", "113344.547000", "113344.550000", "113344.553000", "113404.479000", "113404.482000", "113404.486000", "113404.489000", "113404.492000", "113404.496000", "113404.499000", "113404.502000", "113404.506000", "113404.509000", "113404.512000", "113404.515000", "113404.518000", "113404.522000", "113404.525000", "113404.528000", "113404.531000", "113404.535000", "113404.538000", "113404.541000", "113404.544000", "113444.479000", "113444.483000", "113444.486000", "113444.489000", "113444.492000", "113444.496000", "113444.499000", "113444.502000", "113444.505000", "113444.509000", "113444.512000", "113444.515000", "113444.518000", "113444.522000", "113444.525000", "113444.528000", "113444.531000", "113444.535000", "113444.538000", "113444.541000", "113444.545000", "113444.548000", "113444.551000", "113444.554000", "113444.558000", "113444.561000", "113444.564000", "113444.567000", "113444.571000", "113444.610000", "113444.614000", "113524.479000", "113524.483000", "113524.486000", "113524.489000", "113524.492000", "113524.496000", "113524.499000", "113524.502000", "113524.506000", "113524.509000", "113524.512000", "113524.515000", "113524.519000", "113524.522000", "113524.525000", "113524.528000", "113524.532000", "113524.535000", "113524.538000", "113524.542000", "113524.545000", "113524.550000", "113524.553000", "113524.558000", "113524.563000", "113524.567000", "113604.478000", "113604.482000", "113604.485000", "113604.488000", "113604.491000", "113604.495000", "113604.506000", "113604.510000", "113604.513000", "113604.516000", "113604.520000", "113604.523000", "113604.526000", "113604.529000", "113604.532000", "113604.536000", "113604.539000", "113604.542000", "113604.546000", "113604.549000", "113604.552000", "113604.556000", "113604.559000", "113604.572000", "113604.575000", "113604.579000", "113604.582000", "113644.479000", "113644.483000", "113644.486000", "113644.489000", "113644.492000", "113644.496000", "113644.499000", "113644.502000", "113644.506000", "113644.509000", "113644.512000", "113644.515000", "113644.519000", "113644.522000", "113644.525000", "113644.529000", "113644.532000", "113644.535000", "113644.539000", "113644.542000", "113644.545000", "113644.548000", "113644.552000", "113644.555000", "113644.558000", "113644.561000", "113644.565000", "113724.479000", "113724.483000", "113724.486000", "113724.489000", "113724.493000", "113724.496000", "113724.499000", "113724.503000", "113724.506000", "113724.509000", "113724.512000", "113724.516000", "113724.519000", "113724.522000", "113724.526000", "113724.529000", "113724.532000", "113724.535000", "113724.539000", "113724.542000", "113724.545000", "113724.549000", "113724.552000", "113724.555000", "113724.558000", "113724.561000", "113724.565000", "113804.478000", "113804.482000", "113804.485000", "113804.488000", "113804.492000", "113804.495000", "113804.498000", "113804.501000", "113804.505000", "113804.508000", "113804.511000", "113804.515000", "113804.518000", "113804.521000", "113804.525000", "113804.528000", "113804.531000", "113804.535000", "113804.538000", "113804.541000", "113804.545000", "113804.548000", "113804.551000", "113804.554000", "113804.557000", "113804.561000", "113804.564000", "113844.479000", "113844.483000", "113844.486000", "113844.489000", "113844.493000", "113844.496000", "113844.499000", "113844.503000", "113844.506000", "113844.509000", "113844.512000", "113844.516000", "113844.519000", "113844.522000", "113844.526000", "113844.529000", "113844.532000", "113844.536000", "113844.539000", "113844.542000", "113844.546000", "113844.549000", "113844.552000", "113844.555000", "113844.559000", "113844.562000", "113844.565000", "113924.479000", "113924.483000", "113924.486000", "113924.489000", "113924.493000", "113924.496000", "113924.499000", "113924.503000", "113924.506000", "113924.509000", "113924.512000", "113924.516000", "113924.519000", "113924.522000", "113924.525000", "113924.529000", "113924.532000", "113924.535000", "113924.538000", "113924.542000", "113924.545000", "113924.548000", "113924.552000", "113924.555000", "113924.558000", "113924.561000", "113924.565000", "114004.479000", "114004.483000", "114004.486000", "114004.489000", "114004.493000", "114004.496000", "114004.499000", "114004.503000", "114004.506000", "114004.509000", "114004.512000", "114004.516000", "114004.519000", "114004.522000", "114004.526000", "114004.530000", "114004.533000", "114004.537000", "114004.540000", "114004.543000", "114004.547000", "114004.550000", "114004.553000", "114004.557000", "114004.560000", "114004.563000", "114006.068000"],
      "InstanceCreationTime": ["113304.517000", "113304.520000", "113304.535000", "113304.538000", "113304.541000", "113304.544000", "113304.548000", "113304.551000", "113304.554000", "113304.569000", "113304.572000", "113304.575000", "113304.578000", "113304.581000", "113304.585000", "113304.588000", "113304.591000", "113304.594000", "113304.598000", "113304.601000", "113304.604000", "113304.607000", "113324.478000", "113324.482000", "113324.485000", "113324.488000", "113324.491000", "113324.494000", "113324.498000", "113324.501000", "113324.504000", "113324.507000", "113324.510000", "113324.514000", "113324.517000", "113324.520000", "113324.523000", "113324.527000", "113324.530000", "113324.533000", "113324.536000", "113324.539000", "113344.478000", "113344.483000", "113344.486000", "113344.490000", "113344.505000", "113344.508000", "113344.511000", "113344.514000", "113344.518000", "113344.521000", "113344.524000", "113344.527000", "113344.531000", "113344.534000", "113344.537000", "113344.540000", "113344.543000", "113344.547000", "113344.550000", "113344.553000", "113404.479000", "113404.482000", "113404.486000", "113404.489000", "113404.492000", "113404.496000", "113404.499000", "113404.502000", "113404.506000", "113404.509000", "113404.512000", "113404.515000", "113404.518000", "113404.522000", "113404.525000", "113404.528000", "113404.531000", "113404.535000", "113404.538000", "113404.541000", "113404.544000", "113444.479000", "113444.483000", "113444.486000", "113444.489000", "113444.492000", "113444.496000", "113444.499000", "113444.502000", "113444.505000", "113444.509000", "113444.512000", "113444.515000", "113444.518000", "113444.522000", "113444.525000", "113444.528000", "113444.531000", "113444.535000", "113444.538000", "113444.541000", "113444.545000", "113444.548000", "113444.551000", "113444.554000", "113444.558000", "113444.561000", "113444.564000", "113444.567000", "113444.571000", "113444.610000", "113444.614000", "113524.479000", "113524.483000", "113524.486000", "113524.489000", "113524.492000", "113524.496000", "113524.499000", "113524.502000", "113524.506000", "113524.509000", "113524.512000", "113524.515000", "113524.519000", "113524.522000", "113524.525000", "113524.528000", "113524.532000", "113524.535000", "113524.538000", "113524.542000", "113524.545000", "113524.550000", "113524.553000", "113524.558000", "113524.563000", "113524.567000", "113604.478000", "113604.482000", "113604.485000", "113604.488000", "113604.491000", "113604.495000", "113604.506000", "113604.510000", "113604.513000", "113604.516000", "113604.520000", "113604.523000", "113604.526000", "113604.529000", "113604.532000", "113604.536000", "113604.539000", "113604.542000", "113604.546000", "113604.549000", "113604.552000", "113604.556000", "113604.559000", "113604.572000", "113604.575000", "113604.579000", "113604.582000", "113644.479000", "113644.483000", "113644.486000", "113644.489000", "113644.492000", "113644.496000", "113644.499000", "113644.502000", "113644.506000", "113644.509000", "113644.512000", "113644.515000", "113644.519000", "113644.522000", "113644.525000", "113644.529000", "113644.532000", "113644.535000", "113644.539000", "113644.542000", "113644.545000", "113644.548000", "113644.552000", "113644.555000", "113644.558000", "113644.561000", "113644.565000", "113724.479000", "113724.483000", "113724.486000", "113724.489000", "113724.493000", "113724.496000", "113724.499000", "113724.503000", "113724.506000", "113724.509000", "113724.512000", "113724.516000", "113724.519000", "113724.522000", "113724.526000", "113724.529000", "113724.532000", "113724.535000", "113724.539000", "113724.542000", "113724.545000", "113724.549000", "113724.552000", "113724.555000", "113724.558000", "113724.561000", "113724.565000", "113804.478000", "113804.482000", "113804.485000", "113804.488000", "113804.492000", "113804.495000", "113804.498000", "113804.501000", "113804.505000", "113804.508000", "113804.511000", "113804.515000", "113804.518000", "113804.521000", "113804.525000", "113804.528000", "113804.531000", "113804.535000", "113804.538000", "113804.541000", "113804.545000", "113804.548000", "113804.551000", "113804.554000", "113804.557000", "113804.561000", "113804.564000", "113844.479000", "113844.483000", "113844.486000", "113844.489000", "113844.493000", "113844.496000", "113844.499000", "113844.503000", "113844.506000", "113844.509000", "113844.512000", "113844.516000", "113844.519000", "113844.522000", "113844.526000", "113844.529000", "113844.532000", "113844.536000", "113844.539000", "113844.542000", "113844.546000", "113844.549000", "113844.552000", "113844.555000", "113844.559000", "113844.562000", "113844.565000", "113924.479000", "113924.483000", "113924.486000", "113924.489000", "113924.493000", "113924.496000", "113924.499000", "113924.503000", "113924.506000", "113924.509000", "113924.512000", "113924.516000", "113924.519000", "113924.522000", "113924.525000", "113924.529000", "113924.532000", "113924.535000", "113924.538000", "113924.542000", "113924.545000", "113924.548000", "113924.552000", "113924.555000", "113924.558000", "113924.561000", "113924.565000", "114004.479000", "114004.483000", "114004.486000", "114004.489000", "114004.493000", "114004.496000", "114004.499000", "114004.503000", "114004.506000", "114004.509000", "114004.512000", "114004.516000", "114004.519000", "114004.522000", "114004.526000", "114004.530000", "114004.533000", "114004.537000", "114004.540000", "114004.543000", "114004.547000", "114004.550000", "114004.553000", "114004.557000", "114004.560000", "114004.563000", "114006.068000"],
      "InstanceNumber": [1, 2, 3, 4, 5, 6, 7, 8, 9, 10, 11, 12, 13, 14, 15, 16, 17, 18, 19, 20, 21, 22, 23, 24, 25, 26, 27, 28, 29, 30, 31, 32, 33, 34, 35, 36, 37, 38, 39, 40, 41, 42, 43, 44, 45, 46, 47, 48, 49, 50, 51, 52, 53, 54, 55, 56, 57, 58, 59, 60, 61, 62, 63, 64, 65, 66, 67, 68, 69, 70, 71, 72, 73, 74, 75, 76, 77, 78, 79, 80, 81, 82, 83, 84, 85, 86, 87, 88, 89, 90, 91, 92, 93, 94, 95, 96, 97, 98, 99, 100, 101, 102, 103, 104, 105, 106, 107, 108, 109, 110, 111, 112, 113, 114, 115, 116, 117, 118, 119, 120, 121, 122, 123, 124, 125, 126, 127, 128, 129, 130, 131, 132, 133, 134, 135, 136, 137, 138, 139, 140, 141, 142, 143, 144, 145, 146, 147, 148, 149, 150, 151, 152, 153, 154, 155, 156, 157, 158, 159, 160, 161, 162, 163, 164, 165, 166, 167, 168, 169, 170, 171, 172, 173, 174, 175, 176, 177, 178, 179, 180, 181, 182, 183, 184, 185, 186, 187, 188, 189, 190, 191, 192, 193, 194, 195, 196, 197, 198, 199, 200, 201, 202, 203, 204, 205, 206, 207, 208, 209, 210, 211, 212, 213, 214, 215, 216, 217, 218, 219, 220, 221, 222, 223, 224, 225, 226, 227, 228, 229, 230, 231, 232, 233, 234, 235, 236, 237, 238, 239, 240, 241, 242, 243, 244, 245, 246, 247, 248, 249, 250, 251, 252, 253, 254, 255, 256, 257, 258, 259, 260, 261, 262, 263, 264, 265, 266, 267, 268, 269, 270, 271, 272, 273, 274, 275, 276, 277, 278, 279, 280, 281, 282, 283, 284, 285, 286, 287, 288, 289, 290, 291, 292, 293, 294, 295, 296, 297, 298, 299, 300, 301, 302, 303, 304, 305, 306, 307, 308, 309, 310, 311, 312, 313, 314, 315, 316, 317, 318, 319, 320, 321, 322, 323, 324, 325, 326, 327, 328, 329],
      "LargestImagePixelValue": [42733, 41024, 40650, 40000, 41347, 40208, 40397, 40858, 41216, 40590, 41332, 41498, 40683, 41061, 40871, 40865, 41124, 41348, 43044, 42559, 41665, 43244, 41442, 41999, 41641, 41959, 41944, 40760, 42492, 40255, 41543, 41113, 41219, 41217, 38802, 42025, 52367, 39876, 38180, 40562, 41169, 40294, 41521, 39710, 40632, 40015, 39483, 41530, 39904, 40359, 39487, 39747, 39077, 39584, 39563, 38982, 38962, 37877, 38439, 37231, 38185, 37317, 38474, 37415, 38211, 37346, 37384, 37704, 37271, 37840, 37859, 37936, 37080, 37604, 37098, 37548, 37401, 37499, 37493, 37607, 37555, 39101, 38897, 37278, 37653, 38119, 37526, 36755, 37491, 48201, 38348, 36657, 36988, 37605, 38115, 37819, 37859, 37741, 37447, 37604, 37283, 37266, 36824, 37426, 37606, 37345, 37752, 38175, 38418, 38145, 38301, 37920, 38775, 38440, 39174, 38780, 38936, 38601, 39314, 39801, 39478, 39708, 39850, 39078, 39477, 38754, 39324, 39313, 38796, 39254, 39410, 39506, 39189, 39176, 39591, 38903, 38684, 42773, 38403, 38675, 38848, 38295, 38481, 38855, 38801, 38201, 38412, 39098, 38824, 38782, 39127, 38923, 39342, 38831, 38873, 38567, 38822, 39030, 38196, 39081, 38581, 39000, 38649, 38466, 39062, 39235, 39045, 38604, 38493, 38975, 38876, 38892, 39403, 39721, 39961, 39748, 40139, 39080, 39009, 39283, 40203, 39179, 39720, 39171, 39975, 39602, 39631, 39970, 39593, 39747, 39363, 40104, 39536, 40491, 40246, 39152, 39180, 39999, 39727, 39498, 40314, 39316, 40484, 39457, 39535, 40330, 40302, 40376, 39964, 40666, 39854, 40635, 40259, 40653, 40273, 40057, 39047, 39629, 40370, 39759, 39575, 39798, 39359, 39640, 39517, 39581, 39692, 39242, 40198, 39183, 39530, 38891, 38950, 38923, 38514, 39459, 38683, 39407, 38626, 39227, 39270, 39859, 39259, 39134, 38521, 38998, 38696, 39125, 39796, 39368, 39176, 38737, 38935, 39004, 38784, 39292, 38764, 39000, 39000, 38729, 39271, 38767, 39188, 39074, 38802, 39066, 38060, 39021, 38135, 38898, 38494, 38715, 38869, 38875, 38777, 38550, 38916, 39030, 39026, 39148, 38753, 39303, 39306, 39137, 39026, 39245, 38981, 38791, 38812, 38977, 38821, 38956, 39158, 38709, 39096, 38853, 39654, 39882, 40052, 39319, 39321, 40065, 40615, 40646, 40668, 39472, 40423, 40427, 39834, 41307, 40662, 40891, 41034, 40377, 41132, 40840, 41262, 41029, 40542, 40864, 41268, 39908, 40488, 42521, 39047, 39409, 39456, 40116, 38866],
