{
  "AcquisitionMatrixPE": 104,
  "AcquisitionNumber": 1,
  "AcquisitionTime": "16:49:16.582500",
  "BandwidthPerPixelPhaseEncode": 17.17,
  "BaseResolution": 104,
  "BodyPartExamined": "BRAIN",
  "CoilCombinationMethod": "Sum of Squares",
  "ConsistencyInfo": "N4_VE11C_LATEST_20160120",
  "ConversionSoftware": "dcm2niix",
  "ConversionSoftwareVersion": "v1.0.20220505",
  "DerivedVendorReportedEchoSpacing": 0.000560011,
  "DeviceSerialNumber": "167006",
  "DwellTime": 2.1e-06,
  "EchoTime": 0.037,
  "EchoTrainLength": 104,
  "EffectiveEchoSpacing": 0.000560011,
  "FlipAngle": 52,
  "HeudiconvVersion": "0.5.3.post811+g6206e14",
  "ImageComments": "Unaliased MB4/PE3/LB",
  "ImageOrientationPatientDICOM": [0.999806, -0.0132644, -0.0145935, 0.00628199, 0.915667, -0.40189],
  "ImageOrientationText": "Tra>Cor(-23.7)>Sag(-1.1)",
  "ImageType": [
    "ORIGINAL",
    "PRIMARY",
    "M",
    "MB",
    "ND",
    "MOSAIC"
],
  "ImagingFrequency": 123.259,
  "InPlanePhaseEncodingDirectionDICOM": "COL",
  "InstitutionAddress": "Chemin Queen-Mary 4565,Montreal,District,CA,H3W 1W5",
  "InstitutionName": "IUGM",
  "InstitutionalDepartmentName": "Department",
  "MRAcquisitionType": "2D",
  "MagneticFieldStrength": 3,
  "Manufacturer": "Siemens",
  "ManufacturersModelName": "Prisma_fit",
  "MatrixCoilMode": "SENSE",
  "Modality": "MR",
  "MultibandAccelerationFactor": 4,
  "PartialFourier": 1,
  "PatientPosition": "HFS",
  "PercentPhaseFOV": 100,
  "PercentSampling": 100,
  "PhaseEncodingDirection": "j",
  "PhaseEncodingSteps": 104,
  "PhaseResolution": 1,
  "PixelBandwidth": 2290,
  "ProcedureStepDescription": "games^mario3",
  "ProtocolName": "func_task-mario3_run-03",
  "PulseSequenceDetails": "%CustomerSeq%\\cmrr_mbep2d_bold",
  "ReceiveCoilActiveElements": "HC1-7;NC1,2",
  "ReceiveCoilName": "HeadNeck_64",
  "ReconMatrixPE": 104,
  "RepetitionTime": 1.49,
  "SAR": 0.0803716,
  "ScanOptions": "FS",
  "ScanningSequence": "EP",
  "SequenceName": "epfid2d1_104",
  "SequenceVariant": "SK\\SS",
  "SeriesDescription": "func_task-mario3_run-03",
  "SeriesNumber": 16,
  "ShimSetting": [620, -7239, -8861, 490, 30, -273, -140, 7],
  "SliceThickness": 2,
  "SliceTiming": [0, 0.785, 0.1, 0.8825, 0.1975, 0.98, 0.295, 1.0775, 0.3925, 1.1775, 0.49, 1.275, 0.5875, 1.3725, 0.6875, 0, 0.785, 0.1, 0.8825, 0.1975, 0.98, 0.295, 1.0775, 0.3925, 1.1775, 0.49, 1.275, 0.5875, 1.3725, 0.6875, 0, 0.785, 0.1, 0.8825, 0.1975, 0.98, 0.295, 1.0775, 0.3925, 1.1775, 0.49, 1.275, 0.5875, 1.3725, 0.6875, 0, 0.785, 0.1, 0.8825, 0.1975, 0.98, 0.295, 1.0775, 0.3925, 1.1775, 0.49, 1.275, 0.5875, 1.3725, 0.6875],
  "SoftwareVersions": "syngo MR E11",
  "SpacingBetweenSlices": 2,
  "StationName": "MRC35049",
  "TaskName": "mario3",
  "TotalReadoutTime": 0.0576811,
  "TxRefAmp": 288.737,
  "WipMemBlock": "f7e27323-8fd4-43c2-8805-710abb39ee40||Sequence: R017 ve11c/master r/75a17815+; Jun 28 2022 16:32:11 by eja",
  "dcmmeta_affine": [
    [-1.9996110200881958, 0.012563979253172874, -0.03738714009523392, 106.74517059326172],
    [0.026528725400567055, 1.8313332796096802, -0.8034393787384033, -61.24659729003906],
    [-0.029186958447098732, 0.8037790060043335, 1.8311437368392944, -76.48253631591797],
    [0.0, 0.0, 0.0, 1.0]
],
  "dcmmeta_reorient_transform": [
    [0.0, -1.0, 0.0, 103.0],
    [1.0, 0.0, 0.0, 0.0],
    [0.0, 0.0, 1.0, 0.0],
    [0.0, 0.0, 0.0, 1.0]
],
  "dcmmeta_shape": [104, 104, 60, 310],
  "dcmmeta_slice_dim": 2,
  "dcmmeta_version": 0.6,
  "global": {
    "const": {
      "AcquisitionMatrix": [104, 0, 0, 104],
      "AngioFlag": "N",
      "BitsAllocated": 16,
      "BitsStored": 16,
      "BodyPartExamined": "BRAIN",
      "Columns": 832,
      "EchoNumbers": 1,
      "EchoTime": 37.0,
      "EchoTrainLength": 104,
      "FlipAngle": 52.0,
      "HighBit": 15,
      "ImageOrientationPatient": [0.99980552461831, -0.0132643627573, -0.0145934787954, 0.00628198976287, 0.91566661761341, -0.4018895146592],
      "ImagePositionPatient": [-840.47096874347, -784.32956745872, 309.50632034189],
      "ImageType": [
        "ORIGINAL",
        "PRIMARY",
        "M",
        "MB",
        "ND",
        "MOSAIC"
],
      "ImagedNucleus": "1H",
      "ImagingFrequency": 123.258806,
      "InPlanePhaseEncodingDirection": "COL",
      "MRAcquisitionType": "2D",
      "MagneticFieldStrength": 3.0,
      "Manufacturer": "SIEMENS",
      "ManufacturerModelName": "Prisma_fit",
      "Modality": "MR",
      "NumberOfAverages": 1.0,
      "NumberOfPhaseEncodingSteps": 104,
      "PercentPhaseFieldOfView": 100.0,
      "PercentSampling": 100.0,
      "PerformedProcedureStepStartTime": "162711.900000",
      "PhotometricInterpretation": "MONOCHROME2",
      "PixelBandwidth": 2290.0,
      "PixelRepresentation": 0,
      "PixelSpacing": [2.0, 2.0],
      "ProtocolName": "func_task-mario3_run-03",
      "RepetitionTime": 1490.0,
      "Rows": 832,
      "SAR": 0.08037164622039,
      "SamplesPerPixel": 1,
      "ScanOptions": "FS",
      "ScanningSequence": "EP",
      "SequenceName": "epfid2d1_104",
      "SequenceVariant": [
        "SK",
        "SS"
],
      "SeriesDescription": "func_task-mario3_run-03",
      "SeriesNumber": 16,
      "SeriesTime": "165028.427000",
      "SliceLocation": -47.416745857394,
      "SliceThickness": 2.0,
      "SmallestImagePixelValue": 0,
      "SoftwareVersions": "syngo MR E11",
      "SpacingBetweenSlices": 2.0000000494924,
      "SpecificCharacterSet": "ISO_IR 100",
      "StudyID": "1",
      "StudyTime": "162711.823000",
      "TransmitCoilName": "Body",
      "VariableFlipAngleFlag": "N",
      "WindowCenterWidthExplanation": "Algo1",
      "dBdt": 0.0},
    "slices": {}
  },
  "time": {
    "samples": {
      "AcquisitionNumber": [1, 2, 3, 4, 5, 6, 7, 8, 9, 10, 11, 12, 13, 14, 15, 16, 17, 18, 19, 20, 21, 22, 23, 24, 25, 26, 27, 28, 29, 30, 31, 32, 33, 34, 35, 36, 37, 38, 39, 40, 41, 42, 43, 44, 45, 46, 47, 48, 49, 50, 51, 52, 53, 54, 55, 56, 57, 58, 59, 60, 61, 62, 63, 64, 65, 66, 67, 68, 69, 70, 71, 72, 73, 74, 75, 76, 77, 78, 79, 80, 81, 82, 83, 84, 85, 86, 87, 88, 89, 90, 91, 92, 93, 94, 95, 96, 97, 98, 99, 100, 101, 102, 103, 104, 105, 106, 107, 108, 109, 110, 111, 112, 113, 114, 115, 116, 117, 118, 119, 120, 121, 122, 123, 124, 125, 126, 127, 128, 129, 130, 131, 132, 133, 134, 135, 136, 137, 138, 139, 140, 141, 142, 143, 144, 145, 146, 147, 148, 149, 150, 151, 152, 153, 154, 155, 156, 157, 158, 159, 160, 161, 162, 163, 164, 165, 166, 167, 168, 169, 170, 171, 172, 173, 174, 175, 176, 177, 178, 179, 180, 181, 182, 183, 184, 185, 186, 187, 188, 189, 190, 191, 192, 193, 194, 195, 196, 197, 198, 199, 200, 201, 202, 203, 204, 205, 206, 207, 208, 209, 210, 211, 212, 213, 214, 215, 216, 217, 218, 219, 220, 221, 222, 223, 224, 225, 226, 227, 228, 229, 230, 231, 232, 233, 234, 235, 236, 237, 238, 239, 240, 241, 242, 243, 244, 245, 246, 247, 248, 249, 250, 251, 252, 253, 254, 255, 256, 257, 258, 259, 260, 261, 262, 263, 264, 265, 266, 267, 268, 269, 270, 271, 272, 273, 274, 275, 276, 277, 278, 279, 280, 281, 282, 283, 284, 285, 286, 287, 288, 289, 290, 291, 292, 293, 294, 295, 296, 297, 298, 299, 300, 301, 302, 303, 304, 305, 306, 307, 308, 309, 310],
      "AcquisitionTime": ["164916.582500", "164918.072500", "164919.562500", "164921.052500", "164922.542500", "164924.032500", "164925.522500", "164927.012500", "164928.502500", "164929.992500", "164931.482500", "164932.972500", "164934.462500", "164935.952500", "164937.442500", "164938.932500", "164940.422500", "164941.912500", "164943.402500", "164944.892500", "164946.382500", "164947.872500", "164949.362500", "164950.852500", "164952.342500", "164953.832500", "164955.322500", "164956.812500", "164958.302500", "164959.792500", "165001.282500", "165002.772500", "165004.262500", "165005.752500", "165007.242500", "165008.732500", "165010.222500", "165011.712500", "165013.202500", "165014.692500", "165016.182500", "165017.672500", "165019.162500", "165020.652500", "165022.142500", "165023.632500", "165025.122500", "165026.612500", "165028.102500", "165029.592500", "165031.082500", "165032.572500", "165034.062500", "165035.552500", "165037.042500", "165038.532500", "165040.022500", "165041.512500", "165043.002500", "165044.492500", "165045.982500", "165047.472500", "165048.962500", "165050.452500", "165051.942500", "165053.432500", "165054.922500", "165056.412500", "165057.902500", "165059.392500", "165100.882500", "165102.372500", "165103.862500", "165105.352500", "165106.842500", "165108.332500", "165109.822500", "165111.312500", "165112.802500", "165114.292500", "165115.782500", "165117.272500", "165118.762500", "165120.252500", "165121.742500", "165123.232500", "165124.722500", "165126.212500", "165127.702500", "165129.192500", "165130.682500", "165132.172500", "165133.662500", "165135.152500", "165136.642500", "165138.132500", "165139.622500", "165141.112500", "165142.602500", "165144.092500", "165145.582500", "165147.072500", "165148.562500", "165150.052500", "165151.542500", "165153.032500", "165154.522500", "165156.012500", "165157.502500", "165158.992500", "165200.482500", "165201.972500", "165203.462500", "165204.952500", "165206.442500", "165207.932500", "165209.422500", "165210.912500", "165212.402500", "165213.892500", "165215.382500", "165216.872500", "165218.362500", "165219.852500", "165221.342500", "165222.832500", "165224.322500", "165225.812500", "165227.302500", "165228.792500", "165230.282500", "165231.772500", "165233.262500", "165234.752500", "165236.242500", "165237.732500", "165239.222500", "165240.712500", "165242.202500", "165243.692500", "165245.182500", "165246.672500", "165248.162500", "165249.652500", "165251.142500", "165252.632500", "165254.122500", "165255.612500", "165257.102500", "165258.592500", "165300.082500", "165301.572500", "165303.062500", "165304.552500", "165306.042500", "165307.532500", "165309.022500", "165310.512500", "165312.002500", "165313.492500", "165314.982500", "165316.472500", "165317.962500", "165319.452500", "165320.942500", "165322.432500", "165323.922500", "165325.412500", "165326.902500", "165328.392500", "165329.882500", "165331.372500", "165332.862500", "165334.352500", "165335.842500", "165337.332500", "165338.822500", "165340.312500", "165341.802500", "165343.292500", "165344.782500", "165346.272500", "165347.762500", "165349.252500", "165350.742500", "165352.232500", "165353.722500", "165355.212500", "165356.702500", "165358.192500", "165359.682500", "165401.172500", "165402.662500", "165404.152500", "165405.642500", "165407.132500", "165408.622500", "165410.112500", "165411.602500", "165413.092500", "165414.582500", "165416.072500", "165417.562500", "165419.052500", "165420.542500", "165422.032500", "165423.522500", "165425.012500", "165426.502500", "165427.992500", "165429.482500", "165430.972500", "165432.462500", "165433.952500", "165435.442500", "165436.932500", "165438.422500", "165439.912500", "165441.402500", "165442.892500", "165444.382500", "165445.872500", "165447.362500", "165448.852500", "165450.342500", "165451.832500", "165453.322500", "165454.812500", "165456.302500", "165457.792500", "165459.282500", "165500.772500", "165502.262500", "165503.752500", "165505.242500", "165506.732500", "165508.222500", "165509.712500", "165511.202500", "165512.692500", "165514.182500", "165515.672500", "165517.162500", "165518.652500", "165520.142500", "165521.632500", "165523.122500", "165524.612500", "165526.102500", "165527.592500", "165529.082500", "165530.572500", "165532.062500", "165533.552500", "165535.042500", "165536.532500", "165538.022500", "165539.512500", "165541.002500", "165542.492500", "165543.982500", "165545.472500", "165546.962500", "165548.452500", "165549.942500", "165551.432500", "165552.922500", "165554.412500", "165555.902500", "165557.392500", "165558.882500", "165600.372500", "165601.862500", "165603.352500", "165604.842500", "165606.332500", "165607.822500", "165609.312500", "165610.802500", "165612.292500", "165613.782500", "165615.272500", "165616.762500", "165618.252500", "165619.742500", "165621.232500", "165622.722500", "165624.212500", "165625.702500", "165627.192500", "165628.682500", "165630.172500", "165631.662500", "165633.152500", "165634.642500", "165636.132500", "165637.622500", "165639.112500", "165640.602500", "165642.092500", "165643.582500", "165645.072500", "165646.562500", "165648.052500", "165649.542500", "165651.032500", "165652.522500", "165654.012500", "165655.502500", "165656.992500"],
      "ContentTime": ["165028.430000", "165028.434000", "165028.437000", "165028.441000", "165028.444000", "165028.448000", "165028.451000", "165028.454000", "165028.458000", "165028.461000", "165028.464000", "165028.468000", "165028.471000", "165028.478000", "165028.481000", "165028.484000", "165028.488000", "165028.491000", "165028.494000", "165028.498000", "165028.501000", "165028.504000", "165048.389000", "165048.393000", "165048.396000", "165048.400000", "165048.403000", "165048.406000", "165048.410000", "165048.413000", "165048.416000", "165048.420000", "165048.423000", "165048.427000", "165048.430000", "165048.433000", "165048.437000", "165048.440000", "165048.444000", "165048.447000", "165048.450000", "165048.454000", "165108.389000", "165108.393000", "165108.396000", "165108.400000", "165108.403000", "165108.406000", "165108.410000", "165108.413000", "165108.417000", "165108.420000", "165108.423000", "165108.427000", "165108.430000", "165108.434000", "165108.437000", "165108.440000", "165108.444000", "165108.447000", "165108.451000", "165108.454000", "165128.389000", "165128.393000", "165128.396000", "165128.400000", "165128.403000", "165128.407000", "165128.410000", "165128.413000", "165128.417000", "165128.420000", "165128.423000", "165128.427000", "165128.430000", "165128.434000", "165128.437000", "165128.440000", "165128.444000", "165128.447000", "165128.450000", "165128.454000", "165208.389000", "165208.394000", "165208.398000", "165208.401000", "165208.404000", "165208.408000", "165208.411000", "165208.414000", "165208.418000", "165208.439000", "165208.443000", "165208.446000", "165208.450000", "165208.453000", "165208.456000", "165208.460000", "165208.463000", "165208.467000", "165208.470000", "165208.473000", "165208.477000", "165208.480000", "165208.483000", "165208.487000", "165208.490000", "165208.493000", "165208.497000", "165208.500000", "165208.503000", "165208.507000", "165208.510000", "165208.514000", "165248.389000", "165248.393000", "165248.396000", "165248.400000", "165248.403000", "165248.407000", "165248.410000", "165248.413000", "165248.417000", "165248.420000", "165248.423000", "165248.427000", "165248.430000", "165248.434000", "165248.437000", "165248.441000", "165248.444000", "165248.447000", "165248.451000", "165248.454000", "165248.458000", "165248.461000", "165248.464000", "165248.468000", "165248.471000", "165248.475000", "165248.478000", "165328.389000", "165328.393000", "165328.396000", "165328.400000", "165328.403000", "165328.407000", "165328.419000", "165328.422000", "165328.426000", "165328.429000", "165328.433000", "165328.436000", "165328.439000", "165328.443000", "165328.446000", "165328.449000", "165328.453000", "165328.456000", "165328.460000", "165328.463000", "165328.466000", "165328.470000", "165328.473000", "165328.476000", "165328.480000", "165328.483000", "165328.487000", "165408.389000", "165408.393000", "165408.397000", "165408.400000", "165408.403000", "165408.407000", "165408.410000", "165408.413000", "165408.417000", "165408.420000", "165408.424000", "165408.427000", "165408.431000", "165408.434000", "165408.437000", "165408.441000", "165408.444000", "165408.448000", "165408.451000", "165408.455000", "165408.458000", "165408.461000", "165408.465000", "165408.468000", "165408.472000", "165408.475000", "165408.478000", "165448.389000", "165448.393000", "165448.396000", "165448.400000", "165448.403000", "165448.406000", "165448.410000", "165448.413000", "165448.419000", "165448.423000", "165448.426000", "165448.430000", "165448.433000", "165448.437000", "165448.440000", "165448.443000", "165448.447000", "165448.450000", "165448.454000", "165448.457000", "165448.460000", "165448.464000", "165448.467000", "165448.470000", "165448.474000", "165448.477000", "165448.480000", "165528.389000", "165528.393000", "165528.397000", "165528.400000", "165528.403000", "165528.407000", "165528.410000", "165528.414000", "165528.417000", "165528.421000", "165528.424000", "165528.427000", "165528.431000", "165528.434000", "165528.438000", "165528.441000", "165528.445000", "165528.448000", "165528.451000", "165528.455000", "165528.458000", "165528.469000", "165528.473000", "165528.476000", "165528.479000", "165528.483000", "165528.486000", "165608.390000", "165608.393000", "165608.398000", "165608.401000", "165608.404000", "165608.408000", "165608.412000", "165608.416000", "165608.422000", "165608.426000", "165608.430000", "165608.433000", "165608.437000", "165608.441000", "165608.444000", "165608.447000", "165608.451000", "165608.454000", "165608.457000", "165608.461000", "165608.464000", "165608.468000", "165608.471000", "165608.474000", "165608.478000", "165608.481000", "165648.389000", "165648.393000", "165648.396000", "165648.400000", "165648.408000", "165648.412000", "165648.415000", "165648.418000", "165648.422000", "165648.425000", "165648.429000", "165648.443000", "165648.447000", "165648.450000", "165648.453000", "165648.457000", "165648.460000", "165648.464000", "165648.467000", "165648.471000", "165648.474000", "165648.477000", "165648.481000", "165648.484000", "165648.488000", "165648.491000", "165648.495000", "165700.029000", "165700.033000", "165700.036000", "165700.040000", "165700.043000", "165700.047000", "165700.050000", "165700.054000"],
      "InstanceCreationTime": ["165028.430000", "165028.434000", "165028.437000", "165028.441000", "165028.444000", "165028.448000", "165028.451000", "165028.454000", "165028.458000", "165028.461000", "165028.464000", "165028.468000", "165028.471000", "165028.478000", "165028.481000", "165028.484000", "165028.488000", "165028.491000", "165028.494000", "165028.498000", "165028.501000", "165028.504000", "165048.389000", "165048.393000", "165048.396000", "165048.400000", "165048.403000", "165048.406000", "165048.410000", "165048.413000", "165048.416000", "165048.420000", "165048.423000", "165048.427000", "165048.430000", "165048.433000", "165048.437000", "165048.440000", "165048.444000", "165048.447000", "165048.450000", "165048.454000", "165108.389000", "165108.393000", "165108.396000", "165108.400000", "165108.403000", "165108.406000", "165108.410000", "165108.413000", "165108.417000", "165108.420000", "165108.423000", "165108.427000", "165108.430000", "165108.434000", "165108.437000", "165108.440000", "165108.444000", "165108.447000", "165108.451000", "165108.454000", "165128.389000", "165128.393000", "165128.396000", "165128.400000", "165128.403000", "165128.407000", "165128.410000", "165128.413000", "165128.417000", "165128.420000", "165128.423000", "165128.427000", "165128.430000", "165128.434000", "165128.437000", "165128.440000", "165128.444000", "165128.447000", "165128.450000", "165128.454000", "165208.389000", "165208.394000", "165208.398000", "165208.401000", "165208.404000", "165208.408000", "165208.411000", "165208.414000", "165208.418000", "165208.439000", "165208.443000", "165208.446000", "165208.450000", "165208.453000", "165208.456000", "165208.460000", "165208.463000", "165208.467000", "165208.470000", "165208.473000", "165208.477000", "165208.480000", "165208.483000", "165208.487000", "165208.490000", "165208.493000", "165208.497000", "165208.500000", "165208.503000", "165208.507000", "165208.510000", "165208.514000", "165248.389000", "165248.393000", "165248.396000", "165248.400000", "165248.403000", "165248.407000", "165248.410000", "165248.413000", "165248.417000", "165248.420000", "165248.423000", "165248.427000", "165248.430000", "165248.434000", "165248.437000", "165248.441000", "165248.444000", "165248.447000", "165248.451000", "165248.454000", "165248.458000", "165248.461000", "165248.464000", "165248.468000", "165248.471000", "165248.475000", "165248.478000", "165328.389000", "165328.393000", "165328.396000", "165328.400000", "165328.403000", "165328.407000", "165328.419000", "165328.422000", "165328.426000", "165328.429000", "165328.433000", "165328.436000", "165328.439000", "165328.443000", "165328.446000", "165328.449000", "165328.453000", "165328.456000", "165328.460000", "165328.463000", "165328.466000", "165328.470000", "165328.473000", "165328.476000", "165328.480000", "165328.483000", "165328.487000", "165408.389000", "165408.393000", "165408.397000", "165408.400000", "165408.403000", "165408.407000", "165408.410000", "165408.413000", "165408.417000", "165408.420000", "165408.424000", "165408.427000", "165408.431000", "165408.434000", "165408.437000", "165408.441000", "165408.444000", "165408.448000", "165408.451000", "165408.455000", "165408.458000", "165408.461000", "165408.465000", "165408.468000", "165408.472000", "165408.475000", "165408.478000", "165448.389000", "165448.393000", "165448.396000", "165448.400000", "165448.403000", "165448.406000", "165448.410000", "165448.413000", "165448.419000", "165448.423000", "165448.426000", "165448.430000", "165448.433000", "165448.437000", "165448.440000", "165448.443000", "165448.447000", "165448.450000", "165448.454000", "165448.457000", "165448.460000", "165448.464000", "165448.467000", "165448.470000", "165448.474000", "165448.477000", "165448.480000", "165528.389000", "165528.393000", "165528.397000", "165528.400000", "165528.403000", "165528.407000", "165528.410000", "165528.414000", "165528.417000", "165528.421000", "165528.424000", "165528.427000", "165528.431000", "165528.434000", "165528.438000", "165528.441000", "165528.445000", "165528.448000", "165528.451000", "165528.455000", "165528.458000", "165528.469000", "165528.473000", "165528.476000", "165528.479000", "165528.483000", "165528.486000", "165608.390000", "165608.393000", "165608.398000", "165608.401000", "165608.404000", "165608.408000", "165608.412000", "165608.416000", "165608.422000", "165608.426000", "165608.430000", "165608.433000", "165608.437000", "165608.441000", "165608.444000", "165608.447000", "165608.451000", "165608.454000", "165608.457000", "165608.461000", "165608.464000", "165608.468000", "165608.471000", "165608.474000", "165608.478000", "165608.481000", "165648.389000", "165648.393000", "165648.396000", "165648.400000", "165648.408000", "165648.412000", "165648.415000", "165648.418000", "165648.422000", "165648.425000", "165648.429000", "165648.443000", "165648.447000", "165648.450000", "165648.453000", "165648.457000", "165648.460000", "165648.464000", "165648.467000", "165648.471000", "165648.474000", "165648.477000", "165648.481000", "165648.484000", "165648.488000", "165648.491000", "165648.495000", "165700.029000", "165700.033000", "165700.036000", "165700.040000", "165700.043000", "165700.047000", "165700.050000", "165700.054000"],
      "InstanceNumber": [1, 2, 3, 4, 5, 6, 7, 8, 9, 10, 11, 12, 13, 14, 15, 16, 17, 18, 19, 20, 21, 22, 23, 24, 25, 26, 27, 28, 29, 30, 31, 32, 33, 34, 35, 36, 37, 38, 39, 40, 41, 42, 43, 44, 45, 46, 47, 48, 49, 50, 51, 52, 53, 54, 55, 56, 57, 58, 59, 60, 61, 62, 63, 64, 65, 66, 67, 68, 69, 70, 71, 72, 73, 74, 75, 76, 77, 78, 79, 80, 81, 82, 83, 84, 85, 86, 87, 88, 89, 90, 91, 92, 93, 94, 95, 96, 97, 98, 99, 100, 101, 102, 103, 104, 105, 106, 107, 108, 109, 110, 111, 112, 113, 114, 115, 116, 117, 118, 119, 120, 121, 122, 123, 124, 125, 126, 127, 128, 129, 130, 131, 132, 133, 134, 135, 136, 137, 138, 139, 140, 141, 142, 143, 144, 145, 146, 147, 148, 149, 150, 151, 152, 153, 154, 155, 156, 157, 158, 159, 160, 161, 162, 163, 164, 165, 166, 167, 168, 169, 170, 171, 172, 173, 174, 175, 176, 177, 178, 179, 180, 181, 182, 183, 184, 185, 186, 187, 188, 189, 190, 191, 192, 193, 194, 195, 196, 197, 198, 199, 200, 201, 202, 203, 204, 205, 206, 207, 208, 209, 210, 211, 212, 213, 214, 215, 216, 217, 218, 219, 220, 221, 222, 223, 224, 225, 226, 227, 228, 229, 230, 231, 232, 233, 234, 235, 236, 237, 238, 239, 240, 241, 242, 243, 244, 245, 246, 247, 248, 249, 250, 251, 252, 253, 254, 255, 256, 257, 258, 259, 260, 261, 262, 263, 264, 265, 266, 267, 268, 269, 270, 271, 272, 273, 274, 275, 276, 277, 278, 279, 280, 281, 282, 283, 284, 285, 286, 287, 288, 289, 290, 291, 292, 293, 294, 295, 296, 297, 298, 299, 300, 301, 302, 303, 304, 305, 306, 307, 308, 309, 310],
      "LargestImagePixelValue": [44212, 42539, 41869, 41384, 40989, 40890, 41033, 40835, 40734, 40671, 40189, 40683, 40899, 40477, 40579, 40352, 40762, 40599, 40361, 40271, 40307, 39979, 39744, 39884, 40489, 39940, 39779, 40287, 39124, 39376, 38987, 39034, 39679, 39879, 39676, 39345, 39426, 39578, 40145, 40651, 39619, 40036, 39338, 38817, 39284, 39438, 39509, 39645, 39665, 39614, 39707, 39993, 39436, 39315, 39275, 39354, 39316, 39488, 39647, 40263, 39850, 39982, 39674, 40145, 39680, 39290, 38832, 39688, 39519, 39242, 39377, 38686, 38539, 38760, 38916, 39173, 39218, 39245, 39848, 39439, 40052, 40008, 39886, 39633, 39222, 39480, 39688, 39617, 39293, 39724, 39864, 39427, 40064, 38957, 39806, 39335, 38683, 38607, 39994, 39840, 39582, 38639, 38909, 39998, 40535, 40849, 39474, 38562, 39748, 39993, 39318, 39922, 39261, 40587, 40438, 39785, 39562, 39525, 39423, 39783, 39628, 39514, 39442, 39134, 39251, 39582, 40057, 40667, 40341, 39881, 40594, 39907, 39061, 39223, 40551, 40769, 40680, 40936, 40886, 41119, 40723, 40611, 40757, 40934, 40307, 40711, 41152, 40761, 40768, 40969, 41173, 41704, 40645, 40973, 40656, 40283, 39827, 39387, 39517, 39492, 38968, 39204, 39876, 39076, 40778, 39777, 39638, 39644, 39370, 40431, 39880, 39325, 39529, 39508, 40023, 39435, 39337, 40123, 39558, 39891, 39597, 39219, 39874, 39415, 40067, 38669, 40092, 39090, 39953, 39249, 39089, 39676, 39080, 39021, 38799, 38639, 38868, 38717, 38716, 39411, 38954, 38872, 38924, 38385, 39036, 38855, 38678, 39535, 38540, 39159, 38963, 39092, 38701, 38605, 39175, 39591, 39240, 39668, 39699, 39726, 39455, 38775, 38957, 39399, 39254, 38584, 38621, 39152, 38645, 39077, 39643, 39711, 39438, 38863, 39147, 39207, 39060, 40320, 40246, 39348, 39505, 39774, 39447, 39641, 40003, 39624, 39693, 39197, 39453, 39496, 39736, 39735, 40129, 39470, 39584, 40354, 38739, 38713, 38957, 38918, 38826, 39142, 38879, 39127, 39480, 39714, 39432, 39073, 39093, 39494, 39797, 39651, 39438, 39550, 39594, 39670, 39607, 39634, 39743, 39618, 39321, 39942, 39657, 39685, 40217, 39497, 39525, 39305, 40924, 40419, 39381, 40901, 39037, 39777, 40227, 39543, 39642, 39078, 40452, 40301, 40535, 39056, 39975, 40370, 40793, 40252, 39731, 39352, 38998, 39316],
      "WindowCenter": [10259.0, 10193.0, 10162.0, 10165.0, 10183.0, 10208.0, 10208.0, 10214.0, 10225.0, 10233.0, 10222.0, 10233.0, 10230.0, 10211.0, 10200.0, 10183.0, 10175.0, 10171.0, 10171.0, 10190.0, 10209.0, 10194.0, 10189.0, 10199.0, 10226.0, 10246.0, 10196.0, 10152.0, 10123.0, 10119.0, 10113.0, 10108.0, 10113.0, 10116.0, 10117.0, 10156.0, 10176.0, 10184.0, 10181.0, 10171.0, 10161.0, 10169.0, 10181.0, 10194.0, 10203.0, 10196.0, 10193.0, 10188.0, 10190.0, 10171.0, 10168.0, 10184.0, 10175.0, 10154.0, 10135.0, 10124.0, 10124.0, 10125.0, 10117.0, 10126.0, 10130.0, 10146.0, 10146.0, 10157.0, 10159.0, 10184.0, 10208.0, 10232.0, 10206.0, 10187.0, 10187.0, 10166.0, 10150.0, 10140.0, 10130.0, 10131.0, 10150.0, 10166.0, 10208.0, 10221.0, 10218.0, 10218.0, 10231.0, 10229.0, 10237.0, 10232.0, 10218.0, 10203.0, 10182.0, 10171.0, 10182.0, 10187.0, 10204.0, 10200.0, 10192.0, 10199.0, 10189.0, 10167.0, 10175.0, 10166.0, 10159.0, 10130.0, 10120.0, 10130.0, 10144.0, 10175.0, 10182.0, 10172.0, 10173.0, 10178.0, 10185.0, 10214.0, 10202.0, 10209.0, 10202.0, 10206.0, 10214.0, 10213.0, 10191.0, 10157.0, 10133.0, 10116.0, 10129.0, 10145.0, 10171.0, 10165.0, 10179.0, 10197.0, 10191.0, 10188.0, 10187.0, 10179.0, 10185.0, 10198.0, 10204.0, 10195.0, 10196.0, 10203.0, 10195.0, 10184.0, 10171.0, 10174.0, 10179.0, 10185.0, 10205.0, 10206.0, 10218.0, 10212.0, 10236.0, 10236.0, 10218.0, 10232.0, 10222.0, 10237.0, 10231.0, 10226.0, 10211.0, 10184.0, 10163.0, 10171.0, 10172.0, 10175.0, 10176.0, 10157.0, 10180.0, 10174.0, 10162.0, 10163.0, 10169.0, 10191.0, 10200.0, 10186.0, 10185.0, 10186.0, 10192.0, 10196.0, 10182.0, 10185.0, 10169.0, 10185.0, 10195.0, 10183.0, 10186.0, 10174.0, 10184.0, 10181.0, 10217.0, 10208.0, 10220.0, 10210.0, 10195.0, 10188.0, 10186.0, 10173.0, 10140.0, 10176.0, 10171.0, 10171.0, 10165.0, 10153.0, 10162.0, 10161.0, 10184.0, 10158.0, 10169.0, 10164.0, 10172.0, 10197.0, 10170.0, 10207.0, 10185.0, 10183.0, 10191.0, 10200.0, 10152.0, 10166.0, 10161.0, 10145.0, 10116.0, 10109.0, 10101.0, 10126.0, 10139.0, 10165.0, 10171.0, 10157.0, 10157.0, 10188.0, 10182.0, 10178.0, 10159.0, 10143.0, 10148.0, 10148.0, 10149.0, 10153.0, 10146.0, 10162.0, 10187.0, 10200.0, 10207.0, 10209.0, 10187.0, 10174.0, 10173.0, 10164.0, 10157.0, 10147.0, 10133.0, 10130.0, 10129.0, 10143.0, 10152.0, 10171.0, 10188.0, 10217.0, 10213.0, 10205.0, 10210.0, 10232.0, 10259.0, 10254.0, 10222.0, 10195.0, 10173.0, 10179.0, 10198.0, 10194.0, 10177.0, 10144.0, 10177.0, 10220.0, 10218.0, 10217.0, 10199.0, 10186.0, 10166.0, 10177.0, 10184.0, 10219.0, 10221.0, 10236.0, 10216.0, 10208.0, 10186.0, 10226.0, 10214.0, 10208.0, 10188.0, 10173.0, 10189.0, 10191.0, 10181.0, 10198.0, 10166.0, 10126.0, 10113.0, 10108.0, 10120.0, 10107.0, 10111.0, 10117.0, 10147.0, 10147.0, 10136.0, 10134.0, 10138.0, 10155.0, 10152.0, 10145.0],
