{
  "AcquisitionMatrixPE": 104,
  "AcquisitionNumber": 1,
  "AcquisitionTime": "16:40:1.560000",
  "BandwidthPerPixelPhaseEncode": 17.17,
  "BaseResolution": 104,
  "BodyPartExamined": "BRAIN",
  "CoilCombinationMethod": "Sum of Squares",
  "ConsistencyInfo": "N4_VE11C_LATEST_20160120",
  "ConversionSoftware": "dcm2niix",
  "ConversionSoftwareVersion": "v1.0.20220505",
  "DerivedVendorReportedEchoSpacing": 0.000560011,
  "DeviceSerialNumber": "167006",
  "DwellTime": 2.1e-06,
  "EchoTime": 0.037,
  "EchoTrainLength": 104,
  "EffectiveEchoSpacing": 0.000560011,
  "FlipAngle": 52,
  "HeudiconvVersion": "0.5.3.post811+g6206e14",
  "ImageComments": "Unaliased MB4/PE3/LB",
  "ImageOrientationPatientDICOM": [0.999806, -0.0132644, -0.0145935, 0.00628199, 0.915667, -0.40189],
  "ImageOrientationText": "Tra>Cor(-23.7)>Sag(-1.1)",
  "ImageType": [
    "ORIGINAL",
    "PRIMARY",
    "M",
    "MB",
    "ND",
    "MOSAIC"
],
  "ImagingFrequency": 123.259,
  "InPlanePhaseEncodingDirectionDICOM": "COL",
  "InstitutionAddress": "Chemin Queen-Mary 4565,Montreal,District,CA,H3W 1W5",
  "InstitutionName": "IUGM",
  "InstitutionalDepartmentName": "Department",
  "MRAcquisitionType": "2D",
  "MagneticFieldStrength": 3,
  "Manufacturer": "Siemens",
  "ManufacturersModelName": "Prisma_fit",
  "MatrixCoilMode": "SENSE",
  "Modality": "MR",
  "MultibandAccelerationFactor": 4,
  "PartialFourier": 1,
  "PatientPosition": "HFS",
  "PercentPhaseFOV": 100,
  "PercentSampling": 100,
  "PhaseEncodingDirection": "j",
  "PhaseEncodingSteps": 104,
  "PhaseResolution": 1,
  "PixelBandwidth": 2290,
  "ProcedureStepDescription": "games^mario3",
  "ProtocolName": "func_task-mario3_run-02",
  "PulseSequenceDetails": "%CustomerSeq%\\cmrr_mbep2d_bold",
  "ReceiveCoilActiveElements": "HC1-7;NC1,2",
  "ReceiveCoilName": "HeadNeck_64",
  "ReconMatrixPE": 104,
  "RepetitionTime": 1.49,
  "SAR": 0.0803716,
  "ScanOptions": "FS",
  "ScanningSequence": "EP",
  "SequenceName": "epfid2d1_104",
  "SequenceVariant": "SK\\SS",
  "SeriesDescription": "func_task-mario3_run-02",
  "SeriesNumber": 13,
  "ShimSetting": [620, -7239, -8861, 490, 30, -273, -140, 7],
  "SliceThickness": 2,
  "SliceTiming": [0, 0.7825, 0.0975, 0.88, 0.195, 0.98, 0.2925, 1.0775, 0.39, 1.175, 0.49, 1.2725, 0.5875, 1.37, 0.685, 0, 0.7825, 0.0975, 0.88, 0.195, 0.98, 0.2925, 1.0775, 0.39, 1.175, 0.49, 1.2725, 0.5875, 1.37, 0.685, 0, 0.7825, 0.0975, 0.88, 0.195, 0.98, 0.2925, 1.0775, 0.39, 1.175, 0.49, 1.2725, 0.5875, 1.37, 0.685, 0, 0.7825, 0.0975, 0.88, 0.195, 0.98, 0.2925, 1.0775, 0.39, 1.175, 0.49, 1.2725, 0.5875, 1.37, 0.685],
  "SoftwareVersions": "syngo MR E11",
  "SpacingBetweenSlices": 2,
  "StationName": "MRC35049",
  "TaskName": "mario3",
  "TotalReadoutTime": 0.0576811,
  "TxRefAmp": 288.737,
  "WipMemBlock": "693b4dfd-435f-45c9-8c3d-0106bffcc8c2||Sequence: R017 ve11c/master r/75a17815+; Jun 28 2022 16:32:11 by eja",
  "dcmmeta_affine": [
    [-1.9996110200881958, 0.012563979253172874, -0.03738714009523392, 106.74517059326172],
    [0.026528725400567055, 1.8313332796096802, -0.8034393787384033, -61.24659729003906],
    [-0.029186958447098732, 0.8037790060043335, 1.8311437368392944, -76.48253631591797],
    [0.0, 0.0, 0.0, 1.0]
],
  "dcmmeta_reorient_transform": [
    [0.0, -1.0, 0.0, 103.0],
    [1.0, 0.0, 0.0, 0.0],
    [0.0, 0.0, 1.0, 0.0],
    [0.0, 0.0, 0.0, 1.0]
],
  "dcmmeta_shape": [104, 104, 60, 327],
  "dcmmeta_slice_dim": 2,
  "dcmmeta_version": 0.6,
  "global": {
    "const": {
      "AcquisitionMatrix": [104, 0, 0, 104],
      "AngioFlag": "N",
      "BitsAllocated": 16,
      "BitsStored": 16,
      "BodyPartExamined": "BRAIN",
      "Columns": 832,
      "EchoNumbers": 1,
      "EchoTime": 37.0,
      "EchoTrainLength": 104,
      "FlipAngle": 52.0,
      "HighBit": 15,
      "ImageOrientationPatient": [0.99980552461831, -0.0132643627573, -0.0145934787954, 0.00628198976287, 0.91566661761341, -0.4018895146592],
      "ImagePositionPatient": [-840.47096874347, -784.32956745872, 309.50632034189],
      "ImageType": [
        "ORIGINAL",
        "PRIMARY",
        "M",
        "MB",
        "ND",
        "MOSAIC"
],
      "ImagedNucleus": "1H",
      "ImagingFrequency": 123.258802,
      "InPlanePhaseEncodingDirection": "COL",
      "MRAcquisitionType": "2D",
      "MagneticFieldStrength": 3.0,
      "Manufacturer": "SIEMENS",
      "ManufacturerModelName": "Prisma_fit",
      "Modality": "MR",
      "NumberOfAverages": 1.0,
      "NumberOfPhaseEncodingSteps": 104,
      "PercentPhaseFieldOfView": 100.0,
      "PercentSampling": 100.0,
      "PerformedProcedureStepStartTime": "162711.900000",
      "PhotometricInterpretation": "MONOCHROME2",
      "PixelBandwidth": 2290.0,
      "PixelRepresentation": 0,
      "PixelSpacing": [2.0, 2.0],
      "ProtocolName": "func_task-mario3_run-02",
      "RepetitionTime": 1490.0,
      "Rows": 832,
      "SAR": 0.08037164622039,
      "SamplesPerPixel": 1,
      "ScanOptions": "FS",
      "ScanningSequence": "EP",
      "SequenceName": "epfid2d1_104",
      "SequenceVariant": [
        "SK",
        "SS"
],
      "SeriesDescription": "func_task-mario3_run-02",
      "SeriesNumber": 13,
      "SeriesTime": "164112.546000",
      "SliceLocation": -47.416745857394,
      "SliceThickness": 2.0,
      "SmallestImagePixelValue": 0,
      "SoftwareVersions": "syngo MR E11",
      "SpacingBetweenSlices": 2.0000000494924,
      "SpecificCharacterSet": "ISO_IR 100",
      "StudyID": "1",
      "StudyTime": "162711.823000",
      "TransmitCoilName": "Body",
      "VariableFlipAngleFlag": "N",
      "WindowCenterWidthExplanation": "Algo1",
      "dBdt": 0.0},
    "slices": {}
  },
  "time": {
    "samples": {
      "AcquisitionNumber": [1, 2, 3, 4, 5, 6, 7, 8, 9, 10, 11, 12, 13, 14, 15, 16, 17, 18, 19, 20, 21, 22, 23, 24, 25, 26, 27, 28, 29, 30, 31, 32, 33, 34, 35, 36, 37, 38, 39, 40, 41, 42, 43, 44, 45, 46, 47, 48, 49, 50, 51, 52, 53, 54, 55, 56, 57, 58, 59, 60, 61, 62, 63, 64, 65, 66, 67, 68, 69, 70, 71, 72, 73, 74, 75, 76, 77, 78, 79, 80, 81, 82, 83, 84, 85, 86, 87, 88, 89, 90, 91, 92, 93, 94, 95, 96, 97, 98, 99, 100, 101, 102, 103, 104, 105, 106, 107, 108, 109, 110, 111, 112, 113, 114, 115, 116, 117, 118, 119, 120, 121, 122, 123, 124, 125, 126, 127, 128, 129, 130, 131, 132, 133, 134, 135, 136, 137, 138, 139, 140, 141, 142, 143, 144, 145, 146, 147, 148, 149, 150, 151, 152, 153, 154, 155, 156, 157, 158, 159, 160, 161, 162, 163, 164, 165, 166, 167, 168, 169, 170, 171, 172, 173, 174, 175, 176, 177, 178, 179, 180, 181, 182, 183, 184, 185, 186, 187, 188, 189, 190, 191, 192, 193, 194, 195, 196, 197, 198, 199, 200, 201, 202, 203, 204, 205, 206, 207, 208, 209, 210, 211, 212, 213, 214, 215, 216, 217, 218, 219, 220, 221, 222, 223, 224, 225, 226, 227, 228, 229, 230, 231, 232, 233, 234, 235, 236, 237, 238, 239, 240, 241, 242, 243, 244, 245, 246, 247, 248, 249, 250, 251, 252, 253, 254, 255, 256, 257, 258, 259, 260, 261, 262, 263, 264, 265, 266, 267, 268, 269, 270, 271, 272, 273, 274, 275, 276, 277, 278, 279, 280, 281, 282, 283, 284, 285, 286, 287, 288, 289, 290, 291, 292, 293, 294, 295, 296, 297, 298, 299, 300, 301, 302, 303, 304, 305, 306, 307, 308, 309, 310, 311, 312, 313, 314, 315, 316, 317, 318, 319, 320, 321, 322, 323, 324, 325, 326, 327],
      "AcquisitionTime": ["164001.560000", "164003.050000", "164004.540000", "164006.030000", "164007.520000", "164009.010000", "164010.500000", "164011.990000", "164013.480000", "164014.970000", "164016.460000", "164017.950000", "164019.440000", "164020.930000", "164022.420000", "164023.910000", "164025.400000", "164026.890000", "164028.380000", "164029.870000", "164031.360000", "164032.850000", "164034.340000", "164035.830000", "164037.320000", "164038.810000", "164040.300000", "164041.790000", "164043.280000", "164044.770000", "164046.260000", "164047.750000", "164049.240000", "164050.730000", "164052.220000", "164053.710000", "164055.200000", "164056.690000", "164058.180000", "164059.670000", "164101.160000", "164102.650000", "164104.140000", "164105.630000", "164107.120000", "164108.610000", "164110.100000", "164111.590000", "164113.080000", "164114.570000", "164116.060000", "164117.550000", "164119.040000", "164120.530000", "164122.020000", "164123.510000", "164125.000000", "164126.490000", "164127.980000", "164129.470000", "164130.960000", "164132.450000", "164133.940000", "164135.430000", "164136.920000", "164138.410000", "164139.900000", "164141.390000", "164142.880000", "164144.370000", "164145.860000", "164147.350000", "164148.840000", "164150.330000", "164151.820000", "164153.310000", "164154.800000", "164156.290000", "164157.780000", "164159.270000", "164200.760000", "164202.250000", "164203.740000", "164205.230000", "164206.720000", "164208.210000", "164209.700000", "164211.190000", "164212.680000", "164214.170000", "164215.660000", "164217.150000", "164218.640000", "164220.130000", "164221.620000", "164223.110000", "164224.600000", "164226.090000", "164227.580000", "164229.070000", "164230.560000", "164232.050000", "164233.540000", "164235.030000", "164236.520000", "164238.010000", "164239.500000", "164240.990000", "164242.480000", "164243.970000", "164245.460000", "164246.950000", "164248.440000", "164249.930000", "164251.420000", "164252.910000", "164254.400000", "164255.890000", "164257.380000", "164258.870000", "164300.360000", "164301.850000", "164303.340000", "164304.830000", "164306.320000", "164307.810000", "164309.300000", "164310.790000", "164312.280000", "164313.770000", "164315.260000", "164316.750000", "164318.240000", "164319.730000", "164321.220000", "164322.710000", "164324.200000", "164325.690000", "164327.180000", "164328.670000", "164330.160000", "164331.650000", "164333.140000", "164334.630000", "164336.120000", "164337.610000", "164339.100000", "164340.590000", "164342.080000", "164343.570000", "164345.060000", "164346.550000", "164348.040000", "164349.530000", "164351.020000", "164352.510000", "164354.000000", "164355.490000", "164356.980000", "164358.470000", "164359.960000", "164401.450000", "164402.940000", "164404.430000", "164405.920000", "164407.410000", "164408.900000", "164410.390000", "164411.880000", "164413.370000", "164414.860000", "164416.350000", "164417.840000", "164419.330000", "164420.820000", "164422.310000", "164423.800000", "164425.290000", "164426.780000", "164428.270000", "164429.760000", "164431.250000", "164432.740000", "164434.230000", "164435.720000", "164437.210000", "164438.700000", "164440.190000", "164441.680000", "164443.170000", "164444.660000", "164446.150000", "164447.640000", "164449.130000", "164450.620000", "164452.110000", "164453.600000", "164455.090000", "164456.580000", "164458.070000", "164459.560000", "164501.050000", "164502.540000", "164504.030000", "164505.520000", "164507.010000", "164508.500000", "164509.990000", "164511.480000", "164512.970000", "164514.460000", "164515.950000", "164517.440000", "164518.930000", "164520.420000", "164521.910000", "164523.400000", "164524.890000", "164526.380000", "164527.870000", "164529.360000", "164530.850000", "164532.340000", "164533.830000", "164535.320000", "164536.810000", "164538.300000", "164539.790000", "164541.280000", "164542.770000", "164544.260000", "164545.750000", "164547.240000", "164548.730000", "164550.220000", "164551.710000", "164553.200000", "164554.690000", "164556.180000", "164557.670000", "164559.160000", "164600.650000", "164602.140000", "164603.630000", "164605.120000", "164606.610000", "164608.100000", "164609.590000", "164611.080000", "164612.570000", "164614.060000", "164615.550000", "164617.040000", "164618.530000", "164620.020000", "164621.510000", "164623.000000", "164624.490000", "164625.980000", "164627.470000", "164628.960000", "164630.450000", "164631.940000", "164633.430000", "164634.920000", "164636.410000", "164637.900000", "164639.390000", "164640.880000", "164642.370000", "164643.860000", "164645.350000", "164646.840000", "164648.330000", "164649.820000", "164651.310000", "164652.800000", "164654.290000", "164655.780000", "164657.270000", "164658.760000", "164700.250000", "164701.740000", "164703.230000", "164704.720000", "164706.210000", "164707.700000", "164709.190000", "164710.680000", "164712.170000", "164713.660000", "164715.150000", "164716.640000", "164718.130000", "164719.620000", "164721.110000", "164722.600000", "164724.090000", "164725.580000", "164727.070000", "164728.560000", "164730.050000", "164731.540000", "164733.030000", "164734.520000", "164736.010000", "164737.500000", "164738.990000", "164740.480000", "164741.970000", "164743.460000", "164744.950000", "164746.440000", "164747.930000", "164749.420000", "164750.910000", "164752.400000", "164753.890000", "164755.380000", "164756.870000", "164758.360000", "164759.850000", "164801.340000", "164802.830000", "164804.320000", "164805.810000", "164807.300000"],
      "ContentTime": ["164112.549000", "164112.553000", "164112.557000", "164112.560000", "164112.563000", "164112.567000", "164112.570000", "164112.574000", "164112.577000", "164112.580000", "164112.615000", "164112.619000", "164112.622000", "164112.626000", "164112.629000", "164112.632000", "164112.635000", "164112.639000", "164112.642000", "164112.645000", "164112.649000", "164112.652000", "164132.506000", "164132.510000", "164132.513000", "164132.517000", "164132.520000", "164132.523000", "164132.527000", "164132.530000", "164132.533000", "164132.537000", "164132.540000", "164132.543000", "164132.547000", "164132.550000", "164132.553000", "164132.557000", "164132.560000", "164132.563000", "164132.567000", "164132.570000", "164152.506000", "164152.510000", "164152.530000", "164152.533000", "164152.536000", "164152.540000", "164152.543000", "164152.547000", "164152.550000", "164152.553000", "164152.557000", "164152.560000", "164152.563000", "164152.573000", "164152.576000", "164152.580000", "164152.583000", "164152.587000", "164152.590000", "164152.593000", "164212.506000", "164212.510000", "164212.514000", "164212.518000", "164212.522000", "164212.526000", "164212.529000", "164212.533000", "164212.537000", "164212.540000", "164212.544000", "164212.547000", "164212.551000", "164212.554000", "164212.557000", "164212.561000", "164212.564000", "164212.568000", "164212.571000", "164212.574000", "164252.505000", "164252.509000", "164252.512000", "164252.516000", "164252.519000", "164252.522000", "164252.526000", "164252.529000", "164252.533000", "164252.541000", "164252.544000", "164252.547000", "164252.551000", "164252.561000", "164252.564000", "164252.568000", "164252.571000", "164252.574000", "164252.578000", "164252.581000", "164252.584000", "164252.588000", "164252.591000", "164252.595000", "164252.598000", "164252.601000", "164252.605000", "164252.608000", "164252.611000", "164252.615000", "164252.618000", "164252.622000", "164332.506000", "164332.510000", "164332.513000", "164332.517000", "164332.520000", "164332.523000", "164332.527000", "164332.530000", "164332.534000", "164332.537000", "164332.541000", "164332.544000", "164332.547000", "164332.551000", "164332.554000", "164332.557000", "164332.561000", "164332.564000", "164332.578000", "164332.582000", "164332.585000", "164332.589000", "164332.592000", "164332.595000", "164332.599000", "164332.602000", "164332.606000", "164412.506000", "164412.524000", "164412.527000", "164412.531000", "164412.534000", "164412.538000", "164412.541000", "164412.544000", "164412.548000", "164412.551000", "164412.554000", "164412.558000", "164412.561000", "164412.564000", "164412.568000", "164412.571000", "164412.575000", "164412.578000", "164412.581000", "164412.585000", "164412.588000", "164412.592000", "164412.595000", "164412.598000", "164412.602000", "164412.605000", "164412.609000", "164452.505000", "164452.509000", "164452.513000", "164452.516000", "164452.519000", "164452.523000", "164452.526000", "164452.530000", "164452.533000", "164452.536000", "164452.540000", "164452.543000", "164452.547000", "164452.550000", "164452.553000", "164452.557000", "164452.560000", "164452.563000", "164452.567000", "164452.570000", "164452.574000", "164452.577000", "164452.580000", "164452.589000", "164452.593000", "164452.596000", "164452.599000", "164532.506000", "164532.510000", "164532.513000", "164532.517000", "164532.520000", "164532.524000", "164532.533000", "164532.537000", "164532.540000", "164532.543000", "164532.547000", "164532.550000", "164532.554000", "164532.557000", "164532.561000", "164532.564000", "164532.567000", "164532.571000", "164532.574000", "164532.577000", "164532.581000", "164532.584000", "164532.588000", "164532.591000", "164532.594000", "164532.598000", "164612.506000", "164612.510000", "164612.513000", "164612.517000", "164612.520000", "164612.524000", "164612.527000", "164612.530000", "164612.534000", "164612.537000", "164612.541000", "164612.544000", "164612.547000", "164612.551000", "164612.555000", "164612.558000", "164612.562000", "164612.565000", "164612.569000", "164612.572000", "164612.575000", "164612.593000", "164612.596000", "164612.600000", "164612.603000", "164612.606000", "164612.610000", "164652.506000", "164652.510000", "164652.513000", "164652.517000", "164652.520000", "164652.529000", "164652.533000", "164652.536000", "164652.540000", "164652.543000", "164652.546000", "164652.550000", "164652.553000", "164652.556000", "164652.560000", "164652.563000", "164652.567000", "164652.570000", "164652.573000", "164652.577000", "164652.580000", "164652.584000", "164652.587000", "164652.591000", "164652.594000", "164652.597000", "164652.601000", "164732.505000", "164732.509000", "164732.512000", "164732.516000", "164732.519000", "164732.523000", "164732.526000", "164732.530000", "164732.533000", "164732.536000", "164732.540000", "164732.543000", "164732.547000", "164732.550000", "164732.553000", "164732.557000", "164732.560000", "164732.563000", "164732.567000", "164732.570000", "164732.574000", "164732.577000", "164732.580000", "164732.584000", "164732.587000", "164732.591000", "164732.594000", "164809.717000", "164809.721000", "164809.725000", "164809.729000", "164809.732000", "164809.736000", "164809.739000", "164809.743000", "164809.747000", "164809.750000", "164809.754000", "164809.757000", "164809.761000", "164809.764000", "164809.768000", "164809.771000", "164809.775000", "164809.778000", "164809.782000", "164809.785000", "164809.809000", "164809.813000", "164809.816000", "164809.819000", "164809.823000"],
      "InstanceCreationTime": ["164112.549000", "164112.553000", "164112.557000", "164112.560000", "164112.563000", "164112.567000", "164112.570000", "164112.574000", "164112.577000", "164112.580000", "164112.615000", "164112.619000", "164112.622000", "164112.626000", "164112.629000", "164112.632000", "164112.635000", "164112.639000", "164112.642000", "164112.645000", "164112.649000", "164112.652000", "164132.506000", "164132.510000", "164132.513000", "164132.517000", "164132.520000", "164132.523000", "164132.527000", "164132.530000", "164132.533000", "164132.537000", "164132.540000", "164132.543000", "164132.547000", "164132.550000", "164132.553000", "164132.557000", "164132.560000", "164132.563000", "164132.567000", "164132.570000", "164152.506000", "164152.510000", "164152.530000", "164152.533000", "164152.536000", "164152.540000", "164152.543000", "164152.547000", "164152.550000", "164152.553000", "164152.557000", "164152.560000", "164152.563000", "164152.573000", "164152.576000", "164152.580000", "164152.583000", "164152.587000", "164152.590000", "164152.593000", "164212.506000", "164212.510000", "164212.514000", "164212.518000", "164212.522000", "164212.526000", "164212.529000", "164212.533000", "164212.537000", "164212.540000", "164212.544000", "164212.547000", "164212.551000", "164212.554000", "164212.557000", "164212.561000", "164212.564000", "164212.568000", "164212.571000", "164212.574000", "164252.505000", "164252.509000", "164252.512000", "164252.516000", "164252.519000", "164252.522000", "164252.526000", "164252.529000", "164252.533000", "164252.541000", "164252.544000", "164252.547000", "164252.551000", "164252.561000", "164252.564000", "164252.568000", "164252.571000", "164252.574000", "164252.578000", "164252.581000", "164252.584000", "164252.588000", "164252.591000", "164252.595000", "164252.598000", "164252.601000", "164252.605000", "164252.608000", "164252.611000", "164252.615000", "164252.618000", "164252.622000", "164332.506000", "164332.510000", "164332.513000", "164332.517000", "164332.520000", "164332.523000", "164332.527000", "164332.530000", "164332.534000", "164332.537000", "164332.541000", "164332.544000", "164332.547000", "164332.551000", "164332.554000", "164332.557000", "164332.561000", "164332.564000", "164332.578000", "164332.582000", "164332.585000", "164332.589000", "164332.592000", "164332.595000", "164332.599000", "164332.602000", "164332.606000", "164412.506000", "164412.524000", "164412.527000", "164412.531000", "164412.534000", "164412.538000", "164412.541000", "164412.544000", "164412.548000", "164412.551000", "164412.554000", "164412.558000", "164412.561000", "164412.564000", "164412.568000", "164412.571000", "164412.575000", "164412.578000", "164412.581000", "164412.585000", "164412.588000", "164412.592000", "164412.595000", "164412.598000", "164412.602000", "164412.605000", "164412.609000", "164452.505000", "164452.509000", "164452.513000", "164452.516000", "164452.519000", "164452.523000", "164452.526000", "164452.530000", "164452.533000", "164452.536000", "164452.540000", "164452.543000", "164452.547000", "164452.550000", "164452.553000", "164452.557000", "164452.560000", "164452.563000", "164452.567000", "164452.570000", "164452.574000", "164452.577000", "164452.580000", "164452.589000", "164452.593000", "164452.596000", "164452.599000", "164532.506000", "164532.510000", "164532.513000", "164532.517000", "164532.520000", "164532.524000", "164532.533000", "164532.537000", "164532.540000", "164532.543000", "164532.547000", "164532.550000", "164532.554000", "164532.557000", "164532.561000", "164532.564000", "164532.567000", "164532.571000", "164532.574000", "164532.577000", "164532.581000", "164532.584000", "164532.588000", "164532.591000", "164532.594000", "164532.598000", "164612.506000", "164612.510000", "164612.513000", "164612.517000", "164612.520000", "164612.524000", "164612.527000", "164612.530000", "164612.534000", "164612.537000", "164612.541000", "164612.544000", "164612.547000", "164612.551000", "164612.555000", "164612.558000", "164612.562000", "164612.565000", "164612.569000", "164612.572000", "164612.575000", "164612.593000", "164612.596000", "164612.600000", "164612.603000", "164612.606000", "164612.610000", "164652.506000", "164652.510000", "164652.513000", "164652.517000", "164652.520000", "164652.529000", "164652.533000", "164652.536000", "164652.540000", "164652.543000", "164652.546000", "164652.550000", "164652.553000", "164652.556000", "164652.560000", "164652.563000", "164652.567000", "164652.570000", "164652.573000", "164652.577000", "164652.580000", "164652.584000", "164652.587000", "164652.591000", "164652.594000", "164652.597000", "164652.601000", "164732.505000", "164732.509000", "164732.512000", "164732.516000", "164732.519000", "164732.523000", "164732.526000", "164732.530000", "164732.533000", "164732.536000", "164732.540000", "164732.543000", "164732.547000", "164732.550000", "164732.553000", "164732.557000", "164732.560000", "164732.563000", "164732.567000", "164732.570000", "164732.574000", "164732.577000", "164732.580000", "164732.584000", "164732.587000", "164732.591000", "164732.594000", "164809.717000", "164809.721000", "164809.725000", "164809.729000", "164809.732000", "164809.736000", "164809.739000", "164809.743000", "164809.747000", "164809.750000", "164809.754000", "164809.757000", "164809.761000", "164809.764000", "164809.768000", "164809.771000", "164809.775000", "164809.778000", "164809.782000", "164809.785000", "164809.809000", "164809.813000", "164809.816000", "164809.819000", "164809.823000"],
      "InstanceNumber": [1, 2, 3, 4, 5, 6, 7, 8, 9, 10, 11, 12, 13, 14, 15, 16, 17, 18, 19, 20, 21, 22, 23, 24, 25, 26, 27, 28, 29, 30, 31, 32, 33, 34, 35, 36, 37, 38, 39, 40, 41, 42, 43, 44, 45, 46, 47, 48, 49, 50, 51, 52, 53, 54, 55, 56, 57, 58, 59, 60, 61, 62, 63, 64, 65, 66, 67, 68, 69, 70, 71, 72, 73, 74, 75, 76, 77, 78, 79, 80, 81, 82, 83, 84, 85, 86, 87, 88, 89, 90, 91, 92, 93, 94, 95, 96, 97, 98, 99, 100, 101, 102, 103, 104, 105, 106, 107, 108, 109, 110, 111, 112, 113, 114, 115, 116, 117, 118, 119, 120, 121, 122, 123, 124, 125, 126, 127, 128, 129, 130, 131, 132, 133, 134, 135, 136, 137, 138, 139, 140, 141, 142, 143, 144, 145, 146, 147, 148, 149, 150, 151, 152, 153, 154, 155, 156, 157, 158, 159, 160, 161, 162, 163, 164, 165, 166, 167, 168, 169, 170, 171, 172, 173, 174, 175, 176, 177, 178, 179, 180, 181, 182, 183, 184, 185, 186, 187, 188, 189, 190, 191, 192, 193, 194, 195, 196, 197, 198, 199, 200, 201, 202, 203, 204, 205, 206, 207, 208, 209, 210, 211, 212, 213, 214, 215, 216, 217, 218, 219, 220, 221, 222, 223, 224, 225, 226, 227, 228, 229, 230, 231, 232, 233, 234, 235, 236, 237, 238, 239, 240, 241, 242, 243, 244, 245, 246, 247, 248, 249, 250, 251, 252, 253, 254, 255, 256, 257, 258, 259, 260, 261, 262, 263, 264, 265, 266, 267, 268, 269, 270, 271, 272, 273, 274, 275, 276, 277, 278, 279, 280, 281, 282, 283, 284, 285, 286, 287, 288, 289, 290, 291, 292, 293, 294, 295, 296, 297, 298, 299, 300, 301, 302, 303, 304, 305, 306, 307, 308, 309, 310, 311, 312, 313, 314, 315, 316, 317, 318, 319, 320, 321, 322, 323, 324, 325, 326, 327],
      "LargestImagePixelValue": [44741, 43002, 42562, 42851, 42069, 41458, 41667, 41585, 41235, 41160, 41458, 41443, 41537, 41405, 41162, 41756, 41388, 41241, 41341, 42067, 41809, 41259, 41662, 41796, 41964, 42263, 41960, 41453, 41135, 41467, 41328, 41323, 41332, 41374, 41527, 41385, 41538, 41385, 41372, 41061, 41855, 41363, 41722, 41260, 40914, 41960, 41251, 40934, 41648, 41213, 41566, 41745, 40928, 41801, 41818, 41089, 41895, 41538, 41800, 41967, 41868, 41430, 41947, 41541, 41785, 41901, 41376, 41462, 41713, 41494, 41640, 41950, 42137, 42448, 37909, 42153, 42430, 42138, 42052, 42115, 41883, 41862, 41435, 41837, 41976, 41534, 41793, 42354, 41911, 41784, 42022, 42522, 41570, 41892, 41210, 41889, 41739, 41885, 42076, 42206, 42210, 42361, 42061, 42451, 42004, 41640, 41643, 41457, 41674, 41671, 41334, 41599, 41773, 41331, 41322, 41774, 40720, 41351, 41359, 41036, 41467, 41715, 41550, 41501, 41337, 41375, 41267, 41516, 40822, 40510, 40276, 39567, 40705, 40076, 40849, 40699, 40703, 40111, 40163, 40233, 39951, 40741, 40582, 40841, 40578, 40683, 40628, 40593, 39815, 40001, 39338, 40214, 40099, 39931, 39773, 40183, 39568, 39314, 39646, 39479, 40110, 40424, 41044, 40172, 40059, 39467, 39803, 39631, 39968, 40356, 40261, 40202, 39335, 39937, 39607, 40235, 39674, 40307, 41005, 40990, 40028, 39627, 39502, 39167, 39296, 38995, 39492, 39858, 40542, 39960, 40423, 39797, 40418, 40191, 40472, 41530, 40775, 40497, 40671, 40473, 41023, 40497, 40677, 40368, 40744, 40670, 40819, 40892, 40854, 40669, 41168, 41163, 40522, 40611, 40820, 41177, 40098, 41067, 40993, 40888, 40551, 40627, 40564, 40692, 40592, 40987, 40435, 40346, 40745, 40804, 41051, 40742, 40933, 40746, 41092, 40787, 40910, 40972, 41033, 41223, 40756, 41292, 41155, 40735, 40932, 41227, 41132, 41292, 40808, 40810, 40881, 40784, 40968, 41003, 40537, 40900, 40615, 40823, 40872, 40418, 40701, 40952, 40775, 41147, 41132, 40655, 40282, 40694, 40723, 40710, 40829, 40274, 40930, 39949, 40416, 40763, 40691, 40520, 40974, 41092, 41012, 40551, 40922, 40928, 40946, 41359, 41963, 41466, 40775, 41416, 40802, 40838, 40563, 41302, 40485, 40411, 40414, 39308, 41407, 41006, 39976, 40775, 40913, 41374, 41097, 41202, 40074, 39561, 40087, 40373, 40912, 40808, 40249, 40280, 39826, 39335, 39829, 40340, 40170, 40452, 40372, 40723, 40138, 40430, 40335, 40370, 40174],
