{
  "AcquisitionMatrixPE": 104,
  "AcquisitionNumber": 1,
  "AcquisitionTime": "16:49:16.582500",
  "BandwidthPerPixelPhaseEncode": 17.17,
  "BaseResolution": 104,
  "BodyPartExamined": "BRAIN",
  "CoilCombinationMethod": "Sum of Squares",
  "ConsistencyInfo": "N4_VE11C_LATEST_20160120",
  "ConversionSoftware": "dcm2niix",
  "ConversionSoftwareVersion": "v1.0.20220505",
  "DerivedVendorReportedEchoSpacing": 0.000560011,
  "DeviceSerialNumber": "167006",
  "DwellTime": 2.1e-06,
  "EchoTime": 0.037,
  "EchoTime1": 0.037,
  "EchoTime2": 0.001,
  "EchoTrainLength": 104,
  "EffectiveEchoSpacing": 0.000560011,
  "FlipAngle": 52,
  "HeudiconvVersion": "0.5.3.post811+g6206e14",
  "ImageComments": "Unaliased MB4/PE3/LB",
  "ImageOrientationPatientDICOM": [0.999806, -0.0132644, -0.0145935, 0.00628199, 0.915667, -0.40189],
  "ImageOrientationText": "Tra>Cor(-23.7)>Sag(-1.1)",
  "ImageType": [
    "ORIGINAL",
    "PRIMARY",
    "P",
    "MB",
    "ND",
    "MOSAIC",
    "PHASE"
],
  "ImagingFrequency": 123.259,
  "InPlanePhaseEncodingDirectionDICOM": "COL",
  "InstitutionAddress": "Chemin Queen-Mary 4565,Montreal,District,CA,H3W 1W5",
  "InstitutionName": "IUGM",
  "InstitutionalDepartmentName": "Department",
  "MRAcquisitionType": "2D",
  "MagneticFieldStrength": 3,
  "Manufacturer": "Siemens",
  "ManufacturersModelName": "Prisma_fit",
  "MatrixCoilMode": "SENSE",
  "Modality": "MR",
  "MultibandAccelerationFactor": 4,
  "PartialFourier": 1,
  "PatientPosition": "HFS",
  "PercentPhaseFOV": 100,
  "PercentSampling": 100,
  "PhaseEncodingDirection": "j",
  "PhaseEncodingSteps": 104,
  "PhaseResolution": 1,
  "PixelBandwidth": 2290,
  "ProcedureStepDescription": "games^mario3",
  "ProtocolName": "func_task-mario3_run-03",
  "PulseSequenceDetails": "%CustomerSeq%\\cmrr_mbep2d_bold",
  "ReceiveCoilActiveElements": "HC1-7;NC1,2",
  "ReceiveCoilName": "HeadNeck_64",
  "ReconMatrixPE": 104,
  "RepetitionTime": 1.49,
  "SAR": 0.0803716,
  "ScanOptions": "FS",
  "ScanningSequence": "EP",
  "SequenceName": "epfid2d1_104",
  "SequenceVariant": "SK\\SS",
  "SeriesDescription": "func_task-mario3_run-03",
  "SeriesNumber": 17,
  "ShimSetting": [620, -7239, -8861, 490, 30, -273, -140, 7],
  "SliceThickness": 2,
  "SliceTiming": [0, 0.785, 0.1, 0.8825, 0.1975, 0.98, 0.295, 1.0775, 0.3925, 1.1775, 0.49, 1.275, 0.5875, 1.3725, 0.6875, 0, 0.785, 0.1, 0.8825, 0.1975, 0.98, 0.295, 1.0775, 0.3925, 1.1775, 0.49, 1.275, 0.5875, 1.3725, 0.6875, 0, 0.785, 0.1, 0.8825, 0.1975, 0.98, 0.295, 1.0775, 0.3925, 1.1775, 0.49, 1.275, 0.5875, 1.3725, 0.6875, 0, 0.785, 0.1, 0.8825, 0.1975, 0.98, 0.295, 1.0775, 0.3925, 1.1775, 0.49, 1.275, 0.5875, 1.3725, 0.6875],
  "SoftwareVersions": "syngo MR E11",
  "SpacingBetweenSlices": 2,
  "StationName": "MRC35049",
  "TaskName": "mario3",
  "TotalReadoutTime": 0.0576811,
  "TxRefAmp": 288.737,
  "WipMemBlock": "f7e27323-8fd4-43c2-8805-710abb39ee40||Sequence: R017 ve11c/master r/75a17815+; Jun 28 2022 16:32:11 by eja",
  "dcmmeta_affine": [
    [-1.9996110200881958, 0.012563979253172874, -0.03738714009523392, 106.74517059326172],
    [0.026528725400567055, 1.8313332796096802, -0.8034393787384033, -61.24659729003906],
    [-0.029186958447098732, 0.8037790060043335, 1.8311437368392944, -76.48253631591797],
    [0.0, 0.0, 0.0, 1.0]
],
  "dcmmeta_reorient_transform": [
    [0.0, -1.0, 0.0, 103.0],
    [1.0, 0.0, 0.0, 0.0],
    [0.0, 0.0, 1.0, 0.0],
    [0.0, 0.0, 0.0, 1.0]
],
  "dcmmeta_shape": [104, 104, 60, 310],
  "dcmmeta_slice_dim": 2,
  "dcmmeta_version": 0.6,
  "global": {
    "const": {
      "AcquisitionMatrix": [104, 0, 0, 104],
      "AngioFlag": "N",
      "BitsAllocated": 16,
      "BitsStored": 16,
      "BodyPartExamined": "BRAIN",
      "Columns": 832,
      "EchoNumbers": 1,
      "EchoTime": 37.0,
      "EchoTrainLength": 104,
      "FlipAngle": 52.0,
      "HighBit": 15,
      "ImageOrientationPatient": [0.99980552461831, -0.0132643627573, -0.0145934787954, 0.00628198976287, 0.91566661761341, -0.4018895146592],
      "ImagePositionPatient": [-840.47096874347, -784.32956745872, 309.50632034189],
      "ImageType": [
        "ORIGINAL",
        "PRIMARY",
        "P",
        "MB",
        "ND",
        "MOSAIC"
],
      "ImagedNucleus": "1H",
      "ImagingFrequency": 123.258806,
      "InPlanePhaseEncodingDirection": "COL",
      "LargestImagePixelValue": 4095,
      "MRAcquisitionType": "2D",
      "MagneticFieldStrength": 3.0,
      "Manufacturer": "SIEMENS",
      "ManufacturerModelName": "Prisma_fit",
      "Modality": "MR",
      "NumberOfAverages": 1.0,
      "NumberOfPhaseEncodingSteps": 104,
      "PercentPhaseFieldOfView": 100.0,
      "PercentSampling": 100.0,
      "PerformedProcedureStepStartTime": "162711.900000",
      "PhotometricInterpretation": "MONOCHROME2",
      "PixelBandwidth": 2290.0,
      "PixelRepresentation": 0,
      "PixelSpacing": [2.0, 2.0],
      "ProtocolName": "func_task-mario3_run-03",
      "RepetitionTime": 1490.0,
      "RescaleIntercept": -4096.0,
      "RescaleSlope": 2.0,
      "RescaleType": "US",
      "Rows": 832,
      "SAR": 0.08037164622039,
      "SamplesPerPixel": 1,
      "ScanOptions": "FS",
      "ScanningSequence": "EP",
      "SequenceName": "epfid2d1_104",
      "SequenceVariant": [
        "SK",
        "SS"
],
      "SeriesDescription": "func_task-mario3_run-03",
      "SeriesNumber": 17,
      "SeriesTime": "165028.532000",
      "SliceLocation": -47.416745857394,
      "SliceThickness": 2.0,
      "SmallestImagePixelValue": 0,
      "SoftwareVersions": "syngo MR E11",
      "SpacingBetweenSlices": 2.0000000494924,
      "SpecificCharacterSet": "ISO_IR 100",
      "StudyID": "1",
      "StudyTime": "162711.823000",
      "TransmitCoilName": "Body",
      "VariableFlipAngleFlag": "N",
      "WindowCenterWidthExplanation": "Algo1",
      "dBdt": 0.0},
    "slices": {}
  },
  "time": {
    "samples": {
      "AcquisitionNumber": [1, 2, 3, 4, 5, 6, 7, 8, 9, 10, 11, 12, 13, 14, 15, 16, 17, 18, 19, 20, 21, 22, 23, 24, 25, 26, 27, 28, 29, 30, 31, 32, 33, 34, 35, 36, 37, 38, 39, 40, 41, 42, 43, 44, 45, 46, 47, 48, 49, 50, 51, 52, 53, 54, 55, 56, 57, 58, 59, 60, 61, 62, 63, 64, 65, 66, 67, 68, 69, 70, 71, 72, 73, 74, 75, 76, 77, 78, 79, 80, 81, 82, 83, 84, 85, 86, 87, 88, 89, 90, 91, 92, 93, 94, 95, 96, 97, 98, 99, 100, 101, 102, 103, 104, 105, 106, 107, 108, 109, 110, 111, 112, 113, 114, 115, 116, 117, 118, 119, 120, 121, 122, 123, 124, 125, 126, 127, 128, 129, 130, 131, 132, 133, 134, 135, 136, 137, 138, 139, 140, 141, 142, 143, 144, 145, 146, 147, 148, 149, 150, 151, 152, 153, 154, 155, 156, 157, 158, 159, 160, 161, 162, 163, 164, 165, 166, 167, 168, 169, 170, 171, 172, 173, 174, 175, 176, 177, 178, 179, 180, 181, 182, 183, 184, 185, 186, 187, 188, 189, 190, 191, 192, 193, 194, 195, 196, 197, 198, 199, 200, 201, 202, 203, 204, 205, 206, 207, 208, 209, 210, 211, 212, 213, 214, 215, 216, 217, 218, 219, 220, 221, 222, 223, 224, 225, 226, 227, 228, 229, 230, 231, 232, 233, 234, 235, 236, 237, 238, 239, 240, 241, 242, 243, 244, 245, 246, 247, 248, 249, 250, 251, 252, 253, 254, 255, 256, 257, 258, 259, 260, 261, 262, 263, 264, 265, 266, 267, 268, 269, 270, 271, 272, 273, 274, 275, 276, 277, 278, 279, 280, 281, 282, 283, 284, 285, 286, 287, 288, 289, 290, 291, 292, 293, 294, 295, 296, 297, 298, 299, 300, 301, 302, 303, 304, 305, 306, 307, 308, 309, 310],
      "AcquisitionTime": ["164916.582500", "164918.072500", "164919.562500", "164921.052500", "164922.542500", "164924.032500", "164925.522500", "164927.012500", "164928.502500", "164929.992500", "164931.482500", "164932.972500", "164934.462500", "164935.952500", "164937.442500", "164938.932500", "164940.422500", "164941.912500", "164943.402500", "164944.892500", "164946.382500", "164947.872500", "164949.362500", "164950.852500", "164952.342500", "164953.832500", "164955.322500", "164956.812500", "164958.302500", "164959.792500", "165001.282500", "165002.772500", "165004.262500", "165005.752500", "165007.242500", "165008.732500", "165010.222500", "165011.712500", "165013.202500", "165014.692500", "165016.182500", "165017.672500", "165019.162500", "165020.652500", "165022.142500", "165023.632500", "165025.122500", "165026.612500", "165028.102500", "165029.592500", "165031.082500", "165032.572500", "165034.062500", "165035.552500", "165037.042500", "165038.532500", "165040.022500", "165041.512500", "165043.002500", "165044.492500", "165045.982500", "165047.472500", "165048.962500", "165050.452500", "165051.942500", "165053.432500", "165054.922500", "165056.412500", "165057.902500", "165059.392500", "165100.882500", "165102.372500", "165103.862500", "165105.352500", "165106.842500", "165108.332500", "165109.822500", "165111.312500", "165112.802500", "165114.292500", "165115.782500", "165117.272500", "165118.762500", "165120.252500", "165121.742500", "165123.232500", "165124.722500", "165126.212500", "165127.702500", "165129.192500", "165130.682500", "165132.172500", "165133.662500", "165135.152500", "165136.642500", "165138.132500", "165139.622500", "165141.112500", "165142.602500", "165144.092500", "165145.582500", "165147.072500", "165148.562500", "165150.052500", "165151.542500", "165153.032500", "165154.522500", "165156.012500", "165157.502500", "165158.992500", "165200.482500", "165201.972500", "165203.462500", "165204.952500", "165206.442500", "165207.932500", "165209.422500", "165210.912500", "165212.402500", "165213.892500", "165215.382500", "165216.872500", "165218.362500", "165219.852500", "165221.342500", "165222.832500", "165224.322500", "165225.812500", "165227.302500", "165228.792500", "165230.282500", "165231.772500", "165233.262500", "165234.752500", "165236.242500", "165237.732500", "165239.222500", "165240.712500", "165242.202500", "165243.692500", "165245.182500", "165246.672500", "165248.162500", "165249.652500", "165251.142500", "165252.632500", "165254.122500", "165255.612500", "165257.102500", "165258.592500", "165300.082500", "165301.572500", "165303.062500", "165304.552500", "165306.042500", "165307.532500", "165309.022500", "165310.512500", "165312.002500", "165313.492500", "165314.982500", "165316.472500", "165317.962500", "165319.452500", "165320.942500", "165322.432500", "165323.922500", "165325.412500", "165326.902500", "165328.392500", "165329.882500", "165331.372500", "165332.862500", "165334.352500", "165335.842500", "165337.332500", "165338.822500", "165340.312500", "165341.802500", "165343.292500", "165344.782500", "165346.272500", "165347.762500", "165349.252500", "165350.742500", "165352.232500", "165353.722500", "165355.212500", "165356.702500", "165358.192500", "165359.682500", "165401.172500", "165402.662500", "165404.152500", "165405.642500", "165407.132500", "165408.622500", "165410.112500", "165411.602500", "165413.092500", "165414.582500", "165416.072500", "165417.562500", "165419.052500", "165420.542500", "165422.032500", "165423.522500", "165425.012500", "165426.502500", "165427.992500", "165429.482500", "165430.972500", "165432.462500", "165433.952500", "165435.442500", "165436.932500", "165438.422500", "165439.912500", "165441.402500", "165442.892500", "165444.382500", "165445.872500", "165447.362500", "165448.852500", "165450.342500", "165451.832500", "165453.322500", "165454.812500", "165456.302500", "165457.792500", "165459.282500", "165500.772500", "165502.262500", "165503.752500", "165505.242500", "165506.732500", "165508.222500", "165509.712500", "165511.202500", "165512.692500", "165514.182500", "165515.672500", "165517.162500", "165518.652500", "165520.142500", "165521.632500", "165523.122500", "165524.612500", "165526.102500", "165527.592500", "165529.082500", "165530.572500", "165532.062500", "165533.552500", "165535.042500", "165536.532500", "165538.022500", "165539.512500", "165541.002500", "165542.492500", "165543.982500", "165545.472500", "165546.962500", "165548.452500", "165549.942500", "165551.432500", "165552.922500", "165554.412500", "165555.902500", "165557.392500", "165558.882500", "165600.372500", "165601.862500", "165603.352500", "165604.842500", "165606.332500", "165607.822500", "165609.312500", "165610.802500", "165612.292500", "165613.782500", "165615.272500", "165616.762500", "165618.252500", "165619.742500", "165621.232500", "165622.722500", "165624.212500", "165625.702500", "165627.192500", "165628.682500", "165630.172500", "165631.662500", "165633.152500", "165634.642500", "165636.132500", "165637.622500", "165639.112500", "165640.602500", "165642.092500", "165643.582500", "165645.072500", "165646.562500", "165648.052500", "165649.542500", "165651.032500", "165652.522500", "165654.012500", "165655.502500", "165656.992500"],
      "ContentTime": ["165028.534000", "165028.537000", "165028.540000", "165028.542000", "165028.545000", "165028.547000", "165028.550000", "165028.552000", "165028.555000", "165028.557000", "165028.560000", "165028.562000", "165028.567000", "165028.569000", "165028.572000", "165028.574000", "165028.577000", "165028.579000", "165028.582000", "165028.585000", "165028.587000", "165028.590000", "165048.498000", "165048.501000", "165048.513000", "165048.515000", "165048.518000", "165048.520000", "165048.523000", "165048.525000", "165048.528000", "165048.530000", "165048.533000", "165048.535000", "165048.538000", "165048.540000", "165048.543000", "165048.546000", "165048.548000", "165048.551000", "165048.553000", "165048.556000", "165108.497000", "165108.499000", "165108.502000", "165108.504000", "165108.507000", "165108.509000", "165108.512000", "165108.515000", "165108.517000", "165108.520000", "165108.522000", "165108.525000", "165108.527000", "165108.530000", "165108.532000", "165108.535000", "165108.537000", "165108.540000", "165108.542000", "165108.545000", "165128.507000", "165128.510000", "165128.513000", "165128.515000", "165128.518000", "165128.520000", "165128.523000", "165128.525000", "165128.528000", "165128.530000", "165128.533000", "165128.536000", "165128.538000", "165128.541000", "165128.543000", "165128.546000", "165128.548000", "165128.551000", "165128.554000", "165128.556000", "165208.567000", "165208.570000", "165208.573000", "165208.575000", "165208.578000", "165208.580000", "165208.583000", "165208.586000", "165208.588000", "165208.591000", "165208.593000", "165208.596000", "165208.598000", "165208.601000", "165208.603000", "165208.606000", "165208.609000", "165208.611000", "165208.614000", "165208.616000", "165208.619000", "165208.621000", "165208.624000", "165208.627000", "165208.629000", "165208.632000", "165208.635000", "165208.637000", "165208.640000", "165208.642000", "165208.645000", "165208.647000", "165248.529000", "165248.532000", "165248.535000", "165248.537000", "165248.540000", "165248.542000", "165248.545000", "165248.547000", "165248.550000", "165248.553000", "165248.555000", "165248.558000", "165248.560000", "165248.563000", "165248.565000", "165248.568000", "165248.570000", "165248.573000", "165248.576000", "165248.578000", "165248.581000", "165248.583000", "165248.586000", "165248.588000", "165248.591000", "165248.593000", "165248.596000", "165328.537000", "165328.540000", "165328.542000", "165328.545000", "165328.548000", "165328.550000", "165328.553000", "165328.555000", "165328.558000", "165328.560000", "165328.563000", "165328.565000", "165328.568000", "165328.571000", "165328.573000", "165328.576000", "165328.585000", "165328.588000", "165328.590000", "165328.593000", "165328.595000", "165328.598000", "165328.601000", "165328.603000", "165328.606000", "165328.608000", "165328.611000", "165408.527000", "165408.530000", "165408.533000", "165408.535000", "165408.538000", "165408.540000", "165408.543000", "165408.546000", "165408.548000", "165408.551000", "165408.553000", "165408.556000", "165408.558000", "165408.561000", "165408.564000", "165408.566000", "165408.569000", "165408.576000", "165408.579000", "165408.581000", "165408.599000", "165408.602000", "165408.608000", "165408.611000", "165408.614000", "165408.616000", "165408.619000", "165448.530000", "165448.532000", "165448.535000", "165448.537000", "165448.540000", "165448.542000", "165448.545000", "165448.548000", "165448.550000", "165448.553000", "165448.555000", "165448.558000", "165448.560000", "165448.563000", "165448.565000", "165448.568000", "165448.570000", "165448.573000", "165448.575000", "165448.578000", "165448.580000", "165448.583000", "165448.586000", "165448.589000", "165448.591000", "165448.594000", "165448.596000", "165528.960000", "165528.963000", "165528.966000", "165528.968000", "165528.971000", "165528.973000", "165528.976000", "165528.979000", "165528.981000", "165528.984000", "165528.986000", "165528.989000", "165528.991000", "165528.994000", "165528.996000", "165529.000000", "165529.003000", "165529.005000", "165529.008000", "165529.010000", "165529.013000", "165529.016000", "165529.018000", "165529.021000", "165529.023000", "165529.026000", "165529.028000", "165608.523000", "165608.525000", "165608.528000", "165608.531000", "165608.533000", "165608.536000", "165608.538000", "165608.541000", "165608.552000", "165608.559000", "165608.561000", "165608.564000", "165608.566000", "165608.569000", "165608.572000", "165608.574000", "165608.577000", "165608.580000", "165608.582000", "165608.585000", "165608.587000", "165608.590000", "165608.593000", "165608.595000", "165608.598000", "165608.600000", "165648.565000", "165648.568000", "165648.571000", "165648.573000", "165648.576000", "165648.578000", "165648.581000", "165648.584000", "165648.586000", "165648.589000", "165648.591000", "165648.594000", "165648.596000", "165648.599000", "165648.602000", "165648.604000", "165648.607000", "165648.609000", "165648.612000", "165648.614000", "165648.617000", "165648.620000", "165648.622000", "165648.625000", "165648.627000", "165648.630000", "165648.633000", "165700.097000", "165700.100000", "165700.103000", "165700.105000", "165700.108000", "165700.110000", "165700.113000", "165700.115000"],
      "InstanceCreationTime": ["165028.534000", "165028.537000", "165028.540000", "165028.542000", "165028.545000", "165028.547000", "165028.550000", "165028.552000", "165028.555000", "165028.557000", "165028.560000", "165028.562000", "165028.567000", "165028.569000", "165028.572000", "165028.574000", "165028.577000", "165028.579000", "165028.582000", "165028.585000", "165028.587000", "165028.590000", "165048.498000", "165048.501000", "165048.513000", "165048.515000", "165048.518000", "165048.520000", "165048.523000", "165048.525000", "165048.528000", "165048.530000", "165048.533000", "165048.535000", "165048.538000", "165048.540000", "165048.543000", "165048.546000", "165048.548000", "165048.551000", "165048.553000", "165048.556000", "165108.497000", "165108.499000", "165108.502000", "165108.504000", "165108.507000", "165108.509000", "165108.512000", "165108.515000", "165108.517000", "165108.520000", "165108.522000", "165108.525000", "165108.527000", "165108.530000", "165108.532000", "165108.535000", "165108.537000", "165108.540000", "165108.542000", "165108.545000", "165128.507000", "165128.510000", "165128.513000", "165128.515000", "165128.518000", "165128.520000", "165128.523000", "165128.525000", "165128.528000", "165128.530000", "165128.533000", "165128.536000", "165128.538000", "165128.541000", "165128.543000", "165128.546000", "165128.548000", "165128.551000", "165128.554000", "165128.556000", "165208.567000", "165208.570000", "165208.573000", "165208.575000", "165208.578000", "165208.580000", "165208.583000", "165208.586000", "165208.588000", "165208.591000", "165208.593000", "165208.596000", "165208.598000", "165208.601000", "165208.603000", "165208.606000", "165208.609000", "165208.611000", "165208.614000", "165208.616000", "165208.619000", "165208.621000", "165208.624000", "165208.627000", "165208.629000", "165208.632000", "165208.635000", "165208.637000", "165208.640000", "165208.642000", "165208.645000", "165208.647000", "165248.529000", "165248.532000", "165248.535000", "165248.537000", "165248.540000", "165248.542000", "165248.545000", "165248.547000", "165248.550000", "165248.553000", "165248.555000", "165248.558000", "165248.560000", "165248.563000", "165248.565000", "165248.568000", "165248.570000", "165248.573000", "165248.576000", "165248.578000", "165248.581000", "165248.583000", "165248.586000", "165248.588000", "165248.591000", "165248.593000", "165248.596000", "165328.537000", "165328.540000", "165328.542000", "165328.545000", "165328.548000", "165328.550000", "165328.553000", "165328.555000", "165328.558000", "165328.560000", "165328.563000", "165328.565000", "165328.568000", "165328.571000", "165328.573000", "165328.576000", "165328.585000", "165328.588000", "165328.590000", "165328.593000", "165328.595000", "165328.598000", "165328.601000", "165328.603000", "165328.606000", "165328.608000", "165328.611000", "165408.527000", "165408.530000", "165408.533000", "165408.535000", "165408.538000", "165408.540000", "165408.543000", "165408.546000", "165408.548000", "165408.551000", "165408.553000", "165408.556000", "165408.558000", "165408.561000", "165408.564000", "165408.566000", "165408.569000", "165408.576000", "165408.579000", "165408.581000", "165408.599000", "165408.602000", "165408.608000", "165408.611000", "165408.614000", "165408.616000", "165408.619000", "165448.530000", "165448.532000", "165448.535000", "165448.537000", "165448.540000", "165448.542000", "165448.545000", "165448.548000", "165448.550000", "165448.553000", "165448.555000", "165448.558000", "165448.560000", "165448.563000", "165448.565000", "165448.568000", "165448.570000", "165448.573000", "165448.575000", "165448.578000", "165448.580000", "165448.583000", "165448.586000", "165448.589000", "165448.591000", "165448.594000", "165448.596000", "165528.960000", "165528.963000", "165528.966000", "165528.968000", "165528.971000", "165528.973000", "165528.976000", "165528.979000", "165528.981000", "165528.984000", "165528.986000", "165528.989000", "165528.991000", "165528.994000", "165528.996000", "165529.000000", "165529.003000", "165529.005000", "165529.008000", "165529.010000", "165529.013000", "165529.016000", "165529.018000", "165529.021000", "165529.023000", "165529.026000", "165529.028000", "165608.523000", "165608.525000", "165608.528000", "165608.531000", "165608.533000", "165608.536000", "165608.538000", "165608.541000", "165608.552000", "165608.559000", "165608.561000", "165608.564000", "165608.566000", "165608.569000", "165608.572000", "165608.574000", "165608.577000", "165608.580000", "165608.582000", "165608.585000", "165608.587000", "165608.590000", "165608.593000", "165608.595000", "165608.598000", "165608.600000", "165648.565000", "165648.568000", "165648.571000", "165648.573000", "165648.576000", "165648.578000", "165648.581000", "165648.584000", "165648.586000", "165648.589000", "165648.591000", "165648.594000", "165648.596000", "165648.599000", "165648.602000", "165648.604000", "165648.607000", "165648.609000", "165648.612000", "165648.614000", "165648.617000", "165648.620000", "165648.622000", "165648.625000", "165648.627000", "165648.630000", "165648.633000", "165700.097000", "165700.100000", "165700.103000", "165700.105000", "165700.108000", "165700.110000", "165700.113000", "165700.115000"],
      "InstanceNumber": [1, 2, 3, 4, 5, 6, 7, 8, 9, 10, 11, 12, 13, 14, 15, 16, 17, 18, 19, 20, 21, 22, 23, 24, 25, 26, 27, 28, 29, 30, 31, 32, 33, 34, 35, 36, 37, 38, 39, 40, 41, 42, 43, 44, 45, 46, 47, 48, 49, 50, 51, 52, 53, 54, 55, 56, 57, 58, 59, 60, 61, 62, 63, 64, 65, 66, 67, 68, 69, 70, 71, 72, 73, 74, 75, 76, 77, 78, 79, 80, 81, 82, 83, 84, 85, 86, 87, 88, 89, 90, 91, 92, 93, 94, 95, 96, 97, 98, 99, 100, 101, 102, 103, 104, 105, 106, 107, 108, 109, 110, 111, 112, 113, 114, 115, 116, 117, 118, 119, 120, 121, 122, 123, 124, 125, 126, 127, 128, 129, 130, 131, 132, 133, 134, 135, 136, 137, 138, 139, 140, 141, 142, 143, 144, 145, 146, 147, 148, 149, 150, 151, 152, 153, 154, 155, 156, 157, 158, 159, 160, 161, 162, 163, 164, 165, 166, 167, 168, 169, 170, 171, 172, 173, 174, 175, 176, 177, 178, 179, 180, 181, 182, 183, 184, 185, 186, 187, 188, 189, 190, 191, 192, 193, 194, 195, 196, 197, 198, 199, 200, 201, 202, 203, 204, 205, 206, 207, 208, 209, 210, 211, 212, 213, 214, 215, 216, 217, 218, 219, 220, 221, 222, 223, 224, 225, 226, 227, 228, 229, 230, 231, 232, 233, 234, 235, 236, 237, 238, 239, 240, 241, 242, 243, 244, 245, 246, 247, 248, 249, 250, 251, 252, 253, 254, 255, 256, 257, 258, 259, 260, 261, 262, 263, 264, 265, 266, 267, 268, 269, 270, 271, 272, 273, 274, 275, 276, 277, 278, 279, 280, 281, 282, 283, 284, 285, 286, 287, 288, 289, 290, 291, 292, 293, 294, 295, 296, 297, 298, 299, 300, 301, 302, 303, 304, 305, 306, 307, 308, 309, 310],
      "WindowCenter": [4886.0, 4888.0, 4888.0, 4878.0, 4888.0, 4886.0, 4886.0, 4884.0, 4882.0, 4884.0, 4886.0, 4888.0, 4890.0, 4886.0, 4884.0, 4888.0, 4884.0, 4886.0, 4884.0, 4888.0, 4884.0, 4886.0, 4884.0, 4884.0, 4836.0, 4834.0, 4884.0, 4828.0, 4802.0, 4804.0, 4856.0, 4884.0, 4886.0, 4886.0, 4876.0, 4882.0, 4888.0, 4888.0, 4886.0, 4860.0, 4884.0, 4856.0, 4858.0, 4886.0, 4886.0, 4892.0, 4876.0, 4888.0, 4890.0, 4888.0, 4840.0, 4882.0, 4860.0, 4826.0, 4830.0, 4830.0, 4862.0, 4890.0, 4908.0, 4880.0, 4872.0, 4888.0, 4888.0, 4860.0, 4834.0, 4888.0, 4882.0, 4890.0, 4858.0, 4858.0, 4860.0, 4884.0, 4886.0, 4890.0, 4894.0, 4890.0, 4890.0, 4884.0, 4886.0, 4886.0, 4886.0, 4860.0, 4884.0, 4860.0, 4882.0, 4888.0, 4888.0, 4888.0, 4886.0, 4888.0, 4888.0, 4888.0, 4886.0, 4886.0, 4874.0, 4838.0, 4878.0, 4854.0, 4828.0, 4830.0, 4862.0, 4886.0, 4884.0, 4884.0, 4910.0, 4910.0, 4890.0, 4864.0, 4862.0, 4860.0, 4878.0, 4872.0, 4882.0, 4832.0, 4832.0, 4858.0, 4864.0, 4888.0, 4888.0, 4888.0, 4888.0, 4886.0, 4882.0, 4888.0, 4860.0, 4858.0, 4858.0, 4860.0, 4862.0, 4886.0, 4914.0, 4872.0, 4882.0, 4890.0, 4856.0, 4858.0, 4832.0, 4862.0, 4884.0, 4892.0, 4890.0, 4892.0, 4890.0, 4886.0, 4888.0, 4864.0, 4862.0, 4862.0, 4862.0, 4890.0, 4888.0, 4894.0, 4888.0, 4892.0, 4912.0, 4892.0, 4864.0, 4864.0, 4886.0, 4866.0, 4888.0, 4890.0, 4892.0, 4888.0, 4890.0, 4888.0, 4888.0, 4890.0, 4914.0, 4864.0, 4890.0, 4884.0, 4864.0, 4888.0, 4888.0, 4892.0, 4894.0, 4888.0, 4890.0, 4864.0, 4888.0, 4888.0, 4886.0, 4890.0, 4890.0, 4912.0, 4886.0, 4890.0, 4890.0, 4886.0, 4888.0, 4886.0, 4884.0, 4886.0, 4886.0, 4886.0, 4884.0, 4886.0, 4862.0, 4864.0, 4886.0, 4860.0, 4890.0, 4888.0, 4888.0, 4884.0, 4864.0, 4888.0, 4888.0, 4862.0, 4886.0, 4842.0, 4838.0, 4884.0, 4828.0, 4804.0, 4828.0, 4860.0, 4886.0, 4886.0, 4886.0, 4874.0, 4836.0, 4872.0, 4862.0, 4804.0, 4800.0, 4802.0, 4828.0, 4886.0, 4890.0, 4882.0, 4868.0, 4858.0, 4910.0, 4862.0, 4828.0, 4806.0, 4828.0, 4884.0, 4838.0, 4878.0, 4888.0, 4886.0, 4864.0, 4858.0, 4862.0, 4862.0, 4888.0, 4892.0, 4890.0, 4890.0, 4890.0, 4892.0, 4888.0, 4890.0, 4860.0, 4862.0, 4890.0, 4864.0, 4888.0, 4886.0, 4888.0, 4864.0, 4890.0, 4892.0, 4914.0, 4890.0, 4890.0, 4890.0, 4888.0, 4864.0, 4886.0, 4890.0, 4890.0, 4890.0, 4886.0, 4888.0, 4886.0, 4890.0, 4908.0, 4888.0, 4860.0, 4860.0, 4860.0, 4864.0, 4864.0, 4890.0, 4882.0, 4888.0, 4886.0, 4872.0, 4836.0, 4890.0, 4828.0, 4804.0, 4800.0, 4806.0, 4860.0, 4890.0, 4866.0, 4836.0, 4866.0, 4890.0, 4834.0, 4804.0, 4806.0, 4828.0, 4860.0, 4888.0],
