{
  "AcquisitionMatrixPE": 104,
  "AcquisitionNumber": 1,
  "AcquisitionTime": "16:30:12.097500",
  "BandwidthPerPixelPhaseEncode": 17.17,
  "BaseResolution": 104,
  "BodyPartExamined": "BRAIN",
  "CoilCombinationMethod": "Sum of Squares",
  "ConsistencyInfo": "N4_VE11C_LATEST_20160120",
  "ConversionSoftware": "dcm2niix",
  "ConversionSoftwareVersion": "v1.0.20220505",
  "DerivedVendorReportedEchoSpacing": 0.000560011,
  "DeviceSerialNumber": "167006",
  "DwellTime": 2.1e-06,
  "EchoTime": 0.037,
  "EchoTrainLength": 104,
  "EffectiveEchoSpacing": 0.000560011,
  "FlipAngle": 52,
  "HeudiconvVersion": "0.5.3.post811+g6206e14",
  "ImageComments": "Unaliased MB4/PE3/LB",
  "ImageOrientationPatientDICOM": [0.999806, -0.0132644, -0.0145935, 0.00628199, 0.915667, -0.40189],
  "ImageOrientationText": "Tra>Cor(-23.7)>Sag(-1.1)",
  "ImageType": [
    "ORIGINAL",
    "PRIMARY",
    "M",
    "MB",
    "ND",
    "MOSAIC"
],
  "ImagingFrequency": 123.259,
  "InPlanePhaseEncodingDirectionDICOM": "COL",
  "InstitutionAddress": "Chemin Queen-Mary 4565,Montreal,District,CA,H3W 1W5",
  "InstitutionName": "IUGM",
  "InstitutionalDepartmentName": "Department",
  "MRAcquisitionType": "2D",
  "MagneticFieldStrength": 3,
  "Manufacturer": "Siemens",
  "ManufacturersModelName": "Prisma_fit",
  "MatrixCoilMode": "SENSE",
  "Modality": "MR",
  "MultibandAccelerationFactor": 4,
  "PartialFourier": 1,
  "PatientPosition": "HFS",
  "PercentPhaseFOV": 100,
  "PercentSampling": 100,
  "PhaseEncodingDirection": "j",
  "PhaseEncodingSteps": 104,
  "PhaseResolution": 1,
  "PixelBandwidth": 2290,
  "ProcedureStepDescription": "games^mario3",
  "ProtocolName": "func_task-mario3_run-01",
  "PulseSequenceDetails": "%CustomerSeq%\\cmrr_mbep2d_bold",
  "ReceiveCoilActiveElements": "HC1-7;NC1,2",
  "ReceiveCoilName": "HeadNeck_64",
  "ReconMatrixPE": 104,
  "RepetitionTime": 1.49,
  "SAR": 0.0803716,
  "ScanOptions": "FS",
  "ScanningSequence": "EP",
  "SequenceName": "epfid2d1_104",
  "SequenceVariant": "SK\\SS",
  "SeriesDescription": "func_task-mario3_run-01",
  "SeriesNumber": 10,
  "ShimSetting": [620, -7239, -8861, 490, 30, -273, -140, 7],
  "SliceThickness": 2,
  "SliceTiming": [0, 0.7825, 0.0975, 0.8825, 0.195, 0.98, 0.2925, 1.0775, 0.3925, 1.175, 0.49, 1.2725, 0.5875, 1.3725, 0.685, 0, 0.7825, 0.0975, 0.8825, 0.195, 0.98, 0.2925, 1.0775, 0.3925, 1.175, 0.49, 1.2725, 0.5875, 1.3725, 0.685, 0, 0.7825, 0.0975, 0.8825, 0.195, 0.98, 0.2925, 1.0775, 0.3925, 1.175, 0.49, 1.2725, 0.5875, 1.3725, 0.685, 0, 0.7825, 0.0975, 0.8825, 0.195, 0.98, 0.2925, 1.0775, 0.3925, 1.175, 0.49, 1.2725, 0.5875, 1.3725, 0.685],
  "SoftwareVersions": "syngo MR E11",
  "SpacingBetweenSlices": 2,
  "StationName": "MRC35049",
  "TaskName": "mario3",
  "TotalReadoutTime": 0.0576811,
  "TxRefAmp": 288.737,
  "WipMemBlock": "57a3d08d-0bf2-4407-91b3-1154ec9120cd||Sequence: R017 ve11c/master r/75a17815+; Jun 28 2022 16:32:11 by eja",
  "dcmmeta_affine": [
    [-1.9996110200881958, 0.012563979253172874, -0.03738714009523392, 106.74517059326172],
    [0.026528725400567055, 1.8313332796096802, -0.8034393787384033, -61.24659729003906],
    [-0.029186958447098732, 0.8037790060043335, 1.8311437368392944, -76.48253631591797],
    [0.0, 0.0, 0.0, 1.0]
],
  "dcmmeta_reorient_transform": [
    [0.0, -1.0, 0.0, 103.0],
    [1.0, 0.0, 0.0, 0.0],
    [0.0, 0.0, 1.0, 0.0],
    [0.0, 0.0, 0.0, 1.0]
],
  "dcmmeta_shape": [104, 104, 60, 351],
  "dcmmeta_slice_dim": 2,
  "dcmmeta_version": 0.6,
  "global": {
    "const": {
      "AcquisitionMatrix": [104, 0, 0, 104],
      "AngioFlag": "N",
      "BitsAllocated": 16,
      "BitsStored": 16,
      "BodyPartExamined": "BRAIN",
      "Columns": 832,
      "EchoNumbers": 1,
      "EchoTime": 37.0,
      "EchoTrainLength": 104,
      "FlipAngle": 52.0,
      "HighBit": 15,
      "ImageOrientationPatient": [0.99980552461831, -0.0132643627573, -0.0145934787954, 0.00628198976287, 0.91566661761341, -0.4018895146592],
      "ImagePositionPatient": [-840.47096874347, -784.32956745872, 309.50632034189],
      "ImageType": [
        "ORIGINAL",
        "PRIMARY",
        "M",
        "MB",
        "ND",
        "MOSAIC"
],
      "ImagedNucleus": "1H",
      "ImagingFrequency": 123.258796,
      "InPlanePhaseEncodingDirection": "COL",
      "MRAcquisitionType": "2D",
      "MagneticFieldStrength": 3.0,
      "Manufacturer": "SIEMENS",
      "ManufacturerModelName": "Prisma_fit",
      "Modality": "MR",
      "NumberOfAverages": 1.0,
      "NumberOfPhaseEncodingSteps": 104,
      "PercentPhaseFieldOfView": 100.0,
      "PercentSampling": 100.0,
      "PerformedProcedureStepStartTime": "162711.900000",
      "PhotometricInterpretation": "MONOCHROME2",
      "PixelBandwidth": 2290.0,
      "PixelRepresentation": 0,
      "PixelSpacing": [2.0, 2.0],
      "ProtocolName": "func_task-mario3_run-01",
      "RepetitionTime": 1490.0,
      "Rows": 832,
      "SAR": 0.08037164622039,
      "SamplesPerPixel": 1,
      "ScanOptions": "FS",
      "ScanningSequence": "EP",
      "SequenceName": "epfid2d1_104",
      "SequenceVariant": [
        "SK",
        "SS"
],
      "SeriesDescription": "func_task-mario3_run-01",
      "SeriesNumber": 10,
      "SeriesTime": "163115.469000",
      "SliceLocation": -47.416745857394,
      "SliceThickness": 2.0,
      "SmallestImagePixelValue": 0,
      "SoftwareVersions": "syngo MR E11",
      "SpacingBetweenSlices": 2.0000000494924,
      "SpecificCharacterSet": "ISO_IR 100",
      "StudyID": "1",
      "StudyTime": "162711.823000",
      "TransmitCoilName": "Body",
      "VariableFlipAngleFlag": "N",
      "WindowCenterWidthExplanation": "Algo1",
      "dBdt": 0.0},
    "slices": {}
  },
  "time": {
    "samples": {
      "AcquisitionNumber": [1, 2, 3, 4, 5, 6, 7, 8, 9, 10, 11, 12, 13, 14, 15, 16, 17, 18, 19, 20, 21, 22, 23, 24, 25, 26, 27, 28, 29, 30, 31, 32, 33, 34, 35, 36, 37, 38, 39, 40, 41, 42, 43, 44, 45, 46, 47, 48, 49, 50, 51, 52, 53, 54, 55, 56, 57, 58, 59, 60, 61, 62, 63, 64, 65, 66, 67, 68, 69, 70, 71, 72, 73, 74, 75, 76, 77, 78, 79, 80, 81, 82, 83, 84, 85, 86, 87, 88, 89, 90, 91, 92, 93, 94, 95, 96, 97, 98, 99, 100, 101, 102, 103, 104, 105, 106, 107, 108, 109, 110, 111, 112, 113, 114, 115, 116, 117, 118, 119, 120, 121, 122, 123, 124, 125, 126, 127, 128, 129, 130, 131, 132, 133, 134, 135, 136, 137, 138, 139, 140, 141, 142, 143, 144, 145, 146, 147, 148, 149, 150, 151, 152, 153, 154, 155, 156, 157, 158, 159, 160, 161, 162, 163, 164, 165, 166, 167, 168, 169, 170, 171, 172, 173, 174, 175, 176, 177, 178, 179, 180, 181, 182, 183, 184, 185, 186, 187, 188, 189, 190, 191, 192, 193, 194, 195, 196, 197, 198, 199, 200, 201, 202, 203, 204, 205, 206, 207, 208, 209, 210, 211, 212, 213, 214, 215, 216, 217, 218, 219, 220, 221, 222, 223, 224, 225, 226, 227, 228, 229, 230, 231, 232, 233, 234, 235, 236, 237, 238, 239, 240, 241, 242, 243, 244, 245, 246, 247, 248, 249, 250, 251, 252, 253, 254, 255, 256, 257, 258, 259, 260, 261, 262, 263, 264, 265, 266, 267, 268, 269, 270, 271, 272, 273, 274, 275, 276, 277, 278, 279, 280, 281, 282, 283, 284, 285, 286, 287, 288, 289, 290, 291, 292, 293, 294, 295, 296, 297, 298, 299, 300, 301, 302, 303, 304, 305, 306, 307, 308, 309, 310, 311, 312, 313, 314, 315, 316, 317, 318, 319, 320, 321, 322, 323, 324, 325, 326, 327, 328, 329, 330, 331, 332, 333, 334, 335, 336, 337, 338, 339, 340, 341, 342, 343, 344, 345, 346, 347, 348, 349, 350, 351],
      "AcquisitionTime": ["163012.097500", "163013.587500", "163015.077500", "163016.567500", "163018.057500", "163019.547500", "163021.037500", "163022.527500", "163024.017500", "163025.507500", "163026.997500", "163028.487500", "163029.977500", "163031.467500", "163032.957500", "163034.447500", "163035.937500", "163037.427500", "163038.917500", "163040.407500", "163041.897500", "163043.387500", "163044.877500", "163046.367500", "163047.857500", "163049.347500", "163050.837500", "163052.327500", "163053.817500", "163055.307500", "163056.797500", "163058.287500", "163059.777500", "163101.267500", "163102.757500", "163104.247500", "163105.737500", "163107.227500", "163108.717500", "163110.207500", "163111.697500", "163113.187500", "163114.677500", "163116.167500", "163117.657500", "163119.147500", "163120.637500", "163122.127500", "163123.617500", "163125.107500", "163126.597500", "163128.087500", "163129.577500", "163131.067500", "163132.557500", "163134.047500", "163135.537500", "163137.027500", "163138.517500", "163140.007500", "163141.497500", "163142.987500", "163144.477500", "163145.967500", "163147.457500", "163148.947500", "163150.437500", "163151.927500", "163153.417500", "163154.907500", "163156.397500", "163157.887500", "163159.377500", "163200.867500", "163202.357500", "163203.847500", "163205.337500", "163206.827500", "163208.317500", "163209.807500", "163211.297500", "163212.787500", "163214.277500", "163215.767500", "163217.257500", "163218.747500", "163220.237500", "163221.727500", "163223.217500", "163224.707500", "163226.197500", "163227.687500", "163229.177500", "163230.667500", "163232.157500", "163233.647500", "163235.137500", "163236.627500", "163238.117500", "163239.607500", "163241.097500", "163242.587500", "163244.077500", "163245.567500", "163247.057500", "163248.547500", "163250.037500", "163251.527500", "163253.017500", "163254.507500", "163255.997500", "163257.487500", "163258.977500", "163300.467500", "163301.957500", "163303.447500", "163304.937500", "163306.427500", "163307.917500", "163309.407500", "163310.897500", "163312.387500", "163313.877500", "163315.367500", "163316.857500", "163318.347500", "163319.837500", "163321.327500", "163322.817500", "163324.307500", "163325.797500", "163327.287500", "163328.777500", "163330.267500", "163331.757500", "163333.247500", "163334.737500", "163336.227500", "163337.717500", "163339.207500", "163340.697500", "163342.187500", "163343.677500", "163345.167500", "163346.657500", "163348.147500", "163349.637500", "163351.127500", "163352.617500", "163354.107500", "163355.597500", "163357.087500", "163358.577500", "163400.067500", "163401.557500", "163403.047500", "163404.537500", "163406.027500", "163407.517500", "163409.007500", "163410.497500", "163411.987500", "163413.477500", "163414.967500", "163416.457500", "163417.947500", "163419.437500", "163420.927500", "163422.417500", "163423.907500", "163425.397500", "163426.887500", "163428.377500", "163429.867500", "163431.357500", "163432.847500", "163434.337500", "163435.827500", "163437.317500", "163438.807500", "163440.297500", "163441.787500", "163443.277500", "163444.767500", "163446.257500", "163447.747500", "163449.237500", "163450.727500", "163452.217500", "163453.707500", "163455.197500", "163456.687500", "163458.177500", "163459.667500", "163501.157500", "163502.647500", "163504.137500", "163505.627500", "163507.117500", "163508.607500", "163510.097500", "163511.587500", "163513.077500", "163514.567500", "163516.057500", "163517.547500", "163519.037500", "163520.527500", "163522.017500", "163523.507500", "163524.997500", "163526.487500", "163527.977500", "163529.467500", "163530.957500", "163532.447500", "163533.937500", "163535.427500", "163536.917500", "163538.407500", "163539.897500", "163541.387500", "163542.877500", "163544.367500", "163545.857500", "163547.347500", "163548.837500", "163550.327500", "163551.817500", "163553.307500", "163554.797500", "163556.287500", "163557.777500", "163559.267500", "163600.757500", "163602.247500", "163603.737500", "163605.227500", "163606.717500", "163608.207500", "163609.697500", "163611.187500", "163612.677500", "163614.167500", "163615.657500", "163617.147500", "163618.637500", "163620.127500", "163621.617500", "163623.107500", "163624.597500", "163626.087500", "163627.577500", "163629.067500", "163630.557500", "163632.047500", "163633.537500", "163635.027500", "163636.517500", "163638.007500", "163639.497500", "163640.987500", "163642.477500", "163643.967500", "163645.457500", "163646.947500", "163648.437500", "163649.927500", "163651.417500", "163652.907500", "163654.397500", "163655.887500", "163657.377500", "163658.867500", "163700.357500", "163701.847500", "163703.337500", "163704.827500", "163706.317500", "163707.807500", "163709.297500", "163710.787500", "163712.277500", "163713.767500", "163715.257500", "163716.747500", "163718.237500", "163719.727500", "163721.217500", "163722.707500", "163724.197500", "163725.687500", "163727.177500", "163728.667500", "163730.157500", "163731.647500", "163733.137500", "163734.627500", "163736.117500", "163737.607500", "163739.097500", "163740.587500", "163742.077500", "163743.567500", "163745.057500", "163746.547500", "163748.037500", "163749.527500", "163751.017500", "163752.507500", "163753.997500", "163755.487500", "163756.977500", "163758.467500", "163759.957500", "163801.447500", "163802.937500", "163804.427500", "163805.917500", "163807.407500", "163808.897500", "163810.387500", "163811.877500", "163813.367500", "163814.857500", "163816.347500", "163817.837500", "163819.327500", "163820.817500", "163822.307500", "163823.797500", "163825.287500", "163826.777500", "163828.267500", "163829.757500", "163831.247500", "163832.737500", "163834.227500", "163835.717500", "163837.207500", "163838.697500", "163840.187500", "163841.677500", "163843.167500", "163844.657500", "163846.147500", "163847.637500", "163849.127500", "163850.617500", "163852.107500", "163853.597500"],
      "ContentTime": ["163115.472000", "163115.476000", "163115.480000", "163115.483000", "163115.487000", "163115.490000", "163115.494000", "163115.497000", "163115.501000", "163115.504000", "163115.508000", "163115.511000", "163135.416000", "163135.420000", "163135.424000", "163135.427000", "163135.430000", "163135.434000", "163135.437000", "163135.441000", "163135.444000", "163135.447000", "163135.451000", "163135.454000", "163135.457000", "163135.461000", "163135.465000", "163135.468000", "163135.471000", "163135.475000", "163135.478000", "163135.482000", "163155.416000", "163155.420000", "163155.424000", "163155.427000", "163155.430000", "163155.434000", "163155.437000", "163155.441000", "163155.444000", "163155.447000", "163155.451000", "163155.454000", "163155.458000", "163155.461000", "163155.464000", "163155.468000", "163155.471000", "163155.475000", "163155.478000", "163155.482000", "163215.416000", "163215.420000", "163215.432000", "163215.436000", "163215.439000", "163215.442000", "163215.446000", "163215.449000", "163215.453000", "163215.461000", "163215.464000", "163215.468000", "163215.471000", "163215.474000", "163215.478000", "163215.482000", "163215.485000", "163215.489000", "163215.492000", "163215.496000", "163235.416000", "163235.428000", "163235.432000", "163235.435000", "163235.439000", "163235.442000", "163235.446000", "163235.450000", "163235.453000", "163235.456000", "163235.460000", "163235.463000", "163235.467000", "163235.470000", "163235.474000", "163235.484000", "163235.488000", "163235.491000", "163235.494000", "163235.498000", "163315.415000", "163315.419000", "163315.423000", "163315.426000", "163315.429000", "163315.433000", "163315.436000", "163315.440000", "163315.443000", "163315.446000", "163315.450000", "163315.458000", "163315.461000", "163315.464000", "163315.468000", "163315.471000", "163315.474000", "163315.478000", "163315.481000", "163315.485000", "163315.488000", "163315.491000", "163315.495000", "163315.498000", "163315.502000", "163315.505000", "163315.517000", "163315.520000", "163315.524000", "163315.527000", "163355.426000", "163355.430000", "163355.443000", "163355.446000", "163355.449000", "163355.453000", "163355.456000", "163355.460000", "163355.463000", "163355.467000", "163355.470000", "163355.474000", "163355.477000", "163355.481000", "163355.484000", "163355.488000", "163355.491000", "163355.494000", "163355.498000", "163355.501000", "163355.505000", "163355.508000", "163355.512000", "163355.516000", "163355.519000", "163355.523000", "163355.526000", "163435.416000", "163435.420000", "163435.423000", "163435.427000", "163435.436000", "163435.439000", "163435.443000", "163435.446000", "163435.450000", "163435.453000", "163435.456000", "163435.460000", "163435.463000", "163435.467000", "163435.470000", "163435.474000", "163435.477000", "163435.481000", "163435.484000", "163435.488000", "163435.491000", "163435.495000", "163435.498000", "163435.502000", "163435.506000", "163435.509000", "163435.513000", "163515.415000", "163515.421000", "163515.424000", "163515.428000", "163515.431000", "163515.434000", "163515.438000", "163515.441000", "163515.445000", "163515.448000", "163515.451000", "163515.455000", "163515.458000", "163515.462000", "163515.465000", "163515.468000", "163515.472000", "163515.476000", "163515.480000", "163515.483000", "163515.487000", "163515.490000", "163515.494000", "163515.497000", "163515.501000", "163515.504000", "163555.416000", "163555.420000", "163555.423000", "163555.427000", "163555.430000", "163555.434000", "163555.437000", "163555.441000", "163555.444000", "163555.447000", "163555.451000", "163555.454000", "163555.458000", "163555.461000", "163555.464000", "163555.468000", "163555.471000", "163555.475000", "163555.478000", "163555.482000", "163555.500000", "163555.504000", "163555.507000", "163555.511000", "163555.514000", "163555.517000", "163555.521000", "163635.417000", "163635.428000", "163635.431000", "163635.435000", "163635.438000", "163635.442000", "163635.445000", "163635.449000", "163635.452000", "163635.456000", "163635.459000", "163635.463000", "163635.466000", "163635.470000", "163635.473000", "163635.476000", "163635.480000", "163635.483000", "163635.487000", "163635.490000", "163635.494000", "163635.497000", "163635.501000", "163635.504000", "163635.508000", "163635.511000", "163635.515000", "163715.416000", "163715.420000", "163715.424000", "163715.427000", "163715.431000", "163715.434000", "163715.437000", "163715.441000", "163715.444000", "163715.448000", "163715.451000", "163715.454000", "163715.458000", "163715.467000", "163715.470000", "163715.474000", "163715.477000", "163715.481000", "163715.484000", "163715.488000", "163715.491000", "163715.495000", "163715.498000", "163715.501000", "163715.505000", "163715.508000", "163715.512000", "163755.415000", "163755.419000", "163755.422000", "163755.426000", "163755.429000", "163755.433000", "163755.436000", "163755.440000", "163755.443000", "163755.446000", "163755.450000", "163755.453000", "163755.457000", "163755.460000", "163755.464000", "163755.467000", "163755.470000", "163755.474000", "163755.477000", "163755.481000", "163755.484000", "163755.488000", "163755.491000", "163755.494000", "163755.498000", "163755.501000", "163755.505000", "163835.416000", "163835.430000", "163835.434000", "163835.442000", "163835.445000", "163835.449000", "163835.452000", "163835.456000", "163835.459000", "163835.463000", "163835.466000", "163835.469000", "163835.473000", "163835.476000", "163835.487000", "163835.490000", "163835.494000", "163835.497000", "163835.501000", "163835.504000", "163835.508000", "163835.511000", "163835.514000", "163835.518000", "163835.521000", "163835.525000", "163835.528000", "163856.404000", "163856.408000", "163856.412000", "163856.415000", "163856.419000", "163856.423000", "163856.426000", "163856.430000", "163856.433000", "163856.437000", "163856.440000", "163856.443000", "163856.447000", "163856.450000"],
      "InstanceCreationTime": ["163115.472000", "163115.476000", "163115.480000", "163115.483000", "163115.487000", "163115.490000", "163115.494000", "163115.497000", "163115.501000", "163115.504000", "163115.508000", "163115.511000", "163135.416000", "163135.420000", "163135.424000", "163135.427000", "163135.430000", "163135.434000", "163135.437000", "163135.441000", "163135.444000", "163135.447000", "163135.451000", "163135.454000", "163135.457000", "163135.461000", "163135.465000", "163135.468000", "163135.471000", "163135.475000", "163135.478000", "163135.482000", "163155.416000", "163155.420000", "163155.424000", "163155.427000", "163155.430000", "163155.434000", "163155.437000", "163155.441000", "163155.444000", "163155.447000", "163155.451000", "163155.454000", "163155.458000", "163155.461000", "163155.464000", "163155.468000", "163155.471000", "163155.475000", "163155.478000", "163155.482000", "163215.416000", "163215.420000", "163215.432000", "163215.436000", "163215.439000", "163215.442000", "163215.446000", "163215.449000", "163215.453000", "163215.461000", "163215.464000", "163215.468000", "163215.471000", "163215.474000", "163215.478000", "163215.482000", "163215.485000", "163215.489000", "163215.492000", "163215.496000", "163235.416000", "163235.428000", "163235.432000", "163235.435000", "163235.439000", "163235.442000", "163235.446000", "163235.450000", "163235.453000", "163235.456000", "163235.460000", "163235.463000", "163235.467000", "163235.470000", "163235.474000", "163235.484000", "163235.488000", "163235.491000", "163235.494000", "163235.498000", "163315.415000", "163315.419000", "163315.423000", "163315.426000", "163315.429000", "163315.433000", "163315.436000", "163315.440000", "163315.443000", "163315.446000", "163315.450000", "163315.458000", "163315.461000", "163315.464000", "163315.468000", "163315.471000", "163315.474000", "163315.478000", "163315.481000", "163315.485000", "163315.488000", "163315.491000", "163315.495000", "163315.498000", "163315.502000", "163315.505000", "163315.517000", "163315.520000", "163315.524000", "163315.527000", "163355.426000", "163355.430000", "163355.443000", "163355.446000", "163355.449000", "163355.453000", "163355.456000", "163355.460000", "163355.463000", "163355.467000", "163355.470000", "163355.474000", "163355.477000", "163355.481000", "163355.484000", "163355.488000", "163355.491000", "163355.494000", "163355.498000", "163355.501000", "163355.505000", "163355.508000", "163355.512000", "163355.516000", "163355.519000", "163355.523000", "163355.526000", "163435.416000", "163435.420000", "163435.423000", "163435.427000", "163435.436000", "163435.439000", "163435.443000", "163435.446000", "163435.450000", "163435.453000", "163435.456000", "163435.460000", "163435.463000", "163435.467000", "163435.470000", "163435.474000", "163435.477000", "163435.481000", "163435.484000", "163435.488000", "163435.491000", "163435.495000", "163435.498000", "163435.502000", "163435.506000", "163435.509000", "163435.513000", "163515.415000", "163515.421000", "163515.424000", "163515.428000", "163515.431000", "163515.434000", "163515.438000", "163515.441000", "163515.445000", "163515.448000", "163515.451000", "163515.455000", "163515.458000", "163515.462000", "163515.465000", "163515.468000", "163515.472000", "163515.476000", "163515.480000", "163515.483000", "163515.487000", "163515.490000", "163515.494000", "163515.497000", "163515.501000", "163515.504000", "163555.416000", "163555.420000", "163555.423000", "163555.427000", "163555.430000", "163555.434000", "163555.437000", "163555.441000", "163555.444000", "163555.447000", "163555.451000", "163555.454000", "163555.458000", "163555.461000", "163555.464000", "163555.468000", "163555.471000", "163555.475000", "163555.478000", "163555.482000", "163555.500000", "163555.504000", "163555.507000", "163555.511000", "163555.514000", "163555.517000", "163555.521000", "163635.417000", "163635.428000", "163635.431000", "163635.435000", "163635.438000", "163635.442000", "163635.445000", "163635.449000", "163635.452000", "163635.456000", "163635.459000", "163635.463000", "163635.466000", "163635.470000", "163635.473000", "163635.476000", "163635.480000", "163635.483000", "163635.487000", "163635.490000", "163635.494000", "163635.497000", "163635.501000", "163635.504000", "163635.508000", "163635.511000", "163635.515000", "163715.416000", "163715.420000", "163715.424000", "163715.427000", "163715.431000", "163715.434000", "163715.437000", "163715.441000", "163715.444000", "163715.448000", "163715.451000", "163715.454000", "163715.458000", "163715.467000", "163715.470000", "163715.474000", "163715.477000", "163715.481000", "163715.484000", "163715.488000", "163715.491000", "163715.495000", "163715.498000", "163715.501000", "163715.505000", "163715.508000", "163715.512000", "163755.415000", "163755.419000", "163755.422000", "163755.426000", "163755.429000", "163755.433000", "163755.436000", "163755.440000", "163755.443000", "163755.446000", "163755.450000", "163755.453000", "163755.457000", "163755.460000", "163755.464000", "163755.467000", "163755.470000", "163755.474000", "163755.477000", "163755.481000", "163755.484000", "163755.488000", "163755.491000", "163755.494000", "163755.498000", "163755.501000", "163755.505000", "163835.416000", "163835.430000", "163835.434000", "163835.442000", "163835.445000", "163835.449000", "163835.452000", "163835.456000", "163835.459000", "163835.463000", "163835.466000", "163835.469000", "163835.473000", "163835.476000", "163835.487000", "163835.490000", "163835.494000", "163835.497000", "163835.501000", "163835.504000", "163835.508000", "163835.511000", "163835.514000", "163835.518000", "163835.521000", "163835.525000", "163835.528000", "163856.404000", "163856.408000", "163856.412000", "163856.415000", "163856.419000", "163856.423000", "163856.426000", "163856.430000", "163856.433000", "163856.437000", "163856.440000", "163856.443000", "163856.447000", "163856.450000"],
      "InstanceNumber": [1, 2, 3, 4, 5, 6, 7, 8, 9, 10, 11, 12, 13, 14, 15, 16, 17, 18, 19, 20, 21, 22, 23, 24, 25, 26, 27, 28, 29, 30, 31, 32, 33, 34, 35, 36, 37, 38, 39, 40, 41, 42, 43, 44, 45, 46, 47, 48, 49, 50, 51, 52, 53, 54, 55, 56, 57, 58, 59, 60, 61, 62, 63, 64, 65, 66, 67, 68, 69, 70, 71, 72, 73, 74, 75, 76, 77, 78, 79, 80, 81, 82, 83, 84, 85, 86, 87, 88, 89, 90, 91, 92, 93, 94, 95, 96, 97, 98, 99, 100, 101, 102, 103, 104, 105, 106, 107, 108, 109, 110, 111, 112, 113, 114, 115, 116, 117, 118, 119, 120, 121, 122, 123, 124, 125, 126, 127, 128, 129, 130, 131, 132, 133, 134, 135, 136, 137, 138, 139, 140, 141, 142, 143, 144, 145, 146, 147, 148, 149, 150, 151, 152, 153, 154, 155, 156, 157, 158, 159, 160, 161, 162, 163, 164, 165, 166, 167, 168, 169, 170, 171, 172, 173, 174, 175, 176, 177, 178, 179, 180, 181, 182, 183, 184, 185, 186, 187, 188, 189, 190, 191, 192, 193, 194, 195, 196, 197, 198, 199, 200, 201, 202, 203, 204, 205, 206, 207, 208, 209, 210, 211, 212, 213, 214, 215, 216, 217, 218, 219, 220, 221, 222, 223, 224, 225, 226, 227, 228, 229, 230, 231, 232, 233, 234, 235, 236, 237, 238, 239, 240, 241, 242, 243, 244, 245, 246, 247, 248, 249, 250, 251, 252, 253, 254, 255, 256, 257, 258, 259, 260, 261, 262, 263, 264, 265, 266, 267, 268, 269, 270, 271, 272, 273, 274, 275, 276, 277, 278, 279, 280, 281, 282, 283, 284, 285, 286, 287, 288, 289, 290, 291, 292, 293, 294, 295, 296, 297, 298, 299, 300, 301, 302, 303, 304, 305, 306, 307, 308, 309, 310, 311, 312, 313, 314, 315, 316, 317, 318, 319, 320, 321, 322, 323, 324, 325, 326, 327, 328, 329, 330, 331, 332, 333, 334, 335, 336, 337, 338, 339, 340, 341, 342, 343, 344, 345, 346, 347, 348, 349, 350, 351],
      "LargestImagePixelValue": [44875, 43599, 42608, 42311, 42515, 42361, 42317, 42724, 42634, 41500, 42019, 42054, 42762, 42187, 42082, 42111, 42511, 42243, 42631, 42164, 42551, 42540, 42018, 42378, 42105, 42104, 41783, 41762, 42327, 41860, 42367, 41876, 41359, 41454, 41724, 41848, 41715, 41902, 41429, 41903, 41756, 42080, 41650, 41526, 41086, 41623, 40900, 41191, 41538, 41609, 41207, 41032, 41125, 41403, 41504, 41614, 41386, 41006, 41152, 41112, 41900, 41847, 42022, 41688, 41416, 40897, 40931, 40473, 40272, 41017, 41281, 40992, 41862, 41734, 41658, 41460, 41040, 41012, 41123, 41514, 41260, 41267, 41084, 41596, 41461, 41101, 41436, 41579, 41880, 41501, 40992, 41548, 41549, 41255, 41197, 40913, 41122, 41152, 41339, 41181, 41420, 41201, 41416, 41740, 41824, 41111, 41180, 41795, 41712, 41923, 41660, 41620, 41501, 41795, 42358, 42016, 41706, 42050, 41454, 41247, 41766, 41456, 41329, 41541, 41922, 41757, 41189, 40808, 41787, 41351, 41791, 41173, 40988, 41190, 42433, 42238, 42112, 41625, 42068, 41841, 41677, 41937, 42078, 41934, 41848, 41679, 41177, 41595, 41774, 41469, 41645, 40719, 40621, 41218, 41861, 42101, 41353, 42248, 41791, 41619, 41978, 41279, 41604, 41728, 42327, 41253, 40930, 40784, 41400, 41085, 41843, 42009, 41948, 41425, 41032, 41424, 40676, 40642, 42252, 42185, 41840, 41899, 41685, 42116, 41673, 41822, 41049, 41394, 41693, 41116, 40876, 41142, 41494, 40555, 40737, 41028, 41497, 40952, 41287, 41681, 41566, 41136, 41194, 40714, 40837, 41699, 41706, 41746, 41521, 40959, 41533, 41348, 41446, 41304, 41142, 40721, 40417, 41024, 41487, 41106, 40670, 40971, 41431, 41705, 41908, 41653, 41746, 41438, 40322, 40918, 40869, 40442, 41759, 41212, 41879, 41626, 41795, 41693, 41438, 41641, 41751, 41679, 41165, 41348, 40911, 41131, 40876, 41022, 41102, 41089, 40833, 41092, 41191, 41278, 40926, 41791, 42571, 41824, 41732, 41589, 41208, 41218, 41073, 41277, 41878, 41859, 41240, 41909, 41217, 41601, 41505, 41712, 41780, 41592, 42033, 41613, 41909, 41810, 41888, 42075, 42304, 42320, 42430, 42213, 42188, 42000, 42125, 41851, 42058, 42495, 42190, 42593, 40792, 41525, 40947, 40633, 41288, 41623, 41373, 41403, 41822, 41551, 41960, 41825, 41253, 41739, 40990, 41776, 41734, 42749, 41713, 41507, 41500, 41446, 41276, 41700, 41639, 41649, 41549, 41527, 41373, 41520, 42009, 41664, 41983, 41617, 41902, 41288, 41731, 41754, 41578, 42115, 41513, 42086, 42157, 42424, 42098, 41782, 41181, 40087, 41390, 41875, 40897, 40820, 40998, 41247, 40876, 40929, 41381, 40820, 41290],
