{
  "AcquisitionMatrixPE": 104,
  "AcquisitionNumber": 1,
  "AcquisitionTime": "14:04:44.747500",
  "BandwidthPerPixelPhaseEncode": 17.17,
  "BaseResolution": 104,
  "BodyPartExamined": "BRAIN",
  "CoilCombinationMethod": "Sum of Squares",
  "ConsistencyInfo": "N4_VE11C_LATEST_20160120",
  "ConversionSoftware": "dcm2niix",
  "ConversionSoftwareVersion": "v1.0.20220505",
  "DerivedVendorReportedEchoSpacing": 0.000560011,
  "DeviceSerialNumber": "167006",
  "DwellTime": 2.1e-06,
  "EchoTime": 0.037,
  "EchoTrainLength": 104,
  "EffectiveEchoSpacing": 0.000560011,
  "FlipAngle": 52,
  "HeudiconvVersion": "0.5.3.post811+g6206e14",
  "ImageComments": "Unaliased MB4/PE3/LB",
  "ImageOrientationPatientDICOM": [0.999346, 0.0336459, 0.013212, -0.0291362, 0.966112, -0.256472],
  "ImageOrientationText": "Tra>Cor(-14.8)>Sag(1.2)",
  "ImageType": [
    "ORIGINAL",
    "PRIMARY",
    "M",
    "MB",
    "ND",
    "MOSAIC"
],
  "ImagingFrequency": 123.26,
  "InPlanePhaseEncodingDirectionDICOM": "COL",
  "InstitutionAddress": "Chemin Queen-Mary 4565,Montreal,District,CA,H3W 1W5",
  "InstitutionName": "IUGM",
  "InstitutionalDepartmentName": "Department",
  "MRAcquisitionType": "2D",
  "MagneticFieldStrength": 3,
  "Manufacturer": "Siemens",
  "ManufacturersModelName": "Prisma_fit",
  "MatrixCoilMode": "SENSE",
  "Modality": "MR",
  "MultibandAccelerationFactor": 4,
  "PartialFourier": 1,
  "PatientPosition": "HFS",
  "PercentPhaseFOV": 100,
  "PercentSampling": 100,
  "PhaseEncodingDirection": "j",
  "PhaseEncodingSteps": 104,
  "PhaseResolution": 1,
  "PixelBandwidth": 2290,
  "ProcedureStepDescription": "games^mario3",
  "ProtocolName": "func_task-mario3_run-01",
  "PulseSequenceDetails": "%CustomerSeq%\\cmrr_mbep2d_bold",
  "ReceiveCoilActiveElements": "HC1-7;NC1,2",
  "ReceiveCoilName": "HeadNeck_64",
  "ReconMatrixPE": 104,
  "RepetitionTime": 1.49,
  "SAR": 0.0528349,
  "ScanOptions": "FS",
  "ScanningSequence": "EP",
  "SequenceName": "epfid2d1_104",
  "SequenceVariant": "SK\\SS",
  "SeriesDescription": "func_task-mario3_run-01",
  "SeriesNumber": 10,
  "ShimSetting": [620, -7231, -8775, 686, 67, -41, 36, -10],
  "SliceThickness": 2,
  "SliceTiming": [0, 0.7825, 0.0975, 0.8825, 0.195, 0.98, 0.2925, 1.0775, 0.3925, 1.175, 0.49, 1.2725, 0.5875, 1.3725, 0.685, 0, 0.7825, 0.0975, 0.8825, 0.195, 0.98, 0.2925, 1.0775, 0.3925, 1.175, 0.49, 1.2725, 0.5875, 1.3725, 0.685, 0, 0.7825, 0.0975, 0.8825, 0.195, 0.98, 0.2925, 1.0775, 0.3925, 1.175, 0.49, 1.2725, 0.5875, 1.3725, 0.685, 0, 0.7825, 0.0975, 0.8825, 0.195, 0.98, 0.2925, 1.0775, 0.3925, 1.175, 0.49, 1.2725, 0.5875, 1.3725, 0.685],
  "SoftwareVersions": "syngo MR E11",
  "SpacingBetweenSlices": 2,
  "StationName": "MRC35049",
  "TaskName": "mario3",
  "TotalReadoutTime": 0.0576811,
  "TxRefAmp": 221.793,
  "WipMemBlock": "70a674a3-1cdf-46ad-a8e2-8fedbf015dcd||Sequence: R017 ve11c/master r/75a17815+; Jun 28 2022 16:32:11 by eja",
  "dcmmeta_affine": [
    [-1.9986929893493652, -0.05827244371175766, 0.04278694838285446, 110.75809478759766],
    [-0.0672917291522026, 1.9322246313095093, -0.5118394494056702, -70.68160247802734],
    [0.026423929259181023, 0.5129445791244507, 1.9329224824905396, -58.12141418457031],
    [0.0, 0.0, 0.0, 1.0]
],
  "dcmmeta_reorient_transform": [
    [0.0, -1.0, 0.0, 103.0],
    [1.0, 0.0, 0.0, 0.0],
    [0.0, 0.0, 1.0, 0.0],
    [0.0, 0.0, 0.0, 1.0]
],
  "dcmmeta_shape": [104, 104, 60, 319],
  "dcmmeta_slice_dim": 2,
  "dcmmeta_version": 0.6,
  "global": {
    "const": {
      "AcquisitionMatrix": [104, 0, 0, 104],
      "AngioFlag": "N",
      "BitsAllocated": 16,
      "BitsStored": 16,
      "BodyPartExamined": "BRAIN",
      "Columns": 832,
      "EchoNumbers": 1,
      "EchoTime": 37.0,
      "EchoTrainLength": 104,
      "FlipAngle": 52.0,
      "HighBit": 15,
      "ImageOrientationPatient": [0.99934648635662, 0.03364586431669, 0.01321196507185, -0.0291362227678, 0.96611233832737, -0.2564722796999],
      "ImagePositionPatient": [-811.06910557516, -856.16151075709, 171.80538351306],
      "ImageType": [
        "ORIGINAL",
        "PRIMARY",
        "M",
        "MB",
        "ND",
        "MOSAIC"
],
      "ImagedNucleus": "1H",
      "ImagingFrequency": 123.26022,
      "InPlanePhaseEncodingDirection": "COL",
      "MRAcquisitionType": "2D",
      "MagneticFieldStrength": 3.0,
      "Manufacturer": "SIEMENS",
      "ManufacturerModelName": "Prisma_fit",
      "Modality": "MR",
      "NumberOfAverages": 1.0,
      "NumberOfPhaseEncodingSteps": 104,
      "PercentPhaseFieldOfView": 100.0,
      "PercentSampling": 100.0,
      "PerformedProcedureStepStartTime": "135934.265000",
      "PhotometricInterpretation": "MONOCHROME2",
      "PixelBandwidth": 2290.0,
      "PixelRepresentation": 0,
      "PixelSpacing": [2.0, 2.0],
      "ProtocolName": "func_task-mario3_run-01",
      "RepetitionTime": 1490.0,
      "Rows": 832,
      "SAR": 0.05283486093854,
      "SamplesPerPixel": 1,
      "ScanOptions": "FS",
      "ScanningSequence": "EP",
      "SequenceName": "epfid2d1_104",
      "SequenceVariant": [
        "SK",
        "SS"
],
      "SeriesDescription": "func_task-mario3_run-01",
      "SeriesNumber": 10,
      "SeriesTime": "140553.159000",
      "SliceLocation": -35.71378083697,
      "SliceThickness": 2.0,
      "SmallestImagePixelValue": 0,
      "SoftwareVersions": "syngo MR E11",
      "SpacingBetweenSlices": 1.9999999509428,
      "SpecificCharacterSet": "ISO_IR 100",
      "StudyID": "1",
      "StudyTime": "135934.194000",
      "TransmitCoilName": "Body",
      "VariableFlipAngleFlag": "N",
      "WindowCenterWidthExplanation": "Algo1",
      "dBdt": 0.0},
    "slices": {}
  },
  "time": {
    "samples": {
      "AcquisitionNumber": [1, 2, 3, 4, 5, 6, 7, 8, 9, 10, 11, 12, 13, 14, 15, 16, 17, 18, 19, 20, 21, 22, 23, 24, 25, 26, 27, 28, 29, 30, 31, 32, 33, 34, 35, 36, 37, 38, 39, 40, 41, 42, 43, 44, 45, 46, 47, 48, 49, 50, 51, 52, 53, 54, 55, 56, 57, 58, 59, 60, 61, 62, 63, 64, 65, 66, 67, 68, 69, 70, 71, 72, 73, 74, 75, 76, 77, 78, 79, 80, 81, 82, 83, 84, 85, 86, 87, 88, 89, 90, 91, 92, 93, 94, 95, 96, 97, 98, 99, 100, 101, 102, 103, 104, 105, 106, 107, 108, 109, 110, 111, 112, 113, 114, 115, 116, 117, 118, 119, 120, 121, 122, 123, 124, 125, 126, 127, 128, 129, 130, 131, 132, 133, 134, 135, 136, 137, 138, 139, 140, 141, 142, 143, 144, 145, 146, 147, 148, 149, 150, 151, 152, 153, 154, 155, 156, 157, 158, 159, 160, 161, 162, 163, 164, 165, 166, 167, 168, 169, 170, 171, 172, 173, 174, 175, 176, 177, 178, 179, 180, 181, 182, 183, 184, 185, 186, 187, 188, 189, 190, 191, 192, 193, 194, 195, 196, 197, 198, 199, 200, 201, 202, 203, 204, 205, 206, 207, 208, 209, 210, 211, 212, 213, 214, 215, 216, 217, 218, 219, 220, 221, 222, 223, 224, 225, 226, 227, 228, 229, 230, 231, 232, 233, 234, 235, 236, 237, 238, 239, 240, 241, 242, 243, 244, 245, 246, 247, 248, 249, 250, 251, 252, 253, 254, 255, 256, 257, 258, 259, 260, 261, 262, 263, 264, 265, 266, 267, 268, 269, 270, 271, 272, 273, 274, 275, 276, 277, 278, 279, 280, 281, 282, 283, 284, 285, 286, 287, 288, 289, 290, 291, 292, 293, 294, 295, 296, 297, 298, 299, 300, 301, 302, 303, 304, 305, 306, 307, 308, 309, 310, 311, 312, 313, 314, 315, 316, 317, 318, 319],
      "AcquisitionTime": ["140444.747500", "140446.237500", "140447.727500", "140449.217500", "140450.707500", "140452.197500", "140453.687500", "140455.177500", "140456.667500", "140458.157500", "140459.647500", "140501.137500", "140502.627500", "140504.117500", "140505.607500", "140507.097500", "140508.587500", "140510.077500", "140511.567500", "140513.057500", "140514.547500", "140516.037500", "140517.527500", "140519.017500", "140520.507500", "140521.997500", "140523.487500", "140524.977500", "140526.467500", "140527.957500", "140529.447500", "140530.937500", "140532.427500", "140533.917500", "140535.407500", "140536.897500", "140538.387500", "140539.877500", "140541.367500", "140542.857500", "140544.347500", "140545.837500", "140547.327500", "140548.817500", "140550.307500", "140551.797500", "140553.287500", "140554.777500", "140556.267500", "140557.757500", "140559.247500", "140600.737500", "140602.227500", "140603.717500", "140605.207500", "140606.697500", "140608.187500", "140609.677500", "140611.167500", "140612.657500", "140614.147500", "140615.637500", "140617.127500", "140618.617500", "140620.107500", "140621.597500", "140623.087500", "140624.577500", "140626.067500", "140627.557500", "140629.047500", "140630.537500", "140632.027500", "140633.517500", "140635.007500", "140636.497500", "140637.987500", "140639.477500", "140640.967500", "140642.457500", "140643.947500", "140645.437500", "140646.927500", "140648.417500", "140649.907500", "140651.397500", "140652.887500", "140654.377500", "140655.867500", "140657.357500", "140658.847500", "140700.337500", "140701.827500", "140703.317500", "140704.807500", "140706.297500", "140707.787500", "140709.277500", "140710.767500", "140712.257500", "140713.747500", "140715.237500", "140716.727500", "140718.217500", "140719.707500", "140721.197500", "140722.687500", "140724.177500", "140725.667500", "140727.157500", "140728.647500", "140730.137500", "140731.627500", "140733.117500", "140734.607500", "140736.097500", "140737.587500", "140739.077500", "140740.567500", "140742.057500", "140743.547500", "140745.037500", "140746.527500", "140748.017500", "140749.507500", "140750.997500", "140752.487500", "140753.977500", "140755.467500", "140756.957500", "140758.447500", "140759.937500", "140801.427500", "140802.917500", "140804.407500", "140805.897500", "140807.387500", "140808.877500", "140810.367500", "140811.857500", "140813.347500", "140814.837500", "140816.327500", "140817.817500", "140819.307500", "140820.797500", "140822.287500", "140823.777500", "140825.267500", "140826.757500", "140828.247500", "140829.737500", "140831.227500", "140832.717500", "140834.207500", "140835.697500", "140837.187500", "140838.677500", "140840.167500", "140841.657500", "140843.147500", "140844.637500", "140846.127500", "140847.617500", "140849.107500", "140850.597500", "140852.087500", "140853.577500", "140855.067500", "140856.557500", "140858.047500", "140859.537500", "140901.027500", "140902.517500", "140904.007500", "140905.497500", "140906.987500", "140908.477500", "140909.967500", "140911.457500", "140912.947500", "140914.437500", "140915.927500", "140917.417500", "140918.907500", "140920.397500", "140921.887500", "140923.377500", "140924.867500", "140926.357500", "140927.847500", "140929.337500", "140930.827500", "140932.317500", "140933.807500", "140935.297500", "140936.787500", "140938.277500", "140939.767500", "140941.257500", "140942.747500", "140944.237500", "140945.727500", "140947.217500", "140948.707500", "140950.197500", "140951.687500", "140953.177500", "140954.667500", "140956.157500", "140957.647500", "140959.137500", "141000.627500", "141002.117500", "141003.607500", "141005.097500", "141006.587500", "141008.077500", "141009.567500", "141011.057500", "141012.547500", "141014.037500", "141015.527500", "141017.017500", "141018.507500", "141019.997500", "141021.487500", "141022.977500", "141024.467500", "141025.957500", "141027.447500", "141028.937500", "141030.427500", "141031.917500", "141033.407500", "141034.897500", "141036.387500", "141037.877500", "141039.367500", "141040.857500", "141042.347500", "141043.837500", "141045.327500", "141046.817500", "141048.307500", "141049.797500", "141051.287500", "141052.777500", "141054.267500", "141055.757500", "141057.247500", "141058.737500", "141100.227500", "141101.717500", "141103.207500", "141104.697500", "141106.187500", "141107.677500", "141109.167500", "141110.657500", "141112.147500", "141113.637500", "141115.127500", "141116.617500", "141118.107500", "141119.597500", "141121.087500", "141122.577500", "141124.067500", "141125.557500", "141127.047500", "141128.537500", "141130.027500", "141131.517500", "141133.007500", "141134.497500", "141135.987500", "141137.477500", "141138.967500", "141140.457500", "141141.947500", "141143.437500", "141144.927500", "141146.417500", "141147.907500", "141149.397500", "141150.887500", "141152.377500", "141153.867500", "141155.357500", "141156.847500", "141158.337500", "141159.827500", "141201.317500", "141202.807500", "141204.297500", "141205.787500", "141207.277500", "141208.767500", "141210.257500", "141211.747500", "141213.237500", "141214.727500", "141216.217500", "141217.707500", "141219.197500", "141220.687500", "141222.177500", "141223.667500", "141225.157500", "141226.647500", "141228.137500", "141229.627500", "141231.117500", "141232.607500", "141234.097500", "141235.587500", "141237.077500", "141238.567500"],
      "ContentTime": ["140553.162000", "140553.166000", "140553.169000", "140553.172000", "140553.176000", "140553.179000", "140553.191000", "140553.194000", "140553.197000", "140553.200000", "140553.204000", "140553.207000", "140553.210000", "140553.214000", "140553.217000", "140553.220000", "140553.223000", "140553.227000", "140553.239000", "140553.242000", "140553.246000", "140613.122000", "140613.126000", "140613.129000", "140613.132000", "140613.135000", "140613.139000", "140613.142000", "140613.145000", "140613.149000", "140613.152000", "140613.155000", "140613.158000", "140613.162000", "140613.165000", "140613.168000", "140613.172000", "140613.175000", "140613.178000", "140613.182000", "140613.185000", "140613.188000", "140633.122000", "140633.126000", "140633.138000", "140633.142000", "140633.145000", "140633.148000", "140633.152000", "140633.155000", "140633.158000", "140633.161000", "140633.165000", "140633.168000", "140633.171000", "140633.174000", "140633.178000", "140633.181000", "140633.184000", "140633.188000", "140633.191000", "140633.194000", "140653.122000", "140653.125000", "140653.134000", "140653.137000", "140653.140000", "140653.143000", "140653.147000", "140653.151000", "140653.154000", "140653.158000", "140653.161000", "140653.164000", "140653.167000", "140653.171000", "140653.174000", "140653.177000", "140653.181000", "140653.184000", "140653.187000", "140653.190000", "140733.121000", "140733.125000", "140733.128000", "140733.131000", "140733.135000", "140733.138000", "140733.141000", "140733.145000", "140733.148000", "140733.151000", "140733.155000", "140733.158000", "140733.161000", "140733.164000", "140733.168000", "140733.171000", "140733.175000", "140733.178000", "140733.181000", "140733.185000", "140733.188000", "140733.191000", "140733.194000", "140733.198000", "140733.201000", "140733.204000", "140733.208000", "140733.211000", "140733.214000", "140733.217000", "140813.121000", "140813.125000", "140813.128000", "140813.136000", "140813.139000", "140813.143000", "140813.146000", "140813.149000", "140813.152000", "140813.156000", "140813.159000", "140813.162000", "140813.166000", "140813.169000", "140813.173000", "140813.176000", "140813.179000", "140813.183000", "140813.186000", "140813.189000", "140813.193000", "140813.196000", "140813.199000", "140813.203000", "140813.206000", "140813.209000", "140813.213000", "140853.122000", "140853.126000", "140853.129000", "140853.132000", "140853.136000", "140853.139000", "140853.142000", "140853.146000", "140853.149000", "140853.152000", "140853.167000", "140853.171000", "140853.174000", "140853.177000", "140853.180000", "140853.184000", "140853.187000", "140853.190000", "140853.194000", "140853.203000", "140853.206000", "140853.209000", "140853.213000", "140853.216000", "140853.219000", "140853.223000", "140853.226000", "140933.121000", "140933.125000", "140933.128000", "140933.131000", "140933.134000", "140933.138000", "140933.141000", "140933.144000", "140933.148000", "140933.151000", "140933.159000", "140933.163000", "140933.166000", "140933.169000", "140933.173000", "140933.176000", "140933.179000", "140933.183000", "140933.186000", "140933.189000", "140933.193000", "140933.196000", "140933.199000", "140933.203000", "140933.206000", "140933.209000", "140933.213000", "141013.121000", "141013.125000", "141013.128000", "141013.131000", "141013.135000", "141013.138000", "141013.141000", "141013.145000", "141013.148000", "141013.151000", "141013.155000", "141013.158000", "141013.161000", "141013.164000", "141013.168000", "141013.171000", "141013.174000", "141013.178000", "141013.181000", "141013.184000", "141013.187000", "141013.191000", "141013.194000", "141013.197000", "141013.200000", "141013.204000", "141013.207000", "141053.122000", "141053.126000", "141053.129000", "141053.133000", "141053.136000", "141053.147000", "141053.151000", "141053.169000", "141053.173000", "141053.177000", "141053.180000", "141053.184000", "141053.188000", "141053.191000", "141053.195000", "141053.198000", "141053.201000", "141053.205000", "141053.209000", "141053.212000", "141053.215000", "141053.219000", "141053.222000", "141053.225000", "141053.229000", "141053.232000", "141133.122000", "141133.126000", "141133.129000", "141133.132000", "141133.136000", "141133.139000", "141133.142000", "141133.146000", "141133.149000", "141133.152000", "141133.156000", "141133.159000", "141133.162000", "141133.165000", "141133.169000", "141133.176000", "141133.180000", "141133.183000", "141133.186000", "141133.190000", "141133.193000", "141133.197000", "141133.200000", "141133.203000", "141133.207000", "141133.210000", "141133.213000", "141213.121000", "141213.125000", "141213.128000", "141213.132000", "141213.135000", "141213.138000", "141213.142000", "141213.145000", "141213.148000", "141213.152000", "141213.155000", "141213.158000", "141213.161000", "141213.165000", "141213.169000", "141213.172000", "141213.175000", "141213.179000", "141213.189000", "141213.193000", "141213.196000", "141213.200000", "141213.203000", "141213.206000", "141213.209000", "141213.213000", "141213.216000", "141241.573000", "141241.577000", "141241.580000", "141241.584000", "141241.587000", "141241.591000", "141241.594000", "141241.597000", "141241.601000", "141241.604000", "141241.608000", "141241.611000", "141241.614000", "141241.618000", "141241.622000", "141241.625000", "141241.629000", "141241.632000", "141241.636000"],
      "InstanceCreationTime": ["140553.162000", "140553.166000", "140553.169000", "140553.172000", "140553.176000", "140553.179000", "140553.191000", "140553.194000", "140553.197000", "140553.200000", "140553.204000", "140553.207000", "140553.210000", "140553.214000", "140553.217000", "140553.220000", "140553.223000", "140553.227000", "140553.239000", "140553.242000", "140553.246000", "140613.122000", "140613.126000", "140613.129000", "140613.132000", "140613.135000", "140613.139000", "140613.142000", "140613.145000", "140613.149000", "140613.152000", "140613.155000", "140613.158000", "140613.162000", "140613.165000", "140613.168000", "140613.172000", "140613.175000", "140613.178000", "140613.182000", "140613.185000", "140613.188000", "140633.122000", "140633.126000", "140633.138000", "140633.142000", "140633.145000", "140633.148000", "140633.152000", "140633.155000", "140633.158000", "140633.161000", "140633.165000", "140633.168000", "140633.171000", "140633.174000", "140633.178000", "140633.181000", "140633.184000", "140633.188000", "140633.191000", "140633.194000", "140653.122000", "140653.125000", "140653.134000", "140653.137000", "140653.140000", "140653.143000", "140653.147000", "140653.151000", "140653.154000", "140653.158000", "140653.161000", "140653.164000", "140653.167000", "140653.171000", "140653.174000", "140653.177000", "140653.181000", "140653.184000", "140653.187000", "140653.190000", "140733.121000", "140733.125000", "140733.128000", "140733.131000", "140733.135000", "140733.138000", "140733.141000", "140733.145000", "140733.148000", "140733.151000", "140733.155000", "140733.158000", "140733.161000", "140733.164000", "140733.168000", "140733.171000", "140733.175000", "140733.178000", "140733.181000", "140733.185000", "140733.188000", "140733.191000", "140733.194000", "140733.198000", "140733.201000", "140733.204000", "140733.208000", "140733.211000", "140733.214000", "140733.217000", "140813.121000", "140813.125000", "140813.128000", "140813.136000", "140813.139000", "140813.143000", "140813.146000", "140813.149000", "140813.152000", "140813.156000", "140813.159000", "140813.162000", "140813.166000", "140813.169000", "140813.173000", "140813.176000", "140813.179000", "140813.183000", "140813.186000", "140813.189000", "140813.193000", "140813.196000", "140813.199000", "140813.203000", "140813.206000", "140813.209000", "140813.213000", "140853.122000", "140853.126000", "140853.129000", "140853.132000", "140853.136000", "140853.139000", "140853.142000", "140853.146000", "140853.149000", "140853.152000", "140853.167000", "140853.171000", "140853.174000", "140853.177000", "140853.180000", "140853.184000", "140853.187000", "140853.190000", "140853.194000", "140853.203000", "140853.206000", "140853.209000", "140853.213000", "140853.216000", "140853.219000", "140853.223000", "140853.226000", "140933.121000", "140933.125000", "140933.128000", "140933.131000", "140933.134000", "140933.138000", "140933.141000", "140933.144000", "140933.148000", "140933.151000", "140933.159000", "140933.163000", "140933.166000", "140933.169000", "140933.173000", "140933.176000", "140933.179000", "140933.183000", "140933.186000", "140933.189000", "140933.193000", "140933.196000", "140933.199000", "140933.203000", "140933.206000", "140933.209000", "140933.213000", "141013.121000", "141013.125000", "141013.128000", "141013.131000", "141013.135000", "141013.138000", "141013.141000", "141013.145000", "141013.148000", "141013.151000", "141013.155000", "141013.158000", "141013.161000", "141013.164000", "141013.168000", "141013.171000", "141013.174000", "141013.178000", "141013.181000", "141013.184000", "141013.187000", "141013.191000", "141013.194000", "141013.197000", "141013.200000", "141013.204000", "141013.207000", "141053.122000", "141053.126000", "141053.129000", "141053.133000", "141053.136000", "141053.147000", "141053.151000", "141053.169000", "141053.173000", "141053.177000", "141053.180000", "141053.184000", "141053.188000", "141053.191000", "141053.195000", "141053.198000", "141053.201000", "141053.205000", "141053.209000", "141053.212000", "141053.215000", "141053.219000", "141053.222000", "141053.225000", "141053.229000", "141053.232000", "141133.122000", "141133.126000", "141133.129000", "141133.132000", "141133.136000", "141133.139000", "141133.142000", "141133.146000", "141133.149000", "141133.152000", "141133.156000", "141133.159000", "141133.162000", "141133.165000", "141133.169000", "141133.176000", "141133.180000", "141133.183000", "141133.186000", "141133.190000", "141133.193000", "141133.197000", "141133.200000", "141133.203000", "141133.207000", "141133.210000", "141133.213000", "141213.121000", "141213.125000", "141213.128000", "141213.132000", "141213.135000", "141213.138000", "141213.142000", "141213.145000", "141213.148000", "141213.152000", "141213.155000", "141213.158000", "141213.161000", "141213.165000", "141213.169000", "141213.172000", "141213.175000", "141213.179000", "141213.189000", "141213.193000", "141213.196000", "141213.200000", "141213.203000", "141213.206000", "141213.209000", "141213.213000", "141213.216000", "141241.573000", "141241.577000", "141241.580000", "141241.584000", "141241.587000", "141241.591000", "141241.594000", "141241.597000", "141241.601000", "141241.604000", "141241.608000", "141241.611000", "141241.614000", "141241.618000", "141241.622000", "141241.625000", "141241.629000", "141241.632000", "141241.636000"],
      "InstanceNumber": [1, 2, 3, 4, 5, 6, 7, 8, 9, 10, 11, 12, 13, 14, 15, 16, 17, 18, 19, 20, 21, 22, 23, 24, 25, 26, 27, 28, 29, 30, 31, 32, 33, 34, 35, 36, 37, 38, 39, 40, 41, 42, 43, 44, 45, 46, 47, 48, 49, 50, 51, 52, 53, 54, 55, 56, 57, 58, 59, 60, 61, 62, 63, 64, 65, 66, 67, 68, 69, 70, 71, 72, 73, 74, 75, 76, 77, 78, 79, 80, 81, 82, 83, 84, 85, 86, 87, 88, 89, 90, 91, 92, 93, 94, 95, 96, 97, 98, 99, 100, 101, 102, 103, 104, 105, 106, 107, 108, 109, 110, 111, 112, 113, 114, 115, 116, 117, 118, 119, 120, 121, 122, 123, 124, 125, 126, 127, 128, 129, 130, 131, 132, 133, 134, 135, 136, 137, 138, 139, 140, 141, 142, 143, 144, 145, 146, 147, 148, 149, 150, 151, 152, 153, 154, 155, 156, 157, 158, 159, 160, 161, 162, 163, 164, 165, 166, 167, 168, 169, 170, 171, 172, 173, 174, 175, 176, 177, 178, 179, 180, 181, 182, 183, 184, 185, 186, 187, 188, 189, 190, 191, 192, 193, 194, 195, 196, 197, 198, 199, 200, 201, 202, 203, 204, 205, 206, 207, 208, 209, 210, 211, 212, 213, 214, 215, 216, 217, 218, 219, 220, 221, 222, 223, 224, 225, 226, 227, 228, 229, 230, 231, 232, 233, 234, 235, 236, 237, 238, 239, 240, 241, 242, 243, 244, 245, 246, 247, 248, 249, 250, 251, 252, 253, 254, 255, 256, 257, 258, 259, 260, 261, 262, 263, 264, 265, 266, 267, 268, 269, 270, 271, 272, 273, 274, 275, 276, 277, 278, 279, 280, 281, 282, 283, 284, 285, 286, 287, 288, 289, 290, 291, 292, 293, 294, 295, 296, 297, 298, 299, 300, 301, 302, 303, 304, 305, 306, 307, 308, 309, 310, 311, 312, 313, 314, 315, 316, 317, 318, 319],
      "LargestImagePixelValue": [40460, 39412, 38760, 38297, 38081, 38216, 38179, 37856, 38240, 37668, 38052, 37898, 38005, 37941, 37623, 38048, 38564, 38619, 39094, 38628, 39101, 38328, 38104, 38501, 38345, 38645, 38408, 37616, 37978, 38064, 37733, 38190, 38177, 38092, 37713, 38305, 38624, 38563, 39084, 38122, 38367, 38228, 38485, 38021, 38220, 38753, 39673, 37695, 38201, 38385, 38280, 38780, 38147, 38529, 38812, 38940, 38979, 38476, 37843, 37740, 37852, 37853, 37734, 38046, 38286, 38950, 38548, 37362, 37759, 37704, 38390, 38169, 37912, 38811, 38649, 38791, 38408, 38671, 36129, 37719, 39643, 37351, 37750, 38273, 38251, 37737, 37823, 37853, 37431, 37366, 37440, 38291, 39284, 38455, 38137, 37950, 37811, 38604, 38335, 38779, 38659, 38519, 38830, 38531, 38574, 38294, 38213, 38381, 38021, 38214, 39196, 39346, 38090, 37842, 37736, 37952, 38459, 37829, 37747, 38198, 37252, 37386, 37719, 37867, 37692, 37968, 37761, 38707, 37916, 37586, 38439, 38361, 38361, 37938, 37751, 37591, 39186, 37741, 37572, 37979, 38748, 38795, 38561, 38490, 38174, 38797, 37713, 39058, 39473, 39157, 38947, 38933, 38642, 38451, 38725, 38538, 38254, 38322, 38410, 38055, 38502, 38449, 38713, 38584, 38563, 38890, 39071, 38914, 38928, 39455, 39543, 38462, 38336, 38106, 37957, 38303, 37944, 37974, 38039, 39308, 37753, 41561, 39094, 38469, 38378, 38196, 38840, 39636, 39044, 38614, 38088, 38893, 39469, 39029, 39068, 39368, 39428, 38577, 40426, 38901, 38133, 38263, 39157, 39027, 38287, 39055, 39025, 39480, 39301, 38859, 39251, 39024, 38490, 38421, 39364, 39059, 38783, 38204, 38956, 39274, 37751, 38572, 37919, 38497, 38395, 37702, 37892, 37435, 38325, 38654, 38967, 38449, 37588, 38055, 38369, 38232, 40745, 38481, 39238, 38655, 38272, 37988, 38309, 38467, 38680, 38466, 38599, 38217, 40207, 38096, 37794, 37834, 38187, 38338, 38100, 39208, 37992, 38638, 39661, 38684, 38536, 38438, 38382, 37717, 37866, 39068, 38699, 38371, 38085, 38898, 38472, 38556, 38876, 38301, 38728, 38674, 37980, 38781, 38556, 38651, 37942, 38723, 39310, 38996, 37617, 41057, 38703, 37843, 37955, 37756, 38133, 38721, 38544, 38902, 38248, 38519, 37925, 37984, 38330, 38668, 39197, 39828, 38311, 37745, 37731, 37452, 37637, 38261, 38338, 38483, 38190, 38253, 38201, 37846, 37988, 37856, 37689, 38255, 38045],
