{
  "AcquisitionMatrixPE": 104,
  "AcquisitionNumber": 1,
  "AcquisitionTime": "14:32:57.895000",
  "BandwidthPerPixelPhaseEncode": 17.17,
  "BaseResolution": 104,
  "BodyPartExamined": "BRAIN",
  "CoilCombinationMethod": "Sum of Squares",
  "ConsistencyInfo": "N4_VE11C_LATEST_20160120",
  "ConversionSoftware": "dcm2niix",
  "ConversionSoftwareVersion": "v1.0.20220505",
  "DerivedVendorReportedEchoSpacing": 0.000560011,
  "DeviceSerialNumber": "167006",
  "DwellTime": 2.1e-06,
  "EchoTime": 0.037,
  "EchoTrainLength": 104,
  "EffectiveEchoSpacing": 0.000560011,
  "FlipAngle": 52,
  "HeudiconvVersion": "0.5.3.post811+g6206e14",
  "ImageComments": "Unaliased MB4/PE3/LB",
  "ImageOrientationPatientDICOM": [0.999346, 0.0336459, 0.013212, -0.0291362, 0.966112, -0.256472],
  "ImageOrientationText": "Tra>Cor(-14.8)>Sag(1.2)",
  "ImageType": [
    "ORIGINAL",
    "PRIMARY",
    "M",
    "MB",
    "ND",
    "MOSAIC"
],
  "ImagingFrequency": 123.26,
  "InPlanePhaseEncodingDirectionDICOM": "COL",
  "InstitutionAddress": "Chemin Queen-Mary 4565,Montreal,District,CA,H3W 1W5",
  "InstitutionName": "IUGM",
  "InstitutionalDepartmentName": "Department",
  "MRAcquisitionType": "2D",
  "MagneticFieldStrength": 3,
  "Manufacturer": "Siemens",
  "ManufacturersModelName": "Prisma_fit",
  "MatrixCoilMode": "SENSE",
  "Modality": "MR",
  "MultibandAccelerationFactor": 4,
  "PartialFourier": 1,
  "PatientPosition": "HFS",
  "PercentPhaseFOV": 100,
  "PercentSampling": 100,
  "PhaseEncodingDirection": "j",
  "PhaseEncodingSteps": 104,
  "PhaseResolution": 1,
  "PixelBandwidth": 2290,
  "ProcedureStepDescription": "games^mario3",
  "ProtocolName": "func_task-mario3_run-04",
  "PulseSequenceDetails": "%CustomerSeq%\\cmrr_mbep2d_bold",
  "ReceiveCoilActiveElements": "HC1-7;NC1,2",
  "ReceiveCoilName": "HeadNeck_64",
  "ReconMatrixPE": 104,
  "RepetitionTime": 1.49,
  "SAR": 0.0528349,
  "ScanOptions": "FS",
  "ScanningSequence": "EP",
  "SequenceName": "epfid2d1_104",
  "SequenceVariant": "SK\\SS",
  "SeriesDescription": "func_task-mario3_run-04",
  "SeriesNumber": 19,
  "ShimSetting": [620, -7231, -8775, 686, 67, -41, 36, -10],
  "SliceThickness": 2,
  "SliceTiming": [0, 0.785, 0.0975, 0.8825, 0.1975, 0.98, 0.295, 1.0775, 0.3925, 1.1775, 0.49, 1.275, 0.5875, 1.3725, 0.6875, 0, 0.785, 0.0975, 0.8825, 0.1975, 0.98, 0.295, 1.0775, 0.3925, 1.1775, 0.49, 1.275, 0.5875, 1.3725, 0.6875, 0, 0.785, 0.0975, 0.8825, 0.1975, 0.98, 0.295, 1.0775, 0.3925, 1.1775, 0.49, 1.275, 0.5875, 1.3725, 0.6875, 0, 0.785, 0.0975, 0.8825, 0.1975, 0.98, 0.295, 1.0775, 0.3925, 1.1775, 0.49, 1.275, 0.5875, 1.3725, 0.6875],
  "SoftwareVersions": "syngo MR E11",
  "SpacingBetweenSlices": 2,
  "StationName": "MRC35049",
  "TaskName": "mario3",
  "TotalReadoutTime": 0.0576811,
  "TxRefAmp": 221.793,
  "WipMemBlock": "e6d61496-02b6-4941-b529-3c1334a63724||Sequence: R017 ve11c/master r/75a17815+; Jun 28 2022 16:32:11 by eja",
  "dcmmeta_affine": [
    [-1.9986929893493652, -0.05827244371175766, 0.04278694838285446, 110.75809478759766],
    [-0.0672917291522026, 1.9322246313095093, -0.5118394494056702, -70.68160247802734],
    [0.026423929259181023, 0.5129445791244507, 1.9329224824905396, -58.12141418457031],
    [0.0, 0.0, 0.0, 1.0]
],
  "dcmmeta_reorient_transform": [
    [0.0, -1.0, 0.0, 103.0],
    [1.0, 0.0, 0.0, 0.0],
    [0.0, 0.0, 1.0, 0.0],
    [0.0, 0.0, 0.0, 1.0]
],
  "dcmmeta_shape": [104, 104, 60, 338],
  "dcmmeta_slice_dim": 2,
  "dcmmeta_version": 0.6,
  "global": {
    "const": {
      "AcquisitionMatrix": [104, 0, 0, 104],
      "AngioFlag": "N",
      "BitsAllocated": 16,
      "BitsStored": 16,
      "BodyPartExamined": "BRAIN",
      "Columns": 832,
      "EchoNumbers": 1,
      "EchoTime": 37.0,
      "EchoTrainLength": 104,
      "FlipAngle": 52.0,
      "HighBit": 15,
      "ImageOrientationPatient": [0.99934648635662, 0.03364586431669, 0.01321196507185, -0.0291362227678, 0.96611233832737, -0.2564722796999],
      "ImagePositionPatient": [-811.06910557516, -856.16151075709, 171.80538351306],
      "ImageType": [
        "ORIGINAL",
        "PRIMARY",
        "M",
        "MB",
        "ND",
        "MOSAIC"
],
      "ImagedNucleus": "1H",
      "ImagingFrequency": 123.260231,
      "InPlanePhaseEncodingDirection": "COL",
      "MRAcquisitionType": "2D",
      "MagneticFieldStrength": 3.0,
      "Manufacturer": "SIEMENS",
      "ManufacturerModelName": "Prisma_fit",
      "Modality": "MR",
      "NumberOfAverages": 1.0,
      "NumberOfPhaseEncodingSteps": 104,
      "PercentPhaseFieldOfView": 100.0,
      "PercentSampling": 100.0,
      "PerformedProcedureStepStartTime": "135934.265000",
      "PhotometricInterpretation": "MONOCHROME2",
      "PixelBandwidth": 2290.0,
      "PixelRepresentation": 0,
      "PixelSpacing": [2.0, 2.0],
      "ProtocolName": "func_task-mario3_run-04",
      "RepetitionTime": 1490.0,
      "Rows": 832,
      "SAR": 0.05283486093854,
      "SamplesPerPixel": 1,
      "ScanOptions": "FS",
      "ScanningSequence": "EP",
      "SequenceName": "epfid2d1_104",
      "SequenceVariant": [
        "SK",
        "SS"
],
      "SeriesDescription": "func_task-mario3_run-04",
      "SeriesNumber": 19,
      "SeriesTime": "143353.155000",
      "SliceLocation": -35.71378083697,
      "SliceThickness": 2.0,
      "SmallestImagePixelValue": 0,
      "SoftwareVersions": "syngo MR E11",
      "SpacingBetweenSlices": 1.9999999509428,
      "SpecificCharacterSet": "ISO_IR 100",
      "StudyID": "1",
      "StudyTime": "135934.194000",
      "TransmitCoilName": "Body",
      "VariableFlipAngleFlag": "N",
      "WindowCenterWidthExplanation": "Algo1",
      "dBdt": 0.0},
    "slices": {}
  },
  "time": {
    "samples": {
      "AcquisitionNumber": [1, 2, 3, 4, 5, 6, 7, 8, 9, 10, 11, 12, 13, 14, 15, 16, 17, 18, 19, 20, 21, 22, 23, 24, 25, 26, 27, 28, 29, 30, 31, 32, 33, 34, 35, 36, 37, 38, 39, 40, 41, 42, 43, 44, 45, 46, 47, 48, 49, 50, 51, 52, 53, 54, 55, 56, 57, 58, 59, 60, 61, 62, 63, 64, 65, 66, 67, 68, 69, 70, 71, 72, 73, 74, 75, 76, 77, 78, 79, 80, 81, 82, 83, 84, 85, 86, 87, 88, 89, 90, 91, 92, 93, 94, 95, 96, 97, 98, 99, 100, 101, 102, 103, 104, 105, 106, 107, 108, 109, 110, 111, 112, 113, 114, 115, 116, 117, 118, 119, 120, 121, 122, 123, 124, 125, 126, 127, 128, 129, 130, 131, 132, 133, 134, 135, 136, 137, 138, 139, 140, 141, 142, 143, 144, 145, 146, 147, 148, 149, 150, 151, 152, 153, 154, 155, 156, 157, 158, 159, 160, 161, 162, 163, 164, 165, 166, 167, 168, 169, 170, 171, 172, 173, 174, 175, 176, 177, 178, 179, 180, 181, 182, 183, 184, 185, 186, 187, 188, 189, 190, 191, 192, 193, 194, 195, 196, 197, 198, 199, 200, 201, 202, 203, 204, 205, 206, 207, 208, 209, 210, 211, 212, 213, 214, 215, 216, 217, 218, 219, 220, 221, 222, 223, 224, 225, 226, 227, 228, 229, 230, 231, 232, 233, 234, 235, 236, 237, 238, 239, 240, 241, 242, 243, 244, 245, 246, 247, 248, 249, 250, 251, 252, 253, 254, 255, 256, 257, 258, 259, 260, 261, 262, 263, 264, 265, 266, 267, 268, 269, 270, 271, 272, 273, 274, 275, 276, 277, 278, 279, 280, 281, 282, 283, 284, 285, 286, 287, 288, 289, 290, 291, 292, 293, 294, 295, 296, 297, 298, 299, 300, 301, 302, 303, 304, 305, 306, 307, 308, 309, 310, 311, 312, 313, 314, 315, 316, 317, 318, 319, 320, 321, 322, 323, 324, 325, 326, 327, 328, 329, 330, 331, 332, 333, 334, 335, 336, 337, 338],
      "AcquisitionTime": ["143257.895000", "143259.385000", "143300.875000", "143302.365000", "143303.855000", "143305.345000", "143306.835000", "143308.325000", "143309.815000", "143311.305000", "143312.795000", "143314.285000", "143315.775000", "143317.265000", "143318.755000", "143320.245000", "143321.735000", "143323.225000", "143324.715000", "143326.205000", "143327.695000", "143329.185000", "143330.675000", "143332.165000", "143333.655000", "143335.145000", "143336.635000", "143338.125000", "143339.615000", "143341.105000", "143342.595000", "143344.085000", "143345.575000", "143347.065000", "143348.555000", "143350.045000", "143351.535000", "143353.025000", "143354.515000", "143356.005000", "143357.495000", "143358.985000", "143400.475000", "143401.965000", "143403.455000", "143404.945000", "143406.435000", "143407.925000", "143409.415000", "143410.905000", "143412.395000", "143413.885000", "143415.375000", "143416.865000", "143418.355000", "143419.845000", "143421.335000", "143422.825000", "143424.315000", "143425.805000", "143427.295000", "143428.785000", "143430.275000", "143431.765000", "143433.255000", "143434.745000", "143436.235000", "143437.725000", "143439.215000", "143440.705000", "143442.195000", "143443.685000", "143445.175000", "143446.665000", "143448.155000", "143449.645000", "143451.135000", "143452.625000", "143454.115000", "143455.605000", "143457.095000", "143458.585000", "143500.075000", "143501.565000", "143503.055000", "143504.545000", "143506.035000", "143507.525000", "143509.015000", "143510.505000", "143511.995000", "143513.485000", "143514.975000", "143516.465000", "143517.955000", "143519.445000", "143520.935000", "143522.425000", "143523.915000", "143525.405000", "143526.895000", "143528.385000", "143529.875000", "143531.365000", "143532.855000", "143534.345000", "143535.835000", "143537.325000", "143538.815000", "143540.305000", "143541.795000", "143543.285000", "143544.775000", "143546.265000", "143547.755000", "143549.245000", "143550.735000", "143552.225000", "143553.715000", "143555.205000", "143556.695000", "143558.185000", "143559.675000", "143601.165000", "143602.655000", "143604.145000", "143605.635000", "143607.125000", "143608.615000", "143610.105000", "143611.595000", "143613.085000", "143614.575000", "143616.065000", "143617.555000", "143619.045000", "143620.535000", "143622.025000", "143623.515000", "143625.005000", "143626.495000", "143627.985000", "143629.475000", "143630.965000", "143632.455000", "143633.945000", "143635.435000", "143636.925000", "143638.415000", "143639.905000", "143641.395000", "143642.885000", "143644.375000", "143645.865000", "143647.355000", "143648.845000", "143650.335000", "143651.825000", "143653.315000", "143654.805000", "143656.295000", "143657.785000", "143659.275000", "143700.765000", "143702.255000", "143703.745000", "143705.235000", "143706.725000", "143708.215000", "143709.705000", "143711.195000", "143712.685000", "143714.175000", "143715.665000", "143717.155000", "143718.645000", "143720.135000", "143721.625000", "143723.115000", "143724.605000", "143726.095000", "143727.585000", "143729.075000", "143730.565000", "143732.055000", "143733.545000", "143735.035000", "143736.525000", "143738.015000", "143739.505000", "143740.995000", "143742.485000", "143743.975000", "143745.465000", "143746.955000", "143748.445000", "143749.935000", "143751.425000", "143752.915000", "143754.405000", "143755.895000", "143757.385000", "143758.875000", "143800.365000", "143801.855000", "143803.345000", "143804.835000", "143806.325000", "143807.815000", "143809.305000", "143810.795000", "143812.285000", "143813.775000", "143815.265000", "143816.755000", "143818.245000", "143819.735000", "143821.225000", "143822.715000", "143824.205000", "143825.695000", "143827.185000", "143828.675000", "143830.165000", "143831.655000", "143833.145000", "143834.635000", "143836.125000", "143837.615000", "143839.105000", "143840.595000", "143842.085000", "143843.575000", "143845.065000", "143846.555000", "143848.045000", "143849.535000", "143851.025000", "143852.515000", "143854.005000", "143855.495000", "143856.985000", "143858.475000", "143859.965000", "143901.455000", "143902.945000", "143904.435000", "143905.925000", "143907.415000", "143908.905000", "143910.395000", "143911.885000", "143913.375000", "143914.865000", "143916.355000", "143917.845000", "143919.335000", "143920.825000", "143922.315000", "143923.805000", "143925.295000", "143926.785000", "143928.275000", "143929.765000", "143931.255000", "143932.745000", "143934.235000", "143935.725000", "143937.215000", "143938.705000", "143940.195000", "143941.685000", "143943.175000", "143944.665000", "143946.155000", "143947.645000", "143949.135000", "143950.625000", "143952.115000", "143953.605000", "143955.095000", "143956.585000", "143958.075000", "143959.565000", "144001.055000", "144002.545000", "144004.035000", "144005.525000", "144007.015000", "144008.505000", "144009.995000", "144011.485000", "144012.975000", "144014.465000", "144015.955000", "144017.445000", "144018.935000", "144020.425000", "144021.915000", "144023.405000", "144024.895000", "144026.385000", "144027.875000", "144029.365000", "144030.855000", "144032.345000", "144033.835000", "144035.325000", "144036.815000", "144038.305000", "144039.795000", "144041.285000", "144042.775000", "144044.265000", "144045.755000", "144047.245000", "144048.735000", "144050.225000", "144051.715000", "144053.205000", "144054.695000", "144056.185000", "144057.675000", "144059.165000", "144100.655000", "144102.145000", "144103.635000", "144105.125000", "144106.615000", "144108.105000", "144109.595000", "144111.085000", "144112.575000", "144114.065000", "144115.555000", "144117.045000", "144118.535000", "144120.025000"],
      "ContentTime": ["143353.158000", "143353.170000", "143353.176000", "143353.179000", "143353.182000", "143353.185000", "143353.189000", "143413.122000", "143413.127000", "143413.130000", "143413.140000", "143413.144000", "143413.147000", "143413.150000", "143413.159000", "143413.163000", "143413.166000", "143413.169000", "143413.172000", "143413.176000", "143413.179000", "143413.182000", "143413.186000", "143413.189000", "143413.192000", "143413.195000", "143413.199000", "143433.122000", "143433.125000", "143433.146000", "143433.149000", "143433.152000", "143433.156000", "143433.159000", "143433.162000", "143433.166000", "143433.169000", "143433.172000", "143433.175000", "143433.179000", "143433.182000", "143433.185000", "143433.188000", "143433.192000", "143433.195000", "143433.198000", "143433.202000", "143433.205000", "143453.122000", "143453.126000", "143453.129000", "143453.132000", "143453.135000", "143453.139000", "143453.142000", "143453.145000", "143453.149000", "143453.152000", "143453.155000", "143453.158000", "143453.162000", "143453.165000", "143453.168000", "143453.172000", "143453.175000", "143453.178000", "143453.181000", "143453.185000", "143513.121000", "143513.125000", "143513.129000", "143513.132000", "143513.136000", "143513.139000", "143513.142000", "143513.146000", "143513.149000", "143513.153000", "143513.156000", "143513.160000", "143513.163000", "143513.166000", "143513.169000", "143513.173000", "143513.176000", "143513.179000", "143513.183000", "143513.186000", "143553.121000", "143553.125000", "143553.141000", "143553.144000", "143553.154000", "143553.157000", "143553.160000", "143553.163000", "143553.167000", "143553.170000", "143553.173000", "143553.177000", "143553.180000", "143553.183000", "143553.187000", "143553.190000", "143553.193000", "143553.197000", "143553.200000", "143553.204000", "143553.207000", "143553.210000", "143553.214000", "143553.217000", "143553.221000", "143553.224000", "143553.227000", "143553.231000", "143553.234000", "143633.122000", "143633.126000", "143633.129000", "143633.132000", "143633.136000", "143633.139000", "143633.143000", "143633.146000", "143633.149000", "143633.153000", "143633.156000", "143633.160000", "143633.163000", "143633.166000", "143633.170000", "143633.173000", "143633.176000", "143633.180000", "143633.183000", "143633.186000", "143633.189000", "143633.193000", "143633.196000", "143633.199000", "143633.203000", "143633.206000", "143633.209000", "143713.122000", "143713.126000", "143713.129000", "143713.132000", "143713.136000", "143713.139000", "143713.142000", "143713.146000", "143713.149000", "143713.153000", "143713.156000", "143713.159000", "143713.163000", "143713.166000", "143713.170000", "143713.173000", "143713.176000", "143713.180000", "143713.183000", "143713.186000", "143713.190000", "143713.193000", "143713.196000", "143713.200000", "143713.203000", "143713.206000", "143713.210000", "143753.121000", "143753.125000", "143753.129000", "143753.132000", "143753.136000", "143753.139000", "143753.142000", "143753.146000", "143753.149000", "143753.152000", "143753.156000", "143753.159000", "143753.162000", "143753.166000", "143753.169000", "143753.172000", "143753.176000", "143753.179000", "143753.182000", "143753.199000", "143753.209000", "143753.212000", "143753.215000", "143753.219000", "143753.222000", "143753.225000", "143833.122000", "143833.126000", "143833.129000", "143833.133000", "143833.136000", "143833.139000", "143833.143000", "143833.146000", "143833.149000", "143833.153000", "143833.156000", "143833.160000", "143833.163000", "143833.166000", "143833.170000", "143833.173000", "143833.176000", "143833.179000", "143833.183000", "143833.186000", "143833.190000", "143833.193000", "143833.196000", "143833.203000", "143833.206000", "143833.210000", "143833.213000", "143913.122000", "143913.126000", "143913.129000", "143913.133000", "143913.136000", "143913.139000", "143913.143000", "143913.146000", "143913.149000", "143913.153000", "143913.156000", "143913.174000", "143913.178000", "143913.181000", "143913.184000", "143913.188000", "143913.191000", "143913.194000", "143913.198000", "143913.201000", "143913.204000", "143913.208000", "143913.211000", "143913.215000", "143913.218000", "143913.221000", "143913.225000", "143953.121000", "143953.125000", "143953.128000", "143953.132000", "143953.135000", "143953.138000", "143953.142000", "143953.145000", "143953.148000", "143953.152000", "143953.155000", "143953.158000", "143953.162000", "143953.165000", "143953.168000", "143953.171000", "143953.185000", "143953.189000", "143953.192000", "143953.195000", "143953.198000", "143953.202000", "143953.205000", "143953.208000", "143953.212000", "143953.215000", "143953.224000", "144033.138000", "144033.141000", "144033.145000", "144033.148000", "144033.151000", "144033.154000", "144033.158000", "144033.161000", "144033.164000", "144033.168000", "144033.171000", "144033.175000", "144033.178000", "144033.182000", "144033.185000", "144033.188000", "144033.191000", "144033.195000", "144033.198000", "144033.201000", "144033.205000", "144033.208000", "144033.211000", "144033.215000", "144033.218000", "144033.221000", "144033.225000", "144113.122000", "144113.126000", "144113.129000", "144113.133000", "144113.136000", "144113.139000", "144113.143000", "144113.146000", "144113.150000", "144113.153000", "144113.156000", "144113.160000", "144113.163000", "144113.166000", "144113.170000", "144113.173000", "144113.176000", "144113.180000", "144113.183000", "144113.186000", "144113.190000", "144113.193000", "144113.197000", "144113.200000", "144113.203000", "144113.206000", "144113.210000", "144121.783000", "144121.787000", "144121.790000", "144121.793000", "144121.796000", "144121.800000"],
      "InstanceCreationTime": ["143353.158000", "143353.170000", "143353.176000", "143353.179000", "143353.182000", "143353.185000", "143353.189000", "143413.122000", "143413.127000", "143413.130000", "143413.140000", "143413.144000", "143413.147000", "143413.150000", "143413.159000", "143413.163000", "143413.166000", "143413.169000", "143413.172000", "143413.176000", "143413.179000", "143413.182000", "143413.186000", "143413.189000", "143413.192000", "143413.195000", "143413.199000", "143433.122000", "143433.125000", "143433.146000", "143433.149000", "143433.152000", "143433.156000", "143433.159000", "143433.162000", "143433.166000", "143433.169000", "143433.172000", "143433.175000", "143433.179000", "143433.182000", "143433.185000", "143433.188000", "143433.192000", "143433.195000", "143433.198000", "143433.202000", "143433.205000", "143453.122000", "143453.126000", "143453.129000", "143453.132000", "143453.135000", "143453.139000", "143453.142000", "143453.145000", "143453.149000", "143453.152000", "143453.155000", "143453.158000", "143453.162000", "143453.165000", "143453.168000", "143453.172000", "143453.175000", "143453.178000", "143453.181000", "143453.185000", "143513.121000", "143513.125000", "143513.129000", "143513.132000", "143513.136000", "143513.139000", "143513.142000", "143513.146000", "143513.149000", "143513.153000", "143513.156000", "143513.160000", "143513.163000", "143513.166000", "143513.169000", "143513.173000", "143513.176000", "143513.179000", "143513.183000", "143513.186000", "143553.121000", "143553.125000", "143553.141000", "143553.144000", "143553.154000", "143553.157000", "143553.160000", "143553.163000", "143553.167000", "143553.170000", "143553.173000", "143553.177000", "143553.180000", "143553.183000", "143553.187000", "143553.190000", "143553.193000", "143553.197000", "143553.200000", "143553.204000", "143553.207000", "143553.210000", "143553.214000", "143553.217000", "143553.221000", "143553.224000", "143553.227000", "143553.231000", "143553.234000", "143633.122000", "143633.126000", "143633.129000", "143633.132000", "143633.136000", "143633.139000", "143633.143000", "143633.146000", "143633.149000", "143633.153000", "143633.156000", "143633.160000", "143633.163000", "143633.166000", "143633.170000", "143633.173000", "143633.176000", "143633.180000", "143633.183000", "143633.186000", "143633.189000", "143633.193000", "143633.196000", "143633.199000", "143633.203000", "143633.206000", "143633.209000", "143713.122000", "143713.126000", "143713.129000", "143713.132000", "143713.136000", "143713.139000", "143713.142000", "143713.146000", "143713.149000", "143713.153000", "143713.156000", "143713.159000", "143713.163000", "143713.166000", "143713.170000", "143713.173000", "143713.176000", "143713.180000", "143713.183000", "143713.186000", "143713.190000", "143713.193000", "143713.196000", "143713.200000", "143713.203000", "143713.206000", "143713.210000", "143753.121000", "143753.125000", "143753.129000", "143753.132000", "143753.136000", "143753.139000", "143753.142000", "143753.146000", "143753.149000", "143753.152000", "143753.156000", "143753.159000", "143753.162000", "143753.166000", "143753.169000", "143753.172000", "143753.176000", "143753.179000", "143753.182000", "143753.199000", "143753.209000", "143753.212000", "143753.215000", "143753.219000", "143753.222000", "143753.225000", "143833.122000", "143833.126000", "143833.129000", "143833.133000", "143833.136000", "143833.139000", "143833.143000", "143833.146000", "143833.149000", "143833.153000", "143833.156000", "143833.160000", "143833.163000", "143833.166000", "143833.170000", "143833.173000", "143833.176000", "143833.179000", "143833.183000", "143833.186000", "143833.190000", "143833.193000", "143833.196000", "143833.203000", "143833.206000", "143833.210000", "143833.213000", "143913.122000", "143913.126000", "143913.129000", "143913.133000", "143913.136000", "143913.139000", "143913.143000", "143913.146000", "143913.149000", "143913.153000", "143913.156000", "143913.174000", "143913.178000", "143913.181000", "143913.184000", "143913.188000", "143913.191000", "143913.194000", "143913.198000", "143913.201000", "143913.204000", "143913.208000", "143913.211000", "143913.215000", "143913.218000", "143913.221000", "143913.225000", "143953.121000", "143953.125000", "143953.128000", "143953.132000", "143953.135000", "143953.138000", "143953.142000", "143953.145000", "143953.148000", "143953.152000", "143953.155000", "143953.158000", "143953.162000", "143953.165000", "143953.168000", "143953.171000", "143953.185000", "143953.189000", "143953.192000", "143953.195000", "143953.198000", "143953.202000", "143953.205000", "143953.208000", "143953.212000", "143953.215000", "143953.224000", "144033.138000", "144033.141000", "144033.145000", "144033.148000", "144033.151000", "144033.154000", "144033.158000", "144033.161000", "144033.164000", "144033.168000", "144033.171000", "144033.175000", "144033.178000", "144033.182000", "144033.185000", "144033.188000", "144033.191000", "144033.195000", "144033.198000", "144033.201000", "144033.205000", "144033.208000", "144033.211000", "144033.215000", "144033.218000", "144033.221000", "144033.225000", "144113.122000", "144113.126000", "144113.129000", "144113.133000", "144113.136000", "144113.139000", "144113.143000", "144113.146000", "144113.150000", "144113.153000", "144113.156000", "144113.160000", "144113.163000", "144113.166000", "144113.170000", "144113.173000", "144113.176000", "144113.180000", "144113.183000", "144113.186000", "144113.190000", "144113.193000", "144113.197000", "144113.200000", "144113.203000", "144113.206000", "144113.210000", "144121.783000", "144121.787000", "144121.790000", "144121.793000", "144121.796000", "144121.800000"],
      "InstanceNumber": [1, 2, 3, 4, 5, 6, 7, 8, 9, 10, 11, 12, 13, 14, 15, 16, 17, 18, 19, 20, 21, 22, 23, 24, 25, 26, 27, 28, 29, 30, 31, 32, 33, 34, 35, 36, 37, 38, 39, 40, 41, 42, 43, 44, 45, 46, 47, 48, 49, 50, 51, 52, 53, 54, 55, 56, 57, 58, 59, 60, 61, 62, 63, 64, 65, 66, 67, 68, 69, 70, 71, 72, 73, 74, 75, 76, 77, 78, 79, 80, 81, 82, 83, 84, 85, 86, 87, 88, 89, 90, 91, 92, 93, 94, 95, 96, 97, 98, 99, 100, 101, 102, 103, 104, 105, 106, 107, 108, 109, 110, 111, 112, 113, 114, 115, 116, 117, 118, 119, 120, 121, 122, 123, 124, 125, 126, 127, 128, 129, 130, 131, 132, 133, 134, 135, 136, 137, 138, 139, 140, 141, 142, 143, 144, 145, 146, 147, 148, 149, 150, 151, 152, 153, 154, 155, 156, 157, 158, 159, 160, 161, 162, 163, 164, 165, 166, 167, 168, 169, 170, 171, 172, 173, 174, 175, 176, 177, 178, 179, 180, 181, 182, 183, 184, 185, 186, 187, 188, 189, 190, 191, 192, 193, 194, 195, 196, 197, 198, 199, 200, 201, 202, 203, 204, 205, 206, 207, 208, 209, 210, 211, 212, 213, 214, 215, 216, 217, 218, 219, 220, 221, 222, 223, 224, 225, 226, 227, 228, 229, 230, 231, 232, 233, 234, 235, 236, 237, 238, 239, 240, 241, 242, 243, 244, 245, 246, 247, 248, 249, 250, 251, 252, 253, 254, 255, 256, 257, 258, 259, 260, 261, 262, 263, 264, 265, 266, 267, 268, 269, 270, 271, 272, 273, 274, 275, 276, 277, 278, 279, 280, 281, 282, 283, 284, 285, 286, 287, 288, 289, 290, 291, 292, 293, 294, 295, 296, 297, 298, 299, 300, 301, 302, 303, 304, 305, 306, 307, 308, 309, 310, 311, 312, 313, 314, 315, 316, 317, 318, 319, 320, 321, 322, 323, 324, 325, 326, 327, 328, 329, 330, 331, 332, 333, 334, 335, 336, 337, 338],
      "LargestImagePixelValue": [40485, 39491, 38748, 38898, 38427, 38740, 38179, 38392, 38546, 38310, 38172, 38113, 38519, 38592, 38778, 37919, 38436, 38841, 38105, 38488, 38983, 38635, 38591, 38072, 38055, 37908, 38448, 38403, 38721, 38934, 38215, 37977, 38153, 38676, 39659, 38252, 37892, 38119, 37852, 37421, 37626, 38430, 38401, 38313, 38566, 38522, 38019, 38029, 38276, 38174, 38426, 38831, 37847, 38122, 37809, 37711, 38024, 37870, 37815, 37592, 37576, 38075, 37991, 38323, 37865, 39182, 38336, 38383, 38896, 38761, 38603, 38729, 38697, 39023, 38478, 37975, 38450, 38224, 38296, 38697, 38348, 38407, 38584, 38396, 38421, 37998, 38369, 38216, 38112, 37793, 37544, 38271, 37239, 38087, 37795, 37535, 36892, 37666, 38201, 38652, 39028, 38374, 38547, 37926, 38540, 37831, 38511, 38047, 37740, 37464, 38178, 37980, 38257, 38504, 38339, 39125, 38345, 38205, 38197, 38488, 38469, 38207, 38327, 38467, 38145, 38587, 37827, 37998, 38584, 38257, 38245, 38134, 38541, 38582, 37599, 37516, 37882, 37926, 37812, 37904, 38005, 38353, 38891, 38050, 38007, 37955, 37830, 37677, 37750, 37637, 37777, 37456, 37847, 37880, 37875, 37389, 38508, 38352, 37697, 37689, 37798, 37872, 37337, 37989, 37773, 37468, 37825, 38048, 37590, 37253, 37922, 37917, 38292, 38398, 38083, 37966, 37938, 38327, 37694, 38196, 38109, 37695, 37899, 38017, 38189, 37971, 38087, 37978, 37814, 38995, 37834, 38032, 38100, 37846, 37978, 38411, 38738, 38274, 39303, 39197, 38490, 38219, 38390, 38512, 38290, 38327, 38515, 38495, 38051, 38500, 38265, 38221, 38310, 38566, 38514, 38429, 37577, 38252, 38212, 37429, 37745, 38060, 38120, 38296, 38473, 37373, 37618, 37701, 37726, 38350, 38951, 38124, 38003, 38109, 38200, 37979, 38767, 37970, 38823, 39157, 38950, 38400, 38483, 38829, 38979, 38935, 38254, 38595, 38692, 38645, 38665, 37325, 37687, 37505, 38278, 38469, 38069, 38052, 38948, 38471, 38420, 38731, 37766, 38593, 38710, 38713, 38179, 38382, 38480, 38601, 38613, 38145, 37554, 38068, 38127, 38575, 38080, 38299, 38497, 38367, 37952, 38302, 38309, 38448, 38245, 38322, 38596, 38940, 38179, 38935, 38694, 38862, 38983, 38704, 38744, 38939, 38937, 38836, 38963, 38648, 38964, 38673, 38428, 38540, 38599, 38498, 38305, 38784, 38193, 38501, 38379, 38656, 38606, 38454, 38502, 38405, 38195, 38820, 39093, 39044, 38312, 38155, 38027, 38404, 38223, 40244, 37912, 37998, 38796, 38878, 39250, 38948, 38843, 38583, 38715, 38688, 37685, 38227],
