{
  "AcquisitionMatrixPE": 104,
  "AcquisitionNumber": 1,
  "AcquisitionTime": "14:24:24.997500",
  "BandwidthPerPixelPhaseEncode": 17.17,
  "BaseResolution": 104,
  "BodyPartExamined": "BRAIN",
  "CoilCombinationMethod": "Sum of Squares",
  "ConsistencyInfo": "N4_VE11C_LATEST_20160120",
  "ConversionSoftware": "dcm2niix",
  "ConversionSoftwareVersion": "v1.0.20220505",
  "DerivedVendorReportedEchoSpacing": 0.000560011,
  "DeviceSerialNumber": "167006",
  "DwellTime": 2.1e-06,
  "EchoTime": 0.037,
  "EchoTrainLength": 104,
  "EffectiveEchoSpacing": 0.000560011,
  "FlipAngle": 52,
  "HeudiconvVersion": "0.5.3.post811+g6206e14",
  "ImageComments": "Unaliased MB4/PE3/LB",
  "ImageOrientationPatientDICOM": [0.999346, 0.0336459, 0.013212, -0.0291362, 0.966112, -0.256472],
  "ImageOrientationText": "Tra>Cor(-14.8)>Sag(1.2)",
  "ImageType": [
    "ORIGINAL",
    "PRIMARY",
    "M",
    "MB",
    "ND",
    "MOSAIC"
],
  "ImagingFrequency": 123.26,
  "InPlanePhaseEncodingDirectionDICOM": "COL",
  "InstitutionAddress": "Chemin Queen-Mary 4565,Montreal,District,CA,H3W 1W5",
  "InstitutionName": "IUGM",
  "InstitutionalDepartmentName": "Department",
  "MRAcquisitionType": "2D",
  "MagneticFieldStrength": 3,
  "Manufacturer": "Siemens",
  "ManufacturersModelName": "Prisma_fit",
  "MatrixCoilMode": "SENSE",
  "Modality": "MR",
  "MultibandAccelerationFactor": 4,
  "PartialFourier": 1,
  "PatientPosition": "HFS",
  "PercentPhaseFOV": 100,
  "PercentSampling": 100,
  "PhaseEncodingDirection": "j",
  "PhaseEncodingSteps": 104,
  "PhaseResolution": 1,
  "PixelBandwidth": 2290,
  "ProcedureStepDescription": "games^mario3",
  "ProtocolName": "func_task-mario3_run-03",
  "PulseSequenceDetails": "%CustomerSeq%\\cmrr_mbep2d_bold",
  "ReceiveCoilActiveElements": "HC1-7;NC1,2",
  "ReceiveCoilName": "HeadNeck_64",
  "ReconMatrixPE": 104,
  "RepetitionTime": 1.49,
  "SAR": 0.0528349,
  "ScanOptions": "FS",
  "ScanningSequence": "EP",
  "SequenceName": "epfid2d1_104",
  "SequenceVariant": "SK\\SS",
  "SeriesDescription": "func_task-mario3_run-03",
  "SeriesNumber": 16,
  "ShimSetting": [620, -7231, -8775, 686, 67, -41, 36, -10],
  "SliceThickness": 2,
  "SliceTiming": [0, 0.785, 0.1, 0.8825, 0.1975, 0.98, 0.295, 1.08, 0.3925, 1.1775, 0.49, 1.275, 0.59, 1.3725, 0.6875, 0, 0.785, 0.1, 0.8825, 0.1975, 0.98, 0.295, 1.08, 0.3925, 1.1775, 0.49, 1.275, 0.59, 1.3725, 0.6875, 0, 0.785, 0.1, 0.8825, 0.1975, 0.98, 0.295, 1.08, 0.3925, 1.1775, 0.49, 1.275, 0.59, 1.3725, 0.6875, 0, 0.785, 0.1, 0.8825, 0.1975, 0.98, 0.295, 1.08, 0.3925, 1.1775, 0.49, 1.275, 0.59, 1.3725, 0.6875],
  "SoftwareVersions": "syngo MR E11",
  "SpacingBetweenSlices": 2,
  "StationName": "MRC35049",
  "TaskName": "mario3",
  "TotalReadoutTime": 0.0576811,
  "TxRefAmp": 221.793,
  "WipMemBlock": "d71b2b36-acf9-43ec-9019-1dd3a7ed53c4||Sequence: R017 ve11c/master r/75a17815+; Jun 28 2022 16:32:11 by eja",
  "dcmmeta_affine": [
    [-1.9986929893493652, -0.05827244371175766, 0.04278694838285446, 110.75809478759766],
    [-0.0672917291522026, 1.9322246313095093, -0.5118394494056702, -70.68160247802734],
    [0.026423929259181023, 0.5129445791244507, 1.9329224824905396, -58.12141418457031],
    [0.0, 0.0, 0.0, 1.0]
],
  "dcmmeta_reorient_transform": [
    [0.0, -1.0, 0.0, 103.0],
    [1.0, 0.0, 0.0, 0.0],
    [0.0, 0.0, 1.0, 0.0],
    [0.0, 0.0, 0.0, 1.0]
],
  "dcmmeta_shape": [104, 104, 60, 297],
  "dcmmeta_slice_dim": 2,
  "dcmmeta_version": 0.6,
  "global": {
    "const": {
      "AcquisitionMatrix": [104, 0, 0, 104],
      "AngioFlag": "N",
      "BitsAllocated": 16,
      "BitsStored": 16,
      "BodyPartExamined": "BRAIN",
      "Columns": 832,
      "EchoNumbers": 1,
      "EchoTime": 37.0,
      "EchoTrainLength": 104,
      "FlipAngle": 52.0,
      "HighBit": 15,
      "ImageOrientationPatient": [0.99934648635662, 0.03364586431669, 0.01321196507185, -0.0291362227678, 0.96611233832737, -0.2564722796999],
      "ImagePositionPatient": [-811.06910557516, -856.16151075709, 171.80538351306],
      "ImageType": [
        "ORIGINAL",
        "PRIMARY",
        "M",
        "MB",
        "ND",
        "MOSAIC"
],
      "ImagedNucleus": "1H",
      "ImagingFrequency": 123.26023,
      "InPlanePhaseEncodingDirection": "COL",
      "MRAcquisitionType": "2D",
      "MagneticFieldStrength": 3.0,
      "Manufacturer": "SIEMENS",
      "ManufacturerModelName": "Prisma_fit",
      "Modality": "MR",
      "NumberOfAverages": 1.0,
      "NumberOfPhaseEncodingSteps": 104,
      "PercentPhaseFieldOfView": 100.0,
      "PercentSampling": 100.0,
      "PerformedProcedureStepStartTime": "135934.265000",
      "PhotometricInterpretation": "MONOCHROME2",
      "PixelBandwidth": 2290.0,
      "PixelRepresentation": 0,
      "PixelSpacing": [2.0, 2.0],
      "ProtocolName": "func_task-mario3_run-03",
      "RepetitionTime": 1490.0,
      "Rows": 832,
      "SAR": 0.05283486093854,
      "SamplesPerPixel": 1,
      "ScanOptions": "FS",
      "ScanningSequence": "EP",
      "SequenceName": "epfid2d1_104",
      "SequenceVariant": [
        "SK",
        "SS"
],
      "SeriesDescription": "func_task-mario3_run-03",
      "SeriesNumber": 16,
      "SeriesTime": "142524.690000",
      "SliceLocation": -35.71378083697,
      "SliceThickness": 2.0,
      "SmallestImagePixelValue": 0,
      "SoftwareVersions": "syngo MR E11",
      "SpacingBetweenSlices": 1.9999999509428,
      "SpecificCharacterSet": "ISO_IR 100",
      "StudyID": "1",
      "StudyTime": "135934.194000",
      "TransmitCoilName": "Body",
      "VariableFlipAngleFlag": "N",
      "WindowCenterWidthExplanation": "Algo1",
      "dBdt": 0.0},
    "slices": {}
  },
  "time": {
    "samples": {
      "AcquisitionNumber": [1, 2, 3, 4, 5, 6, 7, 8, 9, 10, 11, 12, 13, 14, 15, 16, 17, 18, 19, 20, 21, 22, 23, 24, 25, 26, 27, 28, 29, 30, 31, 32, 33, 34, 35, 36, 37, 38, 39, 40, 41, 42, 43, 44, 45, 46, 47, 48, 49, 50, 51, 52, 53, 54, 55, 56, 57, 58, 59, 60, 61, 62, 63, 64, 65, 66, 67, 68, 69, 70, 71, 72, 73, 74, 75, 76, 77, 78, 79, 80, 81, 82, 83, 84, 85, 86, 87, 88, 89, 90, 91, 92, 93, 94, 95, 96, 97, 98, 99, 100, 101, 102, 103, 104, 105, 106, 107, 108, 109, 110, 111, 112, 113, 114, 115, 116, 117, 118, 119, 120, 121, 122, 123, 124, 125, 126, 127, 128, 129, 130, 131, 132, 133, 134, 135, 136, 137, 138, 139, 140, 141, 142, 143, 144, 145, 146, 147, 148, 149, 150, 151, 152, 153, 154, 155, 156, 157, 158, 159, 160, 161, 162, 163, 164, 165, 166, 167, 168, 169, 170, 171, 172, 173, 174, 175, 176, 177, 178, 179, 180, 181, 182, 183, 184, 185, 186, 187, 188, 189, 190, 191, 192, 193, 194, 195, 196, 197, 198, 199, 200, 201, 202, 203, 204, 205, 206, 207, 208, 209, 210, 211, 212, 213, 214, 215, 216, 217, 218, 219, 220, 221, 222, 223, 224, 225, 226, 227, 228, 229, 230, 231, 232, 233, 234, 235, 236, 237, 238, 239, 240, 241, 242, 243, 244, 245, 246, 247, 248, 249, 250, 251, 252, 253, 254, 255, 256, 257, 258, 259, 260, 261, 262, 263, 264, 265, 266, 267, 268, 269, 270, 271, 272, 273, 274, 275, 276, 277, 278, 279, 280, 281, 282, 283, 284, 285, 286, 287, 288, 289, 290, 291, 292, 293, 294, 295, 296, 297],
      "AcquisitionTime": ["142424.997500", "142426.487500", "142427.977500", "142429.467500", "142430.957500", "142432.447500", "142433.937500", "142435.427500", "142436.917500", "142438.407500", "142439.897500", "142441.387500", "142442.877500", "142444.367500", "142445.857500", "142447.347500", "142448.837500", "142450.327500", "142451.817500", "142453.307500", "142454.797500", "142456.287500", "142457.777500", "142459.267500", "142500.757500", "142502.247500", "142503.737500", "142505.227500", "142506.717500", "142508.207500", "142509.697500", "142511.187500", "142512.677500", "142514.167500", "142515.657500", "142517.147500", "142518.637500", "142520.127500", "142521.617500", "142523.107500", "142524.597500", "142526.087500", "142527.577500", "142529.067500", "142530.557500", "142532.047500", "142533.537500", "142535.027500", "142536.517500", "142538.007500", "142539.497500", "142540.987500", "142542.477500", "142543.967500", "142545.457500", "142546.947500", "142548.437500", "142549.927500", "142551.417500", "142552.907500", "142554.397500", "142555.887500", "142557.377500", "142558.867500", "142600.357500", "142601.847500", "142603.337500", "142604.827500", "142606.317500", "142607.807500", "142609.297500", "142610.787500", "142612.277500", "142613.767500", "142615.257500", "142616.747500", "142618.237500", "142619.727500", "142621.217500", "142622.707500", "142624.197500", "142625.687500", "142627.177500", "142628.667500", "142630.157500", "142631.647500", "142633.137500", "142634.627500", "142636.117500", "142637.607500", "142639.097500", "142640.587500", "142642.077500", "142643.567500", "142645.057500", "142646.547500", "142648.037500", "142649.527500", "142651.017500", "142652.507500", "142653.997500", "142655.487500", "142656.977500", "142658.467500", "142659.957500", "142701.447500", "142702.937500", "142704.427500", "142705.917500", "142707.407500", "142708.897500", "142710.387500", "142711.877500", "142713.367500", "142714.857500", "142716.347500", "142717.837500", "142719.327500", "142720.817500", "142722.307500", "142723.797500", "142725.287500", "142726.777500", "142728.267500", "142729.757500", "142731.247500", "142732.737500", "142734.227500", "142735.717500", "142737.207500", "142738.697500", "142740.187500", "142741.677500", "142743.167500", "142744.657500", "142746.147500", "142747.637500", "142749.127500", "142750.617500", "142752.107500", "142753.597500", "142755.087500", "142756.577500", "142758.067500", "142759.557500", "142801.047500", "142802.537500", "142804.027500", "142805.517500", "142807.007500", "142808.497500", "142809.987500", "142811.477500", "142812.967500", "142814.457500", "142815.947500", "142817.437500", "142818.927500", "142820.417500", "142821.907500", "142823.397500", "142824.887500", "142826.377500", "142827.867500", "142829.357500", "142830.847500", "142832.337500", "142833.827500", "142835.317500", "142836.807500", "142838.297500", "142839.787500", "142841.277500", "142842.767500", "142844.257500", "142845.747500", "142847.237500", "142848.727500", "142850.217500", "142851.707500", "142853.197500", "142854.687500", "142856.177500", "142857.667500", "142859.157500", "142900.647500", "142902.137500", "142903.627500", "142905.117500", "142906.607500", "142908.097500", "142909.587500", "142911.077500", "142912.567500", "142914.057500", "142915.547500", "142917.037500", "142918.527500", "142920.017500", "142921.507500", "142922.997500", "142924.487500", "142925.977500", "142927.467500", "142928.957500", "142930.447500", "142931.937500", "142933.427500", "142934.917500", "142936.407500", "142937.897500", "142939.387500", "142940.877500", "142942.367500", "142943.857500", "142945.347500", "142946.837500", "142948.327500", "142949.817500", "142951.307500", "142952.797500", "142954.287500", "142955.777500", "142957.267500", "142958.757500", "143000.247500", "143001.737500", "143003.227500", "143004.717500", "143006.207500", "143007.697500", "143009.187500", "143010.677500", "143012.167500", "143013.657500", "143015.147500", "143016.637500", "143018.127500", "143019.617500", "143021.107500", "143022.597500", "143024.087500", "143025.577500", "143027.067500", "143028.557500", "143030.047500", "143031.537500", "143033.027500", "143034.517500", "143036.007500", "143037.497500", "143038.987500", "143040.477500", "143041.967500", "143043.457500", "143044.947500", "143046.437500", "143047.927500", "143049.417500", "143050.907500", "143052.397500", "143053.887500", "143055.377500", "143056.867500", "143058.357500", "143059.847500", "143101.337500", "143102.827500", "143104.317500", "143105.807500", "143107.297500", "143108.787500", "143110.277500", "143111.767500", "143113.257500", "143114.747500", "143116.237500", "143117.727500", "143119.217500", "143120.707500", "143122.197500", "143123.687500", "143125.177500", "143126.667500", "143128.157500", "143129.647500", "143131.137500", "143132.627500", "143134.117500", "143135.607500", "143137.097500", "143138.587500", "143140.077500", "143141.567500", "143143.057500", "143144.547500", "143146.037500"],
      "ContentTime": ["142524.693000", "142524.697000", "142524.709000", "142524.712000", "142524.721000", "142524.724000", "142524.727000", "142524.731000", "142524.734000", "142544.642000", "142544.646000", "142544.649000", "142544.652000", "142544.656000", "142544.659000", "142544.662000", "142544.665000", "142544.669000", "142544.672000", "142544.675000", "142544.679000", "142544.682000", "142544.685000", "142544.688000", "142544.692000", "142544.695000", "142544.698000", "142544.701000", "142544.705000", "142604.641000", "142604.645000", "142604.648000", "142604.659000", "142604.662000", "142604.665000", "142604.669000", "142604.672000", "142604.675000", "142604.679000", "142604.682000", "142604.685000", "142604.688000", "142604.692000", "142604.695000", "142604.698000", "142604.701000", "142604.705000", "142604.708000", "142604.711000", "142624.641000", "142624.645000", "142624.648000", "142624.651000", "142624.655000", "142624.658000", "142624.661000", "142624.665000", "142624.674000", "142624.677000", "142624.681000", "142624.685000", "142624.688000", "142624.691000", "142624.694000", "142624.698000", "142624.701000", "142624.704000", "142624.707000", "142624.711000", "142624.714000", "142644.641000", "142644.645000", "142644.648000", "142644.651000", "142644.655000", "142644.658000", "142644.662000", "142644.665000", "142644.668000", "142644.671000", "142644.675000", "142644.678000", "142644.681000", "142644.685000", "142644.688000", "142644.691000", "142644.695000", "142644.698000", "142644.701000", "142644.705000", "142724.641000", "142724.645000", "142724.648000", "142724.651000", "142724.662000", "142724.665000", "142724.668000", "142724.672000", "142724.675000", "142724.678000", "142724.682000", "142724.685000", "142724.688000", "142724.692000", "142724.704000", "142724.707000", "142724.711000", "142724.714000", "142724.717000", "142724.721000", "142724.724000", "142724.727000", "142724.731000", "142724.734000", "142724.748000", "142724.751000", "142724.754000", "142724.758000", "142724.762000", "142724.765000", "142804.642000", "142804.646000", "142804.649000", "142804.653000", "142804.656000", "142804.659000", "142804.663000", "142804.666000", "142804.669000", "142804.673000", "142804.676000", "142804.696000", "142804.699000", "142804.703000", "142804.706000", "142804.709000", "142804.713000", "142804.716000", "142804.719000", "142804.723000", "142804.726000", "142804.729000", "142804.733000", "142804.736000", "142804.739000", "142804.743000", "142844.641000", "142844.645000", "142844.648000", "142844.652000", "142844.655000", "142844.658000", "142844.662000", "142844.665000", "142844.669000", "142844.672000", "142844.675000", "142844.679000", "142844.682000", "142844.685000", "142844.689000", "142844.692000", "142844.696000", "142844.699000", "142844.702000", "142844.706000", "142844.709000", "142844.712000", "142844.715000", "142844.719000", "142844.722000", "142844.726000", "142844.729000", "142924.641000", "142924.645000", "142924.648000", "142924.652000", "142924.655000", "142924.659000", "142924.662000", "142924.665000", "142924.669000", "142924.672000", "142924.675000", "142924.679000", "142924.682000", "142924.686000", "142924.689000", "142924.692000", "142924.696000", "142924.699000", "142924.703000", "142924.706000", "142924.709000", "142924.713000", "142924.716000", "142924.719000", "142924.723000", "142924.726000", "142924.730000", "143004.641000", "143004.645000", "143004.648000", "143004.652000", "143004.655000", "143004.658000", "143004.662000", "143004.665000", "143004.668000", "143004.672000", "143004.675000", "143004.688000", "143004.692000", "143004.695000", "143004.698000", "143004.702000", "143004.707000", "143004.711000", "143004.714000", "143004.717000", "143004.721000", "143004.724000", "143004.727000", "143004.731000", "143004.734000", "143004.738000", "143004.741000", "143044.641000", "143044.645000", "143044.648000", "143044.652000", "143044.655000", "143044.659000", "143044.662000", "143044.665000", "143044.669000", "143044.672000", "143044.675000", "143044.679000", "143044.682000", "143044.686000", "143044.689000", "143044.692000", "143044.696000", "143044.699000", "143044.703000", "143044.706000", "143044.709000", "143044.713000", "143044.726000", "143044.730000", "143044.733000", "143044.737000", "143044.740000", "143124.641000", "143124.645000", "143124.648000", "143124.652000", "143124.655000", "143124.658000", "143124.662000", "143124.665000", "143124.668000", "143124.672000", "143124.675000", "143124.678000", "143124.681000", "143124.685000", "143124.688000", "143124.692000", "143124.695000", "143124.698000", "143124.708000", "143124.712000", "143124.715000", "143124.718000", "143124.722000", "143124.725000", "143124.728000", "143124.731000", "143124.735000", "143148.951000", "143148.957000", "143148.961000", "143148.964000", "143148.968000", "143148.971000", "143148.975000", "143148.978000", "143148.981000", "143148.985000", "143148.988000", "143148.991000", "143149.008000", "143149.018000", "143149.021000", "143149.025000"],
      "InstanceCreationTime": ["142524.693000", "142524.697000", "142524.709000", "142524.712000", "142524.721000", "142524.724000", "142524.727000", "142524.731000", "142524.734000", "142544.642000", "142544.646000", "142544.649000", "142544.652000", "142544.656000", "142544.659000", "142544.662000", "142544.665000", "142544.669000", "142544.672000", "142544.675000", "142544.679000", "142544.682000", "142544.685000", "142544.688000", "142544.692000", "142544.695000", "142544.698000", "142544.701000", "142544.705000", "142604.641000", "142604.645000", "142604.648000", "142604.659000", "142604.662000", "142604.665000", "142604.669000", "142604.672000", "142604.675000", "142604.679000", "142604.682000", "142604.685000", "142604.688000", "142604.692000", "142604.695000", "142604.698000", "142604.701000", "142604.705000", "142604.708000", "142604.711000", "142624.641000", "142624.645000", "142624.648000", "142624.651000", "142624.655000", "142624.658000", "142624.661000", "142624.665000", "142624.674000", "142624.677000", "142624.681000", "142624.685000", "142624.688000", "142624.691000", "142624.694000", "142624.698000", "142624.701000", "142624.704000", "142624.707000", "142624.711000", "142624.714000", "142644.641000", "142644.645000", "142644.648000", "142644.651000", "142644.655000", "142644.658000", "142644.662000", "142644.665000", "142644.668000", "142644.671000", "142644.675000", "142644.678000", "142644.681000", "142644.685000", "142644.688000", "142644.691000", "142644.695000", "142644.698000", "142644.701000", "142644.705000", "142724.641000", "142724.645000", "142724.648000", "142724.651000", "142724.662000", "142724.665000", "142724.668000", "142724.672000", "142724.675000", "142724.678000", "142724.682000", "142724.685000", "142724.688000", "142724.692000", "142724.704000", "142724.707000", "142724.711000", "142724.714000", "142724.717000", "142724.721000", "142724.724000", "142724.727000", "142724.731000", "142724.734000", "142724.748000", "142724.751000", "142724.754000", "142724.758000", "142724.762000", "142724.765000", "142804.642000", "142804.646000", "142804.649000", "142804.653000", "142804.656000", "142804.659000", "142804.663000", "142804.666000", "142804.669000", "142804.673000", "142804.676000", "142804.696000", "142804.699000", "142804.703000", "142804.706000", "142804.709000", "142804.713000", "142804.716000", "142804.719000", "142804.723000", "142804.726000", "142804.729000", "142804.733000", "142804.736000", "142804.739000", "142804.743000", "142844.641000", "142844.645000", "142844.648000", "142844.652000", "142844.655000", "142844.658000", "142844.662000", "142844.665000", "142844.669000", "142844.672000", "142844.675000", "142844.679000", "142844.682000", "142844.685000", "142844.689000", "142844.692000", "142844.696000", "142844.699000", "142844.702000", "142844.706000", "142844.709000", "142844.712000", "142844.715000", "142844.719000", "142844.722000", "142844.726000", "142844.729000", "142924.641000", "142924.645000", "142924.648000", "142924.652000", "142924.655000", "142924.659000", "142924.662000", "142924.665000", "142924.669000", "142924.672000", "142924.675000", "142924.679000", "142924.682000", "142924.686000", "142924.689000", "142924.692000", "142924.696000", "142924.699000", "142924.703000", "142924.706000", "142924.709000", "142924.713000", "142924.716000", "142924.719000", "142924.723000", "142924.726000", "142924.730000", "143004.641000", "143004.645000", "143004.648000", "143004.652000", "143004.655000", "143004.658000", "143004.662000", "143004.665000", "143004.668000", "143004.672000", "143004.675000", "143004.688000", "143004.692000", "143004.695000", "143004.698000", "143004.702000", "143004.707000", "143004.711000", "143004.714000", "143004.717000", "143004.721000", "143004.724000", "143004.727000", "143004.731000", "143004.734000", "143004.738000", "143004.741000", "143044.641000", "143044.645000", "143044.648000", "143044.652000", "143044.655000", "143044.659000", "143044.662000", "143044.665000", "143044.669000", "143044.672000", "143044.675000", "143044.679000", "143044.682000", "143044.686000", "143044.689000", "143044.692000", "143044.696000", "143044.699000", "143044.703000", "143044.706000", "143044.709000", "143044.713000", "143044.726000", "143044.730000", "143044.733000", "143044.737000", "143044.740000", "143124.641000", "143124.645000", "143124.648000", "143124.652000", "143124.655000", "143124.658000", "143124.662000", "143124.665000", "143124.668000", "143124.672000", "143124.675000", "143124.678000", "143124.681000", "143124.685000", "143124.688000", "143124.692000", "143124.695000", "143124.698000", "143124.708000", "143124.712000", "143124.715000", "143124.718000", "143124.722000", "143124.725000", "143124.728000", "143124.731000", "143124.735000", "143148.951000", "143148.957000", "143148.961000", "143148.964000", "143148.968000", "143148.971000", "143148.975000", "143148.978000", "143148.981000", "143148.985000", "143148.988000", "143148.991000", "143149.008000", "143149.018000", "143149.021000", "143149.025000"],
      "InstanceNumber": [1, 2, 3, 4, 5, 6, 7, 8, 9, 10, 11, 12, 13, 14, 15, 16, 17, 18, 19, 20, 21, 22, 23, 24, 25, 26, 27, 28, 29, 30, 31, 32, 33, 34, 35, 36, 37, 38, 39, 40, 41, 42, 43, 44, 45, 46, 47, 48, 49, 50, 51, 52, 53, 54, 55, 56, 57, 58, 59, 60, 61, 62, 63, 64, 65, 66, 67, 68, 69, 70, 71, 72, 73, 74, 75, 76, 77, 78, 79, 80, 81, 82, 83, 84, 85, 86, 87, 88, 89, 90, 91, 92, 93, 94, 95, 96, 97, 98, 99, 100, 101, 102, 103, 104, 105, 106, 107, 108, 109, 110, 111, 112, 113, 114, 115, 116, 117, 118, 119, 120, 121, 122, 123, 124, 125, 126, 127, 128, 129, 130, 131, 132, 133, 134, 135, 136, 137, 138, 139, 140, 141, 142, 143, 144, 145, 146, 147, 148, 149, 150, 151, 152, 153, 154, 155, 156, 157, 158, 159, 160, 161, 162, 163, 164, 165, 166, 167, 168, 169, 170, 171, 172, 173, 174, 175, 176, 177, 178, 179, 180, 181, 182, 183, 184, 185, 186, 187, 188, 189, 190, 191, 192, 193, 194, 195, 196, 197, 198, 199, 200, 201, 202, 203, 204, 205, 206, 207, 208, 209, 210, 211, 212, 213, 214, 215, 216, 217, 218, 219, 220, 221, 222, 223, 224, 225, 226, 227, 228, 229, 230, 231, 232, 233, 234, 235, 236, 237, 238, 239, 240, 241, 242, 243, 244, 245, 246, 247, 248, 249, 250, 251, 252, 253, 254, 255, 256, 257, 258, 259, 260, 261, 262, 263, 264, 265, 266, 267, 268, 269, 270, 271, 272, 273, 274, 275, 276, 277, 278, 279, 280, 281, 282, 283, 284, 285, 286, 287, 288, 289, 290, 291, 292, 293, 294, 295, 296, 297],
      "LargestImagePixelValue": [39987, 39220, 38590, 38195, 37966, 38057, 38255, 38169, 37855, 38312, 38385, 37271, 37098, 37664, 37225, 37752, 37165, 37046, 37638, 37618, 38023, 38232, 38120, 37653, 38966, 38568, 38456, 37652, 37892, 37536, 37695, 37842, 38041, 38007, 37741, 38016, 38095, 37909, 37962, 37878, 38702, 37961, 38222, 37706, 38248, 38076, 37810, 38248, 38395, 37578, 37679, 38241, 38363, 38506, 37280, 37878, 38522, 38666, 38161, 38497, 38683, 38414, 38211, 38122, 38683, 38479, 38150, 38456, 38438, 38314, 37829, 38254, 37567, 37808, 37889, 38196, 37970, 38387, 37891, 37796, 37808, 37535, 37700, 37724, 37697, 38226, 37938, 38003, 38319, 37859, 37796, 37560, 38122, 37537, 37778, 37610, 37853, 37978, 37952, 37779, 38106, 38074, 37687, 37726, 37423, 37795, 37645, 37568, 37132, 37705, 38006, 38229, 37598, 37176, 37993, 37762, 37844, 37905, 37864, 37896, 37837, 38455, 37820, 37581, 37579, 37939, 38206, 37014, 37739, 37635, 37719, 38004, 37988, 38437, 38540, 38243, 38080, 38585, 37986, 38088, 38111, 37893, 37644, 37928, 37975, 37481, 37886, 37693, 37602, 37775, 37805, 37388, 37725, 37465, 37814, 38008, 38627, 38501, 38560, 38385, 38477, 38154, 38383, 38341, 38320, 37936, 38210, 38202, 38709, 38851, 38725, 38064, 37713, 37776, 38075, 37547, 38563, 37780, 37850, 37544, 37661, 37437, 37361, 37573, 37997, 37668, 37555, 37664, 37211, 37741, 38054, 38430, 37581, 37913, 38067, 38293, 37908, 37752, 39186, 39179, 38455, 38040, 38470, 38411, 38478, 37444, 37149, 38117, 37649, 37434, 37425, 37607, 38008, 38274, 38172, 38194, 38472, 38669, 38196, 38505, 38319, 38473, 37709, 37359, 37123, 37558, 37815, 37798, 37845, 37885, 38712, 37421, 37189, 37389, 37425, 37671, 37876, 37729, 38105, 37791, 38002, 37943, 38470, 38472, 38084, 38281, 38563, 38586, 38341, 38548, 38554, 38345, 38186, 38720, 38003, 38389, 38288, 38134, 38035, 37776, 38113, 38835, 38848, 38117, 37622, 38113, 38228, 37795, 38019, 38211, 38116, 37699, 37938, 38031, 37877, 37623, 37751, 37422, 37418, 37829, 37492, 37359, 37757, 37348, 37520, 37247, 37424, 37176, 38238, 37354, 37757, 36915, 37167, 36959, 37205, 37754, 37593],
      "WindowCenter": [10022.0, 9955.0, 9940.0, 9929.0, 9940.0, 9948.0, 9954.0, 9953.0, 9965.0, 9972.0, 9985.0, 9946.0, 9964.0, 9967.0, 9963.0, 9890.0, 9945.0, 9957.0, 9947.0, 9923.0, 9918.0, 9886.0, 9918.0, 9890.0, 9912.0, 9927.0, 9899.0, 9880.0, 9876.0, 9848.0, 9860.0, 9876.0, 9893.0, 9902.0, 9925.0, 9933.0, 9950.0, 9946.0, 9935.0, 9944.0, 9944.0, 9949.0, 9951.0, 9913.0, 9886.0, 9979.0, 9855.0, 9895.0, 9883.0, 9861.0, 9839.0, 9857.0, 9881.0, 9889.0, 9853.0, 9855.0, 9849.0, 9873.0, 9884.0, 9893.0, 9919.0, 9921.0, 9893.0, 9893.0, 9936.0, 9940.0, 9905.0, 9902.0, 9909.0, 9915.0, 9865.0, 9968.0, 9913.0, 9886.0, 9869.0, 9865.0, 9871.0, 9890.0, 9927.0, 9946.0, 9964.0, 9947.0, 9940.0, 9923.0, 9939.0, 9958.0, 9954.0, 9943.0, 9927.0, 9903.0, 9913.0, 9930.0, 9932.0, 9919.0, 9944.0, 9946.0, 9937.0, 9926.0, 9915.0, 9912.0, 9913.0, 9909.0, 9893.0, 9909.0, 9902.0, 9935.0, 9952.0, 9948.0, 9891.0, 9907.0, 9913.0, 9925.0, 9951.0, 9968.0, 9913.0, 9926.0, 9925.0, 9873.0, 9926.0, 9913.0, 9936.0, 9936.0, 9906.0, 9900.0, 9899.0, 9900.0, 9908.0, 9856.0, 9949.0, 9927.0, 9935.0, 9977.0, 9870.0, 9869.0, 9933.0, 9914.0, 9920.0, 9925.0, 9910.0, 9891.0, 9889.0, 9907.0, 9908.0, 9907.0, 9913.0, 9908.0, 9932.0, 9928.0, 9904.0, 9899.0, 9893.0, 9913.0, 9909.0, 9899.0, 9896.0, 9907.0, 9903.0, 9894.0, 9903.0, 9905.0, 9906.0, 9915.0, 9922.0, 9924.0, 9931.0, 9933.0, 9923.0, 9915.0, 9924.0, 9952.0, 9979.0, 9966.0, 9945.0, 9928.0, 9920.0, 9913.0, 9944.0, 9938.0, 9917.0, 9916.0, 9894.0, 9882.0, 9890.0, 9896.0, 9929.0, 9940.0, 9965.0, 9955.0, 9923.0, 9913.0, 9901.0, 9922.0, 9916.0, 9938.0, 9944.0, 9933.0, 9917.0, 9905.0, 9931.0, 9936.0, 9936.0, 9918.0, 9890.0, 9886.0, 9901.0, 9904.0, 9872.0, 9880.0, 9889.0, 9896.0, 9894.0, 9885.0, 9874.0, 9880.0, 9880.0, 9871.0, 9888.0, 9891.0, 9914.0, 9932.0, 9940.0, 9920.0, 9925.0, 9921.0, 9935.0, 9915.0, 9886.0, 9866.0, 9842.0, 9859.0, 9890.0, 9900.0, 9912.0, 9905.0, 9861.0, 9856.0, 9861.0, 9879.0, 9889.0, 9905.0, 9914.0, 9930.0, 9948.0, 9964.0, 9949.0, 9952.0, 9939.0, 9936.0, 9920.0, 9927.0, 9928.0, 9937.0, 9939.0, 9933.0, 9870.0, 9883.0, 9911.0, 9937.0, 9949.0, 9914.0, 9869.0, 9846.0, 9839.0, 9833.0, 9859.0, 9884.0, 9882.0, 9881.0, 9878.0, 9866.0, 9864.0, 9881.0, 9897.0, 9903.0, 9923.0, 9951.0, 9937.0, 9923.0, 9894.0, 9906.0, 9912.0, 9918.0, 9964.0, 9941.0, 9907.0, 9868.0, 9839.0, 9766.0, 9875.0, 9872.0, 9895.0, 9897.0, 9879.0, 9860.0, 9852.0, 9856.0, 9847.0],
