{
  "AcquisitionMatrixPE": 104,
  "AcquisitionNumber": 1,
  "AcquisitionTime": "14:13:30.777500",
  "BandwidthPerPixelPhaseEncode": 17.17,
  "BaseResolution": 104,
  "BodyPartExamined": "BRAIN",
  "CoilCombinationMethod": "Sum of Squares",
  "ConsistencyInfo": "N4_VE11C_LATEST_20160120",
  "ConversionSoftware": "dcm2niix",
  "ConversionSoftwareVersion": "v1.0.20220505",
  "DerivedVendorReportedEchoSpacing": 0.000560011,
  "DeviceSerialNumber": "167006",
  "DwellTime": 2.1e-06,
  "EchoTime": 0.037,
  "EchoTime1": 0.037,
  "EchoTime2": 0.001,
  "EchoTrainLength": 104,
  "EffectiveEchoSpacing": 0.000560011,
  "FlipAngle": 52,
  "HeudiconvVersion": "0.5.3.post811+g6206e14",
  "ImageComments": "Unaliased MB4/PE3/LB",
  "ImageOrientationPatientDICOM": [0.999346, 0.0336459, 0.013212, -0.0291362, 0.966112, -0.256472],
  "ImageOrientationText": "Tra>Cor(-14.8)>Sag(1.2)",
  "ImageType": [
    "ORIGINAL",
    "PRIMARY",
    "P",
    "MB",
    "ND",
    "MOSAIC",
    "PHASE"
],
  "ImagingFrequency": 123.26,
  "InPlanePhaseEncodingDirectionDICOM": "COL",
  "InstitutionAddress": "Chemin Queen-Mary 4565,Montreal,District,CA,H3W 1W5",
  "InstitutionName": "IUGM",
  "InstitutionalDepartmentName": "Department",
  "MRAcquisitionType": "2D",
  "MagneticFieldStrength": 3,
  "Manufacturer": "Siemens",
  "ManufacturersModelName": "Prisma_fit",
  "MatrixCoilMode": "SENSE",
  "Modality": "MR",
  "MultibandAccelerationFactor": 4,
  "PartialFourier": 1,
  "PatientPosition": "HFS",
  "PercentPhaseFOV": 100,
  "PercentSampling": 100,
  "PhaseEncodingDirection": "j",
  "PhaseEncodingSteps": 104,
  "PhaseResolution": 1,
  "PixelBandwidth": 2290,
  "ProcedureStepDescription": "games^mario3",
  "ProtocolName": "func_task-mario3_run-02",
  "PulseSequenceDetails": "%CustomerSeq%\\cmrr_mbep2d_bold",
  "ReceiveCoilActiveElements": "HC1-7;NC1,2",
  "ReceiveCoilName": "HeadNeck_64",
  "ReconMatrixPE": 104,
  "RepetitionTime": 1.49,
  "SAR": 0.0528349,
  "ScanOptions": "FS",
  "ScanningSequence": "EP",
  "SequenceName": "epfid2d1_104",
  "SequenceVariant": "SK\\SS",
  "SeriesDescription": "func_task-mario3_run-02",
  "SeriesNumber": 14,
  "ShimSetting": [620, -7231, -8775, 686, 67, -41, 36, -10],
  "SliceThickness": 2,
  "SliceTiming": [0, 0.7825, 0.0975, 0.8825, 0.195, 0.98, 0.2925, 1.0775, 0.3925, 1.175, 0.49, 1.2725, 0.5875, 1.3725, 0.685, 0, 0.7825, 0.0975, 0.8825, 0.195, 0.98, 0.2925, 1.0775, 0.3925, 1.175, 0.49, 1.2725, 0.5875, 1.3725, 0.685, 0, 0.7825, 0.0975, 0.8825, 0.195, 0.98, 0.2925, 1.0775, 0.3925, 1.175, 0.49, 1.2725, 0.5875, 1.3725, 0.685, 0, 0.7825, 0.0975, 0.8825, 0.195, 0.98, 0.2925, 1.0775, 0.3925, 1.175, 0.49, 1.2725, 0.5875, 1.3725, 0.685],
  "SoftwareVersions": "syngo MR E11",
  "SpacingBetweenSlices": 2,
  "StationName": "MRC35049",
  "TaskName": "mario3",
  "TotalReadoutTime": 0.0576811,
  "TxRefAmp": 221.793,
  "WipMemBlock": "d5525951-9d73-4b39-a50f-2f6dcfa75617||Sequence: R017 ve11c/master r/75a17815+; Jun 28 2022 16:32:11 by eja",
  "dcmmeta_affine": [
    [-1.9986929893493652, -0.05827244371175766, 0.04278694838285446, 110.75809478759766],
    [-0.0672917291522026, 1.9322246313095093, -0.5118394494056702, -70.68160247802734],
    [0.026423929259181023, 0.5129445791244507, 1.9329224824905396, -58.12141418457031],
    [0.0, 0.0, 0.0, 1.0]
],
  "dcmmeta_reorient_transform": [
    [0.0, -1.0, 0.0, 103.0],
    [1.0, 0.0, 0.0, 0.0],
    [0.0, 0.0, 1.0, 0.0],
    [0.0, 0.0, 0.0, 1.0]
],
  "dcmmeta_shape": [104, 104, 60, 355],
  "dcmmeta_slice_dim": 2,
  "dcmmeta_version": 0.6,
  "global": {
    "const": {
      "AcquisitionMatrix": [104, 0, 0, 104],
      "AngioFlag": "N",
      "BitsAllocated": 16,
      "BitsStored": 16,
      "BodyPartExamined": "BRAIN",
      "Columns": 832,
      "EchoNumbers": 1,
      "EchoTime": 37.0,
      "EchoTrainLength": 104,
      "FlipAngle": 52.0,
      "HighBit": 15,
      "ImageOrientationPatient": [0.99934648635662, 0.03364586431669, 0.01321196507185, -0.0291362227678, 0.96611233832737, -0.2564722796999],
      "ImagePositionPatient": [-811.06910557516, -856.16151075709, 171.80538351306],
      "ImageType": [
        "ORIGINAL",
        "PRIMARY",
        "P",
        "MB",
        "ND",
        "MOSAIC"
],
      "ImagedNucleus": "1H",
      "ImagingFrequency": 123.260228,
      "InPlanePhaseEncodingDirection": "COL",
      "LargestImagePixelValue": 4095,
      "MRAcquisitionType": "2D",
      "MagneticFieldStrength": 3.0,
      "Manufacturer": "SIEMENS",
      "ManufacturerModelName": "Prisma_fit",
      "Modality": "MR",
      "NumberOfAverages": 1.0,
      "NumberOfPhaseEncodingSteps": 104,
      "PercentPhaseFieldOfView": 100.0,
      "PercentSampling": 100.0,
      "PerformedProcedureStepStartTime": "135934.265000",
      "PhotometricInterpretation": "MONOCHROME2",
      "PixelBandwidth": 2290.0,
      "PixelRepresentation": 0,
      "PixelSpacing": [2.0, 2.0],
      "ProtocolName": "func_task-mario3_run-02",
      "RepetitionTime": 1490.0,
      "RescaleIntercept": -4096.0,
      "RescaleSlope": 2.0,
      "RescaleType": "US",
      "Rows": 832,
      "SAR": 0.05283486093854,
      "SamplesPerPixel": 1,
      "ScanOptions": "FS",
      "ScanningSequence": "EP",
      "SequenceName": "epfid2d1_104",
      "SequenceVariant": [
        "SK",
        "SS"
],
      "SeriesDescription": "func_task-mario3_run-02",
      "SeriesNumber": 14,
      "SeriesTime": "141427.472000",
      "SliceLocation": -35.71378083697,
      "SliceThickness": 2.0,
      "SmallestImagePixelValue": 0,
      "SoftwareVersions": "syngo MR E11",
      "SpacingBetweenSlices": 1.9999999509428,
      "SpecificCharacterSet": "ISO_IR 100",
      "StudyID": "1",
      "StudyTime": "135934.194000",
      "TransmitCoilName": "Body",
      "VariableFlipAngleFlag": "N",
      "WindowCenterWidthExplanation": "Algo1",
      "dBdt": 0.0},
    "slices": {}
  },
  "time": {
    "samples": {
      "AcquisitionNumber": [1, 2, 3, 4, 5, 6, 7, 8, 9, 10, 11, 12, 13, 14, 15, 16, 17, 18, 19, 20, 21, 22, 23, 24, 25, 26, 27, 28, 29, 30, 31, 32, 33, 34, 35, 36, 37, 38, 39, 40, 41, 42, 43, 44, 45, 46, 47, 48, 49, 50, 51, 52, 53, 54, 55, 56, 57, 58, 59, 60, 61, 62, 63, 64, 65, 66, 67, 68, 69, 70, 71, 72, 73, 74, 75, 76, 77, 78, 79, 80, 81, 82, 83, 84, 85, 86, 87, 88, 89, 90, 91, 92, 93, 94, 95, 96, 97, 98, 99, 100, 101, 102, 103, 104, 105, 106, 107, 108, 109, 110, 111, 112, 113, 114, 115, 116, 117, 118, 119, 120, 121, 122, 123, 124, 125, 126, 127, 128, 129, 130, 131, 132, 133, 134, 135, 136, 137, 138, 139, 140, 141, 142, 143, 144, 145, 146, 147, 148, 149, 150, 151, 152, 153, 154, 155, 156, 157, 158, 159, 160, 161, 162, 163, 164, 165, 166, 167, 168, 169, 170, 171, 172, 173, 174, 175, 176, 177, 178, 179, 180, 181, 182, 183, 184, 185, 186, 187, 188, 189, 190, 191, 192, 193, 194, 195, 196, 197, 198, 199, 200, 201, 202, 203, 204, 205, 206, 207, 208, 209, 210, 211, 212, 213, 214, 215, 216, 217, 218, 219, 220, 221, 222, 223, 224, 225, 226, 227, 228, 229, 230, 231, 232, 233, 234, 235, 236, 237, 238, 239, 240, 241, 242, 243, 244, 245, 246, 247, 248, 249, 250, 251, 252, 253, 254, 255, 256, 257, 258, 259, 260, 261, 262, 263, 264, 265, 266, 267, 268, 269, 270, 271, 272, 273, 274, 275, 276, 277, 278, 279, 280, 281, 282, 283, 284, 285, 286, 287, 288, 289, 290, 291, 292, 293, 294, 295, 296, 297, 298, 299, 300, 301, 302, 303, 304, 305, 306, 307, 308, 309, 310, 311, 312, 313, 314, 315, 316, 317, 318, 319, 320, 321, 322, 323, 324, 325, 326, 327, 328, 329, 330, 331, 332, 333, 334, 335, 336, 337, 338, 339, 340, 341, 342, 343, 344, 345, 346, 347, 348, 349, 350, 351, 352, 353, 354, 355],
      "AcquisitionTime": ["141330.777500", "141332.267500", "141333.757500", "141335.247500", "141336.737500", "141338.227500", "141339.717500", "141341.207500", "141342.697500", "141344.187500", "141345.677500", "141347.167500", "141348.657500", "141350.147500", "141351.637500", "141353.127500", "141354.617500", "141356.107500", "141357.597500", "141359.087500", "141400.577500", "141402.067500", "141403.557500", "141405.047500", "141406.537500", "141408.027500", "141409.517500", "141411.007500", "141412.497500", "141413.987500", "141415.477500", "141416.967500", "141418.457500", "141419.947500", "141421.437500", "141422.927500", "141424.417500", "141425.907500", "141427.397500", "141428.887500", "141430.377500", "141431.867500", "141433.357500", "141434.847500", "141436.337500", "141437.827500", "141439.317500", "141440.807500", "141442.297500", "141443.787500", "141445.277500", "141446.767500", "141448.257500", "141449.747500", "141451.237500", "141452.727500", "141454.217500", "141455.707500", "141457.197500", "141458.687500", "141500.177500", "141501.667500", "141503.157500", "141504.647500", "141506.137500", "141507.627500", "141509.117500", "141510.607500", "141512.097500", "141513.587500", "141515.077500", "141516.567500", "141518.057500", "141519.547500", "141521.037500", "141522.527500", "141524.017500", "141525.507500", "141526.997500", "141528.487500", "141529.977500", "141531.467500", "141532.957500", "141534.447500", "141535.937500", "141537.427500", "141538.917500", "141540.407500", "141541.897500", "141543.387500", "141544.877500", "141546.367500", "141547.857500", "141549.347500", "141550.837500", "141552.327500", "141553.817500", "141555.307500", "141556.797500", "141558.287500", "141559.777500", "141601.267500", "141602.757500", "141604.247500", "141605.737500", "141607.227500", "141608.717500", "141610.207500", "141611.697500", "141613.187500", "141614.677500", "141616.167500", "141617.657500", "141619.147500", "141620.637500", "141622.127500", "141623.617500", "141625.107500", "141626.597500", "141628.087500", "141629.577500", "141631.067500", "141632.557500", "141634.047500", "141635.537500", "141637.027500", "141638.517500", "141640.007500", "141641.497500", "141642.987500", "141644.477500", "141645.967500", "141647.457500", "141648.947500", "141650.437500", "141651.927500", "141653.417500", "141654.907500", "141656.397500", "141657.887500", "141659.377500", "141700.867500", "141702.357500", "141703.847500", "141705.337500", "141706.827500", "141708.317500", "141709.807500", "141711.297500", "141712.787500", "141714.277500", "141715.767500", "141717.257500", "141718.747500", "141720.237500", "141721.727500", "141723.217500", "141724.707500", "141726.197500", "141727.687500", "141729.177500", "141730.667500", "141732.157500", "141733.647500", "141735.137500", "141736.627500", "141738.117500", "141739.607500", "141741.097500", "141742.587500", "141744.077500", "141745.567500", "141747.057500", "141748.547500", "141750.037500", "141751.527500", "141753.017500", "141754.507500", "141755.997500", "141757.487500", "141758.977500", "141800.467500", "141801.957500", "141803.447500", "141804.937500", "141806.427500", "141807.917500", "141809.407500", "141810.897500", "141812.387500", "141813.877500", "141815.367500", "141816.857500", "141818.347500", "141819.837500", "141821.327500", "141822.817500", "141824.307500", "141825.797500", "141827.287500", "141828.777500", "141830.267500", "141831.757500", "141833.247500", "141834.737500", "141836.227500", "141837.717500", "141839.207500", "141840.697500", "141842.187500", "141843.677500", "141845.167500", "141846.657500", "141848.147500", "141849.637500", "141851.127500", "141852.617500", "141854.107500", "141855.597500", "141857.087500", "141858.577500", "141900.067500", "141901.557500", "141903.047500", "141904.537500", "141906.027500", "141907.517500", "141909.007500", "141910.497500", "141911.987500", "141913.477500", "141914.967500", "141916.457500", "141917.947500", "141919.437500", "141920.927500", "141922.417500", "141923.907500", "141925.397500", "141926.887500", "141928.377500", "141929.867500", "141931.357500", "141932.847500", "141934.337500", "141935.827500", "141937.317500", "141938.807500", "141940.297500", "141941.787500", "141943.277500", "141944.767500", "141946.257500", "141947.747500", "141949.237500", "141950.727500", "141952.217500", "141953.707500", "141955.197500", "141956.687500", "141958.177500", "141959.667500", "142001.157500", "142002.647500", "142004.137500", "142005.627500", "142007.117500", "142008.607500", "142010.097500", "142011.587500", "142013.077500", "142014.567500", "142016.057500", "142017.547500", "142019.037500", "142020.527500", "142022.017500", "142023.507500", "142024.997500", "142026.487500", "142027.977500", "142029.467500", "142030.957500", "142032.447500", "142033.937500", "142035.427500", "142036.917500", "142038.407500", "142039.897500", "142041.387500", "142042.877500", "142044.367500", "142045.857500", "142047.347500", "142048.837500", "142050.327500", "142051.817500", "142053.307500", "142054.797500", "142056.287500", "142057.777500", "142059.267500", "142100.757500", "142102.247500", "142103.737500", "142105.227500", "142106.717500", "142108.207500", "142109.697500", "142111.187500", "142112.677500", "142114.167500", "142115.657500", "142117.147500", "142118.637500", "142120.127500", "142121.617500", "142123.107500", "142124.597500", "142126.087500", "142127.577500", "142129.067500", "142130.557500", "142132.047500", "142133.537500", "142135.027500", "142136.517500", "142138.007500", "142139.497500", "142140.987500", "142142.477500", "142143.967500", "142145.457500", "142146.947500", "142148.437500", "142149.927500", "142151.417500", "142152.907500", "142154.397500", "142155.887500", "142157.377500", "142158.867500", "142200.357500", "142201.847500", "142203.337500", "142204.827500", "142206.317500", "142207.807500", "142209.297500", "142210.787500", "142212.277500", "142213.767500", "142215.257500", "142216.747500", "142218.237500"],
      "ContentTime": ["141427.474000", "141427.477000", "141427.479000", "141427.487000", "141427.494000", "141427.496000", "141447.506000", "141447.508000", "141447.511000", "141447.514000", "141447.516000", "141447.519000", "141447.521000", "141447.524000", "141447.526000", "141447.529000", "141447.531000", "141447.534000", "141447.536000", "141447.539000", "141447.541000", "141447.544000", "141447.546000", "141447.549000", "141447.551000", "141447.553000", "141507.499000", "141507.502000", "141507.505000", "141507.507000", "141507.510000", "141507.512000", "141507.515000", "141507.517000", "141507.520000", "141507.522000", "141507.525000", "141507.527000", "141507.530000", "141507.533000", "141507.535000", "141507.538000", "141507.541000", "141507.543000", "141507.546000", "141507.548000", "141507.551000", "141527.486000", "141527.489000", "141527.492000", "141527.494000", "141527.497000", "141527.503000", "141527.506000", "141527.508000", "141527.511000", "141527.513000", "141527.516000", "141527.518000", "141527.521000", "141527.523000", "141527.525000", "141527.528000", "141527.530000", "141527.533000", "141527.535000", "141527.538000", "141547.480000", "141547.482000", "141547.485000", "141547.487000", "141547.490000", "141547.492000", "141547.495000", "141547.497000", "141547.500000", "141547.502000", "141547.509000", "141547.512000", "141547.514000", "141547.516000", "141547.519000", "141547.521000", "141547.524000", "141547.526000", "141547.529000", "141547.531000", "141627.523000", "141627.526000", "141627.528000", "141627.531000", "141627.533000", "141627.536000", "141627.538000", "141627.541000", "141627.543000", "141627.546000", "141627.548000", "141627.551000", "141627.553000", "141627.556000", "141627.558000", "141627.561000", "141627.563000", "141627.573000", "141627.576000", "141627.578000", "141627.581000", "141627.583000", "141627.586000", "141627.588000", "141627.591000", "141627.593000", "141627.596000", "141627.598000", "141627.601000", "141627.603000", "141627.606000", "141707.924000", "141707.927000", "141707.929000", "141707.932000", "141707.934000", "141707.937000", "141707.939000", "141707.942000", "141707.944000", "141707.947000", "141707.949000", "141707.952000", "141707.954000", "141707.957000", "141707.959000", "141707.962000", "141707.964000", "141707.967000", "141707.969000", "141707.972000", "141707.974000", "141707.977000", "141707.979000", "141707.982000", "141707.984000", "141707.987000", "141707.989000", "141747.504000", "141747.506000", "141747.509000", "141747.511000", "141747.514000", "141747.516000", "141747.519000", "141747.521000", "141747.524000", "141747.526000", "141747.529000", "141747.531000", "141747.534000", "141747.537000", "141747.539000", "141747.542000", "141747.544000", "141747.547000", "141747.549000", "141747.552000", "141747.555000", "141747.557000", "141747.560000", "141747.562000", "141747.565000", "141747.567000", "141827.518000", "141827.521000", "141827.523000", "141827.526000", "141827.528000", "141827.531000", "141827.533000", "141827.536000", "141827.538000", "141827.541000", "141827.543000", "141827.546000", "141827.548000", "141827.551000", "141827.553000", "141827.556000", "141827.558000", "141827.561000", "141827.563000", "141827.565000", "141827.568000", "141827.570000", "141827.573000", "141827.575000", "141827.578000", "141827.580000", "141827.583000", "141907.520000", "141907.523000", "141907.525000", "141907.528000", "141907.530000", "141907.533000", "141907.535000", "141907.538000", "141907.540000", "141907.543000", "141907.545000", "141907.548000", "141907.550000", "141907.553000", "141907.555000", "141907.558000", "141907.560000", "141907.562000", "141907.565000", "141907.567000", "141907.570000", "141907.572000", "141907.575000", "141907.577000", "141907.580000", "141907.582000", "141907.585000", "141947.528000", "141947.530000", "141947.533000", "141947.535000", "141947.538000", "141947.540000", "141947.543000", "141947.545000", "141947.548000", "141947.551000", "141947.553000", "141947.555000", "141947.558000", "141947.560000", "141947.563000", "141947.566000", "141947.568000", "141947.571000", "141947.573000", "141947.575000", "141947.578000", "141947.580000", "141947.583000", "141947.586000", "141947.588000", "141947.591000", "141947.593000", "142027.530000", "142027.533000", "142027.535000", "142027.538000", "142027.540000", "142027.543000", "142027.545000", "142027.548000", "142027.550000", "142027.553000", "142027.555000", "142027.558000", "142027.560000", "142027.563000", "142027.565000", "142027.568000", "142027.570000", "142027.573000", "142027.575000", "142027.578000", "142027.580000", "142027.583000", "142027.585000", "142027.591000", "142027.594000", "142027.607000", "142027.609000", "142107.596000", "142107.599000", "142107.601000", "142107.604000", "142107.606000", "142107.609000", "142107.611000", "142107.614000", "142107.616000", "142107.619000", "142107.621000", "142107.624000", "142107.626000", "142107.629000", "142107.631000", "142107.634000", "142107.636000", "142107.639000", "142107.641000", "142107.644000", "142107.646000", "142107.649000", "142107.651000", "142107.654000", "142107.657000", "142107.659000", "142107.662000", "142147.575000", "142147.578000", "142147.580000", "142147.583000", "142147.586000", "142147.588000", "142147.591000", "142147.593000", "142147.596000", "142147.598000", "142147.601000", "142147.603000", "142147.606000", "142147.608000", "142147.611000", "142147.613000", "142147.616000", "142147.618000", "142147.621000", "142147.623000", "142147.626000", "142147.628000", "142147.631000", "142147.633000", "142147.636000", "142147.638000", "142221.235000", "142221.238000", "142221.240000", "142221.243000", "142221.245000", "142221.248000", "142221.250000", "142221.253000", "142221.255000", "142221.258000", "142221.260000", "142221.263000", "142221.265000", "142221.268000", "142221.270000", "142221.273000", "142221.275000", "142221.278000", "142221.280000", "142221.283000", "142221.285000", "142221.288000", "142221.290000"],
      "InstanceCreationTime": ["141427.474000", "141427.477000", "141427.479000", "141427.487000", "141427.494000", "141427.496000", "141447.506000", "141447.508000", "141447.511000", "141447.514000", "141447.516000", "141447.519000", "141447.521000", "141447.524000", "141447.526000", "141447.529000", "141447.531000", "141447.534000", "141447.536000", "141447.539000", "141447.541000", "141447.544000", "141447.546000", "141447.549000", "141447.551000", "141447.553000", "141507.499000", "141507.502000", "141507.505000", "141507.507000", "141507.510000", "141507.512000", "141507.515000", "141507.517000", "141507.520000", "141507.522000", "141507.525000", "141507.527000", "141507.530000", "141507.533000", "141507.535000", "141507.538000", "141507.541000", "141507.543000", "141507.546000", "141507.548000", "141507.551000", "141527.486000", "141527.489000", "141527.492000", "141527.494000", "141527.497000", "141527.503000", "141527.506000", "141527.508000", "141527.511000", "141527.513000", "141527.516000", "141527.518000", "141527.521000", "141527.523000", "141527.525000", "141527.528000", "141527.530000", "141527.533000", "141527.535000", "141527.538000", "141547.480000", "141547.482000", "141547.485000", "141547.487000", "141547.490000", "141547.492000", "141547.495000", "141547.497000", "141547.500000", "141547.502000", "141547.509000", "141547.512000", "141547.514000", "141547.516000", "141547.519000", "141547.521000", "141547.524000", "141547.526000", "141547.529000", "141547.531000", "141627.523000", "141627.526000", "141627.528000", "141627.531000", "141627.533000", "141627.536000", "141627.538000", "141627.541000", "141627.543000", "141627.546000", "141627.548000", "141627.551000", "141627.553000", "141627.556000", "141627.558000", "141627.561000", "141627.563000", "141627.573000", "141627.576000", "141627.578000", "141627.581000", "141627.583000", "141627.586000", "141627.588000", "141627.591000", "141627.593000", "141627.596000", "141627.598000", "141627.601000", "141627.603000", "141627.606000", "141707.924000", "141707.927000", "141707.929000", "141707.932000", "141707.934000", "141707.937000", "141707.939000", "141707.942000", "141707.944000", "141707.947000", "141707.949000", "141707.952000", "141707.954000", "141707.957000", "141707.959000", "141707.962000", "141707.964000", "141707.967000", "141707.969000", "141707.972000", "141707.974000", "141707.977000", "141707.979000", "141707.982000", "141707.984000", "141707.987000", "141707.989000", "141747.504000", "141747.506000", "141747.509000", "141747.511000", "141747.514000", "141747.516000", "141747.519000", "141747.521000", "141747.524000", "141747.526000", "141747.529000", "141747.531000", "141747.534000", "141747.537000", "141747.539000", "141747.542000", "141747.544000", "141747.547000", "141747.549000", "141747.552000", "141747.555000", "141747.557000", "141747.560000", "141747.562000", "141747.565000", "141747.567000", "141827.518000", "141827.521000", "141827.523000", "141827.526000", "141827.528000", "141827.531000", "141827.533000", "141827.536000", "141827.538000", "141827.541000", "141827.543000", "141827.546000", "141827.548000", "141827.551000", "141827.553000", "141827.556000", "141827.558000", "141827.561000", "141827.563000", "141827.565000", "141827.568000", "141827.570000", "141827.573000", "141827.575000", "141827.578000", "141827.580000", "141827.583000", "141907.520000", "141907.523000", "141907.525000", "141907.528000", "141907.530000", "141907.533000", "141907.535000", "141907.538000", "141907.540000", "141907.543000", "141907.545000", "141907.548000", "141907.550000", "141907.553000", "141907.555000", "141907.558000", "141907.560000", "141907.562000", "141907.565000", "141907.567000", "141907.570000", "141907.572000", "141907.575000", "141907.577000", "141907.580000", "141907.582000", "141907.585000", "141947.528000", "141947.530000", "141947.533000", "141947.535000", "141947.538000", "141947.540000", "141947.543000", "141947.545000", "141947.548000", "141947.551000", "141947.553000", "141947.555000", "141947.558000", "141947.560000", "141947.563000", "141947.566000", "141947.568000", "141947.571000", "141947.573000", "141947.575000", "141947.578000", "141947.580000", "141947.583000", "141947.586000", "141947.588000", "141947.591000", "141947.593000", "142027.530000", "142027.533000", "142027.535000", "142027.538000", "142027.540000", "142027.543000", "142027.545000", "142027.548000", "142027.550000", "142027.553000", "142027.555000", "142027.558000", "142027.560000", "142027.563000", "142027.565000", "142027.568000", "142027.570000", "142027.573000", "142027.575000", "142027.578000", "142027.580000", "142027.583000", "142027.585000", "142027.591000", "142027.594000", "142027.607000", "142027.609000", "142107.596000", "142107.599000", "142107.601000", "142107.604000", "142107.606000", "142107.609000", "142107.611000", "142107.614000", "142107.616000", "142107.619000", "142107.621000", "142107.624000", "142107.626000", "142107.629000", "142107.631000", "142107.634000", "142107.636000", "142107.639000", "142107.641000", "142107.644000", "142107.646000", "142107.649000", "142107.651000", "142107.654000", "142107.657000", "142107.659000", "142107.662000", "142147.575000", "142147.578000", "142147.580000", "142147.583000", "142147.586000", "142147.588000", "142147.591000", "142147.593000", "142147.596000", "142147.598000", "142147.601000", "142147.603000", "142147.606000", "142147.608000", "142147.611000", "142147.613000", "142147.616000", "142147.618000", "142147.621000", "142147.623000", "142147.626000", "142147.628000", "142147.631000", "142147.633000", "142147.636000", "142147.638000", "142221.235000", "142221.238000", "142221.240000", "142221.243000", "142221.245000", "142221.248000", "142221.250000", "142221.253000", "142221.255000", "142221.258000", "142221.260000", "142221.263000", "142221.265000", "142221.268000", "142221.270000", "142221.273000", "142221.275000", "142221.278000", "142221.280000", "142221.283000", "142221.285000", "142221.288000", "142221.290000"],
      "InstanceNumber": [1, 2, 3, 4, 5, 6, 7, 8, 9, 10, 11, 12, 13, 14, 15, 16, 17, 18, 19, 20, 21, 22, 23, 24, 25, 26, 27, 28, 29, 30, 31, 32, 33, 34, 35, 36, 37, 38, 39, 40, 41, 42, 43, 44, 45, 46, 47, 48, 49, 50, 51, 52, 53, 54, 55, 56, 57, 58, 59, 60, 61, 62, 63, 64, 65, 66, 67, 68, 69, 70, 71, 72, 73, 74, 75, 76, 77, 78, 79, 80, 81, 82, 83, 84, 85, 86, 87, 88, 89, 90, 91, 92, 93, 94, 95, 96, 97, 98, 99, 100, 101, 102, 103, 104, 105, 106, 107, 108, 109, 110, 111, 112, 113, 114, 115, 116, 117, 118, 119, 120, 121, 122, 123, 124, 125, 126, 127, 128, 129, 130, 131, 132, 133, 134, 135, 136, 137, 138, 139, 140, 141, 142, 143, 144, 145, 146, 147, 148, 149, 150, 151, 152, 153, 154, 155, 156, 157, 158, 159, 160, 161, 162, 163, 164, 165, 166, 167, 168, 169, 170, 171, 172, 173, 174, 175, 176, 177, 178, 179, 180, 181, 182, 183, 184, 185, 186, 187, 188, 189, 190, 191, 192, 193, 194, 195, 196, 197, 198, 199, 200, 201, 202, 203, 204, 205, 206, 207, 208, 209, 210, 211, 212, 213, 214, 215, 216, 217, 218, 219, 220, 221, 222, 223, 224, 225, 226, 227, 228, 229, 230, 231, 232, 233, 234, 235, 236, 237, 238, 239, 240, 241, 242, 243, 244, 245, 246, 247, 248, 249, 250, 251, 252, 253, 254, 255, 256, 257, 258, 259, 260, 261, 262, 263, 264, 265, 266, 267, 268, 269, 270, 271, 272, 273, 274, 275, 276, 277, 278, 279, 280, 281, 282, 283, 284, 285, 286, 287, 288, 289, 290, 291, 292, 293, 294, 295, 296, 297, 298, 299, 300, 301, 302, 303, 304, 305, 306, 307, 308, 309, 310, 311, 312, 313, 314, 315, 316, 317, 318, 319, 320, 321, 322, 323, 324, 325, 326, 327, 328, 329, 330, 331, 332, 333, 334, 335, 336, 337, 338, 339, 340, 341, 342, 343, 344, 345, 346, 347, 348, 349, 350, 351, 352, 353, 354, 355],
