{
  "AcquisitionMatrixPE": 104,
  "AcquisitionNumber": 1,
  "AcquisitionTime": "14:04:44.747500",
  "BandwidthPerPixelPhaseEncode": 17.17,
  "BaseResolution": 104,
  "BodyPartExamined": "BRAIN",
  "CoilCombinationMethod": "Sum of Squares",
  "ConsistencyInfo": "N4_VE11C_LATEST_20160120",
  "ConversionSoftware": "dcm2niix",
  "ConversionSoftwareVersion": "v1.0.20220505",
  "DerivedVendorReportedEchoSpacing": 0.000560011,
  "DeviceSerialNumber": "167006",
  "DwellTime": 2.1e-06,
  "EchoTime": 0.037,
  "EchoTime1": 0.037,
  "EchoTime2": 0.001,
  "EchoTrainLength": 104,
  "EffectiveEchoSpacing": 0.000560011,
  "FlipAngle": 52,
  "HeudiconvVersion": "0.5.3.post811+g6206e14",
  "ImageComments": "Unaliased MB4/PE3/LB",
  "ImageOrientationPatientDICOM": [0.999346, 0.0336459, 0.013212, -0.0291362, 0.966112, -0.256472],
  "ImageOrientationText": "Tra>Cor(-14.8)>Sag(1.2)",
  "ImageType": [
    "ORIGINAL",
    "PRIMARY",
    "P",
    "MB",
    "ND",
    "MOSAIC",
    "PHASE"
],
  "ImagingFrequency": 123.26,
  "InPlanePhaseEncodingDirectionDICOM": "COL",
  "InstitutionAddress": "Chemin Queen-Mary 4565,Montreal,District,CA,H3W 1W5",
  "InstitutionName": "IUGM",
  "InstitutionalDepartmentName": "Department",
  "MRAcquisitionType": "2D",
  "MagneticFieldStrength": 3,
  "Manufacturer": "Siemens",
  "ManufacturersModelName": "Prisma_fit",
  "MatrixCoilMode": "SENSE",
  "Modality": "MR",
  "MultibandAccelerationFactor": 4,
  "PartialFourier": 1,
  "PatientPosition": "HFS",
  "PercentPhaseFOV": 100,
  "PercentSampling": 100,
  "PhaseEncodingDirection": "j",
  "PhaseEncodingSteps": 104,
  "PhaseResolution": 1,
  "PixelBandwidth": 2290,
  "ProcedureStepDescription": "games^mario3",
  "ProtocolName": "func_task-mario3_run-01",
  "PulseSequenceDetails": "%CustomerSeq%\\cmrr_mbep2d_bold",
  "ReceiveCoilActiveElements": "HC1-7;NC1,2",
  "ReceiveCoilName": "HeadNeck_64",
  "ReconMatrixPE": 104,
  "RepetitionTime": 1.49,
  "SAR": 0.0528349,
  "ScanOptions": "FS",
  "ScanningSequence": "EP",
  "SequenceName": "epfid2d1_104",
  "SequenceVariant": "SK\\SS",
  "SeriesDescription": "func_task-mario3_run-01",
  "SeriesNumber": 11,
  "ShimSetting": [620, -7231, -8775, 686, 67, -41, 36, -10],
  "SliceThickness": 2,
  "SliceTiming": [0, 0.7825, 0.0975, 0.8825, 0.195, 0.98, 0.2925, 1.0775, 0.3925, 1.175, 0.49, 1.2725, 0.5875, 1.3725, 0.685, 0, 0.7825, 0.0975, 0.8825, 0.195, 0.98, 0.2925, 1.0775, 0.3925, 1.175, 0.49, 1.2725, 0.5875, 1.3725, 0.685, 0, 0.7825, 0.0975, 0.8825, 0.195, 0.98, 0.2925, 1.0775, 0.3925, 1.175, 0.49, 1.2725, 0.5875, 1.3725, 0.685, 0, 0.7825, 0.0975, 0.8825, 0.195, 0.98, 0.2925, 1.0775, 0.3925, 1.175, 0.49, 1.2725, 0.5875, 1.3725, 0.685],
  "SoftwareVersions": "syngo MR E11",
  "SpacingBetweenSlices": 2,
  "StationName": "MRC35049",
  "TaskName": "mario3",
  "TotalReadoutTime": 0.0576811,
  "TxRefAmp": 221.793,
  "WipMemBlock": "70a674a3-1cdf-46ad-a8e2-8fedbf015dcd||Sequence: R017 ve11c/master r/75a17815+; Jun 28 2022 16:32:11 by eja",
  "dcmmeta_affine": [
    [-1.9986929893493652, -0.05827244371175766, 0.04278694838285446, 110.75809478759766],
    [-0.0672917291522026, 1.9322246313095093, -0.5118394494056702, -70.68160247802734],
    [0.026423929259181023, 0.5129445791244507, 1.9329224824905396, -58.12141418457031],
    [0.0, 0.0, 0.0, 1.0]
],
  "dcmmeta_reorient_transform": [
    [0.0, -1.0, 0.0, 103.0],
    [1.0, 0.0, 0.0, 0.0],
    [0.0, 0.0, 1.0, 0.0],
    [0.0, 0.0, 0.0, 1.0]
],
  "dcmmeta_shape": [104, 104, 60, 319],
  "dcmmeta_slice_dim": 2,
  "dcmmeta_version": 0.6,
  "global": {
    "const": {
      "AcquisitionMatrix": [104, 0, 0, 104],
      "AngioFlag": "N",
      "BitsAllocated": 16,
      "BitsStored": 16,
      "BodyPartExamined": "BRAIN",
      "Columns": 832,
      "EchoNumbers": 1,
      "EchoTime": 37.0,
      "EchoTrainLength": 104,
      "FlipAngle": 52.0,
      "HighBit": 15,
      "ImageOrientationPatient": [0.99934648635662, 0.03364586431669, 0.01321196507185, -0.0291362227678, 0.96611233832737, -0.2564722796999],
      "ImagePositionPatient": [-811.06910557516, -856.16151075709, 171.80538351306],
      "ImageType": [
        "ORIGINAL",
        "PRIMARY",
        "P",
        "MB",
        "ND",
        "MOSAIC"
],
      "ImagedNucleus": "1H",
      "ImagingFrequency": 123.26022,
      "InPlanePhaseEncodingDirection": "COL",
      "LargestImagePixelValue": 4095,
      "MRAcquisitionType": "2D",
      "MagneticFieldStrength": 3.0,
      "Manufacturer": "SIEMENS",
      "ManufacturerModelName": "Prisma_fit",
      "Modality": "MR",
      "NumberOfAverages": 1.0,
      "NumberOfPhaseEncodingSteps": 104,
      "PercentPhaseFieldOfView": 100.0,
      "PercentSampling": 100.0,
      "PerformedProcedureStepStartTime": "135934.265000",
      "PhotometricInterpretation": "MONOCHROME2",
      "PixelBandwidth": 2290.0,
      "PixelRepresentation": 0,
      "PixelSpacing": [2.0, 2.0],
      "ProtocolName": "func_task-mario3_run-01",
      "RepetitionTime": 1490.0,
      "RescaleIntercept": -4096.0,
      "RescaleSlope": 2.0,
      "RescaleType": "US",
      "Rows": 832,
      "SAR": 0.05283486093854,
      "SamplesPerPixel": 1,
      "ScanOptions": "FS",
      "ScanningSequence": "EP",
      "SequenceName": "epfid2d1_104",
      "SequenceVariant": [
        "SK",
        "SS"
],
      "SeriesDescription": "func_task-mario3_run-01",
      "SeriesNumber": 11,
      "SeriesTime": "140553.282000",
      "SliceLocation": -35.71378083697,
      "SliceThickness": 2.0,
      "SmallestImagePixelValue": 0,
      "SoftwareVersions": "syngo MR E11",
      "SpacingBetweenSlices": 1.9999999509428,
      "SpecificCharacterSet": "ISO_IR 100",
      "StudyID": "1",
      "StudyTime": "135934.194000",
      "TransmitCoilName": "Body",
      "VariableFlipAngleFlag": "N",
      "WindowCenterWidthExplanation": "Algo1",
      "dBdt": 0.0},
    "slices": {}
  },
  "time": {
    "samples": {
      "AcquisitionNumber": [1, 2, 3, 4, 5, 6, 7, 8, 9, 10, 11, 12, 13, 14, 15, 16, 17, 18, 19, 20, 21, 22, 23, 24, 25, 26, 27, 28, 29, 30, 31, 32, 33, 34, 35, 36, 37, 38, 39, 40, 41, 42, 43, 44, 45, 46, 47, 48, 49, 50, 51, 52, 53, 54, 55, 56, 57, 58, 59, 60, 61, 62, 63, 64, 65, 66, 67, 68, 69, 70, 71, 72, 73, 74, 75, 76, 77, 78, 79, 80, 81, 82, 83, 84, 85, 86, 87, 88, 89, 90, 91, 92, 93, 94, 95, 96, 97, 98, 99, 100, 101, 102, 103, 104, 105, 106, 107, 108, 109, 110, 111, 112, 113, 114, 115, 116, 117, 118, 119, 120, 121, 122, 123, 124, 125, 126, 127, 128, 129, 130, 131, 132, 133, 134, 135, 136, 137, 138, 139, 140, 141, 142, 143, 144, 145, 146, 147, 148, 149, 150, 151, 152, 153, 154, 155, 156, 157, 158, 159, 160, 161, 162, 163, 164, 165, 166, 167, 168, 169, 170, 171, 172, 173, 174, 175, 176, 177, 178, 179, 180, 181, 182, 183, 184, 185, 186, 187, 188, 189, 190, 191, 192, 193, 194, 195, 196, 197, 198, 199, 200, 201, 202, 203, 204, 205, 206, 207, 208, 209, 210, 211, 212, 213, 214, 215, 216, 217, 218, 219, 220, 221, 222, 223, 224, 225, 226, 227, 228, 229, 230, 231, 232, 233, 234, 235, 236, 237, 238, 239, 240, 241, 242, 243, 244, 245, 246, 247, 248, 249, 250, 251, 252, 253, 254, 255, 256, 257, 258, 259, 260, 261, 262, 263, 264, 265, 266, 267, 268, 269, 270, 271, 272, 273, 274, 275, 276, 277, 278, 279, 280, 281, 282, 283, 284, 285, 286, 287, 288, 289, 290, 291, 292, 293, 294, 295, 296, 297, 298, 299, 300, 301, 302, 303, 304, 305, 306, 307, 308, 309, 310, 311, 312, 313, 314, 315, 316, 317, 318, 319],
      "AcquisitionTime": ["140444.747500", "140446.237500", "140447.727500", "140449.217500", "140450.707500", "140452.197500", "140453.687500", "140455.177500", "140456.667500", "140458.157500", "140459.647500", "140501.137500", "140502.627500", "140504.117500", "140505.607500", "140507.097500", "140508.587500", "140510.077500", "140511.567500", "140513.057500", "140514.547500", "140516.037500", "140517.527500", "140519.017500", "140520.507500", "140521.997500", "140523.487500", "140524.977500", "140526.467500", "140527.957500", "140529.447500", "140530.937500", "140532.427500", "140533.917500", "140535.407500", "140536.897500", "140538.387500", "140539.877500", "140541.367500", "140542.857500", "140544.347500", "140545.837500", "140547.327500", "140548.817500", "140550.307500", "140551.797500", "140553.287500", "140554.777500", "140556.267500", "140557.757500", "140559.247500", "140600.737500", "140602.227500", "140603.717500", "140605.207500", "140606.697500", "140608.187500", "140609.677500", "140611.167500", "140612.657500", "140614.147500", "140615.637500", "140617.127500", "140618.617500", "140620.107500", "140621.597500", "140623.087500", "140624.577500", "140626.067500", "140627.557500", "140629.047500", "140630.537500", "140632.027500", "140633.517500", "140635.007500", "140636.497500", "140637.987500", "140639.477500", "140640.967500", "140642.457500", "140643.947500", "140645.437500", "140646.927500", "140648.417500", "140649.907500", "140651.397500", "140652.887500", "140654.377500", "140655.867500", "140657.357500", "140658.847500", "140700.337500", "140701.827500", "140703.317500", "140704.807500", "140706.297500", "140707.787500", "140709.277500", "140710.767500", "140712.257500", "140713.747500", "140715.237500", "140716.727500", "140718.217500", "140719.707500", "140721.197500", "140722.687500", "140724.177500", "140725.667500", "140727.157500", "140728.647500", "140730.137500", "140731.627500", "140733.117500", "140734.607500", "140736.097500", "140737.587500", "140739.077500", "140740.567500", "140742.057500", "140743.547500", "140745.037500", "140746.527500", "140748.017500", "140749.507500", "140750.997500", "140752.487500", "140753.977500", "140755.467500", "140756.957500", "140758.447500", "140759.937500", "140801.427500", "140802.917500", "140804.407500", "140805.897500", "140807.387500", "140808.877500", "140810.367500", "140811.857500", "140813.347500", "140814.837500", "140816.327500", "140817.817500", "140819.307500", "140820.797500", "140822.287500", "140823.777500", "140825.267500", "140826.757500", "140828.247500", "140829.737500", "140831.227500", "140832.717500", "140834.207500", "140835.697500", "140837.187500", "140838.677500", "140840.167500", "140841.657500", "140843.147500", "140844.637500", "140846.127500", "140847.617500", "140849.107500", "140850.597500", "140852.087500", "140853.577500", "140855.067500", "140856.557500", "140858.047500", "140859.537500", "140901.027500", "140902.517500", "140904.007500", "140905.497500", "140906.987500", "140908.477500", "140909.967500", "140911.457500", "140912.947500", "140914.437500", "140915.927500", "140917.417500", "140918.907500", "140920.397500", "140921.887500", "140923.377500", "140924.867500", "140926.357500", "140927.847500", "140929.337500", "140930.827500", "140932.317500", "140933.807500", "140935.297500", "140936.787500", "140938.277500", "140939.767500", "140941.257500", "140942.747500", "140944.237500", "140945.727500", "140947.217500", "140948.707500", "140950.197500", "140951.687500", "140953.177500", "140954.667500", "140956.157500", "140957.647500", "140959.137500", "141000.627500", "141002.117500", "141003.607500", "141005.097500", "141006.587500", "141008.077500", "141009.567500", "141011.057500", "141012.547500", "141014.037500", "141015.527500", "141017.017500", "141018.507500", "141019.997500", "141021.487500", "141022.977500", "141024.467500", "141025.957500", "141027.447500", "141028.937500", "141030.427500", "141031.917500", "141033.407500", "141034.897500", "141036.387500", "141037.877500", "141039.367500", "141040.857500", "141042.347500", "141043.837500", "141045.327500", "141046.817500", "141048.307500", "141049.797500", "141051.287500", "141052.777500", "141054.267500", "141055.757500", "141057.247500", "141058.737500", "141100.227500", "141101.717500", "141103.207500", "141104.697500", "141106.187500", "141107.677500", "141109.167500", "141110.657500", "141112.147500", "141113.637500", "141115.127500", "141116.617500", "141118.107500", "141119.597500", "141121.087500", "141122.577500", "141124.067500", "141125.557500", "141127.047500", "141128.537500", "141130.027500", "141131.517500", "141133.007500", "141134.497500", "141135.987500", "141137.477500", "141138.967500", "141140.457500", "141141.947500", "141143.437500", "141144.927500", "141146.417500", "141147.907500", "141149.397500", "141150.887500", "141152.377500", "141153.867500", "141155.357500", "141156.847500", "141158.337500", "141159.827500", "141201.317500", "141202.807500", "141204.297500", "141205.787500", "141207.277500", "141208.767500", "141210.257500", "141211.747500", "141213.237500", "141214.727500", "141216.217500", "141217.707500", "141219.197500", "141220.687500", "141222.177500", "141223.667500", "141225.157500", "141226.647500", "141228.137500", "141229.627500", "141231.117500", "141232.607500", "141234.097500", "141235.587500", "141237.077500", "141238.567500"],
      "ContentTime": ["140553.284000", "140553.287000", "140553.289000", "140553.292000", "140553.294000", "140553.297000", "140553.299000", "140553.302000", "140553.304000", "140553.307000", "140553.309000", "140553.312000", "140553.314000", "140553.317000", "140553.319000", "140553.322000", "140553.324000", "140553.332000", "140553.336000", "140553.338000", "140553.341000", "140613.248000", "140613.251000", "140613.253000", "140613.256000", "140613.265000", "140613.272000", "140613.281000", "140613.284000", "140613.286000", "140613.289000", "140613.291000", "140613.294000", "140613.296000", "140613.299000", "140613.301000", "140613.304000", "140613.306000", "140613.309000", "140613.311000", "140613.314000", "140613.316000", "140633.236000", "140633.238000", "140633.241000", "140633.243000", "140633.246000", "140633.248000", "140633.251000", "140633.253000", "140633.255000", "140633.258000", "140633.260000", "140633.263000", "140633.265000", "140633.268000", "140633.270000", "140633.272000", "140633.275000", "140633.277000", "140633.280000", "140633.282000", "140653.235000", "140653.237000", "140653.240000", "140653.242000", "140653.245000", "140653.247000", "140653.250000", "140653.252000", "140653.254000", "140653.257000", "140653.259000", "140653.262000", "140653.264000", "140653.267000", "140653.269000", "140653.272000", "140653.274000", "140653.277000", "140653.290000", "140653.293000", "140733.278000", "140733.280000", "140733.283000", "140733.285000", "140733.298000", "140733.300000", "140733.302000", "140733.305000", "140733.307000", "140733.310000", "140733.312000", "140733.315000", "140733.317000", "140733.320000", "140733.322000", "140733.325000", "140733.327000", "140733.330000", "140733.332000", "140733.335000", "140733.337000", "140733.340000", "140733.342000", "140733.345000", "140733.347000", "140733.350000", "140733.352000", "140733.355000", "140733.357000", "140733.360000", "140813.262000", "140813.265000", "140813.268000", "140813.270000", "140813.273000", "140813.275000", "140813.278000", "140813.280000", "140813.283000", "140813.285000", "140813.288000", "140813.290000", "140813.293000", "140813.295000", "140813.298000", "140813.300000", "140813.303000", "140813.305000", "140813.308000", "140813.310000", "140813.313000", "140813.315000", "140813.318000", "140813.320000", "140813.323000", "140813.325000", "140813.327000", "140853.272000", "140853.274000", "140853.277000", "140853.279000", "140853.282000", "140853.284000", "140853.287000", "140853.290000", "140853.293000", "140853.295000", "140853.298000", "140853.300000", "140853.303000", "140853.305000", "140853.308000", "140853.310000", "140853.313000", "140853.315000", "140853.318000", "140853.320000", "140853.323000", "140853.325000", "140853.328000", "140853.330000", "140853.333000", "140853.335000", "140853.338000", "140933.302000", "140933.305000", "140933.308000", "140933.310000", "140933.313000", "140933.315000", "140933.318000", "140933.320000", "140933.323000", "140933.325000", "140933.328000", "140933.330000", "140933.333000", "140933.335000", "140933.338000", "140933.340000", "140933.343000", "140933.345000", "140933.347000", "140933.350000", "140933.352000", "140933.355000", "140933.357000", "140933.360000", "140933.362000", "140933.365000", "140933.367000", "141013.270000", "141013.273000", "141013.275000", "141013.278000", "141013.290000", "141013.293000", "141013.295000", "141013.298000", "141013.300000", "141013.303000", "141013.305000", "141013.308000", "141013.310000", "141013.313000", "141013.315000", "141013.318000", "141013.320000", "141013.323000", "141013.325000", "141013.328000", "141013.330000", "141013.333000", "141013.335000", "141013.338000", "141013.340000", "141013.343000", "141013.345000", "141053.285000", "141053.287000", "141053.298000", "141053.300000", "141053.303000", "141053.305000", "141053.308000", "141053.310000", "141053.313000", "141053.315000", "141053.317000", "141053.320000", "141053.322000", "141053.325000", "141053.328000", "141053.330000", "141053.333000", "141053.335000", "141053.338000", "141053.340000", "141053.343000", "141053.345000", "141053.347000", "141053.350000", "141053.352000", "141053.355000", "141133.281000", "141133.283000", "141133.286000", "141133.288000", "141133.291000", "141133.293000", "141133.296000", "141133.298000", "141133.301000", "141133.303000", "141133.306000", "141133.308000", "141133.311000", "141133.313000", "141133.316000", "141133.318000", "141133.321000", "141133.323000", "141133.326000", "141133.329000", "141133.331000", "141133.334000", "141133.336000", "141133.339000", "141133.341000", "141133.344000", "141133.346000", "141213.266000", "141213.268000", "141213.271000", "141213.273000", "141213.276000", "141213.278000", "141213.281000", "141213.283000", "141213.286000", "141213.288000", "141213.291000", "141213.293000", "141213.296000", "141213.298000", "141213.301000", "141213.303000", "141213.306000", "141213.308000", "141213.311000", "141213.313000", "141213.316000", "141213.318000", "141213.321000", "141213.323000", "141213.326000", "141213.328000", "141213.331000", "141241.673000", "141241.676000", "141241.678000", "141241.681000", "141241.684000", "141241.686000", "141241.689000", "141241.691000", "141241.694000", "141241.696000", "141241.714000", "141241.717000", "141241.720000", "141241.723000", "141241.725000", "141241.728000", "141241.731000", "141241.734000", "141241.736000"],
      "InstanceCreationTime": ["140553.284000", "140553.287000", "140553.289000", "140553.292000", "140553.294000", "140553.297000", "140553.299000", "140553.302000", "140553.304000", "140553.307000", "140553.309000", "140553.312000", "140553.314000", "140553.317000", "140553.319000", "140553.322000", "140553.324000", "140553.332000", "140553.336000", "140553.338000", "140553.341000", "140613.248000", "140613.251000", "140613.253000", "140613.256000", "140613.265000", "140613.272000", "140613.281000", "140613.284000", "140613.286000", "140613.289000", "140613.291000", "140613.294000", "140613.296000", "140613.299000", "140613.301000", "140613.304000", "140613.306000", "140613.309000", "140613.311000", "140613.314000", "140613.316000", "140633.236000", "140633.238000", "140633.241000", "140633.243000", "140633.246000", "140633.248000", "140633.251000", "140633.253000", "140633.255000", "140633.258000", "140633.260000", "140633.263000", "140633.265000", "140633.268000", "140633.270000", "140633.272000", "140633.275000", "140633.277000", "140633.280000", "140633.282000", "140653.235000", "140653.237000", "140653.240000", "140653.242000", "140653.245000", "140653.247000", "140653.250000", "140653.252000", "140653.254000", "140653.257000", "140653.259000", "140653.262000", "140653.264000", "140653.267000", "140653.269000", "140653.272000", "140653.274000", "140653.277000", "140653.290000", "140653.293000", "140733.278000", "140733.280000", "140733.283000", "140733.285000", "140733.298000", "140733.300000", "140733.302000", "140733.305000", "140733.307000", "140733.310000", "140733.312000", "140733.315000", "140733.317000", "140733.320000", "140733.322000", "140733.325000", "140733.327000", "140733.330000", "140733.332000", "140733.335000", "140733.337000", "140733.340000", "140733.342000", "140733.345000", "140733.347000", "140733.350000", "140733.352000", "140733.355000", "140733.357000", "140733.360000", "140813.262000", "140813.265000", "140813.268000", "140813.270000", "140813.273000", "140813.275000", "140813.278000", "140813.280000", "140813.283000", "140813.285000", "140813.288000", "140813.290000", "140813.293000", "140813.295000", "140813.298000", "140813.300000", "140813.303000", "140813.305000", "140813.308000", "140813.310000", "140813.313000", "140813.315000", "140813.318000", "140813.320000", "140813.323000", "140813.325000", "140813.327000", "140853.272000", "140853.274000", "140853.277000", "140853.279000", "140853.282000", "140853.284000", "140853.287000", "140853.290000", "140853.293000", "140853.295000", "140853.298000", "140853.300000", "140853.303000", "140853.305000", "140853.308000", "140853.310000", "140853.313000", "140853.315000", "140853.318000", "140853.320000", "140853.323000", "140853.325000", "140853.328000", "140853.330000", "140853.333000", "140853.335000", "140853.338000", "140933.302000", "140933.305000", "140933.308000", "140933.310000", "140933.313000", "140933.315000", "140933.318000", "140933.320000", "140933.323000", "140933.325000", "140933.328000", "140933.330000", "140933.333000", "140933.335000", "140933.338000", "140933.340000", "140933.343000", "140933.345000", "140933.347000", "140933.350000", "140933.352000", "140933.355000", "140933.357000", "140933.360000", "140933.362000", "140933.365000", "140933.367000", "141013.270000", "141013.273000", "141013.275000", "141013.278000", "141013.290000", "141013.293000", "141013.295000", "141013.298000", "141013.300000", "141013.303000", "141013.305000", "141013.308000", "141013.310000", "141013.313000", "141013.315000", "141013.318000", "141013.320000", "141013.323000", "141013.325000", "141013.328000", "141013.330000", "141013.333000", "141013.335000", "141013.338000", "141013.340000", "141013.343000", "141013.345000", "141053.285000", "141053.287000", "141053.298000", "141053.300000", "141053.303000", "141053.305000", "141053.308000", "141053.310000", "141053.313000", "141053.315000", "141053.317000", "141053.320000", "141053.322000", "141053.325000", "141053.328000", "141053.330000", "141053.333000", "141053.335000", "141053.338000", "141053.340000", "141053.343000", "141053.345000", "141053.347000", "141053.350000", "141053.352000", "141053.355000", "141133.281000", "141133.283000", "141133.286000", "141133.288000", "141133.291000", "141133.293000", "141133.296000", "141133.298000", "141133.301000", "141133.303000", "141133.306000", "141133.308000", "141133.311000", "141133.313000", "141133.316000", "141133.318000", "141133.321000", "141133.323000", "141133.326000", "141133.329000", "141133.331000", "141133.334000", "141133.336000", "141133.339000", "141133.341000", "141133.344000", "141133.346000", "141213.266000", "141213.268000", "141213.271000", "141213.273000", "141213.276000", "141213.278000", "141213.281000", "141213.283000", "141213.286000", "141213.288000", "141213.291000", "141213.293000", "141213.296000", "141213.298000", "141213.301000", "141213.303000", "141213.306000", "141213.308000", "141213.311000", "141213.313000", "141213.316000", "141213.318000", "141213.321000", "141213.323000", "141213.326000", "141213.328000", "141213.331000", "141241.673000", "141241.676000", "141241.678000", "141241.681000", "141241.684000", "141241.686000", "141241.689000", "141241.691000", "141241.694000", "141241.696000", "141241.714000", "141241.717000", "141241.720000", "141241.723000", "141241.725000", "141241.728000", "141241.731000", "141241.734000", "141241.736000"],
      "InstanceNumber": [1, 2, 3, 4, 5, 6, 7, 8, 9, 10, 11, 12, 13, 14, 15, 16, 17, 18, 19, 20, 21, 22, 23, 24, 25, 26, 27, 28, 29, 30, 31, 32, 33, 34, 35, 36, 37, 38, 39, 40, 41, 42, 43, 44, 45, 46, 47, 48, 49, 50, 51, 52, 53, 54, 55, 56, 57, 58, 59, 60, 61, 62, 63, 64, 65, 66, 67, 68, 69, 70, 71, 72, 73, 74, 75, 76, 77, 78, 79, 80, 81, 82, 83, 84, 85, 86, 87, 88, 89, 90, 91, 92, 93, 94, 95, 96, 97, 98, 99, 100, 101, 102, 103, 104, 105, 106, 107, 108, 109, 110, 111, 112, 113, 114, 115, 116, 117, 118, 119, 120, 121, 122, 123, 124, 125, 126, 127, 128, 129, 130, 131, 132, 133, 134, 135, 136, 137, 138, 139, 140, 141, 142, 143, 144, 145, 146, 147, 148, 149, 150, 151, 152, 153, 154, 155, 156, 157, 158, 159, 160, 161, 162, 163, 164, 165, 166, 167, 168, 169, 170, 171, 172, 173, 174, 175, 176, 177, 178, 179, 180, 181, 182, 183, 184, 185, 186, 187, 188, 189, 190, 191, 192, 193, 194, 195, 196, 197, 198, 199, 200, 201, 202, 203, 204, 205, 206, 207, 208, 209, 210, 211, 212, 213, 214, 215, 216, 217, 218, 219, 220, 221, 222, 223, 224, 225, 226, 227, 228, 229, 230, 231, 232, 233, 234, 235, 236, 237, 238, 239, 240, 241, 242, 243, 244, 245, 246, 247, 248, 249, 250, 251, 252, 253, 254, 255, 256, 257, 258, 259, 260, 261, 262, 263, 264, 265, 266, 267, 268, 269, 270, 271, 272, 273, 274, 275, 276, 277, 278, 279, 280, 281, 282, 283, 284, 285, 286, 287, 288, 289, 290, 291, 292, 293, 294, 295, 296, 297, 298, 299, 300, 301, 302, 303, 304, 305, 306, 307, 308, 309, 310, 311, 312, 313, 314, 315, 316, 317, 318, 319],
      "WindowCenter": [4826.0, 4792.0, 4820.0, 4794.0, 4820.0, 4816.0, 4822.0, 4814.0, 4820.0, 4848.0, 4824.0, 4814.0, 4820.0, 4792.0, 4818.0, 4786.0, 4818.0, 4788.0, 4790.0, 4792.0, 4792.0, 4818.0, 4814.0, 4792.0, 4816.0, 4794.0, 4792.0, 4792.0, 4792.0, 4794.0, 4792.0, 4794.0, 4794.0, 4816.0, 4822.0, 4790.0, 4792.0, 4792.0, 4792.0, 4820.0, 4792.0, 4818.0, 4794.0, 4796.0, 4792.0, 4822.0, 4818.0, 4794.0, 4820.0, 4818.0, 4790.0, 4772.0, 4790.0, 4794.0, 4816.0, 4796.0, 4818.0, 4794.0, 4792.0, 4794.0, 4788.0, 4788.0, 4788.0, 4792.0, 4788.0, 4788.0, 4790.0, 4792.0, 4790.0, 4788.0, 4790.0, 4790.0, 4788.0, 4766.0, 4772.0, 4796.0, 4794.0, 4790.0, 4818.0, 4826.0, 4820.0, 4768.0, 4770.0, 4770.0, 4770.0, 4790.0, 4788.0, 4818.0, 4822.0, 4820.0, 4788.0, 4788.0, 4770.0, 4772.0, 4770.0, 4768.0, 4768.0, 4788.0, 4790.0, 4794.0, 4794.0, 4794.0, 4794.0, 4794.0, 4792.0, 4786.0, 4792.0, 4792.0, 4788.0, 4786.0, 4766.0, 4792.0, 4792.0, 4790.0, 4792.0, 4792.0, 4790.0, 4792.0, 4786.0, 4790.0, 4766.0, 4764.0, 4788.0, 4766.0, 4772.0, 4792.0, 4792.0, 4798.0, 4794.0, 4794.0, 4770.0, 4790.0, 4770.0, 4798.0, 4818.0, 4822.0, 4792.0, 4770.0, 4766.0, 4768.0, 4768.0, 4768.0, 4794.0, 4794.0, 4794.0, 4790.0, 4792.0, 4826.0, 4798.0, 4788.0, 4764.0, 4764.0, 4762.0, 4786.0, 4790.0, 4790.0, 4794.0, 4796.0, 4794.0, 4790.0, 4786.0, 4762.0, 4788.0, 4766.0, 4786.0, 4764.0, 4788.0, 4790.0, 4792.0, 4790.0, 4766.0, 4792.0, 4788.0, 4788.0, 4766.0, 4762.0, 4766.0, 4786.0, 4792.0, 4792.0, 4830.0, 4786.0, 4768.0, 4762.0, 4764.0, 4764.0, 4768.0, 4790.0, 4794.0, 4794.0, 4820.0, 4820.0, 4796.0, 4790.0, 4790.0, 4766.0, 4796.0, 4794.0, 4794.0, 4772.0, 4766.0, 4770.0, 4768.0, 4768.0, 4796.0, 4792.0, 4790.0, 4794.0, 4790.0, 4788.0, 4766.0, 4790.0, 4768.0, 4768.0, 4764.0, 4768.0, 4766.0, 4788.0, 4768.0, 4790.0, 4794.0, 4792.0, 4794.0, 4770.0, 4772.0, 4768.0, 4774.0, 4768.0, 4788.0, 4794.0, 4792.0, 4790.0, 4766.0, 4766.0, 4764.0, 4768.0, 4764.0, 4770.0, 4768.0, 4770.0, 4794.0, 4794.0, 4790.0, 4768.0, 4766.0, 4766.0, 4766.0, 4768.0, 4768.0, 4770.0, 4788.0, 4766.0, 4788.0, 4768.0, 4770.0, 4766.0, 4766.0, 4766.0, 4790.0, 4784.0, 4788.0, 4764.0, 4768.0, 4764.0, 4766.0, 4768.0, 4764.0, 4772.0, 4768.0, 4764.0, 4772.0, 4790.0, 4794.0, 4794.0, 4770.0, 4770.0, 4768.0, 4768.0, 4768.0, 4770.0, 4768.0, 4768.0, 4770.0, 4770.0, 4770.0, 4792.0, 4786.0, 4788.0, 4768.0, 4764.0, 4746.0, 4768.0, 4766.0, 4768.0, 4768.0, 4766.0, 4770.0, 4790.0, 4770.0, 4792.0, 4764.0, 4766.0, 4792.0, 4768.0, 4790.0, 4764.0, 4766.0, 4766.0, 4746.0, 4764.0, 4768.0, 4792.0, 4794.0, 4818.0, 4794.0, 4790.0, 4766.0, 4770.0, 4768.0],
