{
  "AcquisitionMatrixPE": 104,
  "AcquisitionNumber": 1,
  "AcquisitionTime": "14:24:24.997500",
  "BandwidthPerPixelPhaseEncode": 17.17,
  "BaseResolution": 104,
  "BodyPartExamined": "BRAIN",
  "CoilCombinationMethod": "Sum of Squares",
  "ConsistencyInfo": "N4_VE11C_LATEST_20160120",
  "ConversionSoftware": "dcm2niix",
  "ConversionSoftwareVersion": "v1.0.20220505",
  "DerivedVendorReportedEchoSpacing": 0.000560011,
  "DeviceSerialNumber": "167006",
  "DwellTime": 2.1e-06,
  "EchoTime": 0.037,
  "EchoTime1": 0.037,
  "EchoTime2": 0.001,
  "EchoTrainLength": 104,
  "EffectiveEchoSpacing": 0.000560011,
  "FlipAngle": 52,
  "HeudiconvVersion": "0.5.3.post811+g6206e14",
  "ImageComments": "Unaliased MB4/PE3/LB",
  "ImageOrientationPatientDICOM": [0.999346, 0.0336459, 0.013212, -0.0291362, 0.966112, -0.256472],
  "ImageOrientationText": "Tra>Cor(-14.8)>Sag(1.2)",
  "ImageType": [
    "ORIGINAL",
    "PRIMARY",
    "P",
    "MB",
    "ND",
    "MOSAIC",
    "PHASE"
],
  "ImagingFrequency": 123.26,
  "InPlanePhaseEncodingDirectionDICOM": "COL",
  "InstitutionAddress": "Chemin Queen-Mary 4565,Montreal,District,CA,H3W 1W5",
  "InstitutionName": "IUGM",
  "InstitutionalDepartmentName": "Department",
  "MRAcquisitionType": "2D",
  "MagneticFieldStrength": 3,
  "Manufacturer": "Siemens",
  "ManufacturersModelName": "Prisma_fit",
  "MatrixCoilMode": "SENSE",
  "Modality": "MR",
  "MultibandAccelerationFactor": 4,
  "PartialFourier": 1,
  "PatientPosition": "HFS",
  "PercentPhaseFOV": 100,
  "PercentSampling": 100,
  "PhaseEncodingDirection": "j",
  "PhaseEncodingSteps": 104,
  "PhaseResolution": 1,
  "PixelBandwidth": 2290,
  "ProcedureStepDescription": "games^mario3",
  "ProtocolName": "func_task-mario3_run-03",
  "PulseSequenceDetails": "%CustomerSeq%\\cmrr_mbep2d_bold",
  "ReceiveCoilActiveElements": "HC1-7;NC1,2",
  "ReceiveCoilName": "HeadNeck_64",
  "ReconMatrixPE": 104,
  "RepetitionTime": 1.49,
  "SAR": 0.0528349,
  "ScanOptions": "FS",
  "ScanningSequence": "EP",
  "SequenceName": "epfid2d1_104",
  "SequenceVariant": "SK\\SS",
  "SeriesDescription": "func_task-mario3_run-03",
  "SeriesNumber": 17,
  "ShimSetting": [620, -7231, -8775, 686, 67, -41, 36, -10],
  "SliceThickness": 2,
  "SliceTiming": [0, 0.785, 0.1, 0.8825, 0.1975, 0.98, 0.295, 1.08, 0.3925, 1.1775, 0.49, 1.275, 0.59, 1.3725, 0.6875, 0, 0.785, 0.1, 0.8825, 0.1975, 0.98, 0.295, 1.08, 0.3925, 1.1775, 0.49, 1.275, 0.59, 1.3725, 0.6875, 0, 0.785, 0.1, 0.8825, 0.1975, 0.98, 0.295, 1.08, 0.3925, 1.1775, 0.49, 1.275, 0.59, 1.3725, 0.6875, 0, 0.785, 0.1, 0.8825, 0.1975, 0.98, 0.295, 1.08, 0.3925, 1.1775, 0.49, 1.275, 0.59, 1.3725, 0.6875],
  "SoftwareVersions": "syngo MR E11",
  "SpacingBetweenSlices": 2,
  "StationName": "MRC35049",
  "TaskName": "mario3",
  "TotalReadoutTime": 0.0576811,
  "TxRefAmp": 221.793,
  "WipMemBlock": "d71b2b36-acf9-43ec-9019-1dd3a7ed53c4||Sequence: R017 ve11c/master r/75a17815+; Jun 28 2022 16:32:11 by eja",
  "dcmmeta_affine": [
    [-1.9986929893493652, -0.05827244371175766, 0.04278694838285446, 110.75809478759766],
    [-0.0672917291522026, 1.9322246313095093, -0.5118394494056702, -70.68160247802734],
    [0.026423929259181023, 0.5129445791244507, 1.9329224824905396, -58.12141418457031],
    [0.0, 0.0, 0.0, 1.0]
],
  "dcmmeta_reorient_transform": [
    [0.0, -1.0, 0.0, 103.0],
    [1.0, 0.0, 0.0, 0.0],
    [0.0, 0.0, 1.0, 0.0],
    [0.0, 0.0, 0.0, 1.0]
],
  "dcmmeta_shape": [104, 104, 60, 297],
  "dcmmeta_slice_dim": 2,
  "dcmmeta_version": 0.6,
  "global": {
    "const": {
      "AcquisitionMatrix": [104, 0, 0, 104],
      "AngioFlag": "N",
      "BitsAllocated": 16,
      "BitsStored": 16,
      "BodyPartExamined": "BRAIN",
      "Columns": 832,
      "EchoNumbers": 1,
      "EchoTime": 37.0,
      "EchoTrainLength": 104,
      "FlipAngle": 52.0,
      "HighBit": 15,
      "ImageOrientationPatient": [0.99934648635662, 0.03364586431669, 0.01321196507185, -0.0291362227678, 0.96611233832737, -0.2564722796999],
      "ImagePositionPatient": [-811.06910557516, -856.16151075709, 171.80538351306],
      "ImageType": [
        "ORIGINAL",
        "PRIMARY",
        "P",
        "MB",
        "ND",
        "MOSAIC"
],
      "ImagedNucleus": "1H",
      "ImagingFrequency": 123.26023,
      "InPlanePhaseEncodingDirection": "COL",
      "LargestImagePixelValue": 4095,
      "MRAcquisitionType": "2D",
      "MagneticFieldStrength": 3.0,
      "Manufacturer": "SIEMENS",
      "ManufacturerModelName": "Prisma_fit",
      "Modality": "MR",
      "NumberOfAverages": 1.0,
      "NumberOfPhaseEncodingSteps": 104,
      "PercentPhaseFieldOfView": 100.0,
      "PercentSampling": 100.0,
      "PerformedProcedureStepStartTime": "135934.265000",
      "PhotometricInterpretation": "MONOCHROME2",
      "PixelBandwidth": 2290.0,
      "PixelRepresentation": 0,
      "PixelSpacing": [2.0, 2.0],
      "ProtocolName": "func_task-mario3_run-03",
      "RepetitionTime": 1490.0,
      "RescaleIntercept": -4096.0,
      "RescaleSlope": 2.0,
      "RescaleType": "US",
      "Rows": 832,
      "SAR": 0.05283486093854,
      "SamplesPerPixel": 1,
      "ScanOptions": "FS",
      "ScanningSequence": "EP",
      "SequenceName": "epfid2d1_104",
      "SequenceVariant": [
        "SK",
        "SS"
],
      "SeriesDescription": "func_task-mario3_run-03",
      "SeriesNumber": 17,
      "SeriesTime": "142524.759000",
      "SliceLocation": -35.71378083697,
      "SliceThickness": 2.0,
      "SmallestImagePixelValue": 0,
      "SoftwareVersions": "syngo MR E11",
      "SpacingBetweenSlices": 1.9999999509428,
      "SpecificCharacterSet": "ISO_IR 100",
      "StudyID": "1",
      "StudyTime": "135934.194000",
      "TransmitCoilName": "Body",
      "VariableFlipAngleFlag": "N",
      "WindowCenterWidthExplanation": "Algo1",
      "dBdt": 0.0},
    "slices": {}
  },
  "time": {
    "samples": {
      "AcquisitionNumber": [1, 2, 3, 4, 5, 6, 7, 8, 9, 10, 11, 12, 13, 14, 15, 16, 17, 18, 19, 20, 21, 22, 23, 24, 25, 26, 27, 28, 29, 30, 31, 32, 33, 34, 35, 36, 37, 38, 39, 40, 41, 42, 43, 44, 45, 46, 47, 48, 49, 50, 51, 52, 53, 54, 55, 56, 57, 58, 59, 60, 61, 62, 63, 64, 65, 66, 67, 68, 69, 70, 71, 72, 73, 74, 75, 76, 77, 78, 79, 80, 81, 82, 83, 84, 85, 86, 87, 88, 89, 90, 91, 92, 93, 94, 95, 96, 97, 98, 99, 100, 101, 102, 103, 104, 105, 106, 107, 108, 109, 110, 111, 112, 113, 114, 115, 116, 117, 118, 119, 120, 121, 122, 123, 124, 125, 126, 127, 128, 129, 130, 131, 132, 133, 134, 135, 136, 137, 138, 139, 140, 141, 142, 143, 144, 145, 146, 147, 148, 149, 150, 151, 152, 153, 154, 155, 156, 157, 158, 159, 160, 161, 162, 163, 164, 165, 166, 167, 168, 169, 170, 171, 172, 173, 174, 175, 176, 177, 178, 179, 180, 181, 182, 183, 184, 185, 186, 187, 188, 189, 190, 191, 192, 193, 194, 195, 196, 197, 198, 199, 200, 201, 202, 203, 204, 205, 206, 207, 208, 209, 210, 211, 212, 213, 214, 215, 216, 217, 218, 219, 220, 221, 222, 223, 224, 225, 226, 227, 228, 229, 230, 231, 232, 233, 234, 235, 236, 237, 238, 239, 240, 241, 242, 243, 244, 245, 246, 247, 248, 249, 250, 251, 252, 253, 254, 255, 256, 257, 258, 259, 260, 261, 262, 263, 264, 265, 266, 267, 268, 269, 270, 271, 272, 273, 274, 275, 276, 277, 278, 279, 280, 281, 282, 283, 284, 285, 286, 287, 288, 289, 290, 291, 292, 293, 294, 295, 296, 297],
      "AcquisitionTime": ["142424.997500", "142426.487500", "142427.977500", "142429.467500", "142430.957500", "142432.447500", "142433.937500", "142435.427500", "142436.917500", "142438.407500", "142439.897500", "142441.387500", "142442.877500", "142444.367500", "142445.857500", "142447.347500", "142448.837500", "142450.327500", "142451.817500", "142453.307500", "142454.797500", "142456.287500", "142457.777500", "142459.267500", "142500.757500", "142502.247500", "142503.737500", "142505.227500", "142506.717500", "142508.207500", "142509.697500", "142511.187500", "142512.677500", "142514.167500", "142515.657500", "142517.147500", "142518.637500", "142520.127500", "142521.617500", "142523.107500", "142524.597500", "142526.087500", "142527.577500", "142529.067500", "142530.557500", "142532.047500", "142533.537500", "142535.027500", "142536.517500", "142538.007500", "142539.497500", "142540.987500", "142542.477500", "142543.967500", "142545.457500", "142546.947500", "142548.437500", "142549.927500", "142551.417500", "142552.907500", "142554.397500", "142555.887500", "142557.377500", "142558.867500", "142600.357500", "142601.847500", "142603.337500", "142604.827500", "142606.317500", "142607.807500", "142609.297500", "142610.787500", "142612.277500", "142613.767500", "142615.257500", "142616.747500", "142618.237500", "142619.727500", "142621.217500", "142622.707500", "142624.197500", "142625.687500", "142627.177500", "142628.667500", "142630.157500", "142631.647500", "142633.137500", "142634.627500", "142636.117500", "142637.607500", "142639.097500", "142640.587500", "142642.077500", "142643.567500", "142645.057500", "142646.547500", "142648.037500", "142649.527500", "142651.017500", "142652.507500", "142653.997500", "142655.487500", "142656.977500", "142658.467500", "142659.957500", "142701.447500", "142702.937500", "142704.427500", "142705.917500", "142707.407500", "142708.897500", "142710.387500", "142711.877500", "142713.367500", "142714.857500", "142716.347500", "142717.837500", "142719.327500", "142720.817500", "142722.307500", "142723.797500", "142725.287500", "142726.777500", "142728.267500", "142729.757500", "142731.247500", "142732.737500", "142734.227500", "142735.717500", "142737.207500", "142738.697500", "142740.187500", "142741.677500", "142743.167500", "142744.657500", "142746.147500", "142747.637500", "142749.127500", "142750.617500", "142752.107500", "142753.597500", "142755.087500", "142756.577500", "142758.067500", "142759.557500", "142801.047500", "142802.537500", "142804.027500", "142805.517500", "142807.007500", "142808.497500", "142809.987500", "142811.477500", "142812.967500", "142814.457500", "142815.947500", "142817.437500", "142818.927500", "142820.417500", "142821.907500", "142823.397500", "142824.887500", "142826.377500", "142827.867500", "142829.357500", "142830.847500", "142832.337500", "142833.827500", "142835.317500", "142836.807500", "142838.297500", "142839.787500", "142841.277500", "142842.767500", "142844.257500", "142845.747500", "142847.237500", "142848.727500", "142850.217500", "142851.707500", "142853.197500", "142854.687500", "142856.177500", "142857.667500", "142859.157500", "142900.647500", "142902.137500", "142903.627500", "142905.117500", "142906.607500", "142908.097500", "142909.587500", "142911.077500", "142912.567500", "142914.057500", "142915.547500", "142917.037500", "142918.527500", "142920.017500", "142921.507500", "142922.997500", "142924.487500", "142925.977500", "142927.467500", "142928.957500", "142930.447500", "142931.937500", "142933.427500", "142934.917500", "142936.407500", "142937.897500", "142939.387500", "142940.877500", "142942.367500", "142943.857500", "142945.347500", "142946.837500", "142948.327500", "142949.817500", "142951.307500", "142952.797500", "142954.287500", "142955.777500", "142957.267500", "142958.757500", "143000.247500", "143001.737500", "143003.227500", "143004.717500", "143006.207500", "143007.697500", "143009.187500", "143010.677500", "143012.167500", "143013.657500", "143015.147500", "143016.637500", "143018.127500", "143019.617500", "143021.107500", "143022.597500", "143024.087500", "143025.577500", "143027.067500", "143028.557500", "143030.047500", "143031.537500", "143033.027500", "143034.517500", "143036.007500", "143037.497500", "143038.987500", "143040.477500", "143041.967500", "143043.457500", "143044.947500", "143046.437500", "143047.927500", "143049.417500", "143050.907500", "143052.397500", "143053.887500", "143055.377500", "143056.867500", "143058.357500", "143059.847500", "143101.337500", "143102.827500", "143104.317500", "143105.807500", "143107.297500", "143108.787500", "143110.277500", "143111.767500", "143113.257500", "143114.747500", "143116.237500", "143117.727500", "143119.217500", "143120.707500", "143122.197500", "143123.687500", "143125.177500", "143126.667500", "143128.157500", "143129.647500", "143131.137500", "143132.627500", "143134.117500", "143135.607500", "143137.097500", "143138.587500", "143140.077500", "143141.567500", "143143.057500", "143144.547500", "143146.037500"],
      "ContentTime": ["142524.761000", "142524.763000", "142524.766000", "142524.769000", "142524.771000", "142524.783000", "142524.785000", "142524.788000", "142524.798000", "142544.747000", "142544.749000", "142544.752000", "142544.754000", "142544.757000", "142544.759000", "142544.762000", "142544.764000", "142544.767000", "142544.769000", "142544.772000", "142544.774000", "142544.777000", "142544.787000", "142544.790000", "142544.792000", "142544.795000", "142544.807000", "142544.809000", "142544.812000", "142604.763000", "142604.766000", "142604.768000", "142604.771000", "142604.774000", "142604.776000", "142604.779000", "142604.781000", "142604.784000", "142604.786000", "142604.789000", "142604.791000", "142604.794000", "142604.796000", "142604.798000", "142604.801000", "142604.803000", "142604.806000", "142604.808000", "142604.811000", "142624.768000", "142624.770000", "142624.773000", "142624.775000", "142624.778000", "142624.780000", "142624.783000", "142624.785000", "142624.788000", "142624.791000", "142624.793000", "142624.796000", "142624.798000", "142624.801000", "142624.803000", "142624.806000", "142624.808000", "142624.811000", "142624.814000", "142624.817000", "142624.819000", "142644.744000", "142644.747000", "142644.749000", "142644.752000", "142644.754000", "142644.757000", "142644.759000", "142644.762000", "142644.765000", "142644.767000", "142644.769000", "142644.772000", "142644.774000", "142644.777000", "142644.779000", "142644.782000", "142644.789000", "142644.792000", "142644.794000", "142644.797000", "142724.810000", "142724.813000", "142724.815000", "142724.818000", "142724.820000", "142724.823000", "142724.826000", "142724.829000", "142724.831000", "142724.834000", "142724.837000", "142724.839000", "142724.842000", "142724.844000", "142724.847000", "142724.849000", "142724.852000", "142724.854000", "142724.857000", "142724.859000", "142724.862000", "142724.864000", "142724.867000", "142724.870000", "142724.872000", "142724.875000", "142724.877000", "142724.880000", "142724.882000", "142724.885000", "142804.783000", "142804.786000", "142804.788000", "142804.791000", "142804.793000", "142804.804000", "142804.806000", "142804.809000", "142804.811000", "142804.814000", "142804.817000", "142804.819000", "142804.822000", "142804.824000", "142804.827000", "142804.829000", "142804.832000", "142804.834000", "142804.837000", "142804.839000", "142804.849000", "142804.852000", "142804.855000", "142804.857000", "142804.859000", "142804.862000", "142844.773000", "142844.776000", "142844.779000", "142844.781000", "142844.784000", "142844.787000", "142844.789000", "142844.792000", "142844.803000", "142844.806000", "142844.808000", "142844.811000", "142844.814000", "142844.816000", "142844.819000", "142844.821000", "142844.824000", "142844.826000", "142844.829000", "142844.831000", "142844.834000", "142844.836000", "142844.839000", "142844.841000", "142844.844000", "142844.846000", "142844.849000", "142924.787000", "142924.790000", "142924.792000", "142924.802000", "142924.804000", "142924.807000", "142924.809000", "142924.812000", "142924.814000", "142924.817000", "142924.819000", "142924.822000", "142924.824000", "142924.827000", "142924.829000", "142924.832000", "142924.835000", "142924.837000", "142924.840000", "142924.843000", "142924.845000", "142924.848000", "142924.850000", "142924.853000", "142924.856000", "142924.859000", "142924.862000", "143005.212000", "143005.215000", "143005.218000", "143005.220000", "143005.223000", "143005.225000", "143005.228000", "143005.230000", "143005.233000", "143005.236000", "143005.238000", "143005.241000", "143005.243000", "143005.246000", "143005.249000", "143005.251000", "143005.254000", "143005.257000", "143005.259000", "143005.262000", "143005.264000", "143005.267000", "143005.269000", "143005.272000", "143005.274000", "143005.277000", "143005.280000", "143044.798000", "143044.801000", "143044.803000", "143044.806000", "143044.808000", "143044.811000", "143044.813000", "143044.816000", "143044.819000", "143044.827000", "143044.830000", "143044.833000", "143044.835000", "143044.838000", "143044.840000", "143044.843000", "143044.845000", "143044.848000", "143044.850000", "143044.853000", "143044.855000", "143044.858000", "143044.860000", "143044.863000", "143044.865000", "143044.868000", "143044.870000", "143124.783000", "143124.786000", "143124.788000", "143124.791000", "143124.793000", "143124.796000", "143124.798000", "143124.801000", "143124.803000", "143124.806000", "143124.808000", "143124.811000", "143124.813000", "143124.816000", "143124.818000", "143124.821000", "143124.823000", "143124.826000", "143124.828000", "143124.831000", "143124.833000", "143124.836000", "143124.838000", "143124.841000", "143124.843000", "143124.846000", "143124.848000", "143149.087000", "143149.090000", "143149.093000", "143149.095000", "143149.098000", "143149.100000", "143149.103000", "143149.105000", "143149.108000", "143149.110000", "143149.113000", "143149.115000", "143149.118000", "143149.120000", "143149.123000", "143149.125000"],
      "InstanceCreationTime": ["142524.761000", "142524.763000", "142524.766000", "142524.769000", "142524.771000", "142524.783000", "142524.785000", "142524.788000", "142524.798000", "142544.747000", "142544.749000", "142544.752000", "142544.754000", "142544.757000", "142544.759000", "142544.762000", "142544.764000", "142544.767000", "142544.769000", "142544.772000", "142544.774000", "142544.777000", "142544.787000", "142544.790000", "142544.792000", "142544.795000", "142544.807000", "142544.809000", "142544.812000", "142604.763000", "142604.766000", "142604.768000", "142604.771000", "142604.774000", "142604.776000", "142604.779000", "142604.781000", "142604.784000", "142604.786000", "142604.789000", "142604.791000", "142604.794000", "142604.796000", "142604.798000", "142604.801000", "142604.803000", "142604.806000", "142604.808000", "142604.811000", "142624.768000", "142624.770000", "142624.773000", "142624.775000", "142624.778000", "142624.780000", "142624.783000", "142624.785000", "142624.788000", "142624.791000", "142624.793000", "142624.796000", "142624.798000", "142624.801000", "142624.803000", "142624.806000", "142624.808000", "142624.811000", "142624.814000", "142624.817000", "142624.819000", "142644.744000", "142644.747000", "142644.749000", "142644.752000", "142644.754000", "142644.757000", "142644.759000", "142644.762000", "142644.765000", "142644.767000", "142644.769000", "142644.772000", "142644.774000", "142644.777000", "142644.779000", "142644.782000", "142644.789000", "142644.792000", "142644.794000", "142644.797000", "142724.810000", "142724.813000", "142724.815000", "142724.818000", "142724.820000", "142724.823000", "142724.826000", "142724.829000", "142724.831000", "142724.834000", "142724.837000", "142724.839000", "142724.842000", "142724.844000", "142724.847000", "142724.849000", "142724.852000", "142724.854000", "142724.857000", "142724.859000", "142724.862000", "142724.864000", "142724.867000", "142724.870000", "142724.872000", "142724.875000", "142724.877000", "142724.880000", "142724.882000", "142724.885000", "142804.783000", "142804.786000", "142804.788000", "142804.791000", "142804.793000", "142804.804000", "142804.806000", "142804.809000", "142804.811000", "142804.814000", "142804.817000", "142804.819000", "142804.822000", "142804.824000", "142804.827000", "142804.829000", "142804.832000", "142804.834000", "142804.837000", "142804.839000", "142804.849000", "142804.852000", "142804.855000", "142804.857000", "142804.859000", "142804.862000", "142844.773000", "142844.776000", "142844.779000", "142844.781000", "142844.784000", "142844.787000", "142844.789000", "142844.792000", "142844.803000", "142844.806000", "142844.808000", "142844.811000", "142844.814000", "142844.816000", "142844.819000", "142844.821000", "142844.824000", "142844.826000", "142844.829000", "142844.831000", "142844.834000", "142844.836000", "142844.839000", "142844.841000", "142844.844000", "142844.846000", "142844.849000", "142924.787000", "142924.790000", "142924.792000", "142924.802000", "142924.804000", "142924.807000", "142924.809000", "142924.812000", "142924.814000", "142924.817000", "142924.819000", "142924.822000", "142924.824000", "142924.827000", "142924.829000", "142924.832000", "142924.835000", "142924.837000", "142924.840000", "142924.843000", "142924.845000", "142924.848000", "142924.850000", "142924.853000", "142924.856000", "142924.859000", "142924.862000", "143005.212000", "143005.215000", "143005.218000", "143005.220000", "143005.223000", "143005.225000", "143005.228000", "143005.230000", "143005.233000", "143005.236000", "143005.238000", "143005.241000", "143005.243000", "143005.246000", "143005.249000", "143005.251000", "143005.254000", "143005.257000", "143005.259000", "143005.262000", "143005.264000", "143005.267000", "143005.269000", "143005.272000", "143005.274000", "143005.277000", "143005.280000", "143044.798000", "143044.801000", "143044.803000", "143044.806000", "143044.808000", "143044.811000", "143044.813000", "143044.816000", "143044.819000", "143044.827000", "143044.830000", "143044.833000", "143044.835000", "143044.838000", "143044.840000", "143044.843000", "143044.845000", "143044.848000", "143044.850000", "143044.853000", "143044.855000", "143044.858000", "143044.860000", "143044.863000", "143044.865000", "143044.868000", "143044.870000", "143124.783000", "143124.786000", "143124.788000", "143124.791000", "143124.793000", "143124.796000", "143124.798000", "143124.801000", "143124.803000", "143124.806000", "143124.808000", "143124.811000", "143124.813000", "143124.816000", "143124.818000", "143124.821000", "143124.823000", "143124.826000", "143124.828000", "143124.831000", "143124.833000", "143124.836000", "143124.838000", "143124.841000", "143124.843000", "143124.846000", "143124.848000", "143149.087000", "143149.090000", "143149.093000", "143149.095000", "143149.098000", "143149.100000", "143149.103000", "143149.105000", "143149.108000", "143149.110000", "143149.113000", "143149.115000", "143149.118000", "143149.120000", "143149.123000", "143149.125000"],
      "InstanceNumber": [1, 2, 3, 4, 5, 6, 7, 8, 9, 10, 11, 12, 13, 14, 15, 16, 17, 18, 19, 20, 21, 22, 23, 24, 25, 26, 27, 28, 29, 30, 31, 32, 33, 34, 35, 36, 37, 38, 39, 40, 41, 42, 43, 44, 45, 46, 47, 48, 49, 50, 51, 52, 53, 54, 55, 56, 57, 58, 59, 60, 61, 62, 63, 64, 65, 66, 67, 68, 69, 70, 71, 72, 73, 74, 75, 76, 77, 78, 79, 80, 81, 82, 83, 84, 85, 86, 87, 88, 89, 90, 91, 92, 93, 94, 95, 96, 97, 98, 99, 100, 101, 102, 103, 104, 105, 106, 107, 108, 109, 110, 111, 112, 113, 114, 115, 116, 117, 118, 119, 120, 121, 122, 123, 124, 125, 126, 127, 128, 129, 130, 131, 132, 133, 134, 135, 136, 137, 138, 139, 140, 141, 142, 143, 144, 145, 146, 147, 148, 149, 150, 151, 152, 153, 154, 155, 156, 157, 158, 159, 160, 161, 162, 163, 164, 165, 166, 167, 168, 169, 170, 171, 172, 173, 174, 175, 176, 177, 178, 179, 180, 181, 182, 183, 184, 185, 186, 187, 188, 189, 190, 191, 192, 193, 194, 195, 196, 197, 198, 199, 200, 201, 202, 203, 204, 205, 206, 207, 208, 209, 210, 211, 212, 213, 214, 215, 216, 217, 218, 219, 220, 221, 222, 223, 224, 225, 226, 227, 228, 229, 230, 231, 232, 233, 234, 235, 236, 237, 238, 239, 240, 241, 242, 243, 244, 245, 246, 247, 248, 249, 250, 251, 252, 253, 254, 255, 256, 257, 258, 259, 260, 261, 262, 263, 264, 265, 266, 267, 268, 269, 270, 271, 272, 273, 274, 275, 276, 277, 278, 279, 280, 281, 282, 283, 284, 285, 286, 287, 288, 289, 290, 291, 292, 293, 294, 295, 296, 297],
      "WindowCenter": [4860.0, 4886.0, 4886.0, 4864.0, 4864.0, 4864.0, 4864.0, 4858.0, 4858.0, 4860.0, 4862.0, 4864.0, 4860.0, 4860.0, 4854.0, 4798.0, 4800.0, 4824.0, 4832.0, 4856.0, 4854.0, 4854.0, 4824.0, 4824.0, 4826.0, 4828.0, 4822.0, 4858.0, 4858.0, 4858.0, 4854.0, 4854.0, 4830.0, 4826.0, 4822.0, 4824.0, 4828.0, 4856.0, 4830.0, 4828.0, 4824.0, 4856.0, 4852.0, 4832.0, 4858.0, 4856.0, 4798.0, 4822.0, 4828.0, 4858.0, 4858.0, 4858.0, 4860.0, 4862.0, 4858.0, 4828.0, 4824.0, 4822.0, 4822.0, 4828.0, 4832.0, 4830.0, 4826.0, 4826.0, 4826.0, 4830.0, 4854.0, 4828.0, 4822.0, 4824.0, 4824.0, 4854.0, 4852.0, 4830.0, 4826.0, 4824.0, 4856.0, 4852.0, 4826.0, 4822.0, 4828.0, 4832.0, 4828.0, 4830.0, 4822.0, 4822.0, 4830.0, 4854.0, 4828.0, 4854.0, 4856.0, 4830.0, 4854.0, 4854.0, 4826.0, 4830.0, 4852.0, 4830.0, 4832.0, 4854.0, 4854.0, 4830.0, 4852.0, 4834.0, 4856.0, 4830.0, 4832.0, 4828.0, 4832.0, 4824.0, 4824.0, 4832.0, 4856.0, 4856.0, 4834.0, 4852.0, 4822.0, 4824.0, 4826.0, 4826.0, 4820.0, 4830.0, 4856.0, 4856.0, 4826.0, 4830.0, 4796.0, 4862.0, 4894.0, 4890.0, 4864.0, 4796.0, 4796.0, 4830.0, 4856.0, 4866.0, 4866.0, 4864.0, 4862.0, 4858.0, 4856.0, 4860.0, 4832.0, 4858.0, 4854.0, 4856.0, 4858.0, 4858.0, 4864.0, 4858.0, 4828.0, 4854.0, 4858.0, 4858.0, 4860.0, 4864.0, 4856.0, 4856.0, 4854.0, 4832.0, 4856.0, 4830.0, 4858.0, 4860.0, 4860.0, 4858.0, 4860.0, 4828.0, 4854.0, 4856.0, 4822.0, 4854.0, 4828.0, 4826.0, 4854.0, 4830.0, 4858.0, 4852.0, 4864.0, 4864.0, 4856.0, 4858.0, 4828.0, 4830.0, 4828.0, 4858.0, 4860.0, 4864.0, 4890.0, 4860.0, 4862.0, 4826.0, 4828.0, 4858.0, 4854.0, 4864.0, 4828.0, 4830.0, 4856.0, 4862.0, 4862.0, 4856.0, 4854.0, 4824.0, 4830.0, 4856.0, 4852.0, 4830.0, 4858.0, 4886.0, 4866.0, 4866.0, 4858.0, 4858.0, 4860.0, 4832.0, 4854.0, 4854.0, 4828.0, 4858.0, 4856.0, 4858.0, 4858.0, 4862.0, 4868.0, 4862.0, 4862.0, 4858.0, 4856.0, 4854.0, 4826.0, 4828.0, 4832.0, 4858.0, 4860.0, 4852.0, 4852.0, 4860.0, 4856.0, 4856.0, 4856.0, 4832.0, 4854.0, 4830.0, 4854.0, 4832.0, 4856.0, 4854.0, 4852.0, 4828.0, 4852.0, 4854.0, 4860.0, 4858.0, 4858.0, 4856.0, 4824.0, 4822.0, 4826.0, 4826.0, 4824.0, 4830.0, 4822.0, 4818.0, 4828.0, 4828.0, 4832.0, 4854.0, 4858.0, 4856.0, 4822.0, 4822.0, 4822.0, 4820.0, 4826.0, 4820.0, 4850.0, 4822.0, 4828.0, 4824.0, 4824.0, 4824.0, 4826.0, 4820.0, 4820.0, 4822.0, 4820.0, 4832.0, 4862.0, 4820.0, 4830.0, 4860.0, 4860.0, 4860.0, 4862.0, 4858.0, 4860.0],
      "WindowWidth": [18696.0, 18728.0, 18724.0, 18700.0, 18700.0, 18700.0, 18704.0, 18698.0, 18696.0, 18702.0, 18702.0, 18698.0, 18694.0, 18700.0, 18692.0, 18620.0, 18620.0, 18656.0, 18662.0, 18698.0, 18690.0, 18688.0, 18650.0, 18654.0, 18652.0, 18658.0, 18656.0, 18692.0, 18696.0, 18702.0, 18694.0, 18698.0, 18664.0, 18662.0, 18656.0, 18656.0, 18658.0, 18696.0, 18660.0, 18656.0, 18654.0, 18692.0, 18684.0, 18658.0, 18694.0, 18696.0, 18616.0, 18654.0, 18656.0, 18698.0, 18696.0, 18694.0, 18698.0, 18698.0, 18690.0, 18656.0, 18654.0, 18652.0, 18650.0, 18654.0, 18658.0, 18656.0, 18658.0, 18650.0, 18658.0, 18660.0, 18690.0, 18654.0, 18654.0, 18650.0, 18652.0, 18690.0, 18694.0, 18662.0, 18660.0, 18652.0, 18694.0, 18690.0, 18660.0, 18656.0, 18660.0, 18658.0, 18660.0, 18664.0, 18654.0, 18652.0, 18656.0, 18690.0, 18658.0, 18692.0, 18690.0, 18662.0, 18694.0, 18688.0, 18656.0, 18662.0, 18688.0, 18660.0, 18660.0, 18686.0, 18698.0, 18654.0, 18688.0, 18660.0, 18688.0, 18660.0, 18660.0, 18654.0, 18658.0, 18658.0, 18652.0, 18658.0, 18694.0, 18690.0, 18658.0, 18692.0, 18654.0, 18654.0, 18654.0, 18652.0, 18652.0, 18656.0, 18690.0, 18694.0, 18660.0, 18660.0, 18620.0, 18696.0, 18734.0, 18726.0, 18702.0, 18618.0, 18618.0, 18656.0, 18686.0, 18696.0, 18698.0, 18692.0, 18688.0, 18694.0, 18692.0, 18694.0, 18660.0, 18688.0, 18690.0, 18690.0, 18698.0, 18694.0, 18692.0, 18692.0, 18654.0, 18686.0, 18692.0, 18692.0, 18692.0, 18694.0, 18692.0, 18692.0, 18690.0, 18662.0, 18692.0, 18660.0, 18694.0, 18696.0, 18692.0, 18694.0, 18692.0, 18656.0, 18690.0, 18694.0, 18650.0, 18686.0, 18658.0, 18654.0, 18690.0, 18662.0, 18696.0, 18688.0, 18696.0, 18696.0, 18694.0, 18692.0, 18658.0, 18656.0, 18650.0, 18694.0, 18696.0, 18700.0, 18728.0, 18698.0, 18696.0, 18650.0, 18654.0, 18696.0, 18690.0, 18696.0, 18658.0, 18654.0, 18698.0, 18702.0, 18692.0, 18692.0, 18686.0, 18654.0, 18654.0, 18690.0, 18688.0, 18660.0, 18692.0, 18730.0, 18698.0, 18698.0, 18692.0, 18694.0, 18700.0, 18660.0, 18690.0, 18690.0, 18658.0, 18694.0, 18692.0, 18692.0, 18688.0, 18694.0, 18698.0, 18702.0, 18702.0, 18694.0, 18692.0, 18690.0, 18656.0, 18660.0, 18660.0, 18696.0, 18698.0, 18688.0, 18690.0, 18696.0, 18694.0, 18692.0, 18694.0, 18660.0, 18692.0, 18656.0, 18694.0, 18660.0, 18690.0, 18692.0, 18688.0, 18658.0, 18688.0, 18692.0, 18700.0, 18692.0, 18696.0, 18698.0, 18656.0, 18654.0, 18654.0, 18656.0, 18652.0, 18658.0, 18654.0, 18650.0, 18654.0, 18660.0, 18662.0, 18694.0, 18694.0, 18690.0, 18652.0, 18650.0, 18652.0, 18654.0, 18652.0, 18648.0, 18690.0, 18650.0, 18658.0, 18652.0, 18652.0, 18654.0, 18656.0, 18650.0, 18652.0, 18654.0, 18648.0, 18658.0, 18700.0, 18652.0, 18658.0, 18688.0, 18698.0, 18698.0, 18694.0, 18694.0, 18698.0]
    },
    "slices": {}
  }
}