{
  "AcquisitionMatrixPE": 104,
  "AcquisitionNumber": 1,
  "AcquisitionTime": "11:18:22.177500",
  "BandwidthPerPixelPhaseEncode": 17.17,
  "BaseResolution": 104,
  "BodyPartExamined": "BRAIN",
  "CoilCombinationMethod": "Sum of Squares",
  "ConsistencyInfo": "N4_VE11C_LATEST_20160120",
  "ConversionSoftware": "dcm2niix",
  "ConversionSoftwareVersion": "v1.0.20220505",
  "DerivedVendorReportedEchoSpacing": 0.000560011,
  "DeviceSerialNumber": "167006",
  "DwellTime": 2.1e-06,
  "EchoTime": 0.037,
  "EchoTime1": 0.037,
  "EchoTime2": 0.001,
  "EchoTrainLength": 104,
  "EffectiveEchoSpacing": 0.000560011,
  "FlipAngle": 52,
  "HeudiconvVersion": "0.5.3.post811+g6206e14",
  "ImageComments": "Unaliased MB4/PE3/LB",
  "ImageOrientationPatientDICOM": [0.998846, 0.00272039, 0.0479428, 0.0237136, 0.840219, -0.541728],
  "ImageOrientationText": "Tra>Cor(-32.9)>Sag(2.4)",
  "ImageType": [
    "ORIGINAL",
    "PRIMARY",
    "P",
    "MB",
    "ND",
    "MOSAIC",
    "PHASE"
],
  "ImagingFrequency": 123.259,
  "InPlanePhaseEncodingDirectionDICOM": "COL",
  "InstitutionAddress": "Chemin Queen-Mary 4565,Montreal,District,CA,H3W 1W5",
  "InstitutionName": "IUGM",
  "InstitutionalDepartmentName": "Department",
  "MRAcquisitionType": "2D",
  "MagneticFieldStrength": 3,
  "Manufacturer": "Siemens",
  "ManufacturersModelName": "Prisma_fit",
  "MatrixCoilMode": "SENSE",
  "Modality": "MR",
  "MultibandAccelerationFactor": 4,
  "PartialFourier": 1,
  "PatientPosition": "HFS",
  "PercentPhaseFOV": 100,
  "PercentSampling": 100,
  "PhaseEncodingDirection": "j",
  "PhaseEncodingSteps": 104,
  "PhaseResolution": 1,
  "PixelBandwidth": 2290,
  "ProcedureStepDescription": "games^mario3",
  "ProtocolName": "func_task-mario3_run-01",
  "PulseSequenceDetails": "%CustomerSeq%\\cmrr_mbep2d_bold",
  "ReceiveCoilActiveElements": "HC1-7;NC1,2",
  "ReceiveCoilName": "HeadNeck_64",
  "ReconMatrixPE": 104,
  "RepetitionTime": 1.49,
  "SAR": 0.0748414,
  "ScanOptions": "FS",
  "ScanningSequence": "EP",
  "SequenceName": "epfid2d1_104",
  "SequenceVariant": "SK\\SS",
  "SeriesDescription": "func_task-mario3_run-01",
  "SeriesNumber": 11,
  "ShimSetting": [625, -7186, -8866, 220, 32, -201, -44, 41],
  "SliceThickness": 2,
  "SliceTiming": [0, 0.7825, 0.0975, 0.8825, 0.195, 0.98, 0.2925, 1.0775, 0.3925, 1.175, 0.49, 1.2725, 0.5875, 1.3725, 0.685, 0, 0.7825, 0.0975, 0.8825, 0.195, 0.98, 0.2925, 1.0775, 0.3925, 1.175, 0.49, 1.2725, 0.5875, 1.3725, 0.685, 0, 0.7825, 0.0975, 0.8825, 0.195, 0.98, 0.2925, 1.0775, 0.3925, 1.175, 0.49, 1.2725, 0.5875, 1.3725, 0.685, 0, 0.7825, 0.0975, 0.8825, 0.195, 0.98, 0.2925, 1.0775, 0.3925, 1.175, 0.49, 1.2725, 0.5875, 1.3725, 0.685],
  "SoftwareVersions": "syngo MR E11",
  "SpacingBetweenSlices": 2,
  "StationName": "MRC35049",
  "TaskName": "mario3",
  "TotalReadoutTime": 0.0576811,
  "TxRefAmp": 306.038,
  "WipMemBlock": "059eda4d-4dc5-49ed-b87b-1699f2d7d0d5||Sequence: R017 ve11c/master r/75a17815+; Jun 28 2022 16:32:11 by eja",
  "dcmmeta_affine": [
    [-1.9976927042007446, 0.04742710664868355, 0.0835123285651207, 102.96373748779297],
    [-0.005440785549581051, 1.6804389953613281, -1.0844790935516357, -47.641441345214844],
    [0.09588554501533508, 1.083455204963684, 1.6783714294433594, -96.09222412109375],
    [0.0, 0.0, 0.0, 1.0]
],
  "dcmmeta_reorient_transform": [
    [0.0, -1.0, 0.0, 103.0],
    [1.0, 0.0, 0.0, 0.0],
    [0.0, 0.0, 1.0, 0.0],
    [0.0, 0.0, 0.0, 1.0]
],
  "dcmmeta_shape": [104, 104, 60, 293],
  "dcmmeta_slice_dim": 2,
  "dcmmeta_version": 0.6,
  "global": {
    "const": {
      "AcquisitionMatrix": [104, 0, 0, 104],
      "AngioFlag": "N",
      "BitsAllocated": 16,
      "BitsStored": 16,
      "BodyPartExamined": "BRAIN",
      "Columns": 832,
      "EchoNumbers": 1,
      "EchoTime": 37.0,
      "EchoTrainLength": 104,
      "FlipAngle": 52.0,
      "HighBit": 15,
      "ImageOrientationPatient": [0.99884637956934, 0.00272039278278, 0.04794277301452, 0.02371355416634, 0.84021951970119, -0.5417276308828],
      "ImagePositionPatient": [-852.27236266033, -739.10403758217, 374.97904141927],
      "ImageType": [
        "ORIGINAL",
        "PRIMARY",
        "P",
        "MB",
        "ND",
        "MOSAIC"
],
      "ImagedNucleus": "1H",
      "ImagingFrequency": 123.258822,
      "InPlanePhaseEncodingDirection": "COL",
      "LargestImagePixelValue": 4095,
      "MRAcquisitionType": "2D",
      "MagneticFieldStrength": 3.0,
      "Manufacturer": "SIEMENS",
      "ManufacturerModelName": "Prisma_fit",
      "Modality": "MR",
      "NumberOfAverages": 1.0,
      "NumberOfPhaseEncodingSteps": 104,
      "PercentPhaseFieldOfView": 100.0,
      "PercentSampling": 100.0,
      "PerformedProcedureStepStartTime": "111507.054000",
      "PhotometricInterpretation": "MONOCHROME2",
      "PixelBandwidth": 2290.0,
      "PixelRepresentation": 0,
      "PixelSpacing": [2.0, 2.0],
      "ProtocolName": "func_task-mario3_run-01",
      "RepetitionTime": 1490.0,
      "RescaleIntercept": -4096.0,
      "RescaleSlope": 2.0,
      "RescaleType": "US",
      "Rows": 832,
      "SAR": 0.07484136592471,
      "SamplesPerPixel": 1,
      "ScanOptions": "FS",
      "ScanningSequence": "EP",
      "SequenceName": "epfid2d1_104",
      "SequenceVariant": [
        "SK",
        "SS"
],
      "SeriesDescription": "func_task-mario3_run-01",
      "SeriesNumber": 11,
      "SeriesTime": "111930.196000",
      "SliceLocation": -50.506779244846,
      "SliceThickness": 2.0,
      "SmallestImagePixelValue": 0,
      "SoftwareVersions": "syngo MR E11",
      "SpacingBetweenSlices": 1.9999999996612,
      "SpecificCharacterSet": "ISO_IR 100",
      "StudyID": "1",
      "StudyTime": "111506.978000",
      "TransmitCoilName": "Body",
      "VariableFlipAngleFlag": "N",
      "WindowCenterWidthExplanation": "Algo1",
      "dBdt": 0.0},
    "slices": {}
  },
  "time": {
    "samples": {
      "AcquisitionNumber": [1, 2, 3, 4, 5, 6, 7, 8, 9, 10, 11, 12, 13, 14, 15, 16, 17, 18, 19, 20, 21, 22, 23, 24, 25, 26, 27, 28, 29, 30, 31, 32, 33, 34, 35, 36, 37, 38, 39, 40, 41, 42, 43, 44, 45, 46, 47, 48, 49, 50, 51, 52, 53, 54, 55, 56, 57, 58, 59, 60, 61, 62, 63, 64, 65, 66, 67, 68, 69, 70, 71, 72, 73, 74, 75, 76, 77, 78, 79, 80, 81, 82, 83, 84, 85, 86, 87, 88, 89, 90, 91, 92, 93, 94, 95, 96, 97, 98, 99, 100, 101, 102, 103, 104, 105, 106, 107, 108, 109, 110, 111, 112, 113, 114, 115, 116, 117, 118, 119, 120, 121, 122, 123, 124, 125, 126, 127, 128, 129, 130, 131, 132, 133, 134, 135, 136, 137, 138, 139, 140, 141, 142, 143, 144, 145, 146, 147, 148, 149, 150, 151, 152, 153, 154, 155, 156, 157, 158, 159, 160, 161, 162, 163, 164, 165, 166, 167, 168, 169, 170, 171, 172, 173, 174, 175, 176, 177, 178, 179, 180, 181, 182, 183, 184, 185, 186, 187, 188, 189, 190, 191, 192, 193, 194, 195, 196, 197, 198, 199, 200, 201, 202, 203, 204, 205, 206, 207, 208, 209, 210, 211, 212, 213, 214, 215, 216, 217, 218, 219, 220, 221, 222, 223, 224, 225, 226, 227, 228, 229, 230, 231, 232, 233, 234, 235, 236, 237, 238, 239, 240, 241, 242, 243, 244, 245, 246, 247, 248, 249, 250, 251, 252, 253, 254, 255, 256, 257, 258, 259, 260, 261, 262, 263, 264, 265, 266, 267, 268, 269, 270, 271, 272, 273, 274, 275, 276, 277, 278, 279, 280, 281, 282, 283, 284, 285, 286, 287, 288, 289, 290, 291, 292, 293],
      "AcquisitionTime": ["111822.177500", "111823.667500", "111825.157500", "111826.647500", "111828.137500", "111829.627500", "111831.117500", "111832.607500", "111834.097500", "111835.587500", "111837.077500", "111838.567500", "111840.057500", "111841.547500", "111843.037500", "111844.527500", "111846.017500", "111847.507500", "111848.997500", "111850.487500", "111851.977500", "111853.467500", "111854.957500", "111856.447500", "111857.937500", "111859.427500", "111900.917500", "111902.407500", "111903.897500", "111905.387500", "111906.877500", "111908.367500", "111909.857500", "111911.347500", "111912.837500", "111914.327500", "111915.817500", "111917.307500", "111918.797500", "111920.287500", "111921.777500", "111923.267500", "111924.757500", "111926.247500", "111927.737500", "111929.227500", "111930.717500", "111932.207500", "111933.697500", "111935.187500", "111936.677500", "111938.167500", "111939.657500", "111941.147500", "111942.637500", "111944.127500", "111945.617500", "111947.107500", "111948.597500", "111950.087500", "111951.577500", "111953.067500", "111954.557500", "111956.047500", "111957.537500", "111959.027500", "112000.517500", "112002.007500", "112003.497500", "112004.987500", "112006.477500", "112007.967500", "112009.457500", "112010.947500", "112012.437500", "112013.927500", "112015.417500", "112016.907500", "112018.397500", "112019.887500", "112021.377500", "112022.867500", "112024.357500", "112025.847500", "112027.337500", "112028.827500", "112030.317500", "112031.807500", "112033.297500", "112034.787500", "112036.277500", "112037.767500", "112039.257500", "112040.747500", "112042.237500", "112043.727500", "112045.217500", "112046.707500", "112048.197500", "112049.687500", "112051.177500", "112052.667500", "112054.157500", "112055.647500", "112057.137500", "112058.627500", "112100.117500", "112101.607500", "112103.097500", "112104.587500", "112106.077500", "112107.567500", "112109.057500", "112110.547500", "112112.037500", "112113.527500", "112115.017500", "112116.507500", "112117.997500", "112119.487500", "112120.977500", "112122.467500", "112123.957500", "112125.447500", "112126.937500", "112128.427500", "112129.917500", "112131.407500", "112132.897500", "112134.387500", "112135.877500", "112137.367500", "112138.857500", "112140.347500", "112141.837500", "112143.327500", "112144.817500", "112146.307500", "112147.797500", "112149.287500", "112150.777500", "112152.267500", "112153.757500", "112155.247500", "112156.737500", "112158.227500", "112159.717500", "112201.207500", "112202.697500", "112204.187500", "112205.677500", "112207.167500", "112208.657500", "112210.147500", "112211.637500", "112213.127500", "112214.617500", "112216.107500", "112217.597500", "112219.087500", "112220.577500", "112222.067500", "112223.557500", "112225.047500", "112226.537500", "112228.027500", "112229.517500", "112231.007500", "112232.497500", "112233.987500", "112235.477500", "112236.967500", "112238.457500", "112239.947500", "112241.437500", "112242.927500", "112244.417500", "112245.907500", "112247.397500", "112248.887500", "112250.377500", "112251.867500", "112253.357500", "112254.847500", "112256.337500", "112257.827500", "112259.317500", "112300.807500", "112302.297500", "112303.787500", "112305.277500", "112306.767500", "112308.257500", "112309.747500", "112311.237500", "112312.727500", "112314.217500", "112315.707500", "112317.197500", "112318.687500", "112320.177500", "112321.667500", "112323.157500", "112324.647500", "112326.137500", "112327.627500", "112329.117500", "112330.607500", "112332.097500", "112333.587500", "112335.077500", "112336.567500", "112338.057500", "112339.547500", "112341.037500", "112342.527500", "112344.017500", "112345.507500", "112346.997500", "112348.487500", "112349.977500", "112351.467500", "112352.957500", "112354.447500", "112355.937500", "112357.427500", "112358.917500", "112400.407500", "112401.897500", "112403.387500", "112404.877500", "112406.367500", "112407.857500", "112409.347500", "112410.837500", "112412.327500", "112413.817500", "112415.307500", "112416.797500", "112418.287500", "112419.777500", "112421.267500", "112422.757500", "112424.247500", "112425.737500", "112427.227500", "112428.717500", "112430.207500", "112431.697500", "112433.187500", "112434.677500", "112436.167500", "112437.657500", "112439.147500", "112440.637500", "112442.127500", "112443.617500", "112445.107500", "112446.597500", "112448.087500", "112449.577500", "112451.067500", "112452.557500", "112454.047500", "112455.537500", "112457.027500", "112458.517500", "112500.007500", "112501.497500", "112502.987500", "112504.477500", "112505.967500", "112507.457500", "112508.947500", "112510.437500", "112511.927500", "112513.417500", "112514.907500", "112516.397500", "112517.887500", "112519.377500", "112520.867500", "112522.357500", "112523.847500", "112525.337500", "112526.827500", "112528.317500", "112529.807500", "112531.297500", "112532.787500", "112534.277500", "112535.767500", "112537.257500"],
      "ContentTime": ["111930.198000", "111930.201000", "111930.203000", "111930.206000", "111930.208000", "111930.210000", "111930.213000", "111930.215000", "111930.218000", "111930.220000", "111930.223000", "111930.225000", "111930.228000", "111930.231000", "111930.233000", "111930.236000", "111930.238000", "111930.241000", "111930.243000", "111930.246000", "111950.126000", "111950.129000", "111950.132000", "111950.134000", "111950.137000", "111950.139000", "111950.141000", "111950.144000", "111950.146000", "111950.149000", "111950.151000", "111950.154000", "111950.156000", "111950.159000", "111950.161000", "111950.163000", "111950.166000", "111950.168000", "111950.171000", "111950.173000", "112010.148000", "112010.151000", "112010.153000", "112010.156000", "112010.158000", "112010.161000", "112010.163000", "112010.166000", "112010.168000", "112010.171000", "112010.173000", "112010.176000", "112010.178000", "112010.181000", "112010.183000", "112010.186000", "112010.188000", "112010.190000", "112010.193000", "112010.196000", "112010.198000", "112050.209000", "112050.212000", "112050.214000", "112050.217000", "112050.219000", "112050.222000", "112050.224000", "112050.227000", "112050.229000", "112050.232000", "112050.234000", "112050.237000", "112050.239000", "112050.242000", "112050.244000", "112050.247000", "112050.249000", "112050.252000", "112050.254000", "112050.257000", "112050.259000", "112050.262000", "112050.264000", "112050.267000", "112050.269000", "112050.272000", "112050.274000", "112050.277000", "112050.280000", "112050.287000", "112050.289000", "112050.291000", "112050.294000", "112050.297000", "112050.299000", "112050.301000", "112050.304000", "112130.159000", "112130.162000", "112130.165000", "112130.167000", "112130.170000", "112130.172000", "112130.175000", "112130.177000", "112130.180000", "112130.182000", "112130.185000", "112130.187000", "112130.190000", "112130.192000", "112130.195000", "112130.197000", "112130.200000", "112130.202000", "112130.205000", "112130.207000", "112130.209000", "112130.212000", "112130.214000", "112130.217000", "112130.219000", "112130.222000", "112130.224000", "112210.152000", "112210.154000", "112210.157000", "112210.159000", "112210.162000", "112210.164000", "112210.167000", "112210.169000", "112210.172000", "112210.174000", "112210.177000", "112210.179000", "112210.182000", "112210.184000", "112210.187000", "112210.189000", "112210.192000", "112210.194000", "112210.197000", "112210.199000", "112210.202000", "112210.204000", "112210.207000", "112210.209000", "112210.211000", "112210.214000", "112210.216000", "112250.153000", "112250.156000", "112250.159000", "112250.161000", "112250.164000", "112250.166000", "112250.169000", "112250.171000", "112250.174000", "112250.176000", "112250.179000", "112250.181000", "112250.184000", "112250.187000", "112250.189000", "112250.192000", "112250.194000", "112250.197000", "112250.199000", "112250.202000", "112250.204000", "112250.207000", "112250.209000", "112250.212000", "112250.214000", "112250.217000", "112250.219000", "112330.212000", "112330.215000", "112330.218000", "112330.220000", "112330.222000", "112330.225000", "112330.228000", "112330.230000", "112330.232000", "112330.235000", "112330.238000", "112330.241000", "112330.243000", "112330.246000", "112330.261000", "112330.263000", "112330.266000", "112330.268000", "112330.271000", "112330.273000", "112330.276000", "112330.278000", "112330.281000", "112330.283000", "112330.286000", "112330.288000", "112330.291000", "112410.152000", "112410.154000", "112410.157000", "112410.159000", "112410.162000", "112410.168000", "112410.171000", "112410.173000", "112410.175000", "112410.178000", "112410.181000", "112410.183000", "112410.186000", "112410.188000", "112410.191000", "112410.193000", "112410.196000", "112410.198000", "112410.201000", "112410.203000", "112410.206000", "112410.209000", "112410.211000", "112410.213000", "112410.216000", "112410.218000", "112450.156000", "112450.159000", "112450.161000", "112450.164000", "112450.167000", "112450.170000", "112450.172000", "112450.175000", "112450.177000", "112450.180000", "112450.182000", "112450.184000", "112450.187000", "112450.190000", "112450.192000", "112450.195000", "112450.200000", "112450.202000", "112450.205000", "112450.207000", "112450.210000", "112450.212000", "112450.215000", "112450.218000", "112450.220000", "112450.223000", "112450.225000", "112530.181000", "112530.183000", "112530.186000", "112530.189000", "112530.191000", "112530.194000", "112530.196000", "112530.199000", "112530.201000", "112530.204000", "112530.206000", "112530.209000", "112530.211000", "112530.214000", "112530.216000", "112530.219000", "112530.221000", "112530.224000", "112530.226000", "112530.229000", "112530.231000", "112530.234000", "112530.236000", "112530.239000", "112530.241000", "112530.244000", "112530.247000", "112540.733000", "112540.736000", "112540.738000", "112540.741000", "112540.744000", "112540.746000", "112540.748000"],
      "InstanceCreationTime": ["111930.198000", "111930.201000", "111930.203000", "111930.206000", "111930.208000", "111930.210000", "111930.213000", "111930.215000", "111930.218000", "111930.220000", "111930.223000", "111930.225000", "111930.228000", "111930.231000", "111930.233000", "111930.236000", "111930.238000", "111930.241000", "111930.243000", "111930.246000", "111950.126000", "111950.129000", "111950.132000", "111950.134000", "111950.137000", "111950.139000", "111950.141000", "111950.144000", "111950.146000", "111950.149000", "111950.151000", "111950.154000", "111950.156000", "111950.159000", "111950.161000", "111950.163000", "111950.166000", "111950.168000", "111950.171000", "111950.173000", "112010.148000", "112010.151000", "112010.153000", "112010.156000", "112010.158000", "112010.161000", "112010.163000", "112010.166000", "112010.168000", "112010.171000", "112010.173000", "112010.176000", "112010.178000", "112010.181000", "112010.183000", "112010.186000", "112010.188000", "112010.190000", "112010.193000", "112010.196000", "112010.198000", "112050.209000", "112050.212000", "112050.214000", "112050.217000", "112050.219000", "112050.222000", "112050.224000", "112050.227000", "112050.229000", "112050.232000", "112050.234000", "112050.237000", "112050.239000", "112050.242000", "112050.244000", "112050.247000", "112050.249000", "112050.252000", "112050.254000", "112050.257000", "112050.259000", "112050.262000", "112050.264000", "112050.267000", "112050.269000", "112050.272000", "112050.274000", "112050.277000", "112050.280000", "112050.287000", "112050.289000", "112050.291000", "112050.294000", "112050.297000", "112050.299000", "112050.301000", "112050.304000", "112130.159000", "112130.162000", "112130.165000", "112130.167000", "112130.170000", "112130.172000", "112130.175000", "112130.177000", "112130.180000", "112130.182000", "112130.185000", "112130.187000", "112130.190000", "112130.192000", "112130.195000", "112130.197000", "112130.200000", "112130.202000", "112130.205000", "112130.207000", "112130.209000", "112130.212000", "112130.214000", "112130.217000", "112130.219000", "112130.222000", "112130.224000", "112210.152000", "112210.154000", "112210.157000", "112210.159000", "112210.162000", "112210.164000", "112210.167000", "112210.169000", "112210.172000", "112210.174000", "112210.177000", "112210.179000", "112210.182000", "112210.184000", "112210.187000", "112210.189000", "112210.192000", "112210.194000", "112210.197000", "112210.199000", "112210.202000", "112210.204000", "112210.207000", "112210.209000", "112210.211000", "112210.214000", "112210.216000", "112250.153000", "112250.156000", "112250.159000", "112250.161000", "112250.164000", "112250.166000", "112250.169000", "112250.171000", "112250.174000", "112250.176000", "112250.179000", "112250.181000", "112250.184000", "112250.187000", "112250.189000", "112250.192000", "112250.194000", "112250.197000", "112250.199000", "112250.202000", "112250.204000", "112250.207000", "112250.209000", "112250.212000", "112250.214000", "112250.217000", "112250.219000", "112330.212000", "112330.215000", "112330.218000", "112330.220000", "112330.222000", "112330.225000", "112330.228000", "112330.230000", "112330.232000", "112330.235000", "112330.238000", "112330.241000", "112330.243000", "112330.246000", "112330.261000", "112330.263000", "112330.266000", "112330.268000", "112330.271000", "112330.273000", "112330.276000", "112330.278000", "112330.281000", "112330.283000", "112330.286000", "112330.288000", "112330.291000", "112410.152000", "112410.154000", "112410.157000", "112410.159000", "112410.162000", "112410.168000", "112410.171000", "112410.173000", "112410.175000", "112410.178000", "112410.181000", "112410.183000", "112410.186000", "112410.188000", "112410.191000", "112410.193000", "112410.196000", "112410.198000", "112410.201000", "112410.203000", "112410.206000", "112410.209000", "112410.211000", "112410.213000", "112410.216000", "112410.218000", "112450.156000", "112450.159000", "112450.161000", "112450.164000", "112450.167000", "112450.170000", "112450.172000", "112450.175000", "112450.177000", "112450.180000", "112450.182000", "112450.184000", "112450.187000", "112450.190000", "112450.192000", "112450.195000", "112450.200000", "112450.202000", "112450.205000", "112450.207000", "112450.210000", "112450.212000", "112450.215000", "112450.218000", "112450.220000", "112450.223000", "112450.225000", "112530.181000", "112530.183000", "112530.186000", "112530.189000", "112530.191000", "112530.194000", "112530.196000", "112530.199000", "112530.201000", "112530.204000", "112530.206000", "112530.209000", "112530.211000", "112530.214000", "112530.216000", "112530.219000", "112530.221000", "112530.224000", "112530.226000", "112530.229000", "112530.231000", "112530.234000", "112530.236000", "112530.239000", "112530.241000", "112530.244000", "112530.247000", "112540.733000", "112540.736000", "112540.738000", "112540.741000", "112540.744000", "112540.746000", "112540.748000"],
      "InstanceNumber": [1, 2, 3, 4, 5, 6, 7, 8, 9, 10, 11, 12, 13, 14, 15, 16, 17, 18, 19, 20, 21, 22, 23, 24, 25, 26, 27, 28, 29, 30, 31, 32, 33, 34, 35, 36, 37, 38, 39, 40, 41, 42, 43, 44, 45, 46, 47, 48, 49, 50, 51, 52, 53, 54, 55, 56, 57, 58, 59, 60, 61, 62, 63, 64, 65, 66, 67, 68, 69, 70, 71, 72, 73, 74, 75, 76, 77, 78, 79, 80, 81, 82, 83, 84, 85, 86, 87, 88, 89, 90, 91, 92, 93, 94, 95, 96, 97, 98, 99, 100, 101, 102, 103, 104, 105, 106, 107, 108, 109, 110, 111, 112, 113, 114, 115, 116, 117, 118, 119, 120, 121, 122, 123, 124, 125, 126, 127, 128, 129, 130, 131, 132, 133, 134, 135, 136, 137, 138, 139, 140, 141, 142, 143, 144, 145, 146, 147, 148, 149, 150, 151, 152, 153, 154, 155, 156, 157, 158, 159, 160, 161, 162, 163, 164, 165, 166, 167, 168, 169, 170, 171, 172, 173, 174, 175, 176, 177, 178, 179, 180, 181, 182, 183, 184, 185, 186, 187, 188, 189, 190, 191, 192, 193, 194, 195, 196, 197, 198, 199, 200, 201, 202, 203, 204, 205, 206, 207, 208, 209, 210, 211, 212, 213, 214, 215, 216, 217, 218, 219, 220, 221, 222, 223, 224, 225, 226, 227, 228, 229, 230, 231, 232, 233, 234, 235, 236, 237, 238, 239, 240, 241, 242, 243, 244, 245, 246, 247, 248, 249, 250, 251, 252, 253, 254, 255, 256, 257, 258, 259, 260, 261, 262, 263, 264, 265, 266, 267, 268, 269, 270, 271, 272, 273, 274, 275, 276, 277, 278, 279, 280, 281, 282, 283, 284, 285, 286, 287, 288, 289, 290, 291, 292, 293],
      "WindowCenter": [4784.0, 4794.0, 4788.0, 4782.0, 4782.0, 4786.0, 4784.0, 4786.0, 4788.0, 4788.0, 4790.0, 4790.0, 4784.0, 4780.0, 4782.0, 4782.0, 4792.0, 4816.0, 4800.0, 4788.0, 4830.0, 4824.0, 4778.0, 4782.0, 4812.0, 4784.0, 4782.0, 4756.0, 4786.0, 4820.0, 4798.0, 4820.0, 4794.0, 4788.0, 4758.0, 4756.0, 4784.0, 4786.0, 4786.0, 4790.0, 4786.0, 4786.0, 4792.0, 4786.0, 4790.0, 4782.0, 4780.0, 4782.0, 4790.0, 4792.0, 4786.0, 4786.0, 4786.0, 4788.0, 4790.0, 4796.0, 4790.0, 4794.0, 4786.0, 4782.0, 4778.0, 4776.0, 4790.0, 4788.0, 4818.0, 4796.0, 4800.0, 4784.0, 4782.0, 4758.0, 4778.0, 4782.0, 4760.0, 4788.0, 4792.0, 4794.0, 4798.0, 4794.0, 4788.0, 4786.0, 4786.0, 4786.0, 4758.0, 4830.0, 4858.0, 4792.0, 4778.0, 4788.0, 4794.0, 4792.0, 4786.0, 4790.0, 4796.0, 4794.0, 4796.0, 4796.0, 4794.0, 4790.0, 4818.0, 4796.0, 4792.0, 4786.0, 4794.0, 4792.0, 4790.0, 4782.0, 4820.0, 4794.0, 4788.0, 4782.0, 4784.0, 4792.0, 4822.0, 4796.0, 4792.0, 4790.0, 4792.0, 4796.0, 4794.0, 4796.0, 4800.0, 4784.0, 4758.0, 4778.0, 4800.0, 4798.0, 4798.0, 4790.0, 4786.0, 4786.0, 4784.0, 4782.0, 4784.0, 4758.0, 4782.0, 4764.0, 4792.0, 4788.0, 4796.0, 4790.0, 4820.0, 4796.0, 4780.0, 4784.0, 4782.0, 4776.0, 4754.0, 4782.0, 4788.0, 4796.0, 4796.0, 4800.0, 4826.0, 4796.0, 4796.0, 4756.0, 4778.0, 4806.0, 4782.0, 4780.0, 4820.0, 4798.0, 4822.0, 4824.0, 4790.0, 4786.0, 4786.0, 4778.0, 4778.0, 4782.0, 4788.0, 4784.0, 4788.0, 4796.0, 4818.0, 4796.0, 4790.0, 4784.0, 4788.0, 4786.0, 4792.0, 4788.0, 4786.0, 4788.0, 4786.0, 4782.0, 4788.0, 4760.0, 4784.0, 4784.0, 4796.0, 4794.0, 4786.0, 4786.0, 4786.0, 4790.0, 4796.0, 4800.0, 4796.0, 4790.0, 4782.0, 4780.0, 4784.0, 4778.0, 4782.0, 4788.0, 4796.0, 4794.0, 4820.0, 4784.0, 4784.0, 4786.0, 4794.0, 4788.0, 4758.0, 4756.0, 4758.0, 4780.0, 4762.0, 4792.0, 4826.0, 4828.0, 4784.0, 4786.0, 4752.0, 4754.0, 4782.0, 4756.0, 4796.0, 4822.0, 4798.0, 4794.0, 4782.0, 4778.0, 4776.0, 4778.0, 4756.0, 4822.0, 4822.0, 4824.0, 4818.0, 4832.0, 4818.0, 4750.0, 4780.0, 4802.0, 4778.0, 4756.0, 4794.0, 4796.0, 4824.0, 4822.0, 4798.0, 4788.0, 4762.0, 4782.0, 4754.0, 4790.0, 4784.0, 4792.0, 4792.0, 4788.0, 4788.0, 4790.0, 4822.0, 4792.0, 4782.0, 4754.0, 4754.0, 4760.0, 4784.0, 4788.0, 4796.0, 4820.0, 4792.0, 4822.0, 4790.0, 4788.0, 4782.0, 4780.0, 4760.0, 4758.0, 4782.0, 4786.0, 4830.0, 4822.0, 4796.0, 4790.0, 4756.0, 4780.0, 4780.0, 4780.0, 4778.0],
      "WindowWidth": [18554.0, 18556.0, 18556.0, 18548.0, 18554.0, 18548.0, 18550.0, 18546.0, 18550.0, 18552.0, 18548.0, 18550.0, 18554.0, 18550.0, 18554.0, 18548.0, 18558.0, 18588.0, 18556.0, 18556.0, 18594.0, 18588.0, 18556.0, 18570.0, 18614.0, 18570.0, 18558.0, 18522.0, 18558.0, 18590.0, 18556.0, 18590.0, 18556.0, 18552.0, 18524.0, 18522.0, 18554.0, 18552.0, 18556.0, 18556.0, 18550.0, 18558.0, 18556.0, 18558.0, 18556.0, 18554.0, 18550.0, 18554.0, 18552.0, 18552.0, 18552.0, 18550.0, 18556.0, 18554.0, 18554.0, 18558.0, 18554.0, 18556.0, 18552.0, 18556.0, 18552.0, 18554.0, 18554.0, 18562.0, 18588.0, 18556.0, 18558.0, 18558.0, 18552.0, 18526.0, 18552.0, 18550.0, 18518.0, 18548.0, 18548.0, 18546.0, 18548.0, 18552.0, 18544.0, 18546.0, 18546.0, 18544.0, 18522.0, 18588.0, 18620.0, 18560.0, 18552.0, 18572.0, 18568.0, 18562.0, 18546.0, 18540.0, 18548.0, 18546.0, 18542.0, 18544.0, 18546.0, 18548.0, 18586.0, 18550.0, 18546.0, 18552.0, 18548.0, 18548.0, 18542.0, 18552.0, 18580.0, 18554.0, 18554.0, 18550.0, 18556.0, 18558.0, 18580.0, 18544.0, 18542.0, 18542.0, 18548.0, 18558.0, 18552.0, 18556.0, 18546.0, 18548.0, 18522.0, 18554.0, 18556.0, 18560.0, 18556.0, 18554.0, 18548.0, 18550.0, 18546.0, 18546.0, 18554.0, 18516.0, 18546.0, 18510.0, 18554.0, 18554.0, 18562.0, 18550.0, 18582.0, 18544.0, 18556.0, 18558.0, 18558.0, 18560.0, 18530.0, 18558.0, 18558.0, 18560.0, 18558.0, 18560.0, 18592.0, 18556.0, 18558.0, 18518.0, 18570.0, 18610.0, 18572.0, 18558.0, 18594.0, 18560.0, 18592.0, 18592.0, 18558.0, 18558.0, 18554.0, 18550.0, 18554.0, 18552.0, 18550.0, 18546.0, 18542.0, 18550.0, 18580.0, 18552.0, 18548.0, 18550.0, 18556.0, 18558.0, 18552.0, 18554.0, 18556.0, 18552.0, 18552.0, 18548.0, 18552.0, 18520.0, 18550.0, 18548.0, 18558.0, 18562.0, 18554.0, 18554.0, 18556.0, 18562.0, 18556.0, 18558.0, 18544.0, 18546.0, 18550.0, 18560.0, 18552.0, 18550.0, 18550.0, 18552.0, 18562.0, 18556.0, 18594.0, 18556.0, 18558.0, 18558.0, 18558.0, 18548.0, 18532.0, 18530.0, 18528.0, 18558.0, 18524.0, 18562.0, 18592.0, 18596.0, 18562.0, 18558.0, 18522.0, 18522.0, 18556.0, 18522.0, 18560.0, 18586.0, 18554.0, 18546.0, 18554.0, 18560.0, 18560.0, 18558.0, 18528.0, 18592.0, 18592.0, 18596.0, 18590.0, 18596.0, 18588.0, 18526.0, 18570.0, 18610.0, 18574.0, 18530.0, 18560.0, 18570.0, 18598.0, 18600.0, 18562.0, 18556.0, 18520.0, 18556.0, 18522.0, 18558.0, 18554.0, 18562.0, 18558.0, 18556.0, 18554.0, 18552.0, 18586.0, 18556.0, 18558.0, 18524.0, 18526.0, 18522.0, 18548.0, 18554.0, 18554.0, 18582.0, 18562.0, 18586.0, 18558.0, 18556.0, 18550.0, 18550.0, 18522.0, 18528.0, 18552.0, 18558.0, 18594.0, 18592.0, 18564.0, 18560.0, 18524.0, 18556.0, 18568.0, 18558.0, 18556.0]
    },
    "slices": {}
  }
}