{
  "AcquisitionMatrixPE": 104,
  "AcquisitionNumber": 1,
  "AcquisitionTime": "11:46:33.002500",
  "BandwidthPerPixelPhaseEncode": 17.17,
  "BaseResolution": 104,
  "BodyPartExamined": "BRAIN",
  "CoilCombinationMethod": "Sum of Squares",
  "ConsistencyInfo": "N4_VE11C_LATEST_20160120",
  "ConversionSoftware": "dcm2niix",
  "ConversionSoftwareVersion": "v1.0.20220505",
  "DerivedVendorReportedEchoSpacing": 0.000560011,
  "DeviceSerialNumber": "167006",
  "DwellTime": 2.1e-06,
  "EchoTime": 0.037,
  "EchoTrainLength": 104,
  "EffectiveEchoSpacing": 0.000560011,
  "FlipAngle": 52,
  "HeudiconvVersion": "0.5.3.post811+g6206e14",
  "ImageComments": "Unaliased MB4/PE3/LB",
  "ImageOrientationPatientDICOM": [0.998846, 0.00272039, 0.0479428, 0.0237136, 0.840219, -0.541728],
  "ImageOrientationText": "Tra>Cor(-32.9)>Sag(2.4)",
  "ImageType": [
    "ORIGINAL",
    "PRIMARY",
    "M",
    "MB",
    "ND",
    "MOSAIC"
],
  "ImagingFrequency": 123.259,
  "InPlanePhaseEncodingDirectionDICOM": "COL",
  "InstitutionAddress": "Chemin Queen-Mary 4565,Montreal,District,CA,H3W 1W5",
  "InstitutionName": "IUGM",
  "InstitutionalDepartmentName": "Department",
  "MRAcquisitionType": "2D",
  "MagneticFieldStrength": 3,
  "Manufacturer": "Siemens",
  "ManufacturersModelName": "Prisma_fit",
  "MatrixCoilMode": "SENSE",
  "Modality": "MR",
  "MultibandAccelerationFactor": 4,
  "PartialFourier": 1,
  "PatientPosition": "HFS",
  "PercentPhaseFOV": 100,
  "PercentSampling": 100,
  "PhaseEncodingDirection": "j",
  "PhaseEncodingSteps": 104,
  "PhaseResolution": 1,
  "PixelBandwidth": 2290,
  "ProcedureStepDescription": "games^mario3",
  "ProtocolName": "func_task-mario3_run-04",
  "PulseSequenceDetails": "%CustomerSeq%\\cmrr_mbep2d_bold",
  "ReceiveCoilActiveElements": "HC1-7;NC1,2",
  "ReceiveCoilName": "HeadNeck_64",
  "ReconMatrixPE": 104,
  "RepetitionTime": 1.49,
  "SAR": 0.0748414,
  "ScanOptions": "FS",
  "ScanningSequence": "EP",
  "SequenceName": "epfid2d1_104",
  "SequenceVariant": "SK\\SS",
  "SeriesDescription": "func_task-mario3_run-04",
  "SeriesNumber": 19,
  "ShimSetting": [625, -7186, -8866, 220, 32, -201, -44, 41],
  "SliceThickness": 2,
  "SliceTiming": [0, 0.7825, 0.0975, 0.88, 0.195, 0.98, 0.2925, 1.0775, 0.39, 1.175, 0.49, 1.2725, 0.5875, 1.37, 0.685, 0, 0.7825, 0.0975, 0.88, 0.195, 0.98, 0.2925, 1.0775, 0.39, 1.175, 0.49, 1.2725, 0.5875, 1.37, 0.685, 0, 0.7825, 0.0975, 0.88, 0.195, 0.98, 0.2925, 1.0775, 0.39, 1.175, 0.49, 1.2725, 0.5875, 1.37, 0.685, 0, 0.7825, 0.0975, 0.88, 0.195, 0.98, 0.2925, 1.0775, 0.39, 1.175, 0.49, 1.2725, 0.5875, 1.37, 0.685],
  "SoftwareVersions": "syngo MR E11",
  "SpacingBetweenSlices": 2,
  "StationName": "MRC35049",
  "TaskName": "mario3",
  "TotalReadoutTime": 0.0576811,
  "TxRefAmp": 306.038,
  "WipMemBlock": "2b2322e9-e158-4643-b8b6-f37208601bc4||Sequence: R017 ve11c/master r/75a17815+; Jun 28 2022 16:32:11 by eja",
  "dcmmeta_affine": [
    [-1.9976927042007446, 0.04742710664868355, 0.0835123285651207, 102.96373748779297],
    [-0.005440785549581051, 1.6804389953613281, -1.0844790935516357, -47.641441345214844],
    [0.09588554501533508, 1.083455204963684, 1.6783714294433594, -96.09222412109375],
    [0.0, 0.0, 0.0, 1.0]
],
  "dcmmeta_reorient_transform": [
    [0.0, -1.0, 0.0, 103.0],
    [1.0, 0.0, 0.0, 0.0],
    [0.0, 0.0, 1.0, 0.0],
    [0.0, 0.0, 0.0, 1.0]
],
  "dcmmeta_shape": [104, 104, 60, 298],
  "dcmmeta_slice_dim": 2,
  "dcmmeta_version": 0.6,
  "global": {
    "const": {
      "AcquisitionMatrix": [104, 0, 0, 104],
      "AngioFlag": "N",
      "BitsAllocated": 16,
      "BitsStored": 16,
      "BodyPartExamined": "BRAIN",
      "Columns": 832,
      "EchoNumbers": 1,
      "EchoTime": 37.0,
      "EchoTrainLength": 104,
      "FlipAngle": 52.0,
      "HighBit": 15,
      "ImageOrientationPatient": [0.99884637956934, 0.00272039278278, 0.04794277301452, 0.02371355416634, 0.84021951970119, -0.5417276308828],
      "ImagePositionPatient": [-852.27236266033, -739.10403758217, 374.97904141927],
      "ImageType": [
        "ORIGINAL",
        "PRIMARY",
        "M",
        "MB",
        "ND",
        "MOSAIC"
],
      "ImagedNucleus": "1H",
      "ImagingFrequency": 123.258829,
      "InPlanePhaseEncodingDirection": "COL",
      "MRAcquisitionType": "2D",
      "MagneticFieldStrength": 3.0,
      "Manufacturer": "SIEMENS",
      "ManufacturerModelName": "Prisma_fit",
      "Modality": "MR",
      "NumberOfAverages": 1.0,
      "NumberOfPhaseEncodingSteps": 104,
      "PercentPhaseFieldOfView": 100.0,
      "PercentSampling": 100.0,
      "PerformedProcedureStepStartTime": "111507.054000",
      "PhotometricInterpretation": "MONOCHROME2",
      "PixelBandwidth": 2290.0,
      "PixelRepresentation": 0,
      "PixelSpacing": [2.0, 2.0],
      "ProtocolName": "func_task-mario3_run-04",
      "RepetitionTime": 1490.0,
      "Rows": 832,
      "SAR": 0.07484136592471,
      "SamplesPerPixel": 1,
      "ScanOptions": "FS",
      "ScanningSequence": "EP",
      "SequenceName": "epfid2d1_104",
      "SequenceVariant": [
        "SK",
        "SS"
],
      "SeriesDescription": "func_task-mario3_run-04",
      "SeriesNumber": 19,
      "SeriesTime": "114750.063000",
      "SliceLocation": -50.506779244846,
      "SliceThickness": 2.0,
      "SmallestImagePixelValue": 0,
      "SoftwareVersions": "syngo MR E11",
      "SpacingBetweenSlices": 1.9999999996612,
      "SpecificCharacterSet": "ISO_IR 100",
      "StudyID": "1",
      "StudyTime": "111506.978000",
      "TransmitCoilName": "Body",
      "VariableFlipAngleFlag": "N",
      "WindowCenterWidthExplanation": "Algo1",
      "dBdt": 0.0},
    "slices": {}
  },
  "time": {
    "samples": {
      "AcquisitionNumber": [1, 2, 3, 4, 5, 6, 7, 8, 9, 10, 11, 12, 13, 14, 15, 16, 17, 18, 19, 20, 21, 22, 23, 24, 25, 26, 27, 28, 29, 30, 31, 32, 33, 34, 35, 36, 37, 38, 39, 40, 41, 42, 43, 44, 45, 46, 47, 48, 49, 50, 51, 52, 53, 54, 55, 56, 57, 58, 59, 60, 61, 62, 63, 64, 65, 66, 67, 68, 69, 70, 71, 72, 73, 74, 75, 76, 77, 78, 79, 80, 81, 82, 83, 84, 85, 86, 87, 88, 89, 90, 91, 92, 93, 94, 95, 96, 97, 98, 99, 100, 101, 102, 103, 104, 105, 106, 107, 108, 109, 110, 111, 112, 113, 114, 115, 116, 117, 118, 119, 120, 121, 122, 123, 124, 125, 126, 127, 128, 129, 130, 131, 132, 133, 134, 135, 136, 137, 138, 139, 140, 141, 142, 143, 144, 145, 146, 147, 148, 149, 150, 151, 152, 153, 154, 155, 156, 157, 158, 159, 160, 161, 162, 163, 164, 165, 166, 167, 168, 169, 170, 171, 172, 173, 174, 175, 176, 177, 178, 179, 180, 181, 182, 183, 184, 185, 186, 187, 188, 189, 190, 191, 192, 193, 194, 195, 196, 197, 198, 199, 200, 201, 202, 203, 204, 205, 206, 207, 208, 209, 210, 211, 212, 213, 214, 215, 216, 217, 218, 219, 220, 221, 222, 223, 224, 225, 226, 227, 228, 229, 230, 231, 232, 233, 234, 235, 236, 237, 238, 239, 240, 241, 242, 243, 244, 245, 246, 247, 248, 249, 250, 251, 252, 253, 254, 255, 256, 257, 258, 259, 260, 261, 262, 263, 264, 265, 266, 267, 268, 269, 270, 271, 272, 273, 274, 275, 276, 277, 278, 279, 280, 281, 282, 283, 284, 285, 286, 287, 288, 289, 290, 291, 292, 293, 294, 295, 296, 297, 298],
      "AcquisitionTime": ["114633.002500", "114634.492500", "114635.982500", "114637.472500", "114638.962500", "114640.452500", "114641.942500", "114643.432500", "114644.922500", "114646.412500", "114647.902500", "114649.392500", "114650.882500", "114652.372500", "114653.862500", "114655.352500", "114656.842500", "114658.332500", "114659.822500", "114701.312500", "114702.802500", "114704.292500", "114705.782500", "114707.272500", "114708.762500", "114710.252500", "114711.742500", "114713.232500", "114714.722500", "114716.212500", "114717.702500", "114719.192500", "114720.682500", "114722.172500", "114723.662500", "114725.152500", "114726.642500", "114728.132500", "114729.622500", "114731.112500", "114732.602500", "114734.092500", "114735.582500", "114737.072500", "114738.562500", "114740.052500", "114741.542500", "114743.032500", "114744.522500", "114746.012500", "114747.502500", "114748.992500", "114750.482500", "114751.972500", "114753.462500", "114754.952500", "114756.442500", "114757.932500", "114759.422500", "114800.912500", "114802.402500", "114803.892500", "114805.382500", "114806.872500", "114808.362500", "114809.852500", "114811.342500", "114812.832500", "114814.322500", "114815.812500", "114817.302500", "114818.792500", "114820.282500", "114821.772500", "114823.262500", "114824.752500", "114826.242500", "114827.732500", "114829.222500", "114830.712500", "114832.202500", "114833.692500", "114835.182500", "114836.672500", "114838.162500", "114839.652500", "114841.142500", "114842.632500", "114844.122500", "114845.612500", "114847.102500", "114848.592500", "114850.082500", "114851.572500", "114853.062500", "114854.552500", "114856.042500", "114857.532500", "114859.022500", "114900.512500", "114902.002500", "114903.492500", "114904.982500", "114906.472500", "114907.962500", "114909.452500", "114910.942500", "114912.432500", "114913.922500", "114915.412500", "114916.902500", "114918.392500", "114919.882500", "114921.372500", "114922.862500", "114924.352500", "114925.842500", "114927.332500", "114928.822500", "114930.312500", "114931.802500", "114933.292500", "114934.782500", "114936.272500", "114937.762500", "114939.252500", "114940.742500", "114942.232500", "114943.722500", "114945.212500", "114946.702500", "114948.192500", "114949.682500", "114951.172500", "114952.662500", "114954.152500", "114955.642500", "114957.132500", "114958.622500", "115000.112500", "115001.602500", "115003.092500", "115004.582500", "115006.072500", "115007.562500", "115009.052500", "115010.542500", "115012.032500", "115013.522500", "115015.012500", "115016.502500", "115017.992500", "115019.482500", "115020.972500", "115022.462500", "115023.952500", "115025.442500", "115026.932500", "115028.422500", "115029.912500", "115031.402500", "115032.892500", "115034.382500", "115035.872500", "115037.362500", "115038.852500", "115040.342500", "115041.832500", "115043.322500", "115044.812500", "115046.302500", "115047.792500", "115049.282500", "115050.772500", "115052.262500", "115053.752500", "115055.242500", "115056.732500", "115058.222500", "115059.712500", "115101.202500", "115102.692500", "115104.182500", "115105.672500", "115107.162500", "115108.652500", "115110.142500", "115111.632500", "115113.122500", "115114.612500", "115116.102500", "115117.592500", "115119.082500", "115120.572500", "115122.062500", "115123.552500", "115125.042500", "115126.532500", "115128.022500", "115129.512500", "115131.002500", "115132.492500", "115133.982500", "115135.472500", "115136.962500", "115138.452500", "115139.942500", "115141.432500", "115142.922500", "115144.412500", "115145.902500", "115147.392500", "115148.882500", "115150.372500", "115151.862500", "115153.352500", "115154.842500", "115156.332500", "115157.822500", "115159.312500", "115200.802500", "115202.292500", "115203.782500", "115205.272500", "115206.762500", "115208.252500", "115209.742500", "115211.232500", "115212.722500", "115214.212500", "115215.702500", "115217.192500", "115218.682500", "115220.172500", "115221.662500", "115223.152500", "115224.642500", "115226.132500", "115227.622500", "115229.112500", "115230.602500", "115232.092500", "115233.582500", "115235.072500", "115236.562500", "115238.052500", "115239.542500", "115241.032500", "115242.522500", "115244.012500", "115245.502500", "115246.992500", "115248.482500", "115249.972500", "115251.462500", "115252.952500", "115254.442500", "115255.932500", "115257.422500", "115258.912500", "115300.402500", "115301.892500", "115303.382500", "115304.872500", "115306.362500", "115307.852500", "115309.342500", "115310.832500", "115312.322500", "115313.812500", "115315.302500", "115316.792500", "115318.282500", "115319.772500", "115321.262500", "115322.752500", "115324.242500", "115325.732500", "115327.222500", "115328.712500", "115330.202500", "115331.692500", "115333.182500", "115334.672500", "115336.162500", "115337.652500", "115339.142500", "115340.632500", "115342.122500", "115343.612500", "115345.102500", "115346.592500", "115348.082500", "115349.572500", "115351.062500", "115352.552500", "115354.042500", "115355.532500"],
      "ContentTime": ["114750.066000", "114750.069000", "114750.073000", "114750.076000", "114750.079000", "114750.083000", "114750.086000", "114750.089000", "114750.092000", "114750.096000", "114750.099000", "114750.103000", "114750.106000", "114750.109000", "114750.112000", "114750.116000", "114750.119000", "114750.122000", "114750.126000", "114750.160000", "114750.164000", "114750.167000", "114750.170000", "114750.174000", "114750.177000", "114750.180000", "114750.183000", "114750.187000", "114750.190000", "114750.193000", "114810.019000", "114810.023000", "114810.026000", "114810.029000", "114810.033000", "114810.036000", "114810.040000", "114810.043000", "114810.046000", "114810.049000", "114810.053000", "114810.056000", "114810.059000", "114810.063000", "114810.066000", "114810.069000", "114810.073000", "114810.076000", "114810.079000", "114810.082000", "114830.019000", "114830.023000", "114830.026000", "114830.029000", "114830.032000", "114830.036000", "114830.039000", "114830.042000", "114830.046000", "114830.049000", "114830.052000", "114830.055000", "114830.059000", "114830.062000", "114830.065000", "114830.069000", "114830.072000", "114830.075000", "114830.092000", "114830.096000", "114850.018000", "114850.022000", "114850.025000", "114850.028000", "114850.032000", "114850.035000", "114850.038000", "114850.042000", "114850.045000", "114850.056000", "114850.059000", "114850.062000", "114850.066000", "114850.070000", "114850.073000", "114850.076000", "114850.079000", "114850.083000", "114850.086000", "114850.089000", "114930.018000", "114930.022000", "114930.025000", "114930.028000", "114930.032000", "114930.035000", "114930.038000", "114930.042000", "114930.045000", "114930.048000", "114930.051000", "114930.055000", "114930.058000", "114930.061000", "114930.081000", "114930.084000", "114930.087000", "114930.091000", "114930.094000", "114930.097000", "114930.100000", "114930.104000", "114930.107000", "114930.110000", "114930.114000", "114930.117000", "114930.120000", "114930.124000", "115010.019000", "115010.023000", "115010.026000", "115010.030000", "115010.033000", "115010.036000", "115010.040000", "115010.043000", "115010.046000", "115010.050000", "115010.053000", "115010.056000", "115010.059000", "115010.063000", "115010.066000", "115010.069000", "115010.073000", "115010.076000", "115010.079000", "115010.082000", "115010.086000", "115010.089000", "115010.093000", "115010.096000", "115010.099000", "115010.102000", "115010.106000", "115050.019000", "115050.023000", "115050.026000", "115050.037000", "115050.041000", "115050.045000", "115050.048000", "115050.052000", "115050.056000", "115050.059000", "115050.062000", "115050.066000", "115050.069000", "115050.073000", "115050.076000", "115050.079000", "115050.083000", "115050.086000", "115050.089000", "115050.093000", "115050.096000", "115050.099000", "115050.102000", "115050.106000", "115050.109000", "115050.112000", "115130.018000", "115130.022000", "115130.025000", "115130.029000", "115130.033000", "115130.036000", "115130.039000", "115130.043000", "115130.046000", "115130.049000", "115130.052000", "115130.056000", "115130.059000", "115130.062000", "115130.066000", "115130.069000", "115130.072000", "115130.076000", "115130.079000", "115130.082000", "115130.086000", "115130.089000", "115130.092000", "115130.095000", "115130.099000", "115130.102000", "115130.105000", "115210.018000", "115210.022000", "115210.025000", "115210.028000", "115210.039000", "115210.042000", "115210.045000", "115210.049000", "115210.052000", "115210.055000", "115210.059000", "115210.062000", "115210.065000", "115210.069000", "115210.072000", "115210.075000", "115210.079000", "115210.082000", "115210.085000", "115210.088000", "115210.092000", "115210.095000", "115210.098000", "115210.101000", "115210.105000", "115210.108000", "115210.111000", "115250.019000", "115250.023000", "115250.026000", "115250.029000", "115250.033000", "115250.036000", "115250.039000", "115250.043000", "115250.046000", "115250.049000", "115250.052000", "115250.056000", "115250.059000", "115250.062000", "115250.066000", "115250.069000", "115250.072000", "115250.075000", "115250.079000", "115250.082000", "115250.085000", "115250.089000", "115250.092000", "115250.095000", "115250.099000", "115250.102000", "115250.105000", "115330.018000", "115330.022000", "115330.025000", "115330.028000", "115330.032000", "115330.035000", "115330.038000", "115330.042000", "115330.045000", "115330.048000", "115330.052000", "115330.055000", "115330.058000", "115330.062000", "115330.065000", "115330.068000", "115330.072000", "115330.075000", "115330.078000", "115330.082000", "115330.086000", "115330.089000", "115330.092000", "115330.096000", "115330.099000", "115330.102000", "115330.105000", "115359.064000", "115359.068000", "115359.071000", "115359.074000", "115359.078000", "115359.081000", "115359.084000", "115359.087000", "115359.091000", "115359.094000", "115359.097000", "115359.100000", "115359.104000", "115359.107000", "115359.129000", "115359.133000", "115359.136000", "115359.139000", "115359.143000"],
      "InstanceCreationTime": ["114750.066000", "114750.069000", "114750.073000", "114750.076000", "114750.079000", "114750.083000", "114750.086000", "114750.089000", "114750.092000", "114750.096000", "114750.099000", "114750.103000", "114750.106000", "114750.109000", "114750.112000", "114750.116000", "114750.119000", "114750.122000", "114750.126000", "114750.160000", "114750.164000", "114750.167000", "114750.170000", "114750.174000", "114750.177000", "114750.180000", "114750.183000", "114750.187000", "114750.190000", "114750.193000", "114810.019000", "114810.023000", "114810.026000", "114810.029000", "114810.033000", "114810.036000", "114810.040000", "114810.043000", "114810.046000", "114810.049000", "114810.053000", "114810.056000", "114810.059000", "114810.063000", "114810.066000", "114810.069000", "114810.073000", "114810.076000", "114810.079000", "114810.082000", "114830.019000", "114830.023000", "114830.026000", "114830.029000", "114830.032000", "114830.036000", "114830.039000", "114830.042000", "114830.046000", "114830.049000", "114830.052000", "114830.055000", "114830.059000", "114830.062000", "114830.065000", "114830.069000", "114830.072000", "114830.075000", "114830.092000", "114830.096000", "114850.018000", "114850.022000", "114850.025000", "114850.028000", "114850.032000", "114850.035000", "114850.038000", "114850.042000", "114850.045000", "114850.056000", "114850.059000", "114850.062000", "114850.066000", "114850.070000", "114850.073000", "114850.076000", "114850.079000", "114850.083000", "114850.086000", "114850.089000", "114930.018000", "114930.022000", "114930.025000", "114930.028000", "114930.032000", "114930.035000", "114930.038000", "114930.042000", "114930.045000", "114930.048000", "114930.051000", "114930.055000", "114930.058000", "114930.061000", "114930.081000", "114930.084000", "114930.087000", "114930.091000", "114930.094000", "114930.097000", "114930.100000", "114930.104000", "114930.107000", "114930.110000", "114930.114000", "114930.117000", "114930.120000", "114930.124000", "115010.019000", "115010.023000", "115010.026000", "115010.030000", "115010.033000", "115010.036000", "115010.040000", "115010.043000", "115010.046000", "115010.050000", "115010.053000", "115010.056000", "115010.059000", "115010.063000", "115010.066000", "115010.069000", "115010.073000", "115010.076000", "115010.079000", "115010.082000", "115010.086000", "115010.089000", "115010.093000", "115010.096000", "115010.099000", "115010.102000", "115010.106000", "115050.019000", "115050.023000", "115050.026000", "115050.037000", "115050.041000", "115050.045000", "115050.048000", "115050.052000", "115050.056000", "115050.059000", "115050.062000", "115050.066000", "115050.069000", "115050.073000", "115050.076000", "115050.079000", "115050.083000", "115050.086000", "115050.089000", "115050.093000", "115050.096000", "115050.099000", "115050.102000", "115050.106000", "115050.109000", "115050.112000", "115130.018000", "115130.022000", "115130.025000", "115130.029000", "115130.033000", "115130.036000", "115130.039000", "115130.043000", "115130.046000", "115130.049000", "115130.052000", "115130.056000", "115130.059000", "115130.062000", "115130.066000", "115130.069000", "115130.072000", "115130.076000", "115130.079000", "115130.082000", "115130.086000", "115130.089000", "115130.092000", "115130.095000", "115130.099000", "115130.102000", "115130.105000", "115210.018000", "115210.022000", "115210.025000", "115210.028000", "115210.039000", "115210.042000", "115210.045000", "115210.049000", "115210.052000", "115210.055000", "115210.059000", "115210.062000", "115210.065000", "115210.069000", "115210.072000", "115210.075000", "115210.079000", "115210.082000", "115210.085000", "115210.088000", "115210.092000", "115210.095000", "115210.098000", "115210.101000", "115210.105000", "115210.108000", "115210.111000", "115250.019000", "115250.023000", "115250.026000", "115250.029000", "115250.033000", "115250.036000", "115250.039000", "115250.043000", "115250.046000", "115250.049000", "115250.052000", "115250.056000", "115250.059000", "115250.062000", "115250.066000", "115250.069000", "115250.072000", "115250.075000", "115250.079000", "115250.082000", "115250.085000", "115250.089000", "115250.092000", "115250.095000", "115250.099000", "115250.102000", "115250.105000", "115330.018000", "115330.022000", "115330.025000", "115330.028000", "115330.032000", "115330.035000", "115330.038000", "115330.042000", "115330.045000", "115330.048000", "115330.052000", "115330.055000", "115330.058000", "115330.062000", "115330.065000", "115330.068000", "115330.072000", "115330.075000", "115330.078000", "115330.082000", "115330.086000", "115330.089000", "115330.092000", "115330.096000", "115330.099000", "115330.102000", "115330.105000", "115359.064000", "115359.068000", "115359.071000", "115359.074000", "115359.078000", "115359.081000", "115359.084000", "115359.087000", "115359.091000", "115359.094000", "115359.097000", "115359.100000", "115359.104000", "115359.107000", "115359.129000", "115359.133000", "115359.136000", "115359.139000", "115359.143000"],
      "InstanceNumber": [1, 2, 3, 4, 5, 6, 7, 8, 9, 10, 11, 12, 13, 14, 15, 16, 17, 18, 19, 20, 21, 22, 23, 24, 25, 26, 27, 28, 29, 30, 31, 32, 33, 34, 35, 36, 37, 38, 39, 40, 41, 42, 43, 44, 45, 46, 47, 48, 49, 50, 51, 52, 53, 54, 55, 56, 57, 58, 59, 60, 61, 62, 63, 64, 65, 66, 67, 68, 69, 70, 71, 72, 73, 74, 75, 76, 77, 78, 79, 80, 81, 82, 83, 84, 85, 86, 87, 88, 89, 90, 91, 92, 93, 94, 95, 96, 97, 98, 99, 100, 101, 102, 103, 104, 105, 106, 107, 108, 109, 110, 111, 112, 113, 114, 115, 116, 117, 118, 119, 120, 121, 122, 123, 124, 125, 126, 127, 128, 129, 130, 131, 132, 133, 134, 135, 136, 137, 138, 139, 140, 141, 142, 143, 144, 145, 146, 147, 148, 149, 150, 151, 152, 153, 154, 155, 156, 157, 158, 159, 160, 161, 162, 163, 164, 165, 166, 167, 168, 169, 170, 171, 172, 173, 174, 175, 176, 177, 178, 179, 180, 181, 182, 183, 184, 185, 186, 187, 188, 189, 190, 191, 192, 193, 194, 195, 196, 197, 198, 199, 200, 201, 202, 203, 204, 205, 206, 207, 208, 209, 210, 211, 212, 213, 214, 215, 216, 217, 218, 219, 220, 221, 222, 223, 224, 225, 226, 227, 228, 229, 230, 231, 232, 233, 234, 235, 236, 237, 238, 239, 240, 241, 242, 243, 244, 245, 246, 247, 248, 249, 250, 251, 252, 253, 254, 255, 256, 257, 258, 259, 260, 261, 262, 263, 264, 265, 266, 267, 268, 269, 270, 271, 272, 273, 274, 275, 276, 277, 278, 279, 280, 281, 282, 283, 284, 285, 286, 287, 288, 289, 290, 291, 292, 293, 294, 295, 296, 297, 298],
      "LargestImagePixelValue": [45559, 45093, 44282, 43964, 44190, 42793, 44080, 42840, 43763, 42990, 43344, 44617, 43055, 43183, 42663, 41998, 43032, 43272, 44655, 44865, 43264, 44250, 43071, 43424, 43511, 44216, 43157, 42978, 43573, 43413, 43305, 43971, 42346, 44962, 43145, 44563, 43435, 43289, 42965, 44530, 43917, 44532, 43017, 43948, 44023, 45146, 43796, 43101, 43674, 44787, 44557, 44369, 43690, 45129, 44556, 45146, 44292, 43858, 44191, 44571, 44468, 44842, 43968, 44590, 45108, 44532, 43450, 43496, 43813, 46266, 45243, 44074, 43857, 43455, 43989, 42641, 44625, 43505, 44125, 43515, 44639, 44216, 43772, 44568, 44572, 43817, 43414, 42769, 44584, 44644, 42799, 43278, 42931, 42770, 43527, 42928, 42843, 44233, 44072, 44951, 44066, 43906, 44573, 44857, 43691, 44523, 45601, 44533, 45341, 44848, 45090, 45569, 44421, 43910, 45884, 44684, 45264, 46643, 42300, 43320, 43955, 42791, 43581, 44064, 43819, 44960, 44100, 42318, 43919, 44003, 43726, 43543, 44297, 45144, 43845, 43656, 44829, 44326, 44229, 44191, 44490, 43621, 44280, 44022, 45646, 43943, 44423, 44510, 44865, 41876, 43829, 45355, 44045, 43742, 43316, 43401, 43104, 43490, 43195, 43417, 43296, 44071, 43913, 44127, 44830, 44342, 44073, 43880, 44866, 43203, 44871, 44776, 43166, 44031, 44311, 43761, 44381, 43393, 43880, 42954, 43713, 42686, 44089, 42619, 43755, 42968, 43497, 43267, 43354, 43267, 43490, 43446, 43260, 43441, 42858, 43098, 42730, 43126, 42408, 42664, 42698, 42667, 42393, 42677, 43168, 42418, 44222, 44339, 43199, 44367, 43919, 42756, 42877, 42917, 42910, 44102, 43095, 42221, 44158, 43616, 43273, 44271, 42561, 43409, 42576, 42472, 43753, 42374, 43803, 42949, 43145, 43398, 43999, 43326, 43352, 42247, 43295, 43475, 43243, 44536, 44880, 44505, 44660, 44856, 44870, 44494, 43982, 44723, 45673, 45512, 43944, 44079, 44137, 44312, 43948, 44608, 43827, 44907, 44259, 45797, 43811, 43885, 43190, 43830, 43884, 43009, 43036, 43670, 42680, 43828, 43735, 44541, 43045, 43797, 43628, 43689, 44185, 44448, 45170, 46164, 43630, 44728, 43571, 43440, 44021, 44269, 44588, 43921, 42871, 44668, 43733, 42548, 43962, 42393, 45111, 43932, 45745, 45766],
      "WindowCenter": [11032.0, 10980.0, 10951.0, 10936.0, 10903.0, 10888.0, 10966.0, 10950.0, 11009.0, 10909.0, 10961.0, 10963.0, 10992.0, 11029.0, 10993.0, 10944.0, 10951.0, 10885.0, 10959.0, 10955.0, 11012.0, 10981.0, 10912.0, 10922.0, 10944.0, 10994.0, 10982.0, 10963.0, 10908.0, 10899.0, 10892.0, 10929.0, 10861.0, 10999.0, 11003.0, 10995.0, 10941.0, 10895.0, 10911.0, 10933.0, 10962.0, 10963.0, 10946.0, 10848.0, 10903.0, 10913.0, 10809.0, 10975.0, 10969.0, 10963.0, 10950.0, 10995.0, 10922.0, 10954.0, 10962.0, 10957.0, 10954.0, 10936.0, 10948.0, 10897.0, 10909.0, 10955.0, 10902.0, 10976.0, 11009.0, 10950.0, 10972.0, 11032.0, 11039.0, 11062.0, 11050.0, 10988.0, 10982.0, 11001.0, 10887.0, 10932.0, 10973.0, 10915.0, 10951.0, 10888.0, 10871.0, 10844.0, 10846.0, 10974.0, 10956.0, 10926.0, 10875.0, 10931.0, 11023.0, 10966.0, 10993.0, 10979.0, 10950.0, 10949.0, 10964.0, 10973.0, 10966.0, 10968.0, 10949.0, 10949.0, 10918.0, 10899.0, 10884.0, 10908.0, 10901.0, 10882.0, 10934.0, 10908.0, 10897.0, 10892.0, 10928.0, 10927.0, 10930.0, 10883.0, 10942.0, 10932.0, 10898.0, 10913.0, 10829.0, 10882.0, 10935.0, 10938.0, 10936.0, 10947.0, 10939.0, 10950.0, 10963.0, 10879.0, 10951.0, 10979.0, 10855.0, 10894.0, 10914.0, 10954.0, 10877.0, 10900.0, 10939.0, 10929.0, 10939.0, 10897.0, 10902.0, 10897.0, 10921.0, 10925.0, 10922.0, 10896.0, 10926.0, 10913.0, 10977.0, 10838.0, 10941.0, 10914.0, 10953.0, 10940.0, 10903.0, 10951.0, 10933.0, 10981.0, 10965.0, 10978.0, 10966.0, 10961.0, 10948.0, 10901.0, 10914.0, 10990.0, 10950.0, 10914.0, 10928.0, 10904.0, 11025.0, 10914.0, 10901.0, 10928.0, 10934.0, 10948.0, 10943.0, 10923.0, 10916.0, 10934.0, 10928.0, 10909.0, 10916.0, 10879.0, 10918.0, 10919.0, 10904.0, 10894.0, 10902.0, 10905.0, 10921.0, 10921.0, 10885.0, 10930.0, 10923.0, 10953.0, 10943.0, 10944.0, 10933.0, 10929.0, 10911.0, 10930.0, 10926.0, 10969.0, 10927.0, 10918.0, 10951.0, 10966.0, 10976.0, 10928.0, 10959.0, 10936.0, 10896.0, 10999.0, 10977.0, 11018.0, 10906.0, 10930.0, 10964.0, 10952.0, 10927.0, 10921.0, 10955.0, 10926.0, 10925.0, 10928.0, 10971.0, 10903.0, 10983.0, 10945.0, 10940.0, 10959.0, 10983.0, 10976.0, 10910.0, 10958.0, 10960.0, 10948.0, 10947.0, 10925.0, 10947.0, 10973.0, 10986.0, 10948.0, 10898.0, 10940.0, 10881.0, 10923.0, 10909.0, 10888.0, 10864.0, 10888.0, 10942.0, 11002.0, 10960.0, 11006.0, 10886.0, 10943.0, 10930.0, 10973.0, 11016.0, 11024.0, 11026.0, 10966.0, 10972.0, 10976.0, 11002.0, 11013.0, 10971.0, 10988.0, 10952.0, 10926.0, 10896.0, 10983.0, 10905.0, 10934.0, 10968.0, 10867.0, 10933.0, 11009.0, 10913.0, 10952.0, 10921.0, 10917.0, 10956.0, 10990.0, 11033.0, 10965.0, 10965.0, 10954.0, 10983.0, 10974.0, 11012.0, 10953.0, 10968.0, 10944.0, 10963.0, 10962.0],
