{
  "AcquisitionMatrixPE": 104,
  "AcquisitionNumber": 1,
  "AcquisitionTime": "11:18:22.177500",
  "BandwidthPerPixelPhaseEncode": 17.17,
  "BaseResolution": 104,
  "BodyPartExamined": "BRAIN",
  "CoilCombinationMethod": "Sum of Squares",
  "ConsistencyInfo": "N4_VE11C_LATEST_20160120",
  "ConversionSoftware": "dcm2niix",
  "ConversionSoftwareVersion": "v1.0.20220505",
  "DerivedVendorReportedEchoSpacing": 0.000560011,
  "DeviceSerialNumber": "167006",
  "DwellTime": 2.1e-06,
  "EchoTime": 0.037,
  "EchoTrainLength": 104,
  "EffectiveEchoSpacing": 0.000560011,
  "FlipAngle": 52,
  "HeudiconvVersion": "0.5.3.post811+g6206e14",
  "ImageComments": "Unaliased MB4/PE3/LB",
  "ImageOrientationPatientDICOM": [0.998846, 0.00272039, 0.0479428, 0.0237136, 0.840219, -0.541728],
  "ImageOrientationText": "Tra>Cor(-32.9)>Sag(2.4)",
  "ImageType": [
    "ORIGINAL",
    "PRIMARY",
    "M",
    "MB",
    "ND",
    "MOSAIC"
],
  "ImagingFrequency": 123.259,
  "InPlanePhaseEncodingDirectionDICOM": "COL",
  "InstitutionAddress": "Chemin Queen-Mary 4565,Montreal,District,CA,H3W 1W5",
  "InstitutionName": "IUGM",
  "InstitutionalDepartmentName": "Department",
  "MRAcquisitionType": "2D",
  "MagneticFieldStrength": 3,
  "Manufacturer": "Siemens",
  "ManufacturersModelName": "Prisma_fit",
  "MatrixCoilMode": "SENSE",
  "Modality": "MR",
  "MultibandAccelerationFactor": 4,
  "PartialFourier": 1,
  "PatientPosition": "HFS",
  "PercentPhaseFOV": 100,
  "PercentSampling": 100,
  "PhaseEncodingDirection": "j",
  "PhaseEncodingSteps": 104,
  "PhaseResolution": 1,
  "PixelBandwidth": 2290,
  "ProcedureStepDescription": "games^mario3",
  "ProtocolName": "func_task-mario3_run-01",
  "PulseSequenceDetails": "%CustomerSeq%\\cmrr_mbep2d_bold",
  "ReceiveCoilActiveElements": "HC1-7;NC1,2",
  "ReceiveCoilName": "HeadNeck_64",
  "ReconMatrixPE": 104,
  "RepetitionTime": 1.49,
  "SAR": 0.0748414,
  "ScanOptions": "FS",
  "ScanningSequence": "EP",
  "SequenceName": "epfid2d1_104",
  "SequenceVariant": "SK\\SS",
  "SeriesDescription": "func_task-mario3_run-01",
  "SeriesNumber": 10,
  "ShimSetting": [625, -7186, -8866, 220, 32, -201, -44, 41],
  "SliceThickness": 2,
  "SliceTiming": [0, 0.7825, 0.0975, 0.8825, 0.195, 0.98, 0.2925, 1.0775, 0.3925, 1.175, 0.49, 1.2725, 0.5875, 1.3725, 0.685, 0, 0.7825, 0.0975, 0.8825, 0.195, 0.98, 0.2925, 1.0775, 0.3925, 1.175, 0.49, 1.2725, 0.5875, 1.3725, 0.685, 0, 0.7825, 0.0975, 0.8825, 0.195, 0.98, 0.2925, 1.0775, 0.3925, 1.175, 0.49, 1.2725, 0.5875, 1.3725, 0.685, 0, 0.7825, 0.0975, 0.8825, 0.195, 0.98, 0.2925, 1.0775, 0.3925, 1.175, 0.49, 1.2725, 0.5875, 1.3725, 0.685],
  "SoftwareVersions": "syngo MR E11",
  "SpacingBetweenSlices": 2,
  "StationName": "MRC35049",
  "TaskName": "mario3",
  "TotalReadoutTime": 0.0576811,
  "TxRefAmp": 306.038,
  "WipMemBlock": "059eda4d-4dc5-49ed-b87b-1699f2d7d0d5||Sequence: R017 ve11c/master r/75a17815+; Jun 28 2022 16:32:11 by eja",
  "dcmmeta_affine": [
    [-1.9976927042007446, 0.04742710664868355, 0.0835123285651207, 102.96373748779297],
    [-0.005440785549581051, 1.6804389953613281, -1.0844790935516357, -47.641441345214844],
    [0.09588554501533508, 1.083455204963684, 1.6783714294433594, -96.09222412109375],
    [0.0, 0.0, 0.0, 1.0]
],
  "dcmmeta_reorient_transform": [
    [0.0, -1.0, 0.0, 103.0],
    [1.0, 0.0, 0.0, 0.0],
    [0.0, 0.0, 1.0, 0.0],
    [0.0, 0.0, 0.0, 1.0]
],
  "dcmmeta_shape": [104, 104, 60, 293],
  "dcmmeta_slice_dim": 2,
  "dcmmeta_version": 0.6,
  "global": {
    "const": {
      "AcquisitionMatrix": [104, 0, 0, 104],
      "AngioFlag": "N",
      "BitsAllocated": 16,
      "BitsStored": 16,
      "BodyPartExamined": "BRAIN",
      "Columns": 832,
      "EchoNumbers": 1,
      "EchoTime": 37.0,
      "EchoTrainLength": 104,
      "FlipAngle": 52.0,
      "HighBit": 15,
      "ImageOrientationPatient": [0.99884637956934, 0.00272039278278, 0.04794277301452, 0.02371355416634, 0.84021951970119, -0.5417276308828],
      "ImagePositionPatient": [-852.27236266033, -739.10403758217, 374.97904141927],
      "ImageType": [
        "ORIGINAL",
        "PRIMARY",
        "M",
        "MB",
        "ND",
        "MOSAIC"
],
      "ImagedNucleus": "1H",
      "ImagingFrequency": 123.258822,
      "InPlanePhaseEncodingDirection": "COL",
      "MRAcquisitionType": "2D",
      "MagneticFieldStrength": 3.0,
      "Manufacturer": "SIEMENS",
      "ManufacturerModelName": "Prisma_fit",
      "Modality": "MR",
      "NumberOfAverages": 1.0,
      "NumberOfPhaseEncodingSteps": 104,
      "PercentPhaseFieldOfView": 100.0,
      "PercentSampling": 100.0,
      "PerformedProcedureStepStartTime": "111507.054000",
      "PhotometricInterpretation": "MONOCHROME2",
      "PixelBandwidth": 2290.0,
      "PixelRepresentation": 0,
      "PixelSpacing": [2.0, 2.0],
      "ProtocolName": "func_task-mario3_run-01",
      "RepetitionTime": 1490.0,
      "Rows": 832,
      "SAR": 0.07484136592471,
      "SamplesPerPixel": 1,
      "ScanOptions": "FS",
      "ScanningSequence": "EP",
      "SequenceName": "epfid2d1_104",
      "SequenceVariant": [
        "SK",
        "SS"
],
      "SeriesDescription": "func_task-mario3_run-01",
      "SeriesNumber": 10,
      "SeriesTime": "111930.079000",
      "SliceLocation": -50.506779244846,
      "SliceThickness": 2.0,
      "SmallestImagePixelValue": 0,
      "SoftwareVersions": "syngo MR E11",
      "SpacingBetweenSlices": 1.9999999996612,
      "SpecificCharacterSet": "ISO_IR 100",
      "StudyID": "1",
      "StudyTime": "111506.978000",
      "TransmitCoilName": "Body",
      "VariableFlipAngleFlag": "N",
      "WindowCenterWidthExplanation": "Algo1",
      "dBdt": 0.0},
    "slices": {}
  },
  "time": {
    "samples": {
      "AcquisitionNumber": [1, 2, 3, 4, 5, 6, 7, 8, 9, 10, 11, 12, 13, 14, 15, 16, 17, 18, 19, 20, 21, 22, 23, 24, 25, 26, 27, 28, 29, 30, 31, 32, 33, 34, 35, 36, 37, 38, 39, 40, 41, 42, 43, 44, 45, 46, 47, 48, 49, 50, 51, 52, 53, 54, 55, 56, 57, 58, 59, 60, 61, 62, 63, 64, 65, 66, 67, 68, 69, 70, 71, 72, 73, 74, 75, 76, 77, 78, 79, 80, 81, 82, 83, 84, 85, 86, 87, 88, 89, 90, 91, 92, 93, 94, 95, 96, 97, 98, 99, 100, 101, 102, 103, 104, 105, 106, 107, 108, 109, 110, 111, 112, 113, 114, 115, 116, 117, 118, 119, 120, 121, 122, 123, 124, 125, 126, 127, 128, 129, 130, 131, 132, 133, 134, 135, 136, 137, 138, 139, 140, 141, 142, 143, 144, 145, 146, 147, 148, 149, 150, 151, 152, 153, 154, 155, 156, 157, 158, 159, 160, 161, 162, 163, 164, 165, 166, 167, 168, 169, 170, 171, 172, 173, 174, 175, 176, 177, 178, 179, 180, 181, 182, 183, 184, 185, 186, 187, 188, 189, 190, 191, 192, 193, 194, 195, 196, 197, 198, 199, 200, 201, 202, 203, 204, 205, 206, 207, 208, 209, 210, 211, 212, 213, 214, 215, 216, 217, 218, 219, 220, 221, 222, 223, 224, 225, 226, 227, 228, 229, 230, 231, 232, 233, 234, 235, 236, 237, 238, 239, 240, 241, 242, 243, 244, 245, 246, 247, 248, 249, 250, 251, 252, 253, 254, 255, 256, 257, 258, 259, 260, 261, 262, 263, 264, 265, 266, 267, 268, 269, 270, 271, 272, 273, 274, 275, 276, 277, 278, 279, 280, 281, 282, 283, 284, 285, 286, 287, 288, 289, 290, 291, 292, 293],
      "AcquisitionTime": ["111822.177500", "111823.667500", "111825.157500", "111826.647500", "111828.137500", "111829.627500", "111831.117500", "111832.607500", "111834.097500", "111835.587500", "111837.077500", "111838.567500", "111840.057500", "111841.547500", "111843.037500", "111844.527500", "111846.017500", "111847.507500", "111848.997500", "111850.487500", "111851.977500", "111853.467500", "111854.957500", "111856.447500", "111857.937500", "111859.427500", "111900.917500", "111902.407500", "111903.897500", "111905.387500", "111906.877500", "111908.367500", "111909.857500", "111911.347500", "111912.837500", "111914.327500", "111915.817500", "111917.307500", "111918.797500", "111920.287500", "111921.777500", "111923.267500", "111924.757500", "111926.247500", "111927.737500", "111929.227500", "111930.717500", "111932.207500", "111933.697500", "111935.187500", "111936.677500", "111938.167500", "111939.657500", "111941.147500", "111942.637500", "111944.127500", "111945.617500", "111947.107500", "111948.597500", "111950.087500", "111951.577500", "111953.067500", "111954.557500", "111956.047500", "111957.537500", "111959.027500", "112000.517500", "112002.007500", "112003.497500", "112004.987500", "112006.477500", "112007.967500", "112009.457500", "112010.947500", "112012.437500", "112013.927500", "112015.417500", "112016.907500", "112018.397500", "112019.887500", "112021.377500", "112022.867500", "112024.357500", "112025.847500", "112027.337500", "112028.827500", "112030.317500", "112031.807500", "112033.297500", "112034.787500", "112036.277500", "112037.767500", "112039.257500", "112040.747500", "112042.237500", "112043.727500", "112045.217500", "112046.707500", "112048.197500", "112049.687500", "112051.177500", "112052.667500", "112054.157500", "112055.647500", "112057.137500", "112058.627500", "112100.117500", "112101.607500", "112103.097500", "112104.587500", "112106.077500", "112107.567500", "112109.057500", "112110.547500", "112112.037500", "112113.527500", "112115.017500", "112116.507500", "112117.997500", "112119.487500", "112120.977500", "112122.467500", "112123.957500", "112125.447500", "112126.937500", "112128.427500", "112129.917500", "112131.407500", "112132.897500", "112134.387500", "112135.877500", "112137.367500", "112138.857500", "112140.347500", "112141.837500", "112143.327500", "112144.817500", "112146.307500", "112147.797500", "112149.287500", "112150.777500", "112152.267500", "112153.757500", "112155.247500", "112156.737500", "112158.227500", "112159.717500", "112201.207500", "112202.697500", "112204.187500", "112205.677500", "112207.167500", "112208.657500", "112210.147500", "112211.637500", "112213.127500", "112214.617500", "112216.107500", "112217.597500", "112219.087500", "112220.577500", "112222.067500", "112223.557500", "112225.047500", "112226.537500", "112228.027500", "112229.517500", "112231.007500", "112232.497500", "112233.987500", "112235.477500", "112236.967500", "112238.457500", "112239.947500", "112241.437500", "112242.927500", "112244.417500", "112245.907500", "112247.397500", "112248.887500", "112250.377500", "112251.867500", "112253.357500", "112254.847500", "112256.337500", "112257.827500", "112259.317500", "112300.807500", "112302.297500", "112303.787500", "112305.277500", "112306.767500", "112308.257500", "112309.747500", "112311.237500", "112312.727500", "112314.217500", "112315.707500", "112317.197500", "112318.687500", "112320.177500", "112321.667500", "112323.157500", "112324.647500", "112326.137500", "112327.627500", "112329.117500", "112330.607500", "112332.097500", "112333.587500", "112335.077500", "112336.567500", "112338.057500", "112339.547500", "112341.037500", "112342.527500", "112344.017500", "112345.507500", "112346.997500", "112348.487500", "112349.977500", "112351.467500", "112352.957500", "112354.447500", "112355.937500", "112357.427500", "112358.917500", "112400.407500", "112401.897500", "112403.387500", "112404.877500", "112406.367500", "112407.857500", "112409.347500", "112410.837500", "112412.327500", "112413.817500", "112415.307500", "112416.797500", "112418.287500", "112419.777500", "112421.267500", "112422.757500", "112424.247500", "112425.737500", "112427.227500", "112428.717500", "112430.207500", "112431.697500", "112433.187500", "112434.677500", "112436.167500", "112437.657500", "112439.147500", "112440.637500", "112442.127500", "112443.617500", "112445.107500", "112446.597500", "112448.087500", "112449.577500", "112451.067500", "112452.557500", "112454.047500", "112455.537500", "112457.027500", "112458.517500", "112500.007500", "112501.497500", "112502.987500", "112504.477500", "112505.967500", "112507.457500", "112508.947500", "112510.437500", "112511.927500", "112513.417500", "112514.907500", "112516.397500", "112517.887500", "112519.377500", "112520.867500", "112522.357500", "112523.847500", "112525.337500", "112526.827500", "112528.317500", "112529.807500", "112531.297500", "112532.787500", "112534.277500", "112535.767500", "112537.257500"],
      "ContentTime": ["111930.082000", "111930.090000", "111930.094000", "111930.097000", "111930.100000", "111930.103000", "111930.107000", "111930.110000", "111930.113000", "111930.117000", "111930.120000", "111930.123000", "111930.126000", "111930.136000", "111930.139000", "111930.143000", "111930.146000", "111930.149000", "111930.152000", "111930.156000", "111950.018000", "111950.021000", "111950.025000", "111950.028000", "111950.031000", "111950.034000", "111950.038000", "111950.041000", "111950.044000", "111950.048000", "111950.059000", "111950.062000", "111950.066000", "111950.069000", "111950.072000", "111950.075000", "111950.079000", "111950.082000", "111950.085000", "111950.088000", "112010.019000", "112010.040000", "112010.043000", "112010.047000", "112010.051000", "112010.054000", "112010.057000", "112010.060000", "112010.064000", "112010.067000", "112010.071000", "112010.074000", "112010.078000", "112010.081000", "112010.084000", "112010.087000", "112010.091000", "112010.094000", "112010.097000", "112010.100000", "112010.104000", "112050.018000", "112050.021000", "112050.025000", "112050.028000", "112050.036000", "112050.039000", "112050.043000", "112050.046000", "112050.049000", "112050.052000", "112050.056000", "112050.059000", "112050.062000", "112050.065000", "112050.069000", "112050.072000", "112050.075000", "112050.078000", "112050.082000", "112050.085000", "112050.088000", "112050.091000", "112050.095000", "112050.098000", "112050.102000", "112050.105000", "112050.108000", "112050.112000", "112050.115000", "112050.118000", "112050.121000", "112050.125000", "112050.128000", "112050.131000", "112050.134000", "112050.138000", "112050.141000", "112130.018000", "112130.032000", "112130.036000", "112130.039000", "112130.042000", "112130.045000", "112130.049000", "112130.052000", "112130.055000", "112130.059000", "112130.062000", "112130.065000", "112130.068000", "112130.072000", "112130.075000", "112130.078000", "112130.082000", "112130.085000", "112130.088000", "112130.092000", "112130.095000", "112130.098000", "112130.102000", "112130.105000", "112130.108000", "112130.111000", "112130.115000", "112210.018000", "112210.022000", "112210.025000", "112210.028000", "112210.032000", "112210.035000", "112210.038000", "112210.041000", "112210.045000", "112210.049000", "112210.052000", "112210.056000", "112210.059000", "112210.062000", "112210.066000", "112210.069000", "112210.072000", "112210.076000", "112210.079000", "112210.083000", "112210.086000", "112210.089000", "112210.092000", "112210.096000", "112210.099000", "112210.102000", "112210.106000", "112250.019000", "112250.023000", "112250.026000", "112250.029000", "112250.033000", "112250.036000", "112250.045000", "112250.049000", "112250.052000", "112250.055000", "112250.058000", "112250.062000", "112250.065000", "112250.068000", "112250.071000", "112250.075000", "112250.078000", "112250.081000", "112250.085000", "112250.088000", "112250.091000", "112250.094000", "112250.098000", "112250.101000", "112250.104000", "112250.108000", "112250.111000", "112330.018000", "112330.022000", "112330.026000", "112330.029000", "112330.032000", "112330.036000", "112330.039000", "112330.042000", "112330.045000", "112330.049000", "112330.052000", "112330.055000", "112330.058000", "112330.062000", "112330.065000", "112330.085000", "112330.088000", "112330.092000", "112330.095000", "112330.109000", "112330.112000", "112330.116000", "112330.119000", "112330.122000", "112330.126000", "112330.129000", "112330.132000", "112410.018000", "112410.022000", "112410.025000", "112410.028000", "112410.032000", "112410.035000", "112410.038000", "112410.042000", "112410.045000", "112410.048000", "112410.051000", "112410.055000", "112410.058000", "112410.062000", "112410.065000", "112410.069000", "112410.073000", "112410.077000", "112410.081000", "112410.084000", "112410.088000", "112410.092000", "112410.095000", "112410.098000", "112410.102000", "112410.105000", "112450.019000", "112450.023000", "112450.026000", "112450.029000", "112450.033000", "112450.036000", "112450.039000", "112450.042000", "112450.046000", "112450.049000", "112450.052000", "112450.056000", "112450.059000", "112450.062000", "112450.065000", "112450.069000", "112450.072000", "112450.075000", "112450.078000", "112450.082000", "112450.085000", "112450.088000", "112450.092000", "112450.095000", "112450.098000", "112450.102000", "112450.105000", "112530.018000", "112530.022000", "112530.025000", "112530.029000", "112530.032000", "112530.035000", "112530.039000", "112530.042000", "112530.045000", "112530.049000", "112530.052000", "112530.055000", "112530.058000", "112530.062000", "112530.065000", "112530.068000", "112530.072000", "112530.075000", "112530.078000", "112530.081000", "112530.085000", "112530.088000", "112530.091000", "112530.111000", "112530.114000", "112530.117000", "112530.120000", "112540.681000", "112540.685000", "112540.689000", "112540.693000", "112540.696000", "112540.699000", "112540.702000"],
      "InstanceCreationTime": ["111930.082000", "111930.090000", "111930.094000", "111930.097000", "111930.100000", "111930.103000", "111930.107000", "111930.110000", "111930.113000", "111930.117000", "111930.120000", "111930.123000", "111930.126000", "111930.136000", "111930.139000", "111930.143000", "111930.146000", "111930.149000", "111930.152000", "111930.156000", "111950.018000", "111950.021000", "111950.025000", "111950.028000", "111950.031000", "111950.034000", "111950.038000", "111950.041000", "111950.044000", "111950.048000", "111950.059000", "111950.062000", "111950.066000", "111950.069000", "111950.072000", "111950.075000", "111950.079000", "111950.082000", "111950.085000", "111950.088000", "112010.019000", "112010.040000", "112010.043000", "112010.047000", "112010.051000", "112010.054000", "112010.057000", "112010.060000", "112010.064000", "112010.067000", "112010.071000", "112010.074000", "112010.078000", "112010.081000", "112010.084000", "112010.087000", "112010.091000", "112010.094000", "112010.097000", "112010.100000", "112010.104000", "112050.018000", "112050.021000", "112050.025000", "112050.028000", "112050.036000", "112050.039000", "112050.043000", "112050.046000", "112050.049000", "112050.052000", "112050.056000", "112050.059000", "112050.062000", "112050.065000", "112050.069000", "112050.072000", "112050.075000", "112050.078000", "112050.082000", "112050.085000", "112050.088000", "112050.091000", "112050.095000", "112050.098000", "112050.102000", "112050.105000", "112050.108000", "112050.112000", "112050.115000", "112050.118000", "112050.121000", "112050.125000", "112050.128000", "112050.131000", "112050.134000", "112050.138000", "112050.141000", "112130.018000", "112130.032000", "112130.036000", "112130.039000", "112130.042000", "112130.045000", "112130.049000", "112130.052000", "112130.055000", "112130.059000", "112130.062000", "112130.065000", "112130.068000", "112130.072000", "112130.075000", "112130.078000", "112130.082000", "112130.085000", "112130.088000", "112130.092000", "112130.095000", "112130.098000", "112130.102000", "112130.105000", "112130.108000", "112130.111000", "112130.115000", "112210.018000", "112210.022000", "112210.025000", "112210.028000", "112210.032000", "112210.035000", "112210.038000", "112210.041000", "112210.045000", "112210.049000", "112210.052000", "112210.056000", "112210.059000", "112210.062000", "112210.066000", "112210.069000", "112210.072000", "112210.076000", "112210.079000", "112210.083000", "112210.086000", "112210.089000", "112210.092000", "112210.096000", "112210.099000", "112210.102000", "112210.106000", "112250.019000", "112250.023000", "112250.026000", "112250.029000", "112250.033000", "112250.036000", "112250.045000", "112250.049000", "112250.052000", "112250.055000", "112250.058000", "112250.062000", "112250.065000", "112250.068000", "112250.071000", "112250.075000", "112250.078000", "112250.081000", "112250.085000", "112250.088000", "112250.091000", "112250.094000", "112250.098000", "112250.101000", "112250.104000", "112250.108000", "112250.111000", "112330.018000", "112330.022000", "112330.026000", "112330.029000", "112330.032000", "112330.036000", "112330.039000", "112330.042000", "112330.045000", "112330.049000", "112330.052000", "112330.055000", "112330.058000", "112330.062000", "112330.065000", "112330.085000", "112330.088000", "112330.092000", "112330.095000", "112330.109000", "112330.112000", "112330.116000", "112330.119000", "112330.122000", "112330.126000", "112330.129000", "112330.132000", "112410.018000", "112410.022000", "112410.025000", "112410.028000", "112410.032000", "112410.035000", "112410.038000", "112410.042000", "112410.045000", "112410.048000", "112410.051000", "112410.055000", "112410.058000", "112410.062000", "112410.065000", "112410.069000", "112410.073000", "112410.077000", "112410.081000", "112410.084000", "112410.088000", "112410.092000", "112410.095000", "112410.098000", "112410.102000", "112410.105000", "112450.019000", "112450.023000", "112450.026000", "112450.029000", "112450.033000", "112450.036000", "112450.039000", "112450.042000", "112450.046000", "112450.049000", "112450.052000", "112450.056000", "112450.059000", "112450.062000", "112450.065000", "112450.069000", "112450.072000", "112450.075000", "112450.078000", "112450.082000", "112450.085000", "112450.088000", "112450.092000", "112450.095000", "112450.098000", "112450.102000", "112450.105000", "112530.018000", "112530.022000", "112530.025000", "112530.029000", "112530.032000", "112530.035000", "112530.039000", "112530.042000", "112530.045000", "112530.049000", "112530.052000", "112530.055000", "112530.058000", "112530.062000", "112530.065000", "112530.068000", "112530.072000", "112530.075000", "112530.078000", "112530.081000", "112530.085000", "112530.088000", "112530.091000", "112530.111000", "112530.114000", "112530.117000", "112530.120000", "112540.681000", "112540.685000", "112540.689000", "112540.693000", "112540.696000", "112540.699000", "112540.702000"],
      "InstanceNumber": [1, 2, 3, 4, 5, 6, 7, 8, 9, 10, 11, 12, 13, 14, 15, 16, 17, 18, 19, 20, 21, 22, 23, 24, 25, 26, 27, 28, 29, 30, 31, 32, 33, 34, 35, 36, 37, 38, 39, 40, 41, 42, 43, 44, 45, 46, 47, 48, 49, 50, 51, 52, 53, 54, 55, 56, 57, 58, 59, 60, 61, 62, 63, 64, 65, 66, 67, 68, 69, 70, 71, 72, 73, 74, 75, 76, 77, 78, 79, 80, 81, 82, 83, 84, 85, 86, 87, 88, 89, 90, 91, 92, 93, 94, 95, 96, 97, 98, 99, 100, 101, 102, 103, 104, 105, 106, 107, 108, 109, 110, 111, 112, 113, 114, 115, 116, 117, 118, 119, 120, 121, 122, 123, 124, 125, 126, 127, 128, 129, 130, 131, 132, 133, 134, 135, 136, 137, 138, 139, 140, 141, 142, 143, 144, 145, 146, 147, 148, 149, 150, 151, 152, 153, 154, 155, 156, 157, 158, 159, 160, 161, 162, 163, 164, 165, 166, 167, 168, 169, 170, 171, 172, 173, 174, 175, 176, 177, 178, 179, 180, 181, 182, 183, 184, 185, 186, 187, 188, 189, 190, 191, 192, 193, 194, 195, 196, 197, 198, 199, 200, 201, 202, 203, 204, 205, 206, 207, 208, 209, 210, 211, 212, 213, 214, 215, 216, 217, 218, 219, 220, 221, 222, 223, 224, 225, 226, 227, 228, 229, 230, 231, 232, 233, 234, 235, 236, 237, 238, 239, 240, 241, 242, 243, 244, 245, 246, 247, 248, 249, 250, 251, 252, 253, 254, 255, 256, 257, 258, 259, 260, 261, 262, 263, 264, 265, 266, 267, 268, 269, 270, 271, 272, 273, 274, 275, 276, 277, 278, 279, 280, 281, 282, 283, 284, 285, 286, 287, 288, 289, 290, 291, 292, 293],
      "LargestImagePixelValue": [45595, 46658, 44162, 43945, 43712, 42746, 42869, 43322, 42710, 43587, 44634, 43831, 43367, 42615, 43246, 43086, 44147, 45940, 43981, 44276, 43588, 45221, 47506, 43896, 44945, 43452, 43256, 43622, 44909, 45031, 43580, 44055, 43853, 44537, 43520, 44085, 44845, 43934, 43362, 43011, 43957, 43894, 43471, 44686, 43830, 43652, 44693, 44346, 43653, 43765, 44091, 44522, 44014, 44109, 43823, 44208, 44505, 44557, 45327, 44271, 42584, 44611, 44085, 45232, 44728, 43263, 44314, 45520, 44038, 44760, 44446, 44083, 44437, 43922, 44249, 44185, 45047, 44705, 44136, 43800, 47219, 43814, 44233, 45565, 43693, 46775, 46610, 43602, 43324, 43130, 43274, 44691, 44269, 44068, 44771, 44390, 44085, 44960, 44944, 44037, 44602, 44451, 42992, 45738, 46698, 45637, 44618, 44265, 44031, 43805, 42974, 44111, 43324, 43414, 43446, 44253, 44574, 44527, 44598, 44262, 46141, 44016, 43960, 43864, 46626, 43052, 43706, 43480, 43626, 44693, 44069, 45560, 45215, 44819, 44279, 44445, 43965, 44514, 44971, 44017, 44239, 45227, 45211, 44429, 44634, 43725, 44376, 44508, 43983, 45315, 43867, 44355, 45546, 44074, 45176, 44283, 43344, 45234, 45341, 45487, 45257, 44910, 45186, 44700, 45242, 43797, 45766, 45511, 45192, 46201, 45233, 46262, 47114, 45933, 47057, 45729, 47238, 44844, 45230, 46438, 45931, 45241, 45534, 45771, 46942, 48080, 46039, 43826, 43814, 44737, 45409, 44831, 44052, 44790, 44765, 44201, 44692, 44482, 45000, 43999, 44843, 44283, 44306, 44378, 44560, 44367, 44337, 43469, 44535, 44793, 43886, 44780, 45890, 43934, 44270, 43703, 44113, 43853, 44258, 44772, 44420, 44987, 45310, 45249, 44693, 44272, 44012, 43625, 45872, 44186, 43551, 44354, 44298, 44627, 44474, 43660, 43762, 44377, 44782, 44385, 44096, 44419, 45177, 44832, 45402, 45801, 44865, 43620, 44671, 44326, 44053, 44538, 44213, 44472, 44148, 44777, 45531, 44502, 43669, 45332, 44917, 46087, 45322, 44468, 45122, 45076, 45472, 45175, 45003, 45124, 43864, 45252, 44560, 44622, 45343, 44984, 45044, 44989, 44342, 44770, 45178, 43221, 43987, 44749, 45424, 46549, 45373, 45744, 44755, 44251, 44743, 44663, 44752],
      "WindowCenter": [11081.0, 11041.0, 11027.0, 11034.0, 11067.0, 10947.0, 10990.0, 11038.0, 10995.0, 11009.0, 11035.0, 11009.0, 11024.0, 11022.0, 11042.0, 11048.0, 11051.0, 11116.0, 10983.0, 11060.0, 11061.0, 11060.0, 11084.0, 11050.0, 11021.0, 11022.0, 11022.0, 11002.0, 11015.0, 11014.0, 11009.0, 11039.0, 11037.0, 11026.0, 11013.0, 11004.0, 11041.0, 11060.0, 11043.0, 11019.0, 11046.0, 11040.0, 11048.0, 11070.0, 11081.0, 10985.0, 11038.0, 11054.0, 11086.0, 11003.0, 11023.0, 11024.0, 11058.0, 11001.0, 11017.0, 11031.0, 10967.0, 11002.0, 11099.0, 11013.0, 10968.0, 11110.0, 11070.0, 11080.0, 11087.0, 10962.0, 11038.0, 10982.0, 11009.0, 11016.0, 11037.0, 10960.0, 11001.0, 10989.0, 10985.0, 11012.0, 11052.0, 10988.0, 10996.0, 10977.0, 11082.0, 10976.0, 11056.0, 11102.0, 11119.0, 11151.0, 11172.0, 11011.0, 11062.0, 11055.0, 11056.0, 11095.0, 11040.0, 10983.0, 11023.0, 11000.0, 11015.0, 11044.0, 10974.0, 11023.0, 11002.0, 11071.0, 11043.0, 11120.0, 11119.0, 11159.0, 11123.0, 11114.0, 11128.0, 11147.0, 11066.0, 11101.0, 11071.0, 11096.0, 11080.0, 11065.0, 11061.0, 10952.0, 11091.0, 11017.0, 11018.0, 11008.0, 10989.0, 11030.0, 11108.0, 11108.0, 11102.0, 11068.0, 11031.0, 11058.0, 11001.0, 11078.0, 11078.0, 11067.0, 11057.0, 11020.0, 11021.0, 11019.0, 11020.0, 11063.0, 11057.0, 11071.0, 11073.0, 11073.0, 11076.0, 11058.0, 11031.0, 11037.0, 11017.0, 11048.0, 11049.0, 11064.0, 11077.0, 11034.0, 10921.0, 11077.0, 11035.0, 11041.0, 11097.0, 11071.0, 11084.0, 11049.0, 11037.0, 10994.0, 11041.0, 11036.0, 11034.0, 11031.0, 11024.0, 11062.0, 11042.0, 11063.0, 11059.0, 11070.0, 11062.0, 11018.0, 11010.0, 11010.0, 11024.0, 11070.0, 11096.0, 11042.0, 11052.0, 11000.0, 11028.0, 11077.0, 11045.0, 11100.0, 11071.0, 11055.0, 11048.0, 11022.0, 10996.0, 11044.0, 11079.0, 11045.0, 11016.0, 11036.0, 11063.0, 11032.0, 11093.0, 11106.0, 11056.0, 11077.0, 11031.0, 11020.0, 11010.0, 11032.0, 11052.0, 11059.0, 11039.0, 11008.0, 10989.0, 11003.0, 10996.0, 11039.0, 11061.0, 11069.0, 11051.0, 11021.0, 10996.0, 11015.0, 11043.0, 11079.0, 11111.0, 11018.0, 11045.0, 11012.0, 11068.0, 11005.0, 11027.0, 11055.0, 10992.0, 10997.0, 11086.0, 11072.0, 11032.0, 11016.0, 11033.0, 11011.0, 11025.0, 11061.0, 11063.0, 11089.0, 11089.0, 11089.0, 11018.0, 11013.0, 11045.0, 11041.0, 11026.0, 11015.0, 11006.0, 10978.0, 11019.0, 11010.0, 11091.0, 11020.0, 11047.0, 11066.0, 11063.0, 11088.0, 11099.0, 11061.0, 11116.0, 11088.0, 11077.0, 11070.0, 11058.0, 11044.0, 10972.0, 11074.0, 10932.0, 10970.0, 11019.0, 11020.0, 11041.0, 11057.0, 11052.0, 10961.0, 11078.0, 10965.0, 11049.0, 11094.0, 11113.0, 11120.0, 11102.0, 11090.0, 11038.0, 11029.0, 11077.0, 11107.0, 11105.0],
