{
  "AcquisitionMatrixPE": 104,
  "AcquisitionNumber": 1,
  "AcquisitionTime": "11:37:39.587500",
  "BandwidthPerPixelPhaseEncode": 17.17,
  "BaseResolution": 104,
  "BodyPartExamined": "BRAIN",
  "CoilCombinationMethod": "Sum of Squares",
  "ConsistencyInfo": "N4_VE11C_LATEST_20160120",
  "ConversionSoftware": "dcm2niix",
  "ConversionSoftwareVersion": "v1.0.20220505",
  "DerivedVendorReportedEchoSpacing": 0.000560011,
  "DeviceSerialNumber": "167006",
  "DwellTime": 2.1e-06,
  "EchoTime": 0.037,
  "EchoTime1": 0.037,
  "EchoTime2": 0.001,
  "EchoTrainLength": 104,
  "EffectiveEchoSpacing": 0.000560011,
  "FlipAngle": 52,
  "HeudiconvVersion": "0.5.3.post811+g6206e14",
  "ImageComments": "Unaliased MB4/PE3/LB",
  "ImageOrientationPatientDICOM": [0.998846, 0.00272039, 0.0479428, 0.0237136, 0.840219, -0.541728],
  "ImageOrientationText": "Tra>Cor(-32.9)>Sag(2.4)",
  "ImageType": [
    "ORIGINAL",
    "PRIMARY",
    "P",
    "MB",
    "ND",
    "MOSAIC",
    "PHASE"
],
  "ImagingFrequency": 123.259,
  "InPlanePhaseEncodingDirectionDICOM": "COL",
  "InstitutionAddress": "Chemin Queen-Mary 4565,Montreal,District,CA,H3W 1W5",
  "InstitutionName": "IUGM",
  "InstitutionalDepartmentName": "Department",
  "MRAcquisitionType": "2D",
  "MagneticFieldStrength": 3,
  "Manufacturer": "Siemens",
  "ManufacturersModelName": "Prisma_fit",
  "MatrixCoilMode": "SENSE",
  "Modality": "MR",
  "MultibandAccelerationFactor": 4,
  "PartialFourier": 1,
  "PatientPosition": "HFS",
  "PercentPhaseFOV": 100,
  "PercentSampling": 100,
  "PhaseEncodingDirection": "j",
  "PhaseEncodingSteps": 104,
  "PhaseResolution": 1,
  "PixelBandwidth": 2290,
  "ProcedureStepDescription": "games^mario3",
  "ProtocolName": "func_task-mario3_run-03",
  "PulseSequenceDetails": "%CustomerSeq%\\cmrr_mbep2d_bold",
  "ReceiveCoilActiveElements": "HC1-7;NC1,2",
  "ReceiveCoilName": "HeadNeck_64",
  "ReconMatrixPE": 104,
  "RepetitionTime": 1.49,
  "SAR": 0.0748414,
  "ScanOptions": "FS",
  "ScanningSequence": "EP",
  "SequenceName": "epfid2d1_104",
  "SequenceVariant": "SK\\SS",
  "SeriesDescription": "func_task-mario3_run-03",
  "SeriesNumber": 17,
  "ShimSetting": [625, -7186, -8866, 220, 32, -201, -44, 41],
  "SliceThickness": 2,
  "SliceTiming": [0, 0.785, 0.1, 0.8825, 0.1975, 0.98, 0.295, 1.08, 0.3925, 1.1775, 0.49, 1.275, 0.59, 1.3725, 0.6875, 0, 0.785, 0.1, 0.8825, 0.1975, 0.98, 0.295, 1.08, 0.3925, 1.1775, 0.49, 1.275, 0.59, 1.3725, 0.6875, 0, 0.785, 0.1, 0.8825, 0.1975, 0.98, 0.295, 1.08, 0.3925, 1.1775, 0.49, 1.275, 0.59, 1.3725, 0.6875, 0, 0.785, 0.1, 0.8825, 0.1975, 0.98, 0.295, 1.08, 0.3925, 1.1775, 0.49, 1.275, 0.59, 1.3725, 0.6875],
  "SoftwareVersions": "syngo MR E11",
  "SpacingBetweenSlices": 2,
  "StationName": "MRC35049",
  "TaskName": "mario3",
  "TotalReadoutTime": 0.0576811,
  "TxRefAmp": 306.038,
  "WipMemBlock": "f60a4bce-c57a-438e-8a5d-c66fbf7b3126||Sequence: R017 ve11c/master r/75a17815+; Jun 28 2022 16:32:11 by eja",
  "dcmmeta_affine": [
    [-1.9976927042007446, 0.04742710664868355, 0.0835123285651207, 102.96373748779297],
    [-0.005440785549581051, 1.6804389953613281, -1.0844790935516357, -47.641441345214844],
    [0.09588554501533508, 1.083455204963684, 1.6783714294433594, -96.09222412109375],
    [0.0, 0.0, 0.0, 1.0]
],
  "dcmmeta_reorient_transform": [
    [0.0, -1.0, 0.0, 103.0],
    [1.0, 0.0, 0.0, 0.0],
    [0.0, 0.0, 1.0, 0.0],
    [0.0, 0.0, 0.0, 1.0]
],
  "dcmmeta_shape": [104, 104, 60, 321],
  "dcmmeta_slice_dim": 2,
  "dcmmeta_version": 0.6,
  "global": {
    "const": {
      "AcquisitionMatrix": [104, 0, 0, 104],
      "AngioFlag": "N",
      "BitsAllocated": 16,
      "BitsStored": 16,
      "BodyPartExamined": "BRAIN",
      "Columns": 832,
      "EchoNumbers": 1,
      "EchoTime": 37.0,
      "EchoTrainLength": 104,
      "FlipAngle": 52.0,
      "HighBit": 15,
      "ImageOrientationPatient": [0.99884637956934, 0.00272039278278, 0.04794277301452, 0.02371355416634, 0.84021951970119, -0.5417276308828],
      "ImagePositionPatient": [-852.27236266033, -739.10403758217, 374.97904141927],
      "ImageType": [
        "ORIGINAL",
        "PRIMARY",
        "P",
        "MB",
        "ND",
        "MOSAIC"
],
      "ImagedNucleus": "1H",
      "ImagingFrequency": 123.258828,
      "InPlanePhaseEncodingDirection": "COL",
      "LargestImagePixelValue": 4095,
      "MRAcquisitionType": "2D",
      "MagneticFieldStrength": 3.0,
      "Manufacturer": "SIEMENS",
      "ManufacturerModelName": "Prisma_fit",
      "Modality": "MR",
      "NumberOfAverages": 1.0,
      "NumberOfPhaseEncodingSteps": 104,
      "PercentPhaseFieldOfView": 100.0,
      "PercentSampling": 100.0,
      "PerformedProcedureStepStartTime": "111507.054000",
      "PhotometricInterpretation": "MONOCHROME2",
      "PixelBandwidth": 2290.0,
      "PixelRepresentation": 0,
      "PixelSpacing": [2.0, 2.0],
      "ProtocolName": "func_task-mario3_run-03",
      "RepetitionTime": 1490.0,
      "RescaleIntercept": -4096.0,
      "RescaleSlope": 2.0,
      "RescaleType": "US",
      "Rows": 832,
      "SAR": 0.07484136592471,
      "SamplesPerPixel": 1,
      "ScanOptions": "FS",
      "ScanningSequence": "EP",
      "SequenceName": "epfid2d1_104",
      "SequenceVariant": [
        "SK",
        "SS"
],
      "SeriesDescription": "func_task-mario3_run-03",
      "SeriesNumber": 17,
      "SeriesTime": "113854.290000",
      "SliceLocation": -50.506779244846,
      "SliceThickness": 2.0,
      "SmallestImagePixelValue": 0,
      "SoftwareVersions": "syngo MR E11",
      "SpacingBetweenSlices": 1.9999999996612,
      "SpecificCharacterSet": "ISO_IR 100",
      "StudyID": "1",
      "StudyTime": "111506.978000",
      "TransmitCoilName": "Body",
      "VariableFlipAngleFlag": "N",
      "WindowCenterWidthExplanation": "Algo1",
      "dBdt": 0.0},
    "slices": {}
  },
  "time": {
    "samples": {
      "AcquisitionNumber": [1, 2, 3, 4, 5, 6, 7, 8, 9, 10, 11, 12, 13, 14, 15, 16, 17, 18, 19, 20, 21, 22, 23, 24, 25, 26, 27, 28, 29, 30, 31, 32, 33, 34, 35, 36, 37, 38, 39, 40, 41, 42, 43, 44, 45, 46, 47, 48, 49, 50, 51, 52, 53, 54, 55, 56, 57, 58, 59, 60, 61, 62, 63, 64, 65, 66, 67, 68, 69, 70, 71, 72, 73, 74, 75, 76, 77, 78, 79, 80, 81, 82, 83, 84, 85, 86, 87, 88, 89, 90, 91, 92, 93, 94, 95, 96, 97, 98, 99, 100, 101, 102, 103, 104, 105, 106, 107, 108, 109, 110, 111, 112, 113, 114, 115, 116, 117, 118, 119, 120, 121, 122, 123, 124, 125, 126, 127, 128, 129, 130, 131, 132, 133, 134, 135, 136, 137, 138, 139, 140, 141, 142, 143, 144, 145, 146, 147, 148, 149, 150, 151, 152, 153, 154, 155, 156, 157, 158, 159, 160, 161, 162, 163, 164, 165, 166, 167, 168, 169, 170, 171, 172, 173, 174, 175, 176, 177, 178, 179, 180, 181, 182, 183, 184, 185, 186, 187, 188, 189, 190, 191, 192, 193, 194, 195, 196, 197, 198, 199, 200, 201, 202, 203, 204, 205, 206, 207, 208, 209, 210, 211, 212, 213, 214, 215, 216, 217, 218, 219, 220, 221, 222, 223, 224, 225, 226, 227, 228, 229, 230, 231, 232, 233, 234, 235, 236, 237, 238, 239, 240, 241, 242, 243, 244, 245, 246, 247, 248, 249, 250, 251, 252, 253, 254, 255, 256, 257, 258, 259, 260, 261, 262, 263, 264, 265, 266, 267, 268, 269, 270, 271, 272, 273, 274, 275, 276, 277, 278, 279, 280, 281, 282, 283, 284, 285, 286, 287, 288, 289, 290, 291, 292, 293, 294, 295, 296, 297, 298, 299, 300, 301, 302, 303, 304, 305, 306, 307, 308, 309, 310, 311, 312, 313, 314, 315, 316, 317, 318, 319, 320, 321],
      "AcquisitionTime": ["113739.587500", "113741.077500", "113742.567500", "113744.057500", "113745.547500", "113747.037500", "113748.527500", "113750.017500", "113751.507500", "113752.997500", "113754.487500", "113755.977500", "113757.467500", "113758.957500", "113800.447500", "113801.937500", "113803.427500", "113804.917500", "113806.407500", "113807.897500", "113809.387500", "113810.877500", "113812.367500", "113813.857500", "113815.347500", "113816.837500", "113818.327500", "113819.817500", "113821.307500", "113822.797500", "113824.287500", "113825.777500", "113827.267500", "113828.757500", "113830.247500", "113831.737500", "113833.227500", "113834.717500", "113836.207500", "113837.697500", "113839.187500", "113840.677500", "113842.167500", "113843.657500", "113845.147500", "113846.637500", "113848.127500", "113849.617500", "113851.107500", "113852.597500", "113854.087500", "113855.577500", "113857.067500", "113858.557500", "113900.047500", "113901.537500", "113903.027500", "113904.517500", "113906.007500", "113907.497500", "113908.987500", "113910.477500", "113911.967500", "113913.457500", "113914.947500", "113916.437500", "113917.927500", "113919.417500", "113920.907500", "113922.397500", "113923.887500", "113925.377500", "113926.867500", "113928.357500", "113929.847500", "113931.337500", "113932.827500", "113934.317500", "113935.807500", "113937.297500", "113938.787500", "113940.277500", "113941.767500", "113943.257500", "113944.747500", "113946.237500", "113947.727500", "113949.217500", "113950.707500", "113952.197500", "113953.687500", "113955.177500", "113956.667500", "113958.157500", "113959.647500", "114001.137500", "114002.627500", "114004.117500", "114005.607500", "114007.097500", "114008.587500", "114010.077500", "114011.567500", "114013.057500", "114014.547500", "114016.037500", "114017.527500", "114019.017500", "114020.507500", "114021.997500", "114023.487500", "114024.977500", "114026.467500", "114027.957500", "114029.447500", "114030.937500", "114032.427500", "114033.917500", "114035.407500", "114036.897500", "114038.387500", "114039.877500", "114041.367500", "114042.857500", "114044.347500", "114045.837500", "114047.327500", "114048.817500", "114050.307500", "114051.797500", "114053.287500", "114054.777500", "114056.267500", "114057.757500", "114059.247500", "114100.737500", "114102.227500", "114103.717500", "114105.207500", "114106.697500", "114108.187500", "114109.677500", "114111.167500", "114112.657500", "114114.147500", "114115.637500", "114117.127500", "114118.617500", "114120.107500", "114121.597500", "114123.087500", "114124.577500", "114126.067500", "114127.557500", "114129.047500", "114130.537500", "114132.027500", "114133.517500", "114135.007500", "114136.497500", "114137.987500", "114139.477500", "114140.967500", "114142.457500", "114143.947500", "114145.437500", "114146.927500", "114148.417500", "114149.907500", "114151.397500", "114152.887500", "114154.377500", "114155.867500", "114157.357500", "114158.847500", "114200.337500", "114201.827500", "114203.317500", "114204.807500", "114206.297500", "114207.787500", "114209.277500", "114210.767500", "114212.257500", "114213.747500", "114215.237500", "114216.727500", "114218.217500", "114219.707500", "114221.197500", "114222.687500", "114224.177500", "114225.667500", "114227.157500", "114228.647500", "114230.137500", "114231.627500", "114233.117500", "114234.607500", "114236.097500", "114237.587500", "114239.077500", "114240.567500", "114242.057500", "114243.547500", "114245.037500", "114246.527500", "114248.017500", "114249.507500", "114250.997500", "114252.487500", "114253.977500", "114255.467500", "114256.957500", "114258.447500", "114259.937500", "114301.427500", "114302.917500", "114304.407500", "114305.897500", "114307.387500", "114308.877500", "114310.367500", "114311.857500", "114313.347500", "114314.837500", "114316.327500", "114317.817500", "114319.307500", "114320.797500", "114322.287500", "114323.777500", "114325.267500", "114326.757500", "114328.247500", "114329.737500", "114331.227500", "114332.717500", "114334.207500", "114335.697500", "114337.187500", "114338.677500", "114340.167500", "114341.657500", "114343.147500", "114344.637500", "114346.127500", "114347.617500", "114349.107500", "114350.597500", "114352.087500", "114353.577500", "114355.067500", "114356.557500", "114358.047500", "114359.537500", "114401.027500", "114402.517500", "114404.007500", "114405.497500", "114406.987500", "114408.477500", "114409.967500", "114411.457500", "114412.947500", "114414.437500", "114415.927500", "114417.417500", "114418.907500", "114420.397500", "114421.887500", "114423.377500", "114424.867500", "114426.357500", "114427.847500", "114429.337500", "114430.827500", "114432.317500", "114433.807500", "114435.297500", "114436.787500", "114438.277500", "114439.767500", "114441.257500", "114442.747500", "114444.237500", "114445.727500", "114447.217500", "114448.707500", "114450.197500", "114451.687500", "114453.177500", "114454.667500", "114456.157500", "114457.647500", "114459.137500", "114500.627500", "114502.117500", "114503.607500", "114505.097500", "114506.587500", "114508.077500", "114509.567500", "114511.057500", "114512.547500", "114514.037500", "114515.527500", "114517.017500", "114518.507500", "114519.997500", "114521.487500", "114522.977500", "114524.467500", "114525.957500", "114527.447500", "114528.937500", "114530.427500", "114531.917500", "114533.407500", "114534.897500", "114536.387500"],
      "ContentTime": ["113854.292000", "113854.295000", "113854.297000", "113854.300000", "113854.302000", "113854.305000", "113854.307000", "113854.310000", "113854.312000", "113854.315000", "113854.317000", "113854.320000", "113854.322000", "113854.325000", "113854.327000", "113854.330000", "113854.332000", "113854.335000", "113854.337000", "113854.340000", "113854.342000", "113854.345000", "113854.347000", "113854.356000", "113854.359000", "113854.361000", "113854.364000", "113854.367000", "113914.226000", "113914.229000", "113914.232000", "113914.234000", "113914.237000", "113914.239000", "113914.242000", "113914.244000", "113914.247000", "113914.249000", "113914.252000", "113914.254000", "113914.257000", "113914.259000", "113914.262000", "113914.264000", "113914.267000", "113914.269000", "113914.272000", "113914.274000", "113934.225000", "113934.228000", "113934.230000", "113934.233000", "113934.236000", "113934.238000", "113934.240000", "113934.243000", "113934.245000", "113934.248000", "113934.250000", "113934.253000", "113934.255000", "113934.258000", "113934.260000", "113934.263000", "113934.265000", "113934.268000", "113934.270000", "113934.273000", "113954.219000", "113954.221000", "113954.224000", "113954.227000", "113954.229000", "113954.232000", "113954.234000", "113954.237000", "113954.239000", "113954.241000", "113954.251000", "113954.253000", "113954.256000", "113954.258000", "113954.261000", "113954.263000", "113954.266000", "113954.268000", "113954.271000", "113954.273000", "113954.276000", "114034.256000", "114034.259000", "114034.262000", "114034.264000", "114034.267000", "114034.269000", "114034.272000", "114034.274000", "114034.277000", "114034.279000", "114034.282000", "114034.284000", "114034.287000", "114034.289000", "114034.292000", "114034.294000", "114034.297000", "114034.299000", "114034.302000", "114034.304000", "114034.307000", "114034.309000", "114034.312000", "114034.315000", "114034.318000", "114034.320000", "114034.323000", "114114.267000", "114114.270000", "114114.272000", "114114.275000", "114114.278000", "114114.280000", "114114.283000", "114114.285000", "114114.288000", "114114.290000", "114114.293000", "114114.295000", "114114.298000", "114114.300000", "114114.303000", "114114.305000", "114114.308000", "114114.310000", "114114.313000", "114114.315000", "114114.318000", "114114.320000", "114114.323000", "114114.325000", "114114.328000", "114114.330000", "114114.333000", "114154.255000", "114154.258000", "114154.260000", "114154.263000", "114154.265000", "114154.268000", "114154.270000", "114154.273000", "114154.275000", "114154.278000", "114154.280000", "114154.283000", "114154.285000", "114154.288000", "114154.290000", "114154.293000", "114154.295000", "114154.298000", "114154.300000", "114154.303000", "114154.305000", "114154.308000", "114154.310000", "114154.313000", "114154.315000", "114154.318000", "114154.320000", "114234.248000", "114234.250000", "114234.253000", "114234.255000", "114234.258000", "114234.261000", "114234.263000", "114234.266000", "114234.268000", "114234.271000", "114234.273000", "114234.276000", "114234.278000", "114234.281000", "114234.283000", "114234.285000", "114234.288000", "114234.291000", "114234.293000", "114234.295000", "114234.298000", "114234.301000", "114234.303000", "114234.305000", "114234.308000", "114234.310000", "114234.313000", "114314.255000", "114314.258000", "114314.260000", "114314.263000", "114314.265000", "114314.268000", "114314.271000", "114314.273000", "114314.276000", "114314.278000", "114314.281000", "114314.283000", "114314.285000", "114314.288000", "114314.291000", "114314.293000", "114314.295000", "114314.298000", "114314.301000", "114314.303000", "114314.306000", "114314.308000", "114314.311000", "114314.313000", "114314.316000", "114314.318000", "114314.321000", "114354.240000", "114354.243000", "114354.246000", "114354.248000", "114354.251000", "114354.253000", "114354.256000", "114354.258000", "114354.261000", "114354.263000", "114354.266000", "114354.268000", "114354.271000", "114354.273000", "114354.276000", "114354.278000", "114354.281000", "114354.283000", "114354.286000", "114354.288000", "114354.291000", "114354.293000", "114354.296000", "114354.298000", "114354.301000", "114354.303000", "114354.306000", "114434.865000", "114434.868000", "114434.870000", "114434.873000", "114434.875000", "114434.878000", "114434.881000", "114434.883000", "114434.886000", "114434.888000", "114434.890000", "114434.893000", "114434.896000", "114434.898000", "114434.901000", "114434.903000", "114434.906000", "114434.908000", "114434.911000", "114434.913000", "114434.916000", "114434.924000", "114434.926000", "114434.929000", "114434.931000", "114434.934000", "114514.264000", "114514.267000", "114514.269000", "114514.272000", "114514.274000", "114514.277000", "114514.280000", "114514.282000", "114514.285000", "114514.287000", "114514.290000", "114514.293000", "114514.295000", "114514.298000", "114514.300000", "114514.303000", "114514.305000", "114514.308000", "114514.311000", "114514.314000", "114514.316000", "114514.319000", "114514.321000", "114514.324000", "114514.327000", "114514.329000", "114514.332000", "114539.704000", "114539.706000", "114539.709000", "114539.711000", "114539.714000", "114539.716000", "114539.719000", "114539.722000", "114539.724000", "114539.726000", "114539.729000", "114539.732000", "114539.734000", "114539.737000", "114539.739000", "114539.742000", "114539.744000"],
      "InstanceCreationTime": ["113854.292000", "113854.295000", "113854.297000", "113854.300000", "113854.302000", "113854.305000", "113854.307000", "113854.310000", "113854.312000", "113854.315000", "113854.317000", "113854.320000", "113854.322000", "113854.325000", "113854.327000", "113854.330000", "113854.332000", "113854.335000", "113854.337000", "113854.340000", "113854.342000", "113854.345000", "113854.347000", "113854.356000", "113854.359000", "113854.361000", "113854.364000", "113854.367000", "113914.226000", "113914.229000", "113914.232000", "113914.234000", "113914.237000", "113914.239000", "113914.242000", "113914.244000", "113914.247000", "113914.249000", "113914.252000", "113914.254000", "113914.257000", "113914.259000", "113914.262000", "113914.264000", "113914.267000", "113914.269000", "113914.272000", "113914.274000", "113934.225000", "113934.228000", "113934.230000", "113934.233000", "113934.236000", "113934.238000", "113934.240000", "113934.243000", "113934.245000", "113934.248000", "113934.250000", "113934.253000", "113934.255000", "113934.258000", "113934.260000", "113934.263000", "113934.265000", "113934.268000", "113934.270000", "113934.273000", "113954.219000", "113954.221000", "113954.224000", "113954.227000", "113954.229000", "113954.232000", "113954.234000", "113954.237000", "113954.239000", "113954.241000", "113954.251000", "113954.253000", "113954.256000", "113954.258000", "113954.261000", "113954.263000", "113954.266000", "113954.268000", "113954.271000", "113954.273000", "113954.276000", "114034.256000", "114034.259000", "114034.262000", "114034.264000", "114034.267000", "114034.269000", "114034.272000", "114034.274000", "114034.277000", "114034.279000", "114034.282000", "114034.284000", "114034.287000", "114034.289000", "114034.292000", "114034.294000", "114034.297000", "114034.299000", "114034.302000", "114034.304000", "114034.307000", "114034.309000", "114034.312000", "114034.315000", "114034.318000", "114034.320000", "114034.323000", "114114.267000", "114114.270000", "114114.272000", "114114.275000", "114114.278000", "114114.280000", "114114.283000", "114114.285000", "114114.288000", "114114.290000", "114114.293000", "114114.295000", "114114.298000", "114114.300000", "114114.303000", "114114.305000", "114114.308000", "114114.310000", "114114.313000", "114114.315000", "114114.318000", "114114.320000", "114114.323000", "114114.325000", "114114.328000", "114114.330000", "114114.333000", "114154.255000", "114154.258000", "114154.260000", "114154.263000", "114154.265000", "114154.268000", "114154.270000", "114154.273000", "114154.275000", "114154.278000", "114154.280000", "114154.283000", "114154.285000", "114154.288000", "114154.290000", "114154.293000", "114154.295000", "114154.298000", "114154.300000", "114154.303000", "114154.305000", "114154.308000", "114154.310000", "114154.313000", "114154.315000", "114154.318000", "114154.320000", "114234.248000", "114234.250000", "114234.253000", "114234.255000", "114234.258000", "114234.261000", "114234.263000", "114234.266000", "114234.268000", "114234.271000", "114234.273000", "114234.276000", "114234.278000", "114234.281000", "114234.283000", "114234.285000", "114234.288000", "114234.291000", "114234.293000", "114234.295000", "114234.298000", "114234.301000", "114234.303000", "114234.305000", "114234.308000", "114234.310000", "114234.313000", "114314.255000", "114314.258000", "114314.260000", "114314.263000", "114314.265000", "114314.268000", "114314.271000", "114314.273000", "114314.276000", "114314.278000", "114314.281000", "114314.283000", "114314.285000", "114314.288000", "114314.291000", "114314.293000", "114314.295000", "114314.298000", "114314.301000", "114314.303000", "114314.306000", "114314.308000", "114314.311000", "114314.313000", "114314.316000", "114314.318000", "114314.321000", "114354.240000", "114354.243000", "114354.246000", "114354.248000", "114354.251000", "114354.253000", "114354.256000", "114354.258000", "114354.261000", "114354.263000", "114354.266000", "114354.268000", "114354.271000", "114354.273000", "114354.276000", "114354.278000", "114354.281000", "114354.283000", "114354.286000", "114354.288000", "114354.291000", "114354.293000", "114354.296000", "114354.298000", "114354.301000", "114354.303000", "114354.306000", "114434.865000", "114434.868000", "114434.870000", "114434.873000", "114434.875000", "114434.878000", "114434.881000", "114434.883000", "114434.886000", "114434.888000", "114434.890000", "114434.893000", "114434.896000", "114434.898000", "114434.901000", "114434.903000", "114434.906000", "114434.908000", "114434.911000", "114434.913000", "114434.916000", "114434.924000", "114434.926000", "114434.929000", "114434.931000", "114434.934000", "114514.264000", "114514.267000", "114514.269000", "114514.272000", "114514.274000", "114514.277000", "114514.280000", "114514.282000", "114514.285000", "114514.287000", "114514.290000", "114514.293000", "114514.295000", "114514.298000", "114514.300000", "114514.303000", "114514.305000", "114514.308000", "114514.311000", "114514.314000", "114514.316000", "114514.319000", "114514.321000", "114514.324000", "114514.327000", "114514.329000", "114514.332000", "114539.704000", "114539.706000", "114539.709000", "114539.711000", "114539.714000", "114539.716000", "114539.719000", "114539.722000", "114539.724000", "114539.726000", "114539.729000", "114539.732000", "114539.734000", "114539.737000", "114539.739000", "114539.742000", "114539.744000"],
      "InstanceNumber": [1, 2, 3, 4, 5, 6, 7, 8, 9, 10, 11, 12, 13, 14, 15, 16, 17, 18, 19, 20, 21, 22, 23, 24, 25, 26, 27, 28, 29, 30, 31, 32, 33, 34, 35, 36, 37, 38, 39, 40, 41, 42, 43, 44, 45, 46, 47, 48, 49, 50, 51, 52, 53, 54, 55, 56, 57, 58, 59, 60, 61, 62, 63, 64, 65, 66, 67, 68, 69, 70, 71, 72, 73, 74, 75, 76, 77, 78, 79, 80, 81, 82, 83, 84, 85, 86, 87, 88, 89, 90, 91, 92, 93, 94, 95, 96, 97, 98, 99, 100, 101, 102, 103, 104, 105, 106, 107, 108, 109, 110, 111, 112, 113, 114, 115, 116, 117, 118, 119, 120, 121, 122, 123, 124, 125, 126, 127, 128, 129, 130, 131, 132, 133, 134, 135, 136, 137, 138, 139, 140, 141, 142, 143, 144, 145, 146, 147, 148, 149, 150, 151, 152, 153, 154, 155, 156, 157, 158, 159, 160, 161, 162, 163, 164, 165, 166, 167, 168, 169, 170, 171, 172, 173, 174, 175, 176, 177, 178, 179, 180, 181, 182, 183, 184, 185, 186, 187, 188, 189, 190, 191, 192, 193, 194, 195, 196, 197, 198, 199, 200, 201, 202, 203, 204, 205, 206, 207, 208, 209, 210, 211, 212, 213, 214, 215, 216, 217, 218, 219, 220, 221, 222, 223, 224, 225, 226, 227, 228, 229, 230, 231, 232, 233, 234, 235, 236, 237, 238, 239, 240, 241, 242, 243, 244, 245, 246, 247, 248, 249, 250, 251, 252, 253, 254, 255, 256, 257, 258, 259, 260, 261, 262, 263, 264, 265, 266, 267, 268, 269, 270, 271, 272, 273, 274, 275, 276, 277, 278, 279, 280, 281, 282, 283, 284, 285, 286, 287, 288, 289, 290, 291, 292, 293, 294, 295, 296, 297, 298, 299, 300, 301, 302, 303, 304, 305, 306, 307, 308, 309, 310, 311, 312, 313, 314, 315, 316, 317, 318, 319, 320, 321],
      "WindowCenter": [4790.0, 4826.0, 4798.0, 4758.0, 4784.0, 4786.0, 4786.0, 4790.0, 4786.0, 4792.0, 4794.0, 4798.0, 4794.0, 4792.0, 4792.0, 4786.0, 4788.0, 4776.0, 4782.0, 4798.0, 4792.0, 4824.0, 4792.0, 4796.0, 4788.0, 4754.0, 4750.0, 4756.0, 4782.0, 4760.0, 4794.0, 4794.0, 4766.0, 4794.0, 4766.0, 4764.0, 4760.0, 4822.0, 4860.0, 4794.0, 4756.0, 4776.0, 4802.0, 4780.0, 4758.0, 4788.0, 4826.0, 4854.0, 4826.0, 4796.0, 4786.0, 4782.0, 4782.0, 4784.0, 4782.0, 4784.0, 4788.0, 4826.0, 4822.0, 4796.0, 4824.0, 4790.0, 4782.0, 4788.0, 4788.0, 4790.0, 4782.0, 4786.0, 4788.0, 4788.0, 4816.0, 4792.0, 4792.0, 4788.0, 4788.0, 4788.0, 4786.0, 4790.0, 4760.0, 4790.0, 4790.0, 4800.0, 4786.0, 4792.0, 4778.0, 4784.0, 4756.0, 4784.0, 4784.0, 4792.0, 4792.0, 4794.0, 4790.0, 4790.0, 4788.0, 4764.0, 4786.0, 4784.0, 4760.0, 4750.0, 4792.0, 4796.0, 4800.0, 4786.0, 4790.0, 4764.0, 4758.0, 4760.0, 4754.0, 4762.0, 4760.0, 4786.0, 4788.0, 4796.0, 4796.0, 4792.0, 4762.0, 4762.0, 4756.0, 4760.0, 4790.0, 4766.0, 4786.0, 4790.0, 4760.0, 4786.0, 4786.0, 4762.0, 4764.0, 4762.0, 4760.0, 4758.0, 4754.0, 4782.0, 4788.0, 4798.0, 4828.0, 4796.0, 4798.0, 4788.0, 4762.0, 4784.0, 4784.0, 4784.0, 4786.0, 4788.0, 4790.0, 4788.0, 4792.0, 4762.0, 4796.0, 4796.0, 4796.0, 4790.0, 4792.0, 4792.0, 4796.0, 4796.0, 4798.0, 4796.0, 4796.0, 4792.0, 4752.0, 4762.0, 4788.0, 4794.0, 4798.0, 4822.0, 4794.0, 4788.0, 4786.0, 4762.0, 4758.0, 4784.0, 4760.0, 4766.0, 4790.0, 4766.0, 4798.0, 4800.0, 4796.0, 4796.0, 4790.0, 4756.0, 4762.0, 4782.0, 4776.0, 4784.0, 4788.0, 4786.0, 4796.0, 4794.0, 4798.0, 4764.0, 4764.0, 4756.0, 4782.0, 4760.0, 4856.0, 4858.0, 4790.0, 4778.0, 4802.0, 4806.0, 4774.0, 4758.0, 4792.0, 4856.0, 4860.0, 4836.0, 4796.0, 4752.0, 4750.0, 4772.0, 4750.0, 4748.0, 4756.0, 4792.0, 4828.0, 4830.0, 4828.0, 4856.0, 4828.0, 4792.0, 4792.0, 4786.0, 4808.0, 4806.0, 4776.0, 4788.0, 4828.0, 4826.0, 4858.0, 4880.0, 4828.0, 4756.0, 4778.0, 4804.0, 4802.0, 4752.0, 4784.0, 4796.0, 4826.0, 4832.0, 4830.0, 4798.0, 4788.0, 4756.0, 4758.0, 4750.0, 4752.0, 4758.0, 4794.0, 4794.0, 4828.0, 4796.0, 4784.0, 4780.0, 4756.0, 4750.0, 4788.0, 4788.0, 4818.0, 4858.0, 4826.0, 4754.0, 4750.0, 4774.0, 4772.0, 4754.0, 4760.0, 4794.0, 4826.0, 4826.0, 4828.0, 4826.0, 4792.0, 4790.0, 4760.0, 4786.0, 4786.0, 4754.0, 4756.0, 4778.0, 4792.0, 4788.0, 4798.0, 4822.0, 4820.0, 4790.0, 4756.0, 4790.0, 4788.0, 4758.0, 4756.0, 4790.0, 4788.0, 4820.0, 4822.0, 4798.0, 4790.0, 4760.0, 4756.0, 4776.0, 4762.0, 4784.0, 4794.0, 4798.0, 4822.0, 4796.0, 4788.0, 4782.0, 4754.0, 4784.0, 4822.0, 4792.0, 4760.0, 4792.0, 4786.0, 4786.0, 4794.0],
