{
  "AcquisitionMatrixPE": 104,
  "AcquisitionNumber": 1,
  "AcquisitionTime": "14:18:22.805000",
  "BandwidthPerPixelPhaseEncode": 17.17,
  "BaseResolution": 104,
  "BodyPartExamined": "BRAIN",
  "CoilCombinationMethod": "Sum of Squares",
  "ConsistencyInfo": "N4_VE11C_LATEST_20160120",
  "ConversionSoftware": "dcm2niix",
  "ConversionSoftwareVersion": "v1.0.20220505",
  "DerivedVendorReportedEchoSpacing": 0.000560011,
  "DeviceSerialNumber": "167006",
  "DwellTime": 2.1e-06,
  "EchoTime": 0.037,
  "EchoTime1": 0.037,
  "EchoTime2": 0.001,
  "EchoTrainLength": 104,
  "EffectiveEchoSpacing": 0.000560011,
  "FlipAngle": 52,
  "HeudiconvVersion": "0.5.3.post811+g6206e14",
  "ImageComments": "Unaliased MB4/PE3/LB",
  "ImageOrientationPatientDICOM": [0.999869, 0.00314417, 0.0158808, 0.00157059, 0.957492, -0.288455],
  "ImageOrientationText": "Tra>Cor(-16.8)>Sag(0.9)",
  "ImageType": [
    "ORIGINAL",
    "PRIMARY",
    "P",
    "MB",
    "ND",
    "MOSAIC",
    "PHASE"
],
  "ImagingFrequency": 123.26,
  "InPlanePhaseEncodingDirectionDICOM": "COL",
  "InstitutionAddress": "Chemin Queen-Mary 4565,Montreal,District,CA,H3W 1W5",
  "InstitutionName": "IUGM",
  "InstitutionalDepartmentName": "Department",
  "MRAcquisitionType": "2D",
  "MagneticFieldStrength": 3,
  "Manufacturer": "Siemens",
  "ManufacturersModelName": "Prisma_fit",
  "MatrixCoilMode": "SENSE",
  "Modality": "MR",
  "MultibandAccelerationFactor": 4,
  "PartialFourier": 1,
  "PatientPosition": "HFS",
  "PercentPhaseFOV": 100,
  "PercentSampling": 100,
  "PhaseEncodingDirection": "j",
  "PhaseEncodingSteps": 104,
  "PhaseResolution": 1,
  "PixelBandwidth": 2290,
  "ProcedureStepDescription": "games^mario3",
  "ProtocolName": "func_task-mario3_run-03",
  "PulseSequenceDetails": "%CustomerSeq%\\cmrr_mbep2d_bold",
  "ReceiveCoilActiveElements": "HC1-7;NC1,2",
  "ReceiveCoilName": "HeadNeck_64",
  "ReconMatrixPE": 104,
  "RepetitionTime": 1.49,
  "SAR": 0.0793077,
  "ScanOptions": "FS",
  "ScanningSequence": "EP",
  "SequenceName": "epfid2d1_104",
  "SequenceVariant": "SK\\SS",
  "SeriesDescription": "func_task-mario3_run-03",
  "SeriesNumber": 17,
  "ShimSetting": [619, -7216, -8762, 695, 68, 0, 8, -6],
  "SliceThickness": 2,
  "SliceTiming": [0, 0.7825, 0.0975, 0.88, 0.195, 0.9775, 0.2925, 1.0775, 0.39, 1.175, 0.4875, 1.2725, 0.5875, 1.37, 0.685, 0, 0.7825, 0.0975, 0.88, 0.195, 0.9775, 0.2925, 1.0775, 0.39, 1.175, 0.4875, 1.2725, 0.5875, 1.37, 0.685, 0, 0.7825, 0.0975, 0.88, 0.195, 0.9775, 0.2925, 1.0775, 0.39, 1.175, 0.4875, 1.2725, 0.5875, 1.37, 0.685, 0, 0.7825, 0.0975, 0.88, 0.195, 0.9775, 0.2925, 1.0775, 0.39, 1.175, 0.4875, 1.2725, 0.5875, 1.37, 0.685],
  "SoftwareVersions": "syngo MR E11",
  "SpacingBetweenSlices": 2,
  "StationName": "MRC35049",
  "TaskName": "mario3",
  "TotalReadoutTime": 0.0576811,
  "TxRefAmp": 255.562,
  "WipMemBlock": "4fa24ce1-bc41-4fac-a927-9a11d2cb2832||Sequence: R017 ve11c/master r/75a17815+; Jun 28 2022 16:32:11 by eja",
  "dcmmeta_affine": [
    [-1.9997378587722778, 0.0031411864329129457, 0.03222541883587837, 107.9058837890625],
    [-0.006288336589932442, 1.9149842262268066, -0.5768845677375793, -71.37073516845703],
    [0.03176163509488106, 0.5769103169441223, 1.9147233963012695, -59.30125427246094],
    [0.0, 0.0, 0.0, 1.0]
],
  "dcmmeta_reorient_transform": [
    [0.0, -1.0, 0.0, 103.0],
    [1.0, 0.0, 0.0, 0.0],
    [0.0, 0.0, 1.0, 0.0],
    [0.0, 0.0, 0.0, 1.0]
],
  "dcmmeta_shape": [104, 104, 60, 169],
  "dcmmeta_slice_dim": 2,
  "dcmmeta_version": 0.6,
  "global": {
    "const": {
      "AcquisitionMatrix": [104, 0, 0, 104],
      "AngioFlag": "N",
      "BitsAllocated": 16,
      "BitsStored": 16,
      "BodyPartExamined": "BRAIN",
      "Columns": 832,
      "EchoNumbers": 1,
      "EchoTime": 37.0,
      "EchoTrainLength": 104,
      "FlipAngle": 52.0,
      "HighBit": 15,
      "ImageOrientationPatient": [0.99986894832329, 0.00314416839984, 0.01588081811332, 0.00157059317424, 0.95749211917111, -0.2884551524281],
      "ImagePositionPatient": [-837.27741139368, -825.21585816272, 198.55462370726],
      "ImageType": [
        "ORIGINAL",
        "PRIMARY",
        "P",
        "MB",
        "ND",
        "MOSAIC"
],
      "ImagedNucleus": "1H",
      "ImagingFrequency": 123.260331,
      "InPlanePhaseEncodingDirection": "COL",
      "LargestImagePixelValue": 4095,
      "MRAcquisitionType": "2D",
      "MagneticFieldStrength": 3.0,
      "Manufacturer": "SIEMENS",
      "ManufacturerModelName": "Prisma_fit",
      "Modality": "MR",
      "NumberOfAverages": 1.0,
      "NumberOfPhaseEncodingSteps": 104,
      "PercentPhaseFieldOfView": 100.0,
      "PercentSampling": 100.0,
      "PerformedProcedureStepStartTime": "135253.777000",
      "PhotometricInterpretation": "MONOCHROME2",
      "PixelBandwidth": 2290.0,
      "PixelRepresentation": 0,
      "PixelSpacing": [2.0, 2.0],
      "ProtocolName": "func_task-mario3_run-03",
      "RepetitionTime": 1490.0,
      "RescaleIntercept": -4096.0,
      "RescaleSlope": 2.0,
      "RescaleType": "US",
      "Rows": 832,
      "SAR": 0.07930766558407,
      "SamplesPerPixel": 1,
      "ScanOptions": "FS",
      "ScanningSequence": "EP",
      "SequenceName": "epfid2d1_104",
      "SequenceVariant": [
        "SK",
        "SS"
],
      "SeriesDescription": "func_task-mario3_run-03",
      "SeriesNumber": 17,
      "SeriesTime": "141919.719000",
      "SliceLocation": -34.447753669054,
      "SliceThickness": 2.0,
      "SmallestImagePixelValue": 0,
      "SoftwareVersions": "syngo MR E11",
      "SpacingBetweenSlices": 1.9999999525409,
      "SpecificCharacterSet": "ISO_IR 100",
      "StudyID": "1",
      "StudyTime": "135253.684000",
      "TransmitCoilName": "Body",
      "VariableFlipAngleFlag": "N",
      "WindowCenterWidthExplanation": "Algo1",
      "dBdt": 0.0},
    "slices": {}
  },
  "time": {
    "samples": {
      "AcquisitionNumber": [1, 2, 3, 4, 5, 6, 7, 8, 9, 10, 11, 12, 13, 14, 15, 16, 17, 18, 19, 20, 21, 22, 23, 24, 25, 26, 27, 28, 29, 30, 31, 32, 33, 34, 35, 36, 37, 38, 39, 40, 41, 42, 43, 44, 45, 46, 47, 48, 49, 50, 51, 52, 53, 54, 55, 56, 57, 58, 59, 60, 61, 62, 63, 64, 65, 66, 67, 68, 69, 70, 71, 72, 73, 74, 75, 76, 77, 78, 79, 80, 81, 82, 83, 84, 85, 86, 87, 88, 89, 90, 91, 92, 93, 94, 95, 96, 97, 98, 99, 100, 101, 102, 103, 104, 105, 106, 107, 108, 109, 110, 111, 112, 113, 114, 115, 116, 117, 118, 119, 120, 121, 122, 123, 124, 125, 126, 127, 128, 129, 130, 131, 132, 133, 134, 135, 136, 137, 138, 139, 140, 141, 142, 143, 144, 145, 146, 147, 148, 149, 150, 151, 152, 153, 154, 155, 156, 157, 158, 159, 160, 161, 162, 163, 164, 165, 166, 167, 168, 169],
      "AcquisitionTime": ["141822.805000", "141824.295000", "141825.785000", "141827.275000", "141828.765000", "141830.255000", "141831.745000", "141833.235000", "141834.725000", "141836.215000", "141837.705000", "141839.195000", "141840.685000", "141842.175000", "141843.665000", "141845.155000", "141846.645000", "141848.135000", "141849.625000", "141851.115000", "141852.605000", "141854.095000", "141855.585000", "141857.075000", "141858.565000", "141900.055000", "141901.545000", "141903.035000", "141904.525000", "141906.015000", "141907.505000", "141908.995000", "141910.485000", "141911.975000", "141913.465000", "141914.955000", "141916.445000", "141917.935000", "141919.425000", "141920.915000", "141922.405000", "141923.895000", "141925.385000", "141926.875000", "141928.365000", "141929.855000", "141931.345000", "141932.835000", "141934.325000", "141935.815000", "141937.305000", "141938.795000", "141940.285000", "141941.775000", "141943.265000", "141944.755000", "141946.245000", "141947.735000", "141949.225000", "141950.715000", "141952.205000", "141953.695000", "141955.185000", "141956.675000", "141958.165000", "141959.655000", "142001.145000", "142002.635000", "142004.125000", "142005.615000", "142007.105000", "142008.595000", "142010.085000", "142011.575000", "142013.065000", "142014.555000", "142016.045000", "142017.535000", "142019.025000", "142020.515000", "142022.005000", "142023.495000", "142024.985000", "142026.475000", "142027.965000", "142029.455000", "142030.945000", "142032.435000", "142033.925000", "142035.415000", "142036.905000", "142038.395000", "142039.885000", "142041.375000", "142042.865000", "142044.355000", "142045.845000", "142047.335000", "142048.825000", "142050.315000", "142051.805000", "142053.295000", "142054.785000", "142056.275000", "142057.765000", "142059.255000", "142100.745000", "142102.235000", "142103.725000", "142105.215000", "142106.705000", "142108.195000", "142109.685000", "142111.175000", "142112.665000", "142114.155000", "142115.645000", "142117.135000", "142118.625000", "142120.115000", "142121.605000", "142123.095000", "142124.585000", "142126.075000", "142127.565000", "142129.055000", "142130.545000", "142132.035000", "142133.525000", "142135.015000", "142136.505000", "142137.995000", "142139.485000", "142140.975000", "142142.465000", "142143.955000", "142145.445000", "142146.935000", "142148.425000", "142149.915000", "142151.405000", "142152.895000", "142154.385000", "142155.875000", "142157.365000", "142158.855000", "142200.345000", "142201.835000", "142203.325000", "142204.815000", "142206.305000", "142207.795000", "142209.285000", "142210.775000", "142212.265000", "142213.755000", "142215.245000", "142216.735000", "142218.225000", "142219.715000", "142221.205000", "142222.695000", "142224.185000", "142225.675000", "142227.165000", "142228.655000", "142230.145000", "142231.635000", "142233.125000"],
      "ContentTime": ["141919.721000", "141919.724000", "141919.726000", "141919.733000", "141919.735000", "141919.738000", "141919.740000", "141939.748000", "141939.750000", "141939.753000", "141939.755000", "141939.758000", "141939.760000", "141939.763000", "141939.765000", "141939.768000", "141939.770000", "141939.773000", "141939.775000", "141939.778000", "141939.784000", "141939.787000", "141939.789000", "141939.791000", "141939.794000", "141939.796000", "141939.799000", "141959.741000", "141959.744000", "141959.746000", "141959.749000", "141959.757000", "141959.760000", "141959.762000", "141959.764000", "141959.767000", "141959.770000", "141959.772000", "141959.775000", "141959.777000", "141959.780000", "141959.791000", "141959.793000", "141959.796000", "141959.798000", "141959.808000", "141959.810000", "142019.814000", "142019.817000", "142019.819000", "142019.822000", "142019.833000", "142019.835000", "142019.837000", "142019.840000", "142019.842000", "142019.845000", "142019.848000", "142019.851000", "142019.854000", "142019.856000", "142019.859000", "142019.862000", "142019.864000", "142019.867000", "142019.869000", "142019.872000", "142039.739000", "142039.742000", "142039.744000", "142039.747000", "142039.749000", "142039.752000", "142039.754000", "142039.757000", "142039.759000", "142039.762000", "142039.764000", "142039.767000", "142039.769000", "142039.772000", "142039.780000", "142039.782000", "142039.785000", "142039.787000", "142039.790000", "142039.792000", "142119.787000", "142119.790000", "142119.793000", "142119.795000", "142119.798000", "142119.800000", "142119.803000", "142119.805000", "142119.808000", "142119.810000", "142119.813000", "142119.815000", "142119.818000", "142119.820000", "142119.822000", "142119.825000", "142119.827000", "142119.830000", "142119.832000", "142119.835000", "142119.837000", "142119.840000", "142119.842000", "142119.846000", "142119.848000", "142119.851000", "142119.853000", "142119.856000", "142119.858000", "142119.861000", "142119.863000", "142159.767000", "142159.770000", "142159.772000", "142159.775000", "142159.777000", "142159.780000", "142159.782000", "142159.785000", "142159.787000", "142159.790000", "142159.793000", "142159.795000", "142159.798000", "142159.800000", "142159.803000", "142159.805000", "142159.808000", "142159.810000", "142159.814000", "142159.817000", "142159.821000", "142159.823000", "142159.826000", "142159.829000", "142159.832000", "142159.835000", "142236.843000", "142236.845000", "142236.848000", "142236.850000", "142236.853000", "142236.855000", "142236.858000", "142236.860000", "142236.863000", "142236.865000", "142236.868000", "142236.870000", "142236.873000", "142236.875000", "142236.878000", "142236.880000", "142236.883000", "142236.885000", "142236.888000", "142236.890000", "142236.893000", "142236.895000", "142236.898000", "142236.900000", "142236.903000"],
      "InstanceCreationTime": ["141919.721000", "141919.724000", "141919.726000", "141919.733000", "141919.735000", "141919.738000", "141919.740000", "141939.748000", "141939.750000", "141939.753000", "141939.755000", "141939.758000", "141939.760000", "141939.763000", "141939.765000", "141939.768000", "141939.770000", "141939.773000", "141939.775000", "141939.778000", "141939.784000", "141939.787000", "141939.789000", "141939.791000", "141939.794000", "141939.796000", "141939.799000", "141959.741000", "141959.744000", "141959.746000", "141959.749000", "141959.757000", "141959.760000", "141959.762000", "141959.764000", "141959.767000", "141959.770000", "141959.772000", "141959.775000", "141959.777000", "141959.780000", "141959.791000", "141959.793000", "141959.796000", "141959.798000", "141959.808000", "141959.810000", "142019.814000", "142019.817000", "142019.819000", "142019.822000", "142019.833000", "142019.835000", "142019.837000", "142019.840000", "142019.842000", "142019.845000", "142019.848000", "142019.851000", "142019.854000", "142019.856000", "142019.859000", "142019.862000", "142019.864000", "142019.867000", "142019.869000", "142019.872000", "142039.739000", "142039.742000", "142039.744000", "142039.747000", "142039.749000", "142039.752000", "142039.754000", "142039.757000", "142039.759000", "142039.762000", "142039.764000", "142039.767000", "142039.769000", "142039.772000", "142039.780000", "142039.782000", "142039.785000", "142039.787000", "142039.790000", "142039.792000", "142119.787000", "142119.790000", "142119.793000", "142119.795000", "142119.798000", "142119.800000", "142119.803000", "142119.805000", "142119.808000", "142119.810000", "142119.813000", "142119.815000", "142119.818000", "142119.820000", "142119.822000", "142119.825000", "142119.827000", "142119.830000", "142119.832000", "142119.835000", "142119.837000", "142119.840000", "142119.842000", "142119.846000", "142119.848000", "142119.851000", "142119.853000", "142119.856000", "142119.858000", "142119.861000", "142119.863000", "142159.767000", "142159.770000", "142159.772000", "142159.775000", "142159.777000", "142159.780000", "142159.782000", "142159.785000", "142159.787000", "142159.790000", "142159.793000", "142159.795000", "142159.798000", "142159.800000", "142159.803000", "142159.805000", "142159.808000", "142159.810000", "142159.814000", "142159.817000", "142159.821000", "142159.823000", "142159.826000", "142159.829000", "142159.832000", "142159.835000", "142236.843000", "142236.845000", "142236.848000", "142236.850000", "142236.853000", "142236.855000", "142236.858000", "142236.860000", "142236.863000", "142236.865000", "142236.868000", "142236.870000", "142236.873000", "142236.875000", "142236.878000", "142236.880000", "142236.883000", "142236.885000", "142236.888000", "142236.890000", "142236.893000", "142236.895000", "142236.898000", "142236.900000", "142236.903000"],
      "InstanceNumber": [1, 2, 3, 4, 5, 6, 7, 8, 9, 10, 11, 12, 13, 14, 15, 16, 17, 18, 19, 20, 21, 22, 23, 24, 25, 26, 27, 28, 29, 30, 31, 32, 33, 34, 35, 36, 37, 38, 39, 40, 41, 42, 43, 44, 45, 46, 47, 48, 49, 50, 51, 52, 53, 54, 55, 56, 57, 58, 59, 60, 61, 62, 63, 64, 65, 66, 67, 68, 69, 70, 71, 72, 73, 74, 75, 76, 77, 78, 79, 80, 81, 82, 83, 84, 85, 86, 87, 88, 89, 90, 91, 92, 93, 94, 95, 96, 97, 98, 99, 100, 101, 102, 103, 104, 105, 106, 107, 108, 109, 110, 111, 112, 113, 114, 115, 116, 117, 118, 119, 120, 121, 122, 123, 124, 125, 126, 127, 128, 129, 130, 131, 132, 133, 134, 135, 136, 137, 138, 139, 140, 141, 142, 143, 144, 145, 146, 147, 148, 149, 150, 151, 152, 153, 154, 155, 156, 157, 158, 159, 160, 161, 162, 163, 164, 165, 166, 167, 168, 169],
      "WindowCenter": [4824.0, 4830.0, 4828.0, 4804.0, 4826.0, 4800.0, 4828.0, 4860.0, 4836.0, 4828.0, 4808.0, 4830.0, 4830.0, 4808.0, 4828.0, 4828.0, 4828.0, 4832.0, 4806.0, 4808.0, 4832.0, 4828.0, 4828.0, 4828.0, 4804.0, 4834.0, 4806.0, 4830.0, 4832.0, 4828.0, 4832.0, 4830.0, 4834.0, 4838.0, 4836.0, 4836.0, 4836.0, 4832.0, 4806.0, 4830.0, 4830.0, 4832.0, 4806.0, 4828.0, 4832.0, 4832.0, 4832.0, 4830.0, 4832.0, 4830.0, 4806.0, 4828.0, 4802.0, 4832.0, 4828.0, 4828.0, 4830.0, 4830.0, 4834.0, 4836.0, 4834.0, 4842.0, 4840.0, 4838.0, 4834.0, 4834.0, 4836.0, 4836.0, 4828.0, 4834.0, 4834.0, 4828.0, 4832.0, 4832.0, 4832.0, 4832.0, 4828.0, 4830.0, 4834.0, 4830.0, 4832.0, 4830.0, 4832.0, 4834.0, 4832.0, 4832.0, 4832.0, 4832.0, 4834.0, 4836.0, 4832.0, 4834.0, 4840.0, 4838.0, 4836.0, 4836.0, 4828.0, 4830.0, 4830.0, 4830.0, 4832.0, 4830.0, 4832.0, 4836.0, 4836.0, 4834.0, 4832.0, 4834.0, 4836.0, 4836.0, 4836.0, 4832.0, 4834.0, 4838.0, 4832.0, 4828.0, 4832.0, 4832.0, 4832.0, 4830.0, 4830.0, 4828.0, 4830.0, 4830.0, 4832.0, 4830.0, 4830.0, 4836.0, 4838.0, 4832.0, 4830.0, 4836.0, 4836.0, 4838.0, 4836.0, 4830.0, 4832.0, 4832.0, 4830.0, 4832.0, 4832.0, 4832.0, 4834.0, 4828.0, 4806.0, 4828.0, 4806.0, 4828.0, 4828.0, 4828.0, 4836.0, 4828.0, 4832.0, 4830.0, 4828.0, 4828.0, 4830.0, 4830.0, 4832.0, 4836.0, 4836.0, 4832.0, 4830.0, 4830.0, 4832.0, 4836.0, 4832.0, 4832.0, 4804.0],
      "WindowWidth": [18572.0, 18578.0, 18572.0, 18538.0, 18572.0, 18542.0, 18572.0, 18602.0, 18578.0, 18572.0, 18546.0, 18580.0, 18578.0, 18548.0, 18572.0, 18566.0, 18576.0, 18576.0, 18546.0, 18542.0, 18570.0, 18574.0, 18574.0, 18578.0, 18546.0, 18574.0, 18538.0, 18570.0, 18570.0, 18570.0, 18566.0, 18576.0, 18572.0, 18580.0, 18574.0, 18576.0, 18572.0, 18578.0, 18544.0, 18572.0, 18572.0, 18570.0, 18542.0, 18570.0, 18566.0, 18572.0, 18570.0, 18570.0, 18572.0, 18574.0, 18548.0, 18574.0, 18538.0, 18570.0, 18568.0, 18574.0, 18566.0, 18568.0, 18574.0, 18574.0, 18578.0, 18582.0, 18580.0, 18578.0, 18574.0, 18578.0, 18576.0, 18580.0, 18566.0, 18572.0, 18572.0, 18562.0, 18572.0, 18568.0, 18570.0, 18576.0, 18564.0, 18570.0, 18568.0, 18570.0, 18570.0, 18566.0, 18570.0, 18570.0, 18568.0, 18570.0, 18572.0, 18568.0, 18574.0, 18580.0, 18570.0, 18566.0, 18574.0, 18570.0, 18570.0, 18572.0, 18572.0, 18572.0, 18582.0, 18564.0, 18564.0, 18572.0, 18562.0, 18566.0, 18570.0, 18564.0, 18564.0, 18576.0, 18574.0, 18572.0, 18572.0, 18566.0, 18564.0, 18572.0, 18568.0, 18566.0, 18564.0, 18570.0, 18572.0, 18572.0, 18570.0, 18568.0, 18572.0, 18570.0, 18570.0, 18566.0, 18564.0, 18570.0, 18572.0, 18572.0, 18572.0, 18574.0, 18574.0, 18572.0, 18580.0, 18570.0, 18572.0, 18576.0, 18574.0, 18576.0, 18568.0, 18570.0, 18568.0, 18566.0, 18542.0, 18564.0, 18540.0, 18568.0, 18560.0, 18564.0, 18572.0, 18566.0, 18566.0, 18572.0, 18570.0, 18568.0, 18576.0, 18572.0, 18566.0, 18566.0, 18568.0, 18566.0, 18570.0, 18570.0, 18562.0, 18570.0, 18568.0, 18572.0, 18546.0]
    },
    "slices": {}
  }
}