{
  "AcquisitionMatrixPE": 104,
  "AcquisitionNumber": 1,
  "AcquisitionTime": "14:08:51.322500",
  "BandwidthPerPixelPhaseEncode": 17.17,
  "BaseResolution": 104,
  "BodyPartExamined": "BRAIN",
  "CoilCombinationMethod": "Sum of Squares",
  "ConsistencyInfo": "N4_VE11C_LATEST_20160120",
  "ConversionSoftware": "dcm2niix",
  "ConversionSoftwareVersion": "v1.0.20220505",
  "DerivedVendorReportedEchoSpacing": 0.000560011,
  "DeviceSerialNumber": "167006",
  "DwellTime": 2.1e-06,
  "EchoTime": 0.037,
  "EchoTrainLength": 104,
  "EffectiveEchoSpacing": 0.000560011,
  "FlipAngle": 52,
  "HeudiconvVersion": "0.5.3.post811+g6206e14",
  "ImageComments": "Unaliased MB4/PE3/LB",
  "ImageOrientationPatientDICOM": [0.999869, 0.00314417, 0.0158808, 0.00157059, 0.957492, -0.288455],
  "ImageOrientationText": "Tra>Cor(-16.8)>Sag(0.9)",
  "ImageType": [
    "ORIGINAL",
    "PRIMARY",
    "M",
    "MB",
    "ND",
    "MOSAIC"
],
  "ImagingFrequency": 123.26,
  "InPlanePhaseEncodingDirectionDICOM": "COL",
  "InstitutionAddress": "Chemin Queen-Mary 4565,Montreal,District,CA,H3W 1W5",
  "InstitutionName": "IUGM",
  "InstitutionalDepartmentName": "Department",
  "MRAcquisitionType": "2D",
  "MagneticFieldStrength": 3,
  "Manufacturer": "Siemens",
  "ManufacturersModelName": "Prisma_fit",
  "MatrixCoilMode": "SENSE",
  "Modality": "MR",
  "MultibandAccelerationFactor": 4,
  "PartialFourier": 1,
  "PatientPosition": "HFS",
  "PercentPhaseFOV": 100,
  "PercentSampling": 100,
  "PhaseEncodingDirection": "j",
  "PhaseEncodingSteps": 104,
  "PhaseResolution": 1,
  "PixelBandwidth": 2290,
  "ProcedureStepDescription": "games^mario3",
  "ProtocolName": "func_task-mario3_run-02",
  "PulseSequenceDetails": "%CustomerSeq%\\cmrr_mbep2d_bold",
  "ReceiveCoilActiveElements": "HC1-7;NC1,2",
  "ReceiveCoilName": "HeadNeck_64",
  "ReconMatrixPE": 104,
  "RepetitionTime": 1.49,
  "SAR": 0.0793077,
  "ScanOptions": "FS",
  "ScanningSequence": "EP",
  "SequenceName": "epfid2d1_104",
  "SequenceVariant": "SK\\SS",
  "SeriesDescription": "func_task-mario3_run-02",
  "SeriesNumber": 13,
  "ShimSetting": [619, -7216, -8762, 695, 68, 0, 8, -6],
  "SliceThickness": 2,
  "SliceTiming": [0, 0.7825, 0.0975, 0.88, 0.195, 0.98, 0.2925, 1.0775, 0.3925, 1.175, 0.49, 1.2725, 0.5875, 1.37, 0.685, 0, 0.7825, 0.0975, 0.88, 0.195, 0.98, 0.2925, 1.0775, 0.3925, 1.175, 0.49, 1.2725, 0.5875, 1.37, 0.685, 0, 0.7825, 0.0975, 0.88, 0.195, 0.98, 0.2925, 1.0775, 0.3925, 1.175, 0.49, 1.2725, 0.5875, 1.37, 0.685, 0, 0.7825, 0.0975, 0.88, 0.195, 0.98, 0.2925, 1.0775, 0.3925, 1.175, 0.49, 1.2725, 0.5875, 1.37, 0.685],
  "SoftwareVersions": "syngo MR E11",
  "SpacingBetweenSlices": 2,
  "StationName": "MRC35049",
  "TaskName": "mario3",
  "TotalReadoutTime": 0.0576811,
  "TxRefAmp": 255.562,
  "WipMemBlock": "49ca2dfa-5e79-4b8c-86c0-09e5abf0ce17||Sequence: R017 ve11c/master r/75a17815+; Jun 28 2022 16:32:11 by eja",
  "dcmmeta_affine": [
    [-1.9997378587722778, 0.0031411864329129457, 0.03222541883587837, 107.9058837890625],
    [-0.006288336589932442, 1.9149842262268066, -0.5768845677375793, -71.37073516845703],
    [0.03176163509488106, 0.5769103169441223, 1.9147233963012695, -59.30125427246094],
    [0.0, 0.0, 0.0, 1.0]
],
  "dcmmeta_reorient_transform": [
    [0.0, -1.0, 0.0, 103.0],
    [1.0, 0.0, 0.0, 0.0],
    [0.0, 0.0, 1.0, 0.0],
    [0.0, 0.0, 0.0, 1.0]
],
  "dcmmeta_shape": [104, 104, 60, 315],
  "dcmmeta_slice_dim": 2,
  "dcmmeta_version": 0.6,
  "global": {
    "const": {
      "AcquisitionMatrix": [104, 0, 0, 104],
      "AngioFlag": "N",
      "BitsAllocated": 16,
      "BitsStored": 16,
      "BodyPartExamined": "BRAIN",
      "Columns": 832,
      "EchoNumbers": 1,
      "EchoTime": 37.0,
      "EchoTrainLength": 104,
      "FlipAngle": 52.0,
      "HighBit": 15,
      "ImageOrientationPatient": [0.99986894832329, 0.00314416839984, 0.01588081811332, 0.00157059317424, 0.95749211917111, -0.2884551524281],
      "ImagePositionPatient": [-837.27741139368, -825.21585816272, 198.55462370726],
      "ImageType": [
        "ORIGINAL",
        "PRIMARY",
        "M",
        "MB",
        "ND",
        "MOSAIC"
],
      "ImagedNucleus": "1H",
      "ImagingFrequency": 123.260326,
      "InPlanePhaseEncodingDirection": "COL",
      "MRAcquisitionType": "2D",
      "MagneticFieldStrength": 3.0,
      "Manufacturer": "SIEMENS",
      "ManufacturerModelName": "Prisma_fit",
      "Modality": "MR",
      "NumberOfAverages": 1.0,
      "NumberOfPhaseEncodingSteps": 104,
      "PercentPhaseFieldOfView": 100.0,
      "PercentSampling": 100.0,
      "PerformedProcedureStepStartTime": "135253.777000",
      "PhotometricInterpretation": "MONOCHROME2",
      "PixelBandwidth": 2290.0,
      "PixelRepresentation": 0,
      "PixelSpacing": [2.0, 2.0],
      "ProtocolName": "func_task-mario3_run-02",
      "RepetitionTime": 1490.0,
      "Rows": 832,
      "SAR": 0.07930766558407,
      "SamplesPerPixel": 1,
      "ScanOptions": "FS",
      "ScanningSequence": "EP",
      "SequenceName": "epfid2d1_104",
      "SequenceVariant": [
        "SK",
        "SS"
],
      "SeriesDescription": "func_task-mario3_run-02",
      "SeriesNumber": 13,
      "SeriesTime": "140952.508000",
      "SliceLocation": -34.447753669054,
      "SliceThickness": 2.0,
      "SmallestImagePixelValue": 0,
      "SoftwareVersions": "syngo MR E11",
      "SpacingBetweenSlices": 1.9999999525409,
      "SpecificCharacterSet": "ISO_IR 100",
      "StudyID": "1",
      "StudyTime": "135253.684000",
      "TransmitCoilName": "Body",
      "VariableFlipAngleFlag": "N",
      "WindowCenterWidthExplanation": "Algo1",
      "dBdt": 0.0},
    "slices": {}
  },
  "time": {
    "samples": {
      "AcquisitionNumber": [1, 2, 3, 4, 5, 6, 7, 8, 9, 10, 11, 12, 13, 14, 15, 16, 17, 18, 19, 20, 21, 22, 23, 24, 25, 26, 27, 28, 29, 30, 31, 32, 33, 34, 35, 36, 37, 38, 39, 40, 41, 42, 43, 44, 45, 46, 47, 48, 49, 50, 51, 52, 53, 54, 55, 56, 57, 58, 59, 60, 61, 62, 63, 64, 65, 66, 67, 68, 69, 70, 71, 72, 73, 74, 75, 76, 77, 78, 79, 80, 81, 82, 83, 84, 85, 86, 87, 88, 89, 90, 91, 92, 93, 94, 95, 96, 97, 98, 99, 100, 101, 102, 103, 104, 105, 106, 107, 108, 109, 110, 111, 112, 113, 114, 115, 116, 117, 118, 119, 120, 121, 122, 123, 124, 125, 126, 127, 128, 129, 130, 131, 132, 133, 134, 135, 136, 137, 138, 139, 140, 141, 142, 143, 144, 145, 146, 147, 148, 149, 150, 151, 152, 153, 154, 155, 156, 157, 158, 159, 160, 161, 162, 163, 164, 165, 166, 167, 168, 169, 170, 171, 172, 173, 174, 175, 176, 177, 178, 179, 180, 181, 182, 183, 184, 185, 186, 187, 188, 189, 190, 191, 192, 193, 194, 195, 196, 197, 198, 199, 200, 201, 202, 203, 204, 205, 206, 207, 208, 209, 210, 211, 212, 213, 214, 215, 216, 217, 218, 219, 220, 221, 222, 223, 224, 225, 226, 227, 228, 229, 230, 231, 232, 233, 234, 235, 236, 237, 238, 239, 240, 241, 242, 243, 244, 245, 246, 247, 248, 249, 250, 251, 252, 253, 254, 255, 256, 257, 258, 259, 260, 261, 262, 263, 264, 265, 266, 267, 268, 269, 270, 271, 272, 273, 274, 275, 276, 277, 278, 279, 280, 281, 282, 283, 284, 285, 286, 287, 288, 289, 290, 291, 292, 293, 294, 295, 296, 297, 298, 299, 300, 301, 302, 303, 304, 305, 306, 307, 308, 309, 310, 311, 312, 313, 314, 315],
      "AcquisitionTime": ["140851.322500", "140852.812500", "140854.302500", "140855.792500", "140857.282500", "140858.772500", "140900.262500", "140901.752500", "140903.242500", "140904.732500", "140906.222500", "140907.712500", "140909.202500", "140910.692500", "140912.182500", "140913.672500", "140915.162500", "140916.652500", "140918.142500", "140919.632500", "140921.122500", "140922.612500", "140924.102500", "140925.592500", "140927.082500", "140928.572500", "140930.062500", "140931.552500", "140933.042500", "140934.532500", "140936.022500", "140937.512500", "140939.002500", "140940.492500", "140941.982500", "140943.472500", "140944.962500", "140946.452500", "140947.942500", "140949.432500", "140950.922500", "140952.412500", "140953.902500", "140955.392500", "140956.882500", "140958.372500", "140959.862500", "141001.352500", "141002.842500", "141004.332500", "141005.822500", "141007.312500", "141008.802500", "141010.292500", "141011.782500", "141013.272500", "141014.762500", "141016.252500", "141017.742500", "141019.232500", "141020.722500", "141022.212500", "141023.702500", "141025.192500", "141026.682500", "141028.172500", "141029.662500", "141031.152500", "141032.642500", "141034.132500", "141035.622500", "141037.112500", "141038.602500", "141040.092500", "141041.582500", "141043.072500", "141044.562500", "141046.052500", "141047.542500", "141049.032500", "141050.522500", "141052.012500", "141053.502500", "141054.992500", "141056.482500", "141057.972500", "141059.462500", "141100.952500", "141102.442500", "141103.932500", "141105.422500", "141106.912500", "141108.402500", "141109.892500", "141111.382500", "141112.872500", "141114.362500", "141115.852500", "141117.342500", "141118.832500", "141120.322500", "141121.812500", "141123.302500", "141124.792500", "141126.282500", "141127.772500", "141129.262500", "141130.752500", "141132.242500", "141133.732500", "141135.222500", "141136.712500", "141138.202500", "141139.692500", "141141.182500", "141142.672500", "141144.162500", "141145.652500", "141147.142500", "141148.632500", "141150.122500", "141151.612500", "141153.102500", "141154.592500", "141156.082500", "141157.572500", "141159.062500", "141200.552500", "141202.042500", "141203.532500", "141205.022500", "141206.512500", "141208.002500", "141209.492500", "141210.982500", "141212.472500", "141213.962500", "141215.452500", "141216.942500", "141218.432500", "141219.922500", "141221.412500", "141222.902500", "141224.392500", "141225.882500", "141227.372500", "141228.862500", "141230.352500", "141231.842500", "141233.332500", "141234.822500", "141236.312500", "141237.802500", "141239.292500", "141240.782500", "141242.272500", "141243.762500", "141245.252500", "141246.742500", "141248.232500", "141249.722500", "141251.212500", "141252.702500", "141254.192500", "141255.682500", "141257.172500", "141258.662500", "141300.152500", "141301.642500", "141303.132500", "141304.622500", "141306.112500", "141307.602500", "141309.092500", "141310.582500", "141312.072500", "141313.562500", "141315.052500", "141316.542500", "141318.032500", "141319.522500", "141321.012500", "141322.502500", "141323.992500", "141325.482500", "141326.972500", "141328.462500", "141329.952500", "141331.442500", "141332.932500", "141334.422500", "141335.912500", "141337.402500", "141338.892500", "141340.382500", "141341.872500", "141343.362500", "141344.852500", "141346.342500", "141347.832500", "141349.322500", "141350.812500", "141352.302500", "141353.792500", "141355.282500", "141356.772500", "141358.262500", "141359.752500", "141401.242500", "141402.732500", "141404.222500", "141405.712500", "141407.202500", "141408.692500", "141410.182500", "141411.672500", "141413.162500", "141414.652500", "141416.142500", "141417.632500", "141419.122500", "141420.612500", "141422.102500", "141423.592500", "141425.082500", "141426.572500", "141428.062500", "141429.552500", "141431.042500", "141432.532500", "141434.022500", "141435.512500", "141437.002500", "141438.492500", "141439.982500", "141441.472500", "141442.962500", "141444.452500", "141445.942500", "141447.432500", "141448.922500", "141450.412500", "141451.902500", "141453.392500", "141454.882500", "141456.372500", "141457.862500", "141459.352500", "141500.842500", "141502.332500", "141503.822500", "141505.312500", "141506.802500", "141508.292500", "141509.782500", "141511.272500", "141512.762500", "141514.252500", "141515.742500", "141517.232500", "141518.722500", "141520.212500", "141521.702500", "141523.192500", "141524.682500", "141526.172500", "141527.662500", "141529.152500", "141530.642500", "141532.132500", "141533.622500", "141535.112500", "141536.602500", "141538.092500", "141539.582500", "141541.072500", "141542.562500", "141544.052500", "141545.542500", "141547.032500", "141548.522500", "141550.012500", "141551.502500", "141552.992500", "141554.482500", "141555.972500", "141557.462500", "141558.952500", "141600.442500", "141601.932500", "141603.422500", "141604.912500", "141606.402500", "141607.892500", "141609.382500", "141610.872500", "141612.362500", "141613.852500", "141615.342500", "141616.832500", "141618.322500", "141619.812500", "141621.302500", "141622.792500", "141624.282500", "141625.772500", "141627.262500", "141628.752500", "141630.242500", "141631.732500", "141633.222500", "141634.712500", "141636.202500", "141637.692500", "141639.182500"],
      "ContentTime": ["140952.511000", "140952.515000", "140952.518000", "140952.521000", "140952.525000", "140952.528000", "140952.531000", "140952.534000", "140952.538000", "140952.541000", "140952.544000", "141012.471000", "141012.475000", "141012.478000", "141012.481000", "141012.484000", "141012.488000", "141012.491000", "141012.500000", "141012.503000", "141012.506000", "141012.509000", "141012.512000", "141012.516000", "141012.519000", "141012.522000", "141012.526000", "141012.529000", "141012.532000", "141012.535000", "141012.539000", "141032.470000", "141032.474000", "141032.477000", "141032.480000", "141032.483000", "141032.487000", "141032.490000", "141032.493000", "141032.496000", "141032.499000", "141032.503000", "141032.506000", "141032.509000", "141032.512000", "141032.516000", "141032.519000", "141032.522000", "141032.525000", "141032.528000", "141032.532000", "141052.471000", "141052.475000", "141052.478000", "141052.481000", "141052.484000", "141052.487000", "141052.491000", "141052.494000", "141052.497000", "141052.500000", "141052.504000", "141052.507000", "141052.510000", "141052.513000", "141052.517000", "141052.520000", "141052.523000", "141052.526000", "141052.530000", "141052.533000", "141112.471000", "141112.475000", "141112.478000", "141112.481000", "141112.484000", "141112.488000", "141112.491000", "141112.494000", "141112.498000", "141112.501000", "141112.504000", "141112.508000", "141112.516000", "141112.521000", "141112.525000", "141112.529000", "141112.533000", "141112.536000", "141112.539000", "141112.553000", "141152.471000", "141152.475000", "141152.486000", "141152.489000", "141152.493000", "141152.496000", "141152.512000", "141152.516000", "141152.519000", "141152.522000", "141152.526000", "141152.529000", "141152.532000", "141152.535000", "141152.539000", "141152.542000", "141152.545000", "141152.548000", "141152.552000", "141152.555000", "141152.558000", "141152.561000", "141152.565000", "141152.568000", "141152.571000", "141152.574000", "141152.578000", "141152.581000", "141152.584000", "141152.588000", "141232.471000", "141232.475000", "141232.478000", "141232.481000", "141232.484000", "141232.488000", "141232.491000", "141232.494000", "141232.498000", "141232.501000", "141232.505000", "141232.508000", "141232.511000", "141232.514000", "141232.517000", "141232.521000", "141232.524000", "141232.527000", "141232.530000", "141232.534000", "141232.537000", "141232.540000", "141232.543000", "141232.547000", "141232.550000", "141232.553000", "141312.471000", "141312.475000", "141312.478000", "141312.481000", "141312.485000", "141312.488000", "141312.491000", "141312.494000", "141312.498000", "141312.501000", "141312.504000", "141312.518000", "141312.521000", "141312.524000", "141312.527000", "141312.530000", "141312.534000", "141312.537000", "141312.540000", "141312.543000", "141312.547000", "141312.550000", "141312.553000", "141312.557000", "141312.560000", "141312.563000", "141312.566000", "141352.471000", "141352.475000", "141352.478000", "141352.482000", "141352.485000", "141352.488000", "141352.491000", "141352.495000", "141352.498000", "141352.501000", "141352.504000", "141352.508000", "141352.511000", "141352.514000", "141352.518000", "141352.521000", "141352.524000", "141352.527000", "141352.531000", "141352.534000", "141352.537000", "141352.541000", "141352.544000", "141352.559000", "141352.562000", "141352.565000", "141352.569000", "141432.471000", "141432.475000", "141432.478000", "141432.481000", "141432.485000", "141432.488000", "141432.491000", "141432.494000", "141432.498000", "141432.501000", "141432.504000", "141432.507000", "141432.511000", "141432.514000", "141432.517000", "141432.521000", "141432.524000", "141432.527000", "141432.530000", "141432.534000", "141432.537000", "141432.540000", "141432.543000", "141432.547000", "141432.550000", "141432.553000", "141432.556000", "141512.470000", "141512.474000", "141512.477000", "141512.480000", "141512.484000", "141512.487000", "141512.490000", "141512.494000", "141512.497000", "141512.500000", "141512.503000", "141512.506000", "141512.510000", "141512.513000", "141512.516000", "141512.520000", "141512.523000", "141512.526000", "141512.529000", "141512.533000", "141512.536000", "141512.539000", "141512.543000", "141512.546000", "141512.549000", "141512.552000", "141512.556000", "141552.471000", "141552.475000", "141552.478000", "141552.481000", "141552.485000", "141552.488000", "141552.491000", "141552.495000", "141552.498000", "141552.501000", "141552.504000", "141552.508000", "141552.511000", "141552.517000", "141552.520000", "141552.523000", "141552.526000", "141552.530000", "141552.533000", "141552.536000", "141552.539000", "141552.543000", "141552.546000", "141552.549000", "141552.552000", "141552.556000", "141552.559000", "141632.472000", "141632.475000", "141632.479000", "141632.483000", "141632.486000", "141632.490000", "141632.493000", "141632.496000", "141632.499000", "141632.503000", "141632.506000", "141632.521000", "141632.525000", "141632.528000", "141632.531000", "141632.534000", "141632.538000", "141632.541000", "141632.544000", "141632.548000", "141632.551000", "141632.554000", "141632.557000", "141632.561000", "141632.564000", "141632.567000", "141642.048000", "141642.052000", "141642.056000", "141642.059000", "141642.063000", "141642.066000", "141642.069000"],
      "InstanceCreationTime": ["140952.511000", "140952.515000", "140952.518000", "140952.521000", "140952.525000", "140952.528000", "140952.531000", "140952.534000", "140952.538000", "140952.541000", "140952.544000", "141012.471000", "141012.475000", "141012.478000", "141012.481000", "141012.484000", "141012.488000", "141012.491000", "141012.500000", "141012.503000", "141012.506000", "141012.509000", "141012.512000", "141012.516000", "141012.519000", "141012.522000", "141012.526000", "141012.529000", "141012.532000", "141012.535000", "141012.539000", "141032.470000", "141032.474000", "141032.477000", "141032.480000", "141032.483000", "141032.487000", "141032.490000", "141032.493000", "141032.496000", "141032.499000", "141032.503000", "141032.506000", "141032.509000", "141032.512000", "141032.516000", "141032.519000", "141032.522000", "141032.525000", "141032.528000", "141032.532000", "141052.471000", "141052.475000", "141052.478000", "141052.481000", "141052.484000", "141052.487000", "141052.491000", "141052.494000", "141052.497000", "141052.500000", "141052.504000", "141052.507000", "141052.510000", "141052.513000", "141052.517000", "141052.520000", "141052.523000", "141052.526000", "141052.530000", "141052.533000", "141112.471000", "141112.475000", "141112.478000", "141112.481000", "141112.484000", "141112.488000", "141112.491000", "141112.494000", "141112.498000", "141112.501000", "141112.504000", "141112.508000", "141112.516000", "141112.521000", "141112.525000", "141112.529000", "141112.533000", "141112.536000", "141112.539000", "141112.553000", "141152.471000", "141152.475000", "141152.486000", "141152.489000", "141152.493000", "141152.496000", "141152.512000", "141152.516000", "141152.519000", "141152.522000", "141152.526000", "141152.529000", "141152.532000", "141152.535000", "141152.539000", "141152.542000", "141152.545000", "141152.548000", "141152.552000", "141152.555000", "141152.558000", "141152.561000", "141152.565000", "141152.568000", "141152.571000", "141152.574000", "141152.578000", "141152.581000", "141152.584000", "141152.588000", "141232.471000", "141232.475000", "141232.478000", "141232.481000", "141232.484000", "141232.488000", "141232.491000", "141232.494000", "141232.498000", "141232.501000", "141232.505000", "141232.508000", "141232.511000", "141232.514000", "141232.517000", "141232.521000", "141232.524000", "141232.527000", "141232.530000", "141232.534000", "141232.537000", "141232.540000", "141232.543000", "141232.547000", "141232.550000", "141232.553000", "141312.471000", "141312.475000", "141312.478000", "141312.481000", "141312.485000", "141312.488000", "141312.491000", "141312.494000", "141312.498000", "141312.501000", "141312.504000", "141312.518000", "141312.521000", "141312.524000", "141312.527000", "141312.530000", "141312.534000", "141312.537000", "141312.540000", "141312.543000", "141312.547000", "141312.550000", "141312.553000", "141312.557000", "141312.560000", "141312.563000", "141312.566000", "141352.471000", "141352.475000", "141352.478000", "141352.482000", "141352.485000", "141352.488000", "141352.491000", "141352.495000", "141352.498000", "141352.501000", "141352.504000", "141352.508000", "141352.511000", "141352.514000", "141352.518000", "141352.521000", "141352.524000", "141352.527000", "141352.531000", "141352.534000", "141352.537000", "141352.541000", "141352.544000", "141352.559000", "141352.562000", "141352.565000", "141352.569000", "141432.471000", "141432.475000", "141432.478000", "141432.481000", "141432.485000", "141432.488000", "141432.491000", "141432.494000", "141432.498000", "141432.501000", "141432.504000", "141432.507000", "141432.511000", "141432.514000", "141432.517000", "141432.521000", "141432.524000", "141432.527000", "141432.530000", "141432.534000", "141432.537000", "141432.540000", "141432.543000", "141432.547000", "141432.550000", "141432.553000", "141432.556000", "141512.470000", "141512.474000", "141512.477000", "141512.480000", "141512.484000", "141512.487000", "141512.490000", "141512.494000", "141512.497000", "141512.500000", "141512.503000", "141512.506000", "141512.510000", "141512.513000", "141512.516000", "141512.520000", "141512.523000", "141512.526000", "141512.529000", "141512.533000", "141512.536000", "141512.539000", "141512.543000", "141512.546000", "141512.549000", "141512.552000", "141512.556000", "141552.471000", "141552.475000", "141552.478000", "141552.481000", "141552.485000", "141552.488000", "141552.491000", "141552.495000", "141552.498000", "141552.501000", "141552.504000", "141552.508000", "141552.511000", "141552.517000", "141552.520000", "141552.523000", "141552.526000", "141552.530000", "141552.533000", "141552.536000", "141552.539000", "141552.543000", "141552.546000", "141552.549000", "141552.552000", "141552.556000", "141552.559000", "141632.472000", "141632.475000", "141632.479000", "141632.483000", "141632.486000", "141632.490000", "141632.493000", "141632.496000", "141632.499000", "141632.503000", "141632.506000", "141632.521000", "141632.525000", "141632.528000", "141632.531000", "141632.534000", "141632.538000", "141632.541000", "141632.544000", "141632.548000", "141632.551000", "141632.554000", "141632.557000", "141632.561000", "141632.564000", "141632.567000", "141642.048000", "141642.052000", "141642.056000", "141642.059000", "141642.063000", "141642.066000", "141642.069000"],
      "InstanceNumber": [1, 2, 3, 4, 5, 6, 7, 8, 9, 10, 11, 12, 13, 14, 15, 16, 17, 18, 19, 20, 21, 22, 23, 24, 25, 26, 27, 28, 29, 30, 31, 32, 33, 34, 35, 36, 37, 38, 39, 40, 41, 42, 43, 44, 45, 46, 47, 48, 49, 50, 51, 52, 53, 54, 55, 56, 57, 58, 59, 60, 61, 62, 63, 64, 65, 66, 67, 68, 69, 70, 71, 72, 73, 74, 75, 76, 77, 78, 79, 80, 81, 82, 83, 84, 85, 86, 87, 88, 89, 90, 91, 92, 93, 94, 95, 96, 97, 98, 99, 100, 101, 102, 103, 104, 105, 106, 107, 108, 109, 110, 111, 112, 113, 114, 115, 116, 117, 118, 119, 120, 121, 122, 123, 124, 125, 126, 127, 128, 129, 130, 131, 132, 133, 134, 135, 136, 137, 138, 139, 140, 141, 142, 143, 144, 145, 146, 147, 148, 149, 150, 151, 152, 153, 154, 155, 156, 157, 158, 159, 160, 161, 162, 163, 164, 165, 166, 167, 168, 169, 170, 171, 172, 173, 174, 175, 176, 177, 178, 179, 180, 181, 182, 183, 184, 185, 186, 187, 188, 189, 190, 191, 192, 193, 194, 195, 196, 197, 198, 199, 200, 201, 202, 203, 204, 205, 206, 207, 208, 209, 210, 211, 212, 213, 214, 215, 216, 217, 218, 219, 220, 221, 222, 223, 224, 225, 226, 227, 228, 229, 230, 231, 232, 233, 234, 235, 236, 237, 238, 239, 240, 241, 242, 243, 244, 245, 246, 247, 248, 249, 250, 251, 252, 253, 254, 255, 256, 257, 258, 259, 260, 261, 262, 263, 264, 265, 266, 267, 268, 269, 270, 271, 272, 273, 274, 275, 276, 277, 278, 279, 280, 281, 282, 283, 284, 285, 286, 287, 288, 289, 290, 291, 292, 293, 294, 295, 296, 297, 298, 299, 300, 301, 302, 303, 304, 305, 306, 307, 308, 309, 310, 311, 312, 313, 314, 315],
      "LargestImagePixelValue": [43679, 42614, 41917, 41767, 42134, 41492, 41552, 41210, 42010, 41665, 41664, 41575, 40779, 40724, 40762, 41338, 40650, 40894, 41424, 40926, 40808, 41344, 41233, 40435, 40506, 39538, 40662, 40505, 40262, 40656, 40668, 41176, 41193, 40731, 40852, 40833, 40867, 40250, 40553, 39501, 40666, 40358, 41077, 40882, 40943, 40840, 41551, 40985, 41008, 41418, 40914, 40070, 40559, 40082, 39584, 39322, 39410, 39579, 39407, 40064, 39714, 39888, 39677, 39920, 39983, 39689, 40188, 39997, 39470, 39705, 39391, 39862, 39783, 40091, 39781, 40446, 40407, 39557, 40370, 40173, 39531, 39542, 39099, 38973, 39071, 39690, 39903, 39609, 39803, 40346, 39801, 40181, 39778, 40321, 39901, 39762, 39596, 39584, 39468, 39688, 39499, 39859, 40501, 39435, 39649, 40143, 39494, 39878, 39524, 40134, 40055, 40034, 40382, 41645, 40926, 40297, 41131, 40808, 40632, 41081, 40900, 41386, 40870, 40664, 40445, 40802, 40824, 40857, 40929, 41175, 40117, 39305, 40009, 40309, 40518, 40511, 40567, 40953, 40742, 40600, 40368, 40385, 40118, 39990, 40040, 40384, 39962, 40815, 41150, 41044, 40359, 40178, 40087, 40202, 40116, 39958, 40045, 40229, 39585, 40299, 39691, 39799, 40414, 40518, 40687, 40780, 40685, 40992, 40853, 40697, 40616, 40836, 40231, 40443, 40394, 40219, 40725, 40768, 40902, 40412, 40149, 39771, 39852, 39641, 39753, 39762, 40308, 40210, 39881, 40359, 39535, 39434, 39664, 39681, 39966, 39458, 39928, 39381, 39213, 39780, 39766, 39528, 39541, 39286, 39309, 39267, 39510, 39854, 40506, 40636, 41021, 41231, 40771, 40798, 40323, 40348, 39919, 40300, 40227, 40347, 39947, 40090, 40272, 40885, 40899, 40092, 40508, 40215, 39690, 40470, 40162, 40649, 40369, 40046, 40539, 40549, 40883, 40070, 40564, 40237, 40032, 39609, 39887, 39965, 40120, 40141, 40207, 39366, 40109, 39872, 39637, 39336, 39452, 39734, 39787, 40065, 40140, 40271, 40672, 39552, 40008, 40251, 39895, 39655, 40116, 40452, 39964, 40041, 39689, 39903, 39408, 39813, 39824, 40021, 39991, 39946, 39733, 40204, 39969, 39906, 40315, 39967, 39572, 39650, 39472, 39532, 39525, 39846, 40396, 39582, 39450, 39385, 39777, 39949, 39956, 39492, 39845, 39689, 39898, 39906, 40435, 40001, 40017, 39552, 39408, 39480, 39086, 39191, 39393, 39487, 39651, 39713, 39692, 39384, 39685],
      "WindowCenter": [10192.0, 10158.0, 10125.0, 10121.0, 10131.0, 10126.0, 10141.0, 10144.0, 10158.0, 10145.0, 10158.0, 10167.0, 10157.0, 10156.0, 10148.0, 10142.0, 10142.0, 10135.0, 10114.0, 10097.0, 10095.0, 10084.0, 10095.0, 10061.0, 10098.0, 10085.0, 10108.0, 10082.0, 10080.0, 10074.0, 10063.0, 10062.0, 10067.0, 10056.0, 10071.0, 10071.0, 10096.0, 10100.0, 10118.0, 10060.0, 10091.0, 10115.0, 10116.0, 10133.0, 10132.0, 10114.0, 10112.0, 10090.0, 10100.0, 10115.0, 10116.0, 10082.0, 10098.0, 10102.0, 10124.0, 10118.0, 10087.0, 10067.0, 10047.0, 10060.0, 10063.0, 10096.0, 10110.0, 10115.0, 10111.0, 10108.0, 10113.0, 10120.0, 10116.0, 10124.0, 10114.0, 10116.0, 10120.0, 10117.0, 10129.0, 10125.0, 10115.0, 10078.0, 10093.0, 10100.0, 10131.0, 10149.0, 10105.0, 10157.0, 10124.0, 10085.0, 10052.0, 10045.0, 10046.0, 10087.0, 10063.0, 10104.0, 10111.0, 10098.0, 10090.0, 10091.0, 10108.0, 10112.0, 10095.0, 10094.0, 10078.0, 10086.0, 10114.0, 10092.0, 10131.0, 10156.0, 10144.0, 10169.0, 10124.0, 10135.0, 10100.0, 10080.0, 10047.0, 10097.0, 10096.0, 10106.0, 10107.0, 10119.0, 10129.0, 10129.0, 10130.0, 10128.0, 10129.0, 10123.0, 10107.0, 10105.0, 10101.0, 10101.0, 10124.0, 10145.0, 10145.0, 10131.0, 10109.0, 10105.0, 10124.0, 10134.0, 10115.0, 10096.0, 10088.0, 10050.0, 10092.0, 10113.0, 10106.0, 10102.0, 10096.0, 10076.0, 10079.0, 10097.0, 10138.0, 10148.0, 10146.0, 10141.0, 10116.0, 10119.0, 10122.0, 10118.0, 10141.0, 10172.0, 10137.0, 10155.0, 10133.0, 10115.0, 10138.0, 10111.0, 10092.0, 10083.0, 10097.0, 10122.0, 10134.0, 10136.0, 10098.0, 10094.0, 10077.0, 10089.0, 10092.0, 10092.0, 10087.0, 10078.0, 10101.0, 10098.0, 10112.0, 10122.0, 10134.0, 10128.0, 10112.0, 10102.0, 10100.0, 10116.0, 10117.0, 10123.0, 10112.0, 10097.0, 10100.0, 10108.0, 10125.0, 10130.0, 10129.0, 10113.0, 10103.0, 10111.0, 10127.0, 10145.0, 10155.0, 10149.0, 10141.0, 10129.0, 10121.0, 10141.0, 10139.0, 10122.0, 10109.0, 10100.0, 10104.0, 10122.0, 10130.0, 10131.0, 10117.0, 10129.0, 10138.0, 10146.0, 10142.0, 10134.0, 10139.0, 10104.0, 10157.0, 10141.0, 10147.0, 10127.0, 10114.0, 10119.0, 10119.0, 10127.0, 10131.0, 10140.0, 10131.0, 10096.0, 10084.0, 10060.0, 10071.0, 10074.0, 10091.0, 10093.0, 10087.0, 10085.0, 10102.0, 10130.0, 10138.0, 10105.0, 10122.0, 10100.0, 10128.0, 10127.0, 10125.0, 10116.0, 10081.0, 10067.0, 10064.0, 10068.0, 10077.0, 10094.0, 10102.0, 10026.0, 10079.0, 10087.0, 10072.0, 10093.0, 10073.0, 10094.0, 10078.0, 10077.0, 10069.0, 10069.0, 10061.0, 10048.0, 10058.0, 10073.0, 10086.0, 10079.0, 10084.0, 10090.0, 10081.0, 10082.0, 10087.0, 10095.0, 10096.0, 10101.0, 10093.0, 10089.0, 10064.0, 10092.0, 10102.0, 10084.0, 10078.0, 10094.0, 10097.0, 10076.0, 10065.0, 10064.0, 10062.0, 10077.0, 10090.0, 10114.0, 10132.0, 10113.0, 10089.0, 10061.0, 10069.0, 10086.0, 10075.0, 10058.0, 10067.0, 10088.0, 10085.0, 10057.0, 10043.0],
