{
  "AcquisitionMatrixPE": 104,
  "AcquisitionNumber": 1,
  "AcquisitionTime": "13:55:53.895000",
  "BandwidthPerPixelPhaseEncode": 17.17,
  "BaseResolution": 104,
  "BodyPartExamined": "BRAIN",
  "CoilCombinationMethod": "Sum of Squares",
  "ConsistencyInfo": "N4_VE11C_LATEST_20160120",
  "ConversionSoftware": "dcm2niix",
  "ConversionSoftwareVersion": "v1.0.20220505",
  "DerivedVendorReportedEchoSpacing": 0.000560011,
  "DeviceSerialNumber": "167006",
  "DwellTime": 2.1e-06,
  "EchoTime": 0.037,
  "EchoTime1": 0.037,
  "EchoTime2": 0.001,
  "EchoTrainLength": 104,
  "EffectiveEchoSpacing": 0.000560011,
  "FlipAngle": 52,
  "HeudiconvVersion": "0.5.3.post811+g6206e14",
  "ImageComments": "Unaliased MB4/PE3/LB",
  "ImageOrientationPatientDICOM": [0.999869, 0.00314417, 0.0158808, 0.00157059, 0.957492, -0.288455],
  "ImageOrientationText": "Tra>Cor(-16.8)>Sag(0.9)",
  "ImageType": [
    "ORIGINAL",
    "PRIMARY",
    "P",
    "MB",
    "ND",
    "MOSAIC",
    "PHASE"
],
  "ImagingFrequency": 123.26,
  "InPlanePhaseEncodingDirectionDICOM": "COL",
  "InstitutionAddress": "Chemin Queen-Mary 4565,Montreal,District,CA,H3W 1W5",
  "InstitutionName": "IUGM",
  "InstitutionalDepartmentName": "Department",
  "MRAcquisitionType": "2D",
  "MagneticFieldStrength": 3,
  "Manufacturer": "Siemens",
  "ManufacturersModelName": "Prisma_fit",
  "MatrixCoilMode": "SENSE",
  "Modality": "MR",
  "MultibandAccelerationFactor": 4,
  "PartialFourier": 1,
  "PatientPosition": "HFS",
  "PercentPhaseFOV": 100,
  "PercentSampling": 100,
  "PhaseEncodingDirection": "j",
  "PhaseEncodingSteps": 104,
  "PhaseResolution": 1,
  "PixelBandwidth": 2290,
  "ProcedureStepDescription": "games^mario3",
  "ProtocolName": "func_task-mario3_run-01",
  "PulseSequenceDetails": "%CustomerSeq%\\cmrr_mbep2d_bold",
  "ReceiveCoilActiveElements": "HC1-7;NC1,2",
  "ReceiveCoilName": "HeadNeck_64",
  "ReconMatrixPE": 104,
  "RepetitionTime": 1.49,
  "SAR": 0.0793077,
  "ScanOptions": "FS",
  "ScanningSequence": "EP",
  "SequenceName": "epfid2d1_104",
  "SequenceVariant": "SK\\SS",
  "SeriesDescription": "func_task-mario3_run-01",
  "SeriesNumber": 11,
  "ShimSetting": [619, -7216, -8762, 695, 68, 0, 8, -6],
  "SliceThickness": 2,
  "SliceTiming": [0, 0.7825, 0.0975, 0.88, 0.195, 0.98, 0.2925, 1.0775, 0.39, 1.175, 0.49, 1.2725, 0.5875, 1.37, 0.685, 0, 0.7825, 0.0975, 0.88, 0.195, 0.98, 0.2925, 1.0775, 0.39, 1.175, 0.49, 1.2725, 0.5875, 1.37, 0.685, 0, 0.7825, 0.0975, 0.88, 0.195, 0.98, 0.2925, 1.0775, 0.39, 1.175, 0.49, 1.2725, 0.5875, 1.37, 0.685, 0, 0.7825, 0.0975, 0.88, 0.195, 0.98, 0.2925, 1.0775, 0.39, 1.175, 0.49, 1.2725, 0.5875, 1.37, 0.685],
  "SoftwareVersions": "syngo MR E11",
  "SpacingBetweenSlices": 2,
  "StationName": "MRC35049",
  "TaskName": "mario3",
  "TotalReadoutTime": 0.0576811,
  "TxRefAmp": 255.562,
  "WipMemBlock": "37d1d900-17ee-496c-b1b9-d5e4511c68eb||Sequence: R017 ve11c/master r/75a17815+; Jun 28 2022 16:32:11 by eja",
  "dcmmeta_affine": [
    [-1.9997378587722778, 0.0031411864329129457, 0.03222541883587837, 107.9058837890625],
    [-0.006288336589932442, 1.9149842262268066, -0.5768845677375793, -71.37073516845703],
    [0.03176163509488106, 0.5769103169441223, 1.9147233963012695, -59.30125427246094],
    [0.0, 0.0, 0.0, 1.0]
],
  "dcmmeta_reorient_transform": [
    [0.0, -1.0, 0.0, 103.0],
    [1.0, 0.0, 0.0, 0.0],
    [0.0, 0.0, 1.0, 0.0],
    [0.0, 0.0, 0.0, 1.0]
],
  "dcmmeta_shape": [104, 104, 60, 372],
  "dcmmeta_slice_dim": 2,
  "dcmmeta_version": 0.6,
  "global": {
    "const": {
      "AcquisitionMatrix": [104, 0, 0, 104],
      "AngioFlag": "N",
      "BitsAllocated": 16,
      "BitsStored": 16,
      "BodyPartExamined": "BRAIN",
      "Columns": 832,
      "EchoNumbers": 1,
      "EchoTime": 37.0,
      "EchoTrainLength": 104,
      "FlipAngle": 52.0,
      "HighBit": 15,
      "ImageOrientationPatient": [0.99986894832329, 0.00314416839984, 0.01588081811332, 0.00157059317424, 0.95749211917111, -0.2884551524281],
      "ImagePositionPatient": [-837.27741139368, -825.21585816272, 198.55462370726],
      "ImageType": [
        "ORIGINAL",
        "PRIMARY",
        "P",
        "MB",
        "ND",
        "MOSAIC"
],
      "ImagedNucleus": "1H",
      "ImagingFrequency": 123.260324,
      "InPlanePhaseEncodingDirection": "COL",
      "LargestImagePixelValue": 4095,
      "MRAcquisitionType": "2D",
      "MagneticFieldStrength": 3.0,
      "Manufacturer": "SIEMENS",
      "ManufacturerModelName": "Prisma_fit",
      "Modality": "MR",
      "NumberOfAverages": 1.0,
      "NumberOfPhaseEncodingSteps": 104,
      "PercentPhaseFieldOfView": 100.0,
      "PercentSampling": 100.0,
      "PerformedProcedureStepStartTime": "135253.777000",
      "PhotometricInterpretation": "MONOCHROME2",
      "PixelBandwidth": 2290.0,
      "PixelRepresentation": 0,
      "PixelSpacing": [2.0, 2.0],
      "ProtocolName": "func_task-mario3_run-01",
      "RepetitionTime": 1490.0,
      "RescaleIntercept": -4096.0,
      "RescaleSlope": 2.0,
      "RescaleType": "US",
      "Rows": 832,
      "SAR": 0.07930766558407,
      "SamplesPerPixel": 1,
      "ScanOptions": "FS",
      "ScanningSequence": "EP",
      "SequenceName": "epfid2d1_104",
      "SequenceVariant": [
        "SK",
        "SS"
],
      "SeriesDescription": "func_task-mario3_run-01",
      "SeriesNumber": 11,
      "SeriesTime": "135721.036000",
      "SliceLocation": -34.447753669054,
      "SliceThickness": 2.0,
      "SmallestImagePixelValue": 0,
      "SoftwareVersions": "syngo MR E11",
      "SpacingBetweenSlices": 1.9999999525409,
      "SpecificCharacterSet": "ISO_IR 100",
      "StudyID": "1",
      "StudyTime": "135253.684000",
      "TransmitCoilName": "Body",
      "VariableFlipAngleFlag": "N",
      "WindowCenterWidthExplanation": "Algo1",
      "dBdt": 0.0},
    "slices": {}
  },
  "time": {
    "samples": {
      "AcquisitionNumber": [1, 2, 3, 4, 5, 6, 7, 8, 9, 10, 11, 12, 13, 14, 15, 16, 17, 18, 19, 20, 21, 22, 23, 24, 25, 26, 27, 28, 29, 30, 31, 32, 33, 34, 35, 36, 37, 38, 39, 40, 41, 42, 43, 44, 45, 46, 47, 48, 49, 50, 51, 52, 53, 54, 55, 56, 57, 58, 59, 60, 61, 62, 63, 64, 65, 66, 67, 68, 69, 70, 71, 72, 73, 74, 75, 76, 77, 78, 79, 80, 81, 82, 83, 84, 85, 86, 87, 88, 89, 90, 91, 92, 93, 94, 95, 96, 97, 98, 99, 100, 101, 102, 103, 104, 105, 106, 107, 108, 109, 110, 111, 112, 113, 114, 115, 116, 117, 118, 119, 120, 121, 122, 123, 124, 125, 126, 127, 128, 129, 130, 131, 132, 133, 134, 135, 136, 137, 138, 139, 140, 141, 142, 143, 144, 145, 146, 147, 148, 149, 150, 151, 152, 153, 154, 155, 156, 157, 158, 159, 160, 161, 162, 163, 164, 165, 166, 167, 168, 169, 170, 171, 172, 173, 174, 175, 176, 177, 178, 179, 180, 181, 182, 183, 184, 185, 186, 187, 188, 189, 190, 191, 192, 193, 194, 195, 196, 197, 198, 199, 200, 201, 202, 203, 204, 205, 206, 207, 208, 209, 210, 211, 212, 213, 214, 215, 216, 217, 218, 219, 220, 221, 222, 223, 224, 225, 226, 227, 228, 229, 230, 231, 232, 233, 234, 235, 236, 237, 238, 239, 240, 241, 242, 243, 244, 245, 246, 247, 248, 249, 250, 251, 252, 253, 254, 255, 256, 257, 258, 259, 260, 261, 262, 263, 264, 265, 266, 267, 268, 269, 270, 271, 272, 273, 274, 275, 276, 277, 278, 279, 280, 281, 282, 283, 284, 285, 286, 287, 288, 289, 290, 291, 292, 293, 294, 295, 296, 297, 298, 299, 300, 301, 302, 303, 304, 305, 306, 307, 308, 309, 310, 311, 312, 313, 314, 315, 316, 317, 318, 319, 320, 321, 322, 323, 324, 325, 326, 327, 328, 329, 330, 331, 332, 333, 334, 335, 336, 337, 338, 339, 340, 341, 342, 343, 344, 345, 346, 347, 348, 349, 350, 351, 352, 353, 354, 355, 356, 357, 358, 359, 360, 361, 362, 363, 364, 365, 366, 367, 368, 369, 370, 371, 372],
      "AcquisitionTime": ["135553.895000", "135555.385000", "135556.875000", "135558.365000", "135559.855000", "135601.345000", "135602.835000", "135604.325000", "135605.815000", "135607.305000", "135608.795000", "135610.285000", "135611.775000", "135613.265000", "135614.755000", "135616.245000", "135617.735000", "135619.225000", "135620.715000", "135622.205000", "135623.695000", "135625.185000", "135626.675000", "135628.165000", "135629.655000", "135631.145000", "135632.635000", "135634.125000", "135635.615000", "135637.105000", "135638.595000", "135640.085000", "135641.575000", "135643.065000", "135644.555000", "135646.045000", "135647.535000", "135649.025000", "135650.515000", "135652.005000", "135653.495000", "135654.985000", "135656.475000", "135657.965000", "135659.455000", "135700.945000", "135702.435000", "135703.925000", "135705.415000", "135706.905000", "135708.395000", "135709.885000", "135711.375000", "135712.865000", "135714.355000", "135715.845000", "135717.335000", "135718.825000", "135720.315000", "135721.805000", "135723.295000", "135724.785000", "135726.275000", "135727.765000", "135729.255000", "135730.745000", "135732.235000", "135733.725000", "135735.215000", "135736.705000", "135738.195000", "135739.685000", "135741.175000", "135742.665000", "135744.155000", "135745.645000", "135747.135000", "135748.625000", "135750.115000", "135751.605000", "135753.095000", "135754.585000", "135756.075000", "135757.565000", "135759.055000", "135800.545000", "135802.035000", "135803.525000", "135805.015000", "135806.505000", "135807.995000", "135809.485000", "135810.975000", "135812.465000", "135813.955000", "135815.445000", "135816.935000", "135818.425000", "135819.915000", "135821.405000", "135822.895000", "135824.385000", "135825.875000", "135827.365000", "135828.855000", "135830.345000", "135831.835000", "135833.325000", "135834.815000", "135836.305000", "135837.795000", "135839.285000", "135840.775000", "135842.265000", "135843.755000", "135845.245000", "135846.735000", "135848.225000", "135849.715000", "135851.205000", "135852.695000", "135854.185000", "135855.675000", "135857.165000", "135858.655000", "135900.145000", "135901.635000", "135903.125000", "135904.615000", "135906.105000", "135907.595000", "135909.085000", "135910.575000", "135912.065000", "135913.555000", "135915.045000", "135916.535000", "135918.025000", "135919.515000", "135921.005000", "135922.495000", "135923.985000", "135925.475000", "135926.965000", "135928.455000", "135929.945000", "135931.435000", "135932.925000", "135934.415000", "135935.905000", "135937.395000", "135938.885000", "135940.375000", "135941.865000", "135943.355000", "135944.845000", "135946.335000", "135947.825000", "135949.315000", "135950.805000", "135952.295000", "135953.785000", "135955.275000", "135956.765000", "135958.255000", "135959.745000", "140001.235000", "140002.725000", "140004.215000", "140005.705000", "140007.195000", "140008.685000", "140010.175000", "140011.665000", "140013.155000", "140014.645000", "140016.135000", "140017.625000", "140019.115000", "140020.605000", "140022.095000", "140023.585000", "140025.075000", "140026.565000", "140028.055000", "140029.545000", "140031.035000", "140032.525000", "140034.015000", "140035.505000", "140036.995000", "140038.485000", "140039.975000", "140041.465000", "140042.955000", "140044.445000", "140045.935000", "140047.425000", "140048.915000", "140050.405000", "140051.895000", "140053.385000", "140054.875000", "140056.365000", "140057.855000", "140059.345000", "140100.835000", "140102.325000", "140103.815000", "140105.305000", "140106.795000", "140108.285000", "140109.775000", "140111.265000", "140112.755000", "140114.245000", "140115.735000", "140117.225000", "140118.715000", "140120.205000", "140121.695000", "140123.185000", "140124.675000", "140126.165000", "140127.655000", "140129.145000", "140130.635000", "140132.125000", "140133.615000", "140135.105000", "140136.595000", "140138.085000", "140139.575000", "140141.065000", "140142.555000", "140144.045000", "140145.535000", "140147.025000", "140148.515000", "140150.005000", "140151.495000", "140152.985000", "140154.475000", "140155.965000", "140157.455000", "140158.945000", "140200.435000", "140201.925000", "140203.415000", "140204.905000", "140206.395000", "140207.885000", "140209.375000", "140210.865000", "140212.355000", "140213.845000", "140215.335000", "140216.825000", "140218.315000", "140219.805000", "140221.295000", "140222.785000", "140224.275000", "140225.765000", "140227.255000", "140228.745000", "140230.235000", "140231.725000", "140233.215000", "140234.705000", "140236.195000", "140237.685000", "140239.175000", "140240.665000", "140242.155000", "140243.645000", "140245.135000", "140246.625000", "140248.115000", "140249.605000", "140251.095000", "140252.585000", "140254.075000", "140255.565000", "140257.055000", "140258.545000", "140300.035000", "140301.525000", "140303.015000", "140304.505000", "140305.995000", "140307.485000", "140308.975000", "140310.465000", "140311.955000", "140313.445000", "140314.935000", "140316.425000", "140317.915000", "140319.405000", "140320.895000", "140322.385000", "140323.875000", "140325.365000", "140326.855000", "140328.345000", "140329.835000", "140331.325000", "140332.815000", "140334.305000", "140335.795000", "140337.285000", "140338.775000", "140340.265000", "140341.755000", "140343.245000", "140344.735000", "140346.225000", "140347.715000", "140349.205000", "140350.695000", "140352.185000", "140353.675000", "140355.165000", "140356.655000", "140358.145000", "140359.635000", "140401.125000", "140402.615000", "140404.105000", "140405.595000", "140407.085000", "140408.575000", "140410.065000", "140411.555000", "140413.045000", "140414.535000", "140416.025000", "140417.515000", "140419.005000", "140420.495000", "140421.985000", "140423.475000", "140424.965000", "140426.455000", "140427.945000", "140429.435000", "140430.925000", "140432.415000", "140433.905000", "140435.395000", "140436.885000", "140438.375000", "140439.865000", "140441.355000", "140442.845000", "140444.335000", "140445.825000", "140447.315000", "140448.805000", "140450.295000", "140451.785000", "140453.275000", "140454.765000", "140456.255000", "140457.745000", "140459.235000", "140500.725000", "140502.215000", "140503.705000", "140505.195000", "140506.685000"],
      "ContentTime": ["135721.038000", "135721.041000", "135721.044000", "135721.046000", "135721.049000", "135721.051000", "135721.054000", "135721.056000", "135721.058000", "135721.061000", "135721.063000", "135721.066000", "135721.068000", "135721.078000", "135721.081000", "135721.083000", "135721.086000", "135721.088000", "135721.091000", "135721.093000", "135721.095000", "135721.098000", "135721.100000", "135721.103000", "135721.106000", "135721.108000", "135721.111000", "135721.113000", "135721.116000", "135721.118000", "135721.121000", "135721.123000", "135721.126000", "135721.128000", "135721.131000", "135721.133000", "135721.136000", "135740.916000", "135740.918000", "135740.921000", "135740.923000", "135740.926000", "135740.928000", "135740.931000", "135740.933000", "135740.936000", "135740.938000", "135740.941000", "135740.943000", "135740.946000", "135740.948000", "135740.950000", "135740.953000", "135740.955000", "135740.958000", "135740.960000", "135740.963000", "135740.965000", "135800.909000", "135800.912000", "135800.915000", "135800.917000", "135800.920000", "135800.922000", "135800.924000", "135800.927000", "135800.929000", "135800.932000", "135800.934000", "135800.937000", "135800.939000", "135800.942000", "135800.944000", "135800.947000", "135800.949000", "135800.952000", "135800.954000", "135800.956000", "135820.904000", "135820.907000", "135820.909000", "135820.912000", "135820.914000", "135820.917000", "135820.919000", "135820.922000", "135820.924000", "135820.927000", "135820.929000", "135820.932000", "135820.934000", "135820.937000", "135820.939000", "135820.941000", "135820.944000", "135820.946000", "135820.949000", "135820.951000", "135900.946000", "135900.948000", "135900.951000", "135900.953000", "135900.956000", "135900.958000", "135900.961000", "135900.963000", "135900.966000", "135900.969000", "135900.971000", "135900.974000", "135900.977000", "135900.979000", "135900.982000", "135900.985000", "135900.997000", "135901.001000", "135901.003000", "135901.005000", "135901.008000", "135901.011000", "135901.013000", "135901.016000", "135901.018000", "135901.021000", "135901.023000", "135920.880000", "135920.882000", "135920.885000", "135920.887000", "135920.890000", "135920.893000", "135920.895000", "135920.898000", "135920.900000", "135920.903000", "135920.906000", "135920.908000", "135920.911000", "140000.945000", "140000.948000", "140000.951000", "140000.954000", "140000.956000", "140000.959000", "140000.961000", "140000.964000", "140000.966000", "140000.969000", "140000.971000", "140000.974000", "140000.976000", "140000.979000", "140000.981000", "140000.984000", "140000.986000", "140000.988000", "140000.991000", "140000.993000", "140000.996000", "140000.998000", "140001.002000", "140001.004000", "140001.007000", "140001.009000", "140001.012000", "140040.937000", "140040.939000", "140040.942000", "140040.944000", "140040.947000", "140040.949000", "140040.952000", "140040.954000", "140040.957000", "140040.959000", "140040.962000", "140040.964000", "140040.967000", "140040.969000", "140040.972000", "140040.974000", "140040.977000", "140040.979000", "140040.982000", "140040.984000", "140040.992000", "140040.994000", "140040.997000", "140041.000000", "140041.003000", "140041.005000", "140041.008000", "140120.951000", "140120.954000", "140120.956000", "140120.959000", "140120.961000", "140120.964000", "140120.967000", "140120.969000", "140120.972000", "140120.974000", "140120.977000", "140120.979000", "140120.982000", "140120.984000", "140120.987000", "140120.989000", "140120.992000", "140120.994000", "140120.997000", "140121.000000", "140121.003000", "140121.005000", "140121.008000", "140121.011000", "140121.013000", "140121.016000", "140121.018000", "140200.937000", "140200.939000", "140200.942000", "140200.945000", "140200.947000", "140200.950000", "140200.953000", "140200.956000", "140200.958000", "140200.961000", "140200.964000", "140200.966000", "140200.969000", "140200.971000", "140200.974000", "140200.976000", "140200.979000", "140200.981000", "140200.984000", "140200.986000", "140200.988000", "140200.991000", "140200.993000", "140200.996000", "140200.998000", "140201.002000", "140240.939000", "140240.942000", "140240.944000", "140240.947000", "140240.949000", "140240.951000", "140240.954000", "140240.956000", "140240.959000", "140240.961000", "140240.964000", "140240.966000", "140240.969000", "140240.971000", "140240.974000", "140240.976000", "140240.979000", "140240.986000", "140240.989000", "140240.991000", "140240.994000", "140240.996000", "140240.998000", "140241.001000", "140241.003000", "140241.006000", "140241.008000", "140320.958000", "140320.961000", "140320.964000", "140320.966000", "140320.969000", "140320.971000", "140320.974000", "140320.976000", "140320.979000", "140320.981000", "140320.983000", "140320.986000", "140320.988000", "140320.991000", "140320.993000", "140320.996000", "140320.998000", "140321.002000", "140321.004000", "140321.007000", "140321.010000", "140321.012000", "140321.015000", "140321.017000", "140321.020000", "140321.022000", "140321.025000", "140401.423000", "140401.426000", "140401.428000", "140401.431000", "140401.433000", "140401.436000", "140401.438000", "140401.441000", "140401.443000", "140401.446000", "140401.448000", "140401.451000", "140401.453000", "140401.456000", "140401.458000", "140401.461000", "140401.463000", "140401.466000", "140401.468000", "140401.470000", "140401.473000", "140401.475000", "140401.478000", "140401.480000", "140401.483000", "140401.486000", "140401.494000", "140440.929000", "140440.932000", "140440.934000", "140440.937000", "140440.939000", "140440.942000", "140440.944000", "140440.947000", "140440.949000", "140440.952000", "140440.954000", "140440.957000", "140440.959000", "140440.962000", "140440.964000", "140440.966000", "140440.969000", "140440.971000", "140440.974000", "140440.976000", "140440.979000", "140440.981000", "140440.984000", "140440.986000", "140440.989000", "140440.991000", "140440.994000", "140509.997000", "140510.001000", "140510.003000", "140510.006000", "140510.009000", "140510.011000", "140510.014000", "140510.016000", "140510.019000", "140510.021000", "140510.024000", "140510.026000", "140510.029000", "140510.031000", "140510.034000", "140510.036000", "140510.039000", "140510.041000", "140510.044000"],
      "InstanceCreationTime": ["135721.038000", "135721.041000", "135721.044000", "135721.046000", "135721.049000", "135721.051000", "135721.054000", "135721.056000", "135721.058000", "135721.061000", "135721.063000", "135721.066000", "135721.068000", "135721.078000", "135721.081000", "135721.083000", "135721.086000", "135721.088000", "135721.091000", "135721.093000", "135721.095000", "135721.098000", "135721.100000", "135721.103000", "135721.106000", "135721.108000", "135721.111000", "135721.113000", "135721.116000", "135721.118000", "135721.121000", "135721.123000", "135721.126000", "135721.128000", "135721.131000", "135721.133000", "135721.136000", "135740.916000", "135740.918000", "135740.921000", "135740.923000", "135740.926000", "135740.928000", "135740.931000", "135740.933000", "135740.936000", "135740.938000", "135740.941000", "135740.943000", "135740.946000", "135740.948000", "135740.950000", "135740.953000", "135740.955000", "135740.958000", "135740.960000", "135740.963000", "135740.965000", "135800.909000", "135800.912000", "135800.915000", "135800.917000", "135800.920000", "135800.922000", "135800.924000", "135800.927000", "135800.929000", "135800.932000", "135800.934000", "135800.937000", "135800.939000", "135800.942000", "135800.944000", "135800.947000", "135800.949000", "135800.952000", "135800.954000", "135800.956000", "135820.904000", "135820.907000", "135820.909000", "135820.912000", "135820.914000", "135820.917000", "135820.919000", "135820.922000", "135820.924000", "135820.927000", "135820.929000", "135820.932000", "135820.934000", "135820.937000", "135820.939000", "135820.941000", "135820.944000", "135820.946000", "135820.949000", "135820.951000", "135900.946000", "135900.948000", "135900.951000", "135900.953000", "135900.956000", "135900.958000", "135900.961000", "135900.963000", "135900.966000", "135900.969000", "135900.971000", "135900.974000", "135900.977000", "135900.979000", "135900.982000", "135900.985000", "135900.997000", "135901.001000", "135901.003000", "135901.005000", "135901.008000", "135901.011000", "135901.013000", "135901.016000", "135901.018000", "135901.021000", "135901.023000", "135920.880000", "135920.882000", "135920.885000", "135920.887000", "135920.890000", "135920.893000", "135920.895000", "135920.898000", "135920.900000", "135920.903000", "135920.906000", "135920.908000", "135920.911000", "140000.945000", "140000.948000", "140000.951000", "140000.954000", "140000.956000", "140000.959000", "140000.961000", "140000.964000", "140000.966000", "140000.969000", "140000.971000", "140000.974000", "140000.976000", "140000.979000", "140000.981000", "140000.984000", "140000.986000", "140000.988000", "140000.991000", "140000.993000", "140000.996000", "140000.998000", "140001.002000", "140001.004000", "140001.007000", "140001.009000", "140001.012000", "140040.937000", "140040.939000", "140040.942000", "140040.944000", "140040.947000", "140040.949000", "140040.952000", "140040.954000", "140040.957000", "140040.959000", "140040.962000", "140040.964000", "140040.967000", "140040.969000", "140040.972000", "140040.974000", "140040.977000", "140040.979000", "140040.982000", "140040.984000", "140040.992000", "140040.994000", "140040.997000", "140041.000000", "140041.003000", "140041.005000", "140041.008000", "140120.951000", "140120.954000", "140120.956000", "140120.959000", "140120.961000", "140120.964000", "140120.967000", "140120.969000", "140120.972000", "140120.974000", "140120.977000", "140120.979000", "140120.982000", "140120.984000", "140120.987000", "140120.989000", "140120.992000", "140120.994000", "140120.997000", "140121.000000", "140121.003000", "140121.005000", "140121.008000", "140121.011000", "140121.013000", "140121.016000", "140121.018000", "140200.937000", "140200.939000", "140200.942000", "140200.945000", "140200.947000", "140200.950000", "140200.953000", "140200.956000", "140200.958000", "140200.961000", "140200.964000", "140200.966000", "140200.969000", "140200.971000", "140200.974000", "140200.976000", "140200.979000", "140200.981000", "140200.984000", "140200.986000", "140200.988000", "140200.991000", "140200.993000", "140200.996000", "140200.998000", "140201.002000", "140240.939000", "140240.942000", "140240.944000", "140240.947000", "140240.949000", "140240.951000", "140240.954000", "140240.956000", "140240.959000", "140240.961000", "140240.964000", "140240.966000", "140240.969000", "140240.971000", "140240.974000", "140240.976000", "140240.979000", "140240.986000", "140240.989000", "140240.991000", "140240.994000", "140240.996000", "140240.998000", "140241.001000", "140241.003000", "140241.006000", "140241.008000", "140320.958000", "140320.961000", "140320.964000", "140320.966000", "140320.969000", "140320.971000", "140320.974000", "140320.976000", "140320.979000", "140320.981000", "140320.983000", "140320.986000", "140320.988000", "140320.991000", "140320.993000", "140320.996000", "140320.998000", "140321.002000", "140321.004000", "140321.007000", "140321.010000", "140321.012000", "140321.015000", "140321.017000", "140321.020000", "140321.022000", "140321.025000", "140401.423000", "140401.426000", "140401.428000", "140401.431000", "140401.433000", "140401.436000", "140401.438000", "140401.441000", "140401.443000", "140401.446000", "140401.448000", "140401.451000", "140401.453000", "140401.456000", "140401.458000", "140401.461000", "140401.463000", "140401.466000", "140401.468000", "140401.470000", "140401.473000", "140401.475000", "140401.478000", "140401.480000", "140401.483000", "140401.486000", "140401.494000", "140440.929000", "140440.932000", "140440.934000", "140440.937000", "140440.939000", "140440.942000", "140440.944000", "140440.947000", "140440.949000", "140440.952000", "140440.954000", "140440.957000", "140440.959000", "140440.962000", "140440.964000", "140440.966000", "140440.969000", "140440.971000", "140440.974000", "140440.976000", "140440.979000", "140440.981000", "140440.984000", "140440.986000", "140440.989000", "140440.991000", "140440.994000", "140509.997000", "140510.001000", "140510.003000", "140510.006000", "140510.009000", "140510.011000", "140510.014000", "140510.016000", "140510.019000", "140510.021000", "140510.024000", "140510.026000", "140510.029000", "140510.031000", "140510.034000", "140510.036000", "140510.039000", "140510.041000", "140510.044000"],
      "InstanceNumber": [1, 2, 3, 4, 5, 6, 7, 8, 9, 10, 11, 12, 13, 14, 15, 16, 17, 18, 19, 20, 21, 22, 23, 24, 25, 26, 27, 28, 29, 30, 31, 32, 33, 34, 35, 36, 37, 38, 39, 40, 41, 42, 43, 44, 45, 46, 47, 48, 49, 50, 51, 52, 53, 54, 55, 56, 57, 58, 59, 60, 61, 62, 63, 64, 65, 66, 67, 68, 69, 70, 71, 72, 73, 74, 75, 76, 77, 78, 79, 80, 81, 82, 83, 84, 85, 86, 87, 88, 89, 90, 91, 92, 93, 94, 95, 96, 97, 98, 99, 100, 101, 102, 103, 104, 105, 106, 107, 108, 109, 110, 111, 112, 113, 114, 115, 116, 117, 118, 119, 120, 121, 122, 123, 124, 125, 126, 127, 128, 129, 130, 131, 132, 133, 134, 135, 136, 137, 138, 139, 140, 141, 142, 143, 144, 145, 146, 147, 148, 149, 150, 151, 152, 153, 154, 155, 156, 157, 158, 159, 160, 161, 162, 163, 164, 165, 166, 167, 168, 169, 170, 171, 172, 173, 174, 175, 176, 177, 178, 179, 180, 181, 182, 183, 184, 185, 186, 187, 188, 189, 190, 191, 192, 193, 194, 195, 196, 197, 198, 199, 200, 201, 202, 203, 204, 205, 206, 207, 208, 209, 210, 211, 212, 213, 214, 215, 216, 217, 218, 219, 220, 221, 222, 223, 224, 225, 226, 227, 228, 229, 230, 231, 232, 233, 234, 235, 236, 237, 238, 239, 240, 241, 242, 243, 244, 245, 246, 247, 248, 249, 250, 251, 252, 253, 254, 255, 256, 257, 258, 259, 260, 261, 262, 263, 264, 265, 266, 267, 268, 269, 270, 271, 272, 273, 274, 275, 276, 277, 278, 279, 280, 281, 282, 283, 284, 285, 286, 287, 288, 289, 290, 291, 292, 293, 294, 295, 296, 297, 298, 299, 300, 301, 302, 303, 304, 305, 306, 307, 308, 309, 310, 311, 312, 313, 314, 315, 316, 317, 318, 319, 320, 321, 322, 323, 324, 325, 326, 327, 328, 329, 330, 331, 332, 333, 334, 335, 336, 337, 338, 339, 340, 341, 342, 343, 344, 345, 346, 347, 348, 349, 350, 351, 352, 353, 354, 355, 356, 357, 358, 359, 360, 361, 362, 363, 364, 365, 366, 367, 368, 369, 370, 371, 372],
