{
  "AcquisitionMatrixPE": 104,
  "AcquisitionNumber": 1,
  "AcquisitionTime": "14:25:11.587500",
  "BandwidthPerPixelPhaseEncode": 17.17,
  "BaseResolution": 104,
  "BodyPartExamined": "BRAIN",
  "CoilCombinationMethod": "Sum of Squares",
  "ConsistencyInfo": "N4_VE11C_LATEST_20160120",
  "ConversionSoftware": "dcm2niix",
  "ConversionSoftwareVersion": "v1.0.20220505",
  "DerivedVendorReportedEchoSpacing": 0.000560011,
  "DeviceSerialNumber": "167006",
  "DwellTime": 2.1e-06,
  "EchoTime": 0.037,
  "EchoTime1": 0.037,
  "EchoTime2": 0.001,
  "EchoTrainLength": 104,
  "EffectiveEchoSpacing": 0.000560011,
  "FlipAngle": 52,
  "HeudiconvVersion": "0.5.3.post811+g6206e14",
  "ImageComments": "Unaliased MB4/PE3/LB",
  "ImageOrientationPatientDICOM": [0.999869, 0.00314417, 0.0158808, 0.00157059, 0.957492, -0.288455],
  "ImageOrientationText": "Tra>Cor(-16.8)>Sag(0.9)",
  "ImageType": [
    "ORIGINAL",
    "PRIMARY",
    "P",
    "MB",
    "ND",
    "MOSAIC",
    "PHASE"
],
  "ImagingFrequency": 123.26,
  "InPlanePhaseEncodingDirectionDICOM": "COL",
  "InstitutionAddress": "Chemin Queen-Mary 4565,Montreal,District,CA,H3W 1W5",
  "InstitutionName": "IUGM",
  "InstitutionalDepartmentName": "Department",
  "MRAcquisitionType": "2D",
  "MagneticFieldStrength": 3,
  "Manufacturer": "Siemens",
  "ManufacturersModelName": "Prisma_fit",
  "MatrixCoilMode": "SENSE",
  "Modality": "MR",
  "MultibandAccelerationFactor": 4,
  "PartialFourier": 1,
  "PatientPosition": "HFS",
  "PercentPhaseFOV": 100,
  "PercentSampling": 100,
  "PhaseEncodingDirection": "j",
  "PhaseEncodingSteps": 104,
  "PhaseResolution": 1,
  "PixelBandwidth": 2290,
  "ProcedureStepDescription": "games^mario3",
  "ProtocolName": "func_task-mario3_run-03",
  "PulseSequenceDetails": "%CustomerSeq%\\cmrr_mbep2d_bold",
  "ReceiveCoilActiveElements": "HC1-7;NC1,2",
  "ReceiveCoilName": "HeadNeck_64",
  "ReconMatrixPE": 104,
  "RepetitionTime": 1.49,
  "SAR": 0.0793077,
  "ScanOptions": "FS",
  "ScanningSequence": "EP",
  "SequenceName": "epfid2d1_104",
  "SequenceVariant": "SK\\SS",
  "SeriesDescription": "func_task-mario3_run-03",
  "SeriesNumber": 20,
  "ShimSetting": [619, -7216, -8762, 695, 68, 0, 8, -6],
  "SliceThickness": 2,
  "SliceTiming": [0, 0.785, 0.1, 0.8825, 0.1975, 0.98, 0.295, 1.08, 0.3925, 1.1775, 0.49, 1.275, 0.59, 1.3725, 0.6875, 0, 0.785, 0.1, 0.8825, 0.1975, 0.98, 0.295, 1.08, 0.3925, 1.1775, 0.49, 1.275, 0.59, 1.3725, 0.6875, 0, 0.785, 0.1, 0.8825, 0.1975, 0.98, 0.295, 1.08, 0.3925, 1.1775, 0.49, 1.275, 0.59, 1.3725, 0.6875, 0, 0.785, 0.1, 0.8825, 0.1975, 0.98, 0.295, 1.08, 0.3925, 1.1775, 0.49, 1.275, 0.59, 1.3725, 0.6875],
  "SoftwareVersions": "syngo MR E11",
  "SpacingBetweenSlices": 2,
  "StationName": "MRC35049",
  "TaskName": "mario3",
  "TotalReadoutTime": 0.0576811,
  "TxRefAmp": 255.562,
  "WipMemBlock": "d6711c94-9678-4bb4-b448-02c9ae14acad||Sequence: R017 ve11c/master r/75a17815+; Jun 28 2022 16:32:11 by eja",
  "dcmmeta_affine": [
    [-1.9997378587722778, 0.0031411864329129457, 0.03222541883587837, 107.9058837890625],
    [-0.006288336589932442, 1.9149842262268066, -0.5768845677375793, -71.37073516845703],
    [0.03176163509488106, 0.5769103169441223, 1.9147233963012695, -59.30125427246094],
    [0.0, 0.0, 0.0, 1.0]
],
  "dcmmeta_reorient_transform": [
    [0.0, -1.0, 0.0, 103.0],
    [1.0, 0.0, 0.0, 0.0],
    [0.0, 0.0, 1.0, 0.0],
    [0.0, 0.0, 0.0, 1.0]
],
  "dcmmeta_shape": [104, 104, 60, 324],
  "dcmmeta_slice_dim": 2,
  "dcmmeta_version": 0.6,
  "global": {
    "const": {
      "AcquisitionMatrix": [104, 0, 0, 104],
      "AngioFlag": "N",
      "BitsAllocated": 16,
      "BitsStored": 16,
      "BodyPartExamined": "BRAIN",
      "Columns": 832,
      "EchoNumbers": 1,
      "EchoTime": 37.0,
      "EchoTrainLength": 104,
      "FlipAngle": 52.0,
      "HighBit": 15,
      "ImageOrientationPatient": [0.99986894832329, 0.00314416839984, 0.01588081811332, 0.00157059317424, 0.95749211917111, -0.2884551524281],
      "ImagePositionPatient": [-837.27741139368, -825.21585816272, 198.55462370726],
      "ImageType": [
        "ORIGINAL",
        "PRIMARY",
        "P",
        "MB",
        "ND",
        "MOSAIC"
],
      "ImagedNucleus": "1H",
      "ImagingFrequency": 123.26033,
      "InPlanePhaseEncodingDirection": "COL",
      "LargestImagePixelValue": 4095,
      "MRAcquisitionType": "2D",
      "MagneticFieldStrength": 3.0,
      "Manufacturer": "SIEMENS",
      "ManufacturerModelName": "Prisma_fit",
      "Modality": "MR",
      "NumberOfAverages": 1.0,
      "NumberOfPhaseEncodingSteps": 104,
      "PercentPhaseFieldOfView": 100.0,
      "PercentSampling": 100.0,
      "PerformedProcedureStepStartTime": "135253.777000",
      "PhotometricInterpretation": "MONOCHROME2",
      "PixelBandwidth": 2290.0,
      "PixelRepresentation": 0,
      "PixelSpacing": [2.0, 2.0],
      "ProtocolName": "func_task-mario3_run-03",
      "RepetitionTime": 1490.0,
      "RescaleIntercept": -4096.0,
      "RescaleSlope": 2.0,
      "RescaleType": "US",
      "Rows": 832,
      "SAR": 0.07930766558407,
      "SamplesPerPixel": 1,
      "ScanOptions": "FS",
      "ScanningSequence": "EP",
      "SequenceName": "epfid2d1_104",
      "SequenceVariant": [
        "SK",
        "SS"
],
      "SeriesDescription": "func_task-mario3_run-03",
      "SeriesNumber": 20,
      "SeriesTime": "142620.960000",
      "SliceLocation": -34.447753669054,
      "SliceThickness": 2.0,
      "SmallestImagePixelValue": 0,
      "SoftwareVersions": "syngo MR E11",
      "SpacingBetweenSlices": 1.9999999525409,
      "SpecificCharacterSet": "ISO_IR 100",
      "StudyID": "1",
      "StudyTime": "135253.684000",
      "TransmitCoilName": "Body",
      "VariableFlipAngleFlag": "N",
      "WindowCenterWidthExplanation": "Algo1",
      "dBdt": 0.0},
    "slices": {}
  },
  "time": {
    "samples": {
      "AcquisitionNumber": [1, 2, 3, 4, 5, 6, 7, 8, 9, 10, 11, 12, 13, 14, 15, 16, 17, 18, 19, 20, 21, 22, 23, 24, 25, 26, 27, 28, 29, 30, 31, 32, 33, 34, 35, 36, 37, 38, 39, 40, 41, 42, 43, 44, 45, 46, 47, 48, 49, 50, 51, 52, 53, 54, 55, 56, 57, 58, 59, 60, 61, 62, 63, 64, 65, 66, 67, 68, 69, 70, 71, 72, 73, 74, 75, 76, 77, 78, 79, 80, 81, 82, 83, 84, 85, 86, 87, 88, 89, 90, 91, 92, 93, 94, 95, 96, 97, 98, 99, 100, 101, 102, 103, 104, 105, 106, 107, 108, 109, 110, 111, 112, 113, 114, 115, 116, 117, 118, 119, 120, 121, 122, 123, 124, 125, 126, 127, 128, 129, 130, 131, 132, 133, 134, 135, 136, 137, 138, 139, 140, 141, 142, 143, 144, 145, 146, 147, 148, 149, 150, 151, 152, 153, 154, 155, 156, 157, 158, 159, 160, 161, 162, 163, 164, 165, 166, 167, 168, 169, 170, 171, 172, 173, 174, 175, 176, 177, 178, 179, 180, 181, 182, 183, 184, 185, 186, 187, 188, 189, 190, 191, 192, 193, 194, 195, 196, 197, 198, 199, 200, 201, 202, 203, 204, 205, 206, 207, 208, 209, 210, 211, 212, 213, 214, 215, 216, 217, 218, 219, 220, 221, 222, 223, 224, 225, 226, 227, 228, 229, 230, 231, 232, 233, 234, 235, 236, 237, 238, 239, 240, 241, 242, 243, 244, 245, 246, 247, 248, 249, 250, 251, 252, 253, 254, 255, 256, 257, 258, 259, 260, 261, 262, 263, 264, 265, 266, 267, 268, 269, 270, 271, 272, 273, 274, 275, 276, 277, 278, 279, 280, 281, 282, 283, 284, 285, 286, 287, 288, 289, 290, 291, 292, 293, 294, 295, 296, 297, 298, 299, 300, 301, 302, 303, 304, 305, 306, 307, 308, 309, 310, 311, 312, 313, 314, 315, 316, 317, 318, 319, 320, 321, 322, 323, 324],
      "AcquisitionTime": ["142511.587500", "142513.077500", "142514.567500", "142516.057500", "142517.547500", "142519.037500", "142520.527500", "142522.017500", "142523.507500", "142524.997500", "142526.487500", "142527.977500", "142529.467500", "142530.957500", "142532.447500", "142533.937500", "142535.427500", "142536.917500", "142538.407500", "142539.897500", "142541.387500", "142542.877500", "142544.367500", "142545.857500", "142547.347500", "142548.837500", "142550.327500", "142551.817500", "142553.307500", "142554.797500", "142556.287500", "142557.777500", "142559.267500", "142600.757500", "142602.247500", "142603.737500", "142605.227500", "142606.717500", "142608.207500", "142609.697500", "142611.187500", "142612.677500", "142614.167500", "142615.657500", "142617.147500", "142618.637500", "142620.127500", "142621.617500", "142623.107500", "142624.597500", "142626.087500", "142627.577500", "142629.067500", "142630.557500", "142632.047500", "142633.537500", "142635.027500", "142636.517500", "142638.007500", "142639.497500", "142640.987500", "142642.477500", "142643.967500", "142645.457500", "142646.947500", "142648.437500", "142649.927500", "142651.417500", "142652.907500", "142654.397500", "142655.887500", "142657.377500", "142658.867500", "142700.357500", "142701.847500", "142703.337500", "142704.827500", "142706.317500", "142707.807500", "142709.297500", "142710.787500", "142712.277500", "142713.767500", "142715.257500", "142716.747500", "142718.237500", "142719.727500", "142721.217500", "142722.707500", "142724.197500", "142725.687500", "142727.177500", "142728.667500", "142730.157500", "142731.647500", "142733.137500", "142734.627500", "142736.117500", "142737.607500", "142739.097500", "142740.587500", "142742.077500", "142743.567500", "142745.057500", "142746.547500", "142748.037500", "142749.527500", "142751.017500", "142752.507500", "142753.997500", "142755.487500", "142756.977500", "142758.467500", "142759.957500", "142801.447500", "142802.937500", "142804.427500", "142805.917500", "142807.407500", "142808.897500", "142810.387500", "142811.877500", "142813.367500", "142814.857500", "142816.347500", "142817.837500", "142819.327500", "142820.817500", "142822.307500", "142823.797500", "142825.287500", "142826.777500", "142828.267500", "142829.757500", "142831.247500", "142832.737500", "142834.227500", "142835.717500", "142837.207500", "142838.697500", "142840.187500", "142841.677500", "142843.167500", "142844.657500", "142846.147500", "142847.637500", "142849.127500", "142850.617500", "142852.107500", "142853.597500", "142855.087500", "142856.577500", "142858.067500", "142859.557500", "142901.047500", "142902.537500", "142904.027500", "142905.517500", "142907.007500", "142908.497500", "142909.987500", "142911.477500", "142912.967500", "142914.457500", "142915.947500", "142917.437500", "142918.927500", "142920.417500", "142921.907500", "142923.397500", "142924.887500", "142926.377500", "142927.867500", "142929.357500", "142930.847500", "142932.337500", "142933.827500", "142935.317500", "142936.807500", "142938.297500", "142939.787500", "142941.277500", "142942.767500", "142944.257500", "142945.747500", "142947.237500", "142948.727500", "142950.217500", "142951.707500", "142953.197500", "142954.687500", "142956.177500", "142957.667500", "142959.157500", "143000.647500", "143002.137500", "143003.627500", "143005.117500", "143006.607500", "143008.097500", "143009.587500", "143011.077500", "143012.567500", "143014.057500", "143015.547500", "143017.037500", "143018.527500", "143020.017500", "143021.507500", "143022.997500", "143024.487500", "143025.977500", "143027.467500", "143028.957500", "143030.447500", "143031.937500", "143033.427500", "143034.917500", "143036.407500", "143037.897500", "143039.387500", "143040.877500", "143042.367500", "143043.857500", "143045.347500", "143046.837500", "143048.327500", "143049.817500", "143051.307500", "143052.797500", "143054.287500", "143055.777500", "143057.267500", "143058.757500", "143100.247500", "143101.737500", "143103.227500", "143104.717500", "143106.207500", "143107.697500", "143109.187500", "143110.677500", "143112.167500", "143113.657500", "143115.147500", "143116.637500", "143118.127500", "143119.617500", "143121.107500", "143122.597500", "143124.087500", "143125.577500", "143127.067500", "143128.557500", "143130.047500", "143131.537500", "143133.027500", "143134.517500", "143136.007500", "143137.497500", "143138.987500", "143140.477500", "143141.967500", "143143.457500", "143144.947500", "143146.437500", "143147.927500", "143149.417500", "143150.907500", "143152.397500", "143153.887500", "143155.377500", "143156.867500", "143158.357500", "143159.847500", "143201.337500", "143202.827500", "143204.317500", "143205.807500", "143207.297500", "143208.787500", "143210.277500", "143211.767500", "143213.257500", "143214.747500", "143216.237500", "143217.727500", "143219.217500", "143220.707500", "143222.197500", "143223.687500", "143225.177500", "143226.667500", "143228.157500", "143229.647500", "143231.137500", "143232.627500", "143234.117500", "143235.607500", "143237.097500", "143238.587500", "143240.077500", "143241.567500", "143243.057500", "143244.547500", "143246.037500", "143247.527500", "143249.017500", "143250.507500", "143251.997500", "143253.487500", "143254.977500", "143256.467500", "143257.957500", "143259.447500", "143300.937500", "143302.427500", "143303.917500", "143305.407500", "143306.897500", "143308.387500", "143309.877500", "143311.367500", "143312.857500"],
      "ContentTime": ["142620.962000", "142620.965000", "142620.968000", "142620.970000", "142620.973000", "142620.975000", "142620.978000", "142620.980000", "142620.983000", "142620.985000", "142620.988000", "142620.990000", "142620.993000", "142620.995000", "142620.998000", "142621.002000", "142621.004000", "142621.007000", "142621.009000", "142621.011000", "142641.010000", "142641.013000", "142641.016000", "142641.018000", "142641.021000", "142641.023000", "142641.026000", "142641.028000", "142641.030000", "142641.033000", "142641.035000", "142641.038000", "142641.044000", "142641.047000", "142641.049000", "142641.052000", "142641.058000", "142641.060000", "142641.063000", "142641.065000", "142700.907000", "142700.909000", "142700.912000", "142700.914000", "142700.917000", "142700.919000", "142700.922000", "142700.924000", "142700.927000", "142700.929000", "142700.932000", "142700.934000", "142700.937000", "142700.939000", "142700.941000", "142700.944000", "142700.946000", "142700.949000", "142700.951000", "142700.954000", "142720.917000", "142720.920000", "142720.922000", "142720.925000", "142720.927000", "142720.930000", "142720.932000", "142720.935000", "142720.937000", "142720.940000", "142720.942000", "142720.945000", "142720.947000", "142720.950000", "142720.952000", "142720.955000", "142720.957000", "142720.960000", "142720.962000", "142720.965000", "142800.981000", "142800.984000", "142800.986000", "142800.989000", "142800.991000", "142800.994000", "142800.996000", "142801.000000", "142801.002000", "142801.005000", "142801.007000", "142801.010000", "142801.022000", "142801.025000", "142801.027000", "142801.030000", "142801.032000", "142801.035000", "142801.037000", "142801.040000", "142801.042000", "142801.045000", "142801.047000", "142801.050000", "142801.052000", "142801.054000", "142801.057000", "142801.059000", "142801.062000", "142801.064000", "142801.067000", "142801.070000", "142840.949000", "142840.952000", "142840.955000", "142840.957000", "142840.960000", "142840.962000", "142840.965000", "142840.967000", "142840.970000", "142840.972000", "142840.975000", "142840.977000", "142840.980000", "142840.982000", "142840.985000", "142840.987000", "142840.990000", "142840.992000", "142840.995000", "142840.998000", "142841.002000", "142841.005000", "142841.007000", "142841.010000", "142841.012000", "142841.015000", "142841.017000", "142920.946000", "142920.948000", "142920.951000", "142920.954000", "142920.956000", "142920.959000", "142920.961000", "142920.964000", "142920.966000", "142920.969000", "142920.971000", "142920.974000", "142920.979000", "142920.982000", "142920.984000", "142920.987000", "142920.990000", "142920.992000", "142920.995000", "142920.997000", "142921.001000", "142921.003000", "142921.006000", "142921.008000", "142921.011000", "142921.013000", "142921.016000", "143000.953000", "143000.956000", "143000.959000", "143000.961000", "143000.964000", "143000.966000", "143000.969000", "143000.971000", "143000.974000", "143000.976000", "143000.978000", "143000.981000", "143000.983000", "143000.986000", "143000.988000", "143000.991000", "143000.993000", "143000.996000", "143000.998000", "143001.001000", "143001.003000", "143001.006000", "143001.008000", "143001.011000", "143001.013000", "143001.016000", "143001.018000", "143040.933000", "143040.936000", "143040.939000", "143040.941000", "143040.944000", "143040.946000", "143040.949000", "143040.951000", "143040.953000", "143040.956000", "143040.958000", "143040.961000", "143040.963000", "143040.966000", "143040.968000", "143040.971000", "143040.973000", "143040.976000", "143040.978000", "143040.981000", "143040.983000", "143040.986000", "143040.988000", "143040.991000", "143040.993000", "143040.996000", "143040.998000", "143120.935000", "143120.938000", "143120.941000", "143120.943000", "143120.946000", "143120.948000", "143120.951000", "143120.953000", "143120.955000", "143120.958000", "143120.960000", "143120.963000", "143120.965000", "143120.968000", "143120.970000", "143120.973000", "143120.975000", "143120.978000", "143120.980000", "143120.983000", "143120.985000", "143120.988000", "143120.990000", "143120.993000", "143120.995000", "143120.998000", "143121.002000", "143200.943000", "143200.946000", "143200.948000", "143200.951000", "143200.953000", "143200.956000", "143200.958000", "143200.961000", "143200.963000", "143200.966000", "143200.968000", "143200.971000", "143200.973000", "143200.976000", "143200.978000", "143200.981000", "143200.983000", "143200.986000", "143200.988000", "143200.991000", "143200.993000", "143200.996000", "143200.998000", "143201.002000", "143201.004000", "143201.007000", "143240.963000", "143240.965000", "143240.968000", "143240.971000", "143240.973000", "143240.976000", "143240.978000", "143240.981000", "143240.983000", "143240.986000", "143240.988000", "143240.991000", "143240.993000", "143240.996000", "143240.998000", "143241.002000", "143241.006000", "143241.008000", "143241.011000", "143241.014000", "143241.017000", "143241.020000", "143241.023000", "143241.025000", "143241.028000", "143241.032000", "143241.035000", "143315.638000", "143315.640000", "143315.643000", "143315.645000", "143315.648000", "143315.651000", "143315.653000", "143315.656000", "143315.658000", "143315.661000", "143315.664000", "143315.666000", "143315.669000", "143315.672000", "143315.675000", "143315.677000", "143315.680000", "143315.682000", "143315.685000", "143315.697000", "143315.700000", "143315.703000", "143315.705000", "143315.708000"],
      "InstanceCreationTime": ["142620.962000", "142620.965000", "142620.968000", "142620.970000", "142620.973000", "142620.975000", "142620.978000", "142620.980000", "142620.983000", "142620.985000", "142620.988000", "142620.990000", "142620.993000", "142620.995000", "142620.998000", "142621.002000", "142621.004000", "142621.007000", "142621.009000", "142621.011000", "142641.010000", "142641.013000", "142641.016000", "142641.018000", "142641.021000", "142641.023000", "142641.026000", "142641.028000", "142641.030000", "142641.033000", "142641.035000", "142641.038000", "142641.044000", "142641.047000", "142641.049000", "142641.052000", "142641.058000", "142641.060000", "142641.063000", "142641.065000", "142700.907000", "142700.909000", "142700.912000", "142700.914000", "142700.917000", "142700.919000", "142700.922000", "142700.924000", "142700.927000", "142700.929000", "142700.932000", "142700.934000", "142700.937000", "142700.939000", "142700.941000", "142700.944000", "142700.946000", "142700.949000", "142700.951000", "142700.954000", "142720.917000", "142720.920000", "142720.922000", "142720.925000", "142720.927000", "142720.930000", "142720.932000", "142720.935000", "142720.937000", "142720.940000", "142720.942000", "142720.945000", "142720.947000", "142720.950000", "142720.952000", "142720.955000", "142720.957000", "142720.960000", "142720.962000", "142720.965000", "142800.981000", "142800.984000", "142800.986000", "142800.989000", "142800.991000", "142800.994000", "142800.996000", "142801.000000", "142801.002000", "142801.005000", "142801.007000", "142801.010000", "142801.022000", "142801.025000", "142801.027000", "142801.030000", "142801.032000", "142801.035000", "142801.037000", "142801.040000", "142801.042000", "142801.045000", "142801.047000", "142801.050000", "142801.052000", "142801.054000", "142801.057000", "142801.059000", "142801.062000", "142801.064000", "142801.067000", "142801.070000", "142840.949000", "142840.952000", "142840.955000", "142840.957000", "142840.960000", "142840.962000", "142840.965000", "142840.967000", "142840.970000", "142840.972000", "142840.975000", "142840.977000", "142840.980000", "142840.982000", "142840.985000", "142840.987000", "142840.990000", "142840.992000", "142840.995000", "142840.998000", "142841.002000", "142841.005000", "142841.007000", "142841.010000", "142841.012000", "142841.015000", "142841.017000", "142920.946000", "142920.948000", "142920.951000", "142920.954000", "142920.956000", "142920.959000", "142920.961000", "142920.964000", "142920.966000", "142920.969000", "142920.971000", "142920.974000", "142920.979000", "142920.982000", "142920.984000", "142920.987000", "142920.990000", "142920.992000", "142920.995000", "142920.997000", "142921.001000", "142921.003000", "142921.006000", "142921.008000", "142921.011000", "142921.013000", "142921.016000", "143000.953000", "143000.956000", "143000.959000", "143000.961000", "143000.964000", "143000.966000", "143000.969000", "143000.971000", "143000.974000", "143000.976000", "143000.978000", "143000.981000", "143000.983000", "143000.986000", "143000.988000", "143000.991000", "143000.993000", "143000.996000", "143000.998000", "143001.001000", "143001.003000", "143001.006000", "143001.008000", "143001.011000", "143001.013000", "143001.016000", "143001.018000", "143040.933000", "143040.936000", "143040.939000", "143040.941000", "143040.944000", "143040.946000", "143040.949000", "143040.951000", "143040.953000", "143040.956000", "143040.958000", "143040.961000", "143040.963000", "143040.966000", "143040.968000", "143040.971000", "143040.973000", "143040.976000", "143040.978000", "143040.981000", "143040.983000", "143040.986000", "143040.988000", "143040.991000", "143040.993000", "143040.996000", "143040.998000", "143120.935000", "143120.938000", "143120.941000", "143120.943000", "143120.946000", "143120.948000", "143120.951000", "143120.953000", "143120.955000", "143120.958000", "143120.960000", "143120.963000", "143120.965000", "143120.968000", "143120.970000", "143120.973000", "143120.975000", "143120.978000", "143120.980000", "143120.983000", "143120.985000", "143120.988000", "143120.990000", "143120.993000", "143120.995000", "143120.998000", "143121.002000", "143200.943000", "143200.946000", "143200.948000", "143200.951000", "143200.953000", "143200.956000", "143200.958000", "143200.961000", "143200.963000", "143200.966000", "143200.968000", "143200.971000", "143200.973000", "143200.976000", "143200.978000", "143200.981000", "143200.983000", "143200.986000", "143200.988000", "143200.991000", "143200.993000", "143200.996000", "143200.998000", "143201.002000", "143201.004000", "143201.007000", "143240.963000", "143240.965000", "143240.968000", "143240.971000", "143240.973000", "143240.976000", "143240.978000", "143240.981000", "143240.983000", "143240.986000", "143240.988000", "143240.991000", "143240.993000", "143240.996000", "143240.998000", "143241.002000", "143241.006000", "143241.008000", "143241.011000", "143241.014000", "143241.017000", "143241.020000", "143241.023000", "143241.025000", "143241.028000", "143241.032000", "143241.035000", "143315.638000", "143315.640000", "143315.643000", "143315.645000", "143315.648000", "143315.651000", "143315.653000", "143315.656000", "143315.658000", "143315.661000", "143315.664000", "143315.666000", "143315.669000", "143315.672000", "143315.675000", "143315.677000", "143315.680000", "143315.682000", "143315.685000", "143315.697000", "143315.700000", "143315.703000", "143315.705000", "143315.708000"],
      "InstanceNumber": [1, 2, 3, 4, 5, 6, 7, 8, 9, 10, 11, 12, 13, 14, 15, 16, 17, 18, 19, 20, 21, 22, 23, 24, 25, 26, 27, 28, 29, 30, 31, 32, 33, 34, 35, 36, 37, 38, 39, 40, 41, 42, 43, 44, 45, 46, 47, 48, 49, 50, 51, 52, 53, 54, 55, 56, 57, 58, 59, 60, 61, 62, 63, 64, 65, 66, 67, 68, 69, 70, 71, 72, 73, 74, 75, 76, 77, 78, 79, 80, 81, 82, 83, 84, 85, 86, 87, 88, 89, 90, 91, 92, 93, 94, 95, 96, 97, 98, 99, 100, 101, 102, 103, 104, 105, 106, 107, 108, 109, 110, 111, 112, 113, 114, 115, 116, 117, 118, 119, 120, 121, 122, 123, 124, 125, 126, 127, 128, 129, 130, 131, 132, 133, 134, 135, 136, 137, 138, 139, 140, 141, 142, 143, 144, 145, 146, 147, 148, 149, 150, 151, 152, 153, 154, 155, 156, 157, 158, 159, 160, 161, 162, 163, 164, 165, 166, 167, 168, 169, 170, 171, 172, 173, 174, 175, 176, 177, 178, 179, 180, 181, 182, 183, 184, 185, 186, 187, 188, 189, 190, 191, 192, 193, 194, 195, 196, 197, 198, 199, 200, 201, 202, 203, 204, 205, 206, 207, 208, 209, 210, 211, 212, 213, 214, 215, 216, 217, 218, 219, 220, 221, 222, 223, 224, 225, 226, 227, 228, 229, 230, 231, 232, 233, 234, 235, 236, 237, 238, 239, 240, 241, 242, 243, 244, 245, 246, 247, 248, 249, 250, 251, 252, 253, 254, 255, 256, 257, 258, 259, 260, 261, 262, 263, 264, 265, 266, 267, 268, 269, 270, 271, 272, 273, 274, 275, 276, 277, 278, 279, 280, 281, 282, 283, 284, 285, 286, 287, 288, 289, 290, 291, 292, 293, 294, 295, 296, 297, 298, 299, 300, 301, 302, 303, 304, 305, 306, 307, 308, 309, 310, 311, 312, 313, 314, 315, 316, 317, 318, 319, 320, 321, 322, 323, 324],
      "WindowCenter": [4860.0, 4834.0, 4836.0, 4836.0, 4832.0, 4836.0, 4836.0, 4832.0, 4860.0, 4856.0, 4858.0, 4832.0, 4836.0, 4832.0, 4838.0, 4858.0, 4862.0, 4862.0, 4860.0, 4860.0, 4836.0, 4832.0, 4832.0, 4836.0, 4854.0, 4834.0, 4860.0, 4862.0, 4860.0, 4860.0, 4860.0, 4858.0, 4834.0, 4860.0, 4858.0, 4838.0, 4860.0, 4836.0, 4862.0, 4860.0, 4860.0, 4836.0, 4860.0, 4860.0, 4858.0, 4860.0, 4860.0, 4862.0, 4858.0, 4858.0, 4836.0, 4832.0, 4860.0, 4858.0, 4860.0, 4834.0, 4858.0, 4858.0, 4860.0, 4862.0, 4860.0, 4836.0, 4858.0, 4836.0, 4858.0, 4836.0, 4836.0, 4862.0, 4864.0, 4862.0, 4862.0, 4862.0, 4860.0, 4838.0, 4862.0, 4836.0, 4860.0, 4834.0, 4858.0, 4858.0, 4860.0, 4860.0, 4860.0, 4858.0, 4860.0, 4860.0, 4862.0, 4862.0, 4860.0, 4864.0, 4862.0, 4862.0, 4860.0, 4860.0, 4862.0, 4860.0, 4858.0, 4860.0, 4830.0, 4836.0, 4858.0, 4862.0, 4860.0, 4864.0, 4862.0, 4862.0, 4858.0, 4860.0, 4862.0, 4836.0, 4836.0, 4838.0, 4860.0, 4836.0, 4862.0, 4864.0, 4864.0, 4862.0, 4862.0, 4862.0, 4862.0, 4838.0, 4860.0, 4862.0, 4864.0, 4860.0, 4862.0, 4862.0, 4862.0, 4862.0, 4858.0, 4860.0, 4836.0, 4860.0, 4858.0, 4858.0, 4862.0, 4860.0, 4862.0, 4862.0, 4860.0, 4864.0, 4860.0, 4838.0, 4836.0, 4860.0, 4860.0, 4862.0, 4860.0, 4838.0, 4834.0, 4858.0, 4862.0, 4862.0, 4858.0, 4858.0, 4862.0, 4864.0, 4860.0, 4858.0, 4860.0, 4862.0, 4862.0, 4860.0, 4860.0, 4862.0, 4864.0, 4864.0, 4862.0, 4860.0, 4864.0, 4864.0, 4858.0, 4860.0, 4860.0, 4864.0, 4862.0, 4860.0, 4858.0, 4864.0, 4862.0, 4862.0, 4864.0, 4862.0, 4860.0, 4860.0, 4860.0, 4838.0, 4862.0, 4860.0, 4862.0, 4864.0, 4862.0, 4862.0, 4862.0, 4862.0, 4862.0, 4860.0, 4860.0, 4860.0, 4860.0, 4860.0, 4834.0, 4834.0, 4860.0, 4860.0, 4862.0, 4862.0, 4862.0, 4864.0, 4862.0, 4862.0, 4834.0, 4860.0, 4866.0, 4862.0, 4864.0, 4860.0, 4862.0, 4860.0, 4862.0, 4862.0, 4858.0, 4836.0, 4860.0, 4862.0, 4860.0, 4858.0, 4864.0, 4860.0, 4862.0, 4860.0, 4862.0, 4864.0, 4856.0, 4860.0, 4836.0, 4862.0, 4862.0, 4862.0, 4860.0, 4862.0, 4864.0, 4862.0, 4862.0, 4862.0, 4860.0, 4862.0, 4860.0, 4836.0, 4862.0, 4862.0, 4862.0, 4860.0, 4862.0, 4860.0, 4862.0, 4860.0, 4864.0, 4858.0, 4860.0, 4858.0, 4858.0, 4860.0, 4838.0, 4862.0, 4862.0, 4860.0, 4860.0, 4860.0, 4858.0, 4860.0, 4862.0, 4862.0, 4834.0, 4862.0, 4862.0, 4864.0, 4858.0, 4862.0, 4858.0, 4838.0, 4860.0, 4862.0, 4886.0, 4862.0, 4864.0, 4862.0, 4858.0, 4862.0, 4860.0, 4864.0, 4862.0, 4862.0, 4860.0, 4864.0, 4864.0, 4860.0, 4860.0, 4858.0, 4858.0, 4862.0, 4864.0, 4860.0, 4860.0, 4864.0, 4858.0, 4862.0, 4860.0, 4862.0, 4860.0, 4860.0, 4860.0, 4838.0, 4860.0, 4862.0, 4866.0, 4864.0, 4860.0, 4860.0, 4836.0, 4858.0, 4860.0, 4860.0],
