{
  "AcquisitionMatrixPE": 104,
  "AcquisitionNumber": 1,
  "AcquisitionTime": "18:49:34.497500",
  "BandwidthPerPixelPhaseEncode": 17.17,
  "BaseResolution": 104,
  "BodyPartExamined": "BRAIN",
  "CoilCombinationMethod": "Sum of Squares",
  "ConsistencyInfo": "N4_VE11C_LATEST_20160120",
  "ConversionSoftware": "dcm2niix",
  "ConversionSoftwareVersion": "v1.0.20220505",
  "DerivedVendorReportedEchoSpacing": 0.000560011,
  "DeviceSerialNumber": "167006",
  "DwellTime": 2.1e-06,
  "EchoTime": 0.037,
  "EchoTrainLength": 104,
  "EffectiveEchoSpacing": 0.000560011,
  "FlipAngle": 52,
  "HeudiconvVersion": "0.5.3.post811+g6206e14",
  "ImageComments": "Unaliased MB4/PE3/LB",
  "ImageOrientationPatientDICOM": [0.999863, -0.0144349, 0.00811844, 0.0164053, 0.930407, -0.366161],
  "ImageOrientationText": "Tra>Cor(-21.5)>Sag(0.1)",
  "ImageType": [
    "ORIGINAL",
    "PRIMARY",
    "M",
    "MB",
    "ND",
    "MOSAIC"
],
  "ImagingFrequency": 123.26,
  "InPlanePhaseEncodingDirectionDICOM": "COL",
  "InstitutionAddress": "Chemin Queen-Mary 4565,Montreal,District,CA,H3W 1W5",
  "InstitutionName": "IUGM",
  "InstitutionalDepartmentName": "Department",
  "MRAcquisitionType": "2D",
  "MagneticFieldStrength": 3,
  "Manufacturer": "Siemens",
  "ManufacturersModelName": "Prisma_fit",
  "MatrixCoilMode": "SENSE",
  "Modality": "MR",
  "MultibandAccelerationFactor": 4,
  "PartialFourier": 1,
  "PatientPosition": "HFS",
  "PercentPhaseFOV": 100,
  "PercentSampling": 100,
  "PhaseEncodingDirection": "j",
  "PhaseEncodingSteps": 104,
  "PhaseResolution": 1,
  "PixelBandwidth": 2290,
  "ProcedureStepDescription": "games^mario3",
  "ProtocolName": "func_task-mario3_run-03",
  "PulseSequenceDetails": "%CustomerSeq%\\cmrr_mbep2d_bold",
  "ReceiveCoilActiveElements": "HC1-7;NC1,2",
  "ReceiveCoilName": "HeadNeck_64",
  "ReconMatrixPE": 104,
  "RepetitionTime": 1.49,
  "SAR": 0.0967074,
  "ScanOptions": "FS",
  "ScanningSequence": "EP",
  "SequenceName": "epfid2d1_104",
  "SequenceVariant": "SK\\SS",
  "SeriesDescription": "func_task-mario3_run-03",
  "SeriesNumber": 16,
  "ShimSetting": [599, -7261, -8811, 450, 13, -363, -8, 32],
  "SliceThickness": 2,
  "SliceTiming": [0, 0.785, 0.0975, 0.8825, 0.1975, 0.98, 0.295, 1.0775, 0.3925, 1.175, 0.49, 1.275, 0.5875, 1.3725, 0.685, 0, 0.785, 0.0975, 0.8825, 0.1975, 0.98, 0.295, 1.0775, 0.3925, 1.175, 0.49, 1.275, 0.5875, 1.3725, 0.685, 0, 0.785, 0.0975, 0.8825, 0.1975, 0.98, 0.295, 1.0775, 0.3925, 1.175, 0.49, 1.275, 0.5875, 1.3725, 0.685, 0, 0.785, 0.0975, 0.8825, 0.1975, 0.98, 0.295, 1.0775, 0.3925, 1.175, 0.49, 1.275, 0.5875, 1.3725, 0.685],
  "SoftwareVersions": "syngo MR E11",
  "SpacingBetweenSlices": 2,
  "StationName": "MRC35049",
  "TaskName": "mario3",
  "TotalReadoutTime": 0.0576811,
  "TxRefAmp": 322.451,
  "WipMemBlock": "8ac269e8-7247-41c8-9674-cdce1263fad7||Sequence: R017 ve11c/master r/75a17815+; Jun 28 2022 16:32:11 by eja",
  "dcmmeta_affine": [
    [-1.9997256994247437, 0.03281054273247719, 0.0045358953066170216, 102.30154418945312],
    [0.028869876638054848, 1.8608139753341675, -0.7324873805046082, -69.79436492919922],
    [0.016236882656812668, 0.7323214411735535, 1.861032485961914, -63.09316635131836],
    [0.0, 0.0, 0.0, 1.0]
],
  "dcmmeta_reorient_transform": [
    [0.0, -1.0, 0.0, 103.0],
    [1.0, 0.0, 0.0, 0.0],
    [0.0, 0.0, 1.0, 0.0],
    [0.0, 0.0, 0.0, 1.0]
],
  "dcmmeta_shape": [104, 104, 60, 375],
  "dcmmeta_slice_dim": 2,
  "dcmmeta_version": 0.6,
  "global": {
    "const": {
      "AcquisitionMatrix": [104, 0, 0, 104],
      "AngioFlag": "N",
      "BitsAllocated": 16,
      "BitsStored": 16,
      "BodyPartExamined": "BRAIN",
      "Columns": 832,
      "EchoNumbers": 1,
      "EchoTime": 37.0,
      "EchoTrainLength": 104,
      "FlipAngle": 52.0,
      "HighBit": 15,
      "ImageOrientationPatient": [0.99986285233304, -0.0144349378815, 0.00811844152443, 0.01640527166881, 0.93040700226537, -0.3661607259074],
      "ImagePositionPatient": [-845.52422278047, -788.69713693136, 272.99072513179],
      "ImageType": [
        "ORIGINAL",
        "PRIMARY",
        "M",
        "MB",
        "ND",
        "MOSAIC"
],
      "ImagedNucleus": "1H",
      "ImagingFrequency": 123.260177,
      "InPlanePhaseEncodingDirection": "COL",
      "MRAcquisitionType": "2D",
      "MagneticFieldStrength": 3.0,
      "Manufacturer": "SIEMENS",
      "ManufacturerModelName": "Prisma_fit",
      "Modality": "MR",
      "NumberOfAverages": 1.0,
      "NumberOfPhaseEncodingSteps": 104,
      "PercentPhaseFieldOfView": 100.0,
      "PercentSampling": 100.0,
      "PerformedProcedureStepStartTime": "182341.927000",
      "PhotometricInterpretation": "MONOCHROME2",
      "PixelBandwidth": 2290.0,
      "PixelRepresentation": 0,
      "PixelSpacing": [2.0, 2.0],
      "ProtocolName": "func_task-mario3_run-03",
      "RepetitionTime": 1490.0,
      "Rows": 832,
      "SAR": 0.09670735822059,
      "SamplesPerPixel": 1,
      "ScanOptions": "FS",
      "ScanningSequence": "EP",
      "SequenceName": "epfid2d1_104",
      "SequenceVariant": [
        "SK",
        "SS"
],
      "SeriesDescription": "func_task-mario3_run-03",
      "SeriesNumber": 16,
      "SeriesTime": "185051.872000",
      "SliceLocation": -32.915453156998,
      "SliceThickness": 2.0,
      "SmallestImagePixelValue": 0,
      "SoftwareVersions": "syngo MR E11",
      "SpacingBetweenSlices": 2.0000000529304,
      "SpecificCharacterSet": "ISO_IR 100",
      "StudyID": "1",
      "StudyTime": "182341.858000",
      "TransmitCoilName": "Body",
      "VariableFlipAngleFlag": "N",
      "WindowCenterWidthExplanation": "Algo1",
      "dBdt": 0.0},
    "slices": {}
  },
  "time": {
    "samples": {
      "AcquisitionNumber": [1, 2, 3, 4, 5, 6, 7, 8, 9, 10, 11, 12, 13, 14, 15, 16, 17, 18, 19, 20, 21, 22, 23, 24, 25, 26, 27, 28, 29, 30, 31, 32, 33, 34, 35, 36, 37, 38, 39, 40, 41, 42, 43, 44, 45, 46, 47, 48, 49, 50, 51, 52, 53, 54, 55, 56, 57, 58, 59, 60, 61, 62, 63, 64, 65, 66, 67, 68, 69, 70, 71, 72, 73, 74, 75, 76, 77, 78, 79, 80, 81, 82, 83, 84, 85, 86, 87, 88, 89, 90, 91, 92, 93, 94, 95, 96, 97, 98, 99, 100, 101, 102, 103, 104, 105, 106, 107, 108, 109, 110, 111, 112, 113, 114, 115, 116, 117, 118, 119, 120, 121, 122, 123, 124, 125, 126, 127, 128, 129, 130, 131, 132, 133, 134, 135, 136, 137, 138, 139, 140, 141, 142, 143, 144, 145, 146, 147, 148, 149, 150, 151, 152, 153, 154, 155, 156, 157, 158, 159, 160, 161, 162, 163, 164, 165, 166, 167, 168, 169, 170, 171, 172, 173, 174, 175, 176, 177, 178, 179, 180, 181, 182, 183, 184, 185, 186, 187, 188, 189, 190, 191, 192, 193, 194, 195, 196, 197, 198, 199, 200, 201, 202, 203, 204, 205, 206, 207, 208, 209, 210, 211, 212, 213, 214, 215, 216, 217, 218, 219, 220, 221, 222, 223, 224, 225, 226, 227, 228, 229, 230, 231, 232, 233, 234, 235, 236, 237, 238, 239, 240, 241, 242, 243, 244, 245, 246, 247, 248, 249, 250, 251, 252, 253, 254, 255, 256, 257, 258, 259, 260, 261, 262, 263, 264, 265, 266, 267, 268, 269, 270, 271, 272, 273, 274, 275, 276, 277, 278, 279, 280, 281, 282, 283, 284, 285, 286, 287, 288, 289, 290, 291, 292, 293, 294, 295, 296, 297, 298, 299, 300, 301, 302, 303, 304, 305, 306, 307, 308, 309, 310, 311, 312, 313, 314, 315, 316, 317, 318, 319, 320, 321, 322, 323, 324, 325, 326, 327, 328, 329, 330, 331, 332, 333, 334, 335, 336, 337, 338, 339, 340, 341, 342, 343, 344, 345, 346, 347, 348, 349, 350, 351, 352, 353, 354, 355, 356, 357, 358, 359, 360, 361, 362, 363, 364, 365, 366, 367, 368, 369, 370, 371, 372, 373, 374, 375],
      "AcquisitionTime": ["184934.497500", "184935.987500", "184937.477500", "184938.967500", "184940.457500", "184941.947500", "184943.437500", "184944.927500", "184946.417500", "184947.907500", "184949.397500", "184950.887500", "184952.377500", "184953.867500", "184955.357500", "184956.847500", "184958.337500", "184959.827500", "185001.317500", "185002.807500", "185004.297500", "185005.787500", "185007.277500", "185008.767500", "185010.257500", "185011.747500", "185013.237500", "185014.727500", "185016.217500", "185017.707500", "185019.197500", "185020.687500", "185022.177500", "185023.667500", "185025.157500", "185026.647500", "185028.137500", "185029.627500", "185031.117500", "185032.607500", "185034.097500", "185035.587500", "185037.077500", "185038.567500", "185040.057500", "185041.547500", "185043.037500", "185044.527500", "185046.017500", "185047.507500", "185048.997500", "185050.487500", "185051.977500", "185053.467500", "185054.957500", "185056.447500", "185057.937500", "185059.427500", "185100.917500", "185102.407500", "185103.897500", "185105.387500", "185106.877500", "185108.367500", "185109.857500", "185111.347500", "185112.837500", "185114.327500", "185115.817500", "185117.307500", "185118.797500", "185120.287500", "185121.777500", "185123.267500", "185124.757500", "185126.247500", "185127.737500", "185129.227500", "185130.717500", "185132.207500", "185133.697500", "185135.187500", "185136.677500", "185138.167500", "185139.657500", "185141.147500", "185142.637500", "185144.127500", "185145.617500", "185147.107500", "185148.597500", "185150.087500", "185151.577500", "185153.067500", "185154.557500", "185156.047500", "185157.537500", "185159.027500", "185200.517500", "185202.007500", "185203.497500", "185204.987500", "185206.477500", "185207.967500", "185209.457500", "185210.947500", "185212.437500", "185213.927500", "185215.417500", "185216.907500", "185218.397500", "185219.887500", "185221.377500", "185222.867500", "185224.357500", "185225.847500", "185227.337500", "185228.827500", "185230.317500", "185231.807500", "185233.297500", "185234.787500", "185236.277500", "185237.767500", "185239.257500", "185240.747500", "185242.237500", "185243.727500", "185245.217500", "185246.707500", "185248.197500", "185249.687500", "185251.177500", "185252.667500", "185254.157500", "185255.647500", "185257.137500", "185258.627500", "185300.117500", "185301.607500", "185303.097500", "185304.587500", "185306.077500", "185307.567500", "185309.057500", "185310.547500", "185312.037500", "185313.527500", "185315.017500", "185316.507500", "185317.997500", "185319.487500", "185320.977500", "185322.467500", "185323.957500", "185325.447500", "185326.937500", "185328.427500", "185329.917500", "185331.407500", "185332.897500", "185334.387500", "185335.877500", "185337.367500", "185338.857500", "185340.347500", "185341.837500", "185343.327500", "185344.817500", "185346.307500", "185347.797500", "185349.287500", "185350.777500", "185352.267500", "185353.757500", "185355.247500", "185356.737500", "185358.227500", "185359.717500", "185401.207500", "185402.697500", "185404.187500", "185405.677500", "185407.167500", "185408.657500", "185410.147500", "185411.637500", "185413.127500", "185414.617500", "185416.107500", "185417.597500", "185419.087500", "185420.577500", "185422.067500", "185423.557500", "185425.047500", "185426.537500", "185428.027500", "185429.517500", "185431.007500", "185432.497500", "185433.987500", "185435.477500", "185436.967500", "185438.457500", "185439.947500", "185441.437500", "185442.927500", "185444.417500", "185445.907500", "185447.397500", "185448.887500", "185450.377500", "185451.867500", "185453.357500", "185454.847500", "185456.337500", "185457.827500", "185459.317500", "185500.807500", "185502.297500", "185503.787500", "185505.277500", "185506.767500", "185508.257500", "185509.747500", "185511.237500", "185512.727500", "185514.217500", "185515.707500", "185517.197500", "185518.687500", "185520.177500", "185521.667500", "185523.157500", "185524.647500", "185526.137500", "185527.627500", "185529.117500", "185530.607500", "185532.097500", "185533.587500", "185535.077500", "185536.567500", "185538.057500", "185539.547500", "185541.037500", "185542.527500", "185544.017500", "185545.507500", "185546.997500", "185548.487500", "185549.977500", "185551.467500", "185552.957500", "185554.447500", "185555.937500", "185557.427500", "185558.917500", "185600.407500", "185601.897500", "185603.387500", "185604.877500", "185606.367500", "185607.857500", "185609.347500", "185610.837500", "185612.327500", "185613.817500", "185615.307500", "185616.797500", "185618.287500", "185619.777500", "185621.267500", "185622.757500", "185624.247500", "185625.737500", "185627.227500", "185628.717500", "185630.207500", "185631.697500", "185633.187500", "185634.677500", "185636.167500", "185637.657500", "185639.147500", "185640.637500", "185642.127500", "185643.617500", "185645.107500", "185646.597500", "185648.087500", "185649.577500", "185651.067500", "185652.557500", "185654.047500", "185655.537500", "185657.027500", "185658.517500", "185700.007500", "185701.497500", "185702.987500", "185704.477500", "185705.967500", "185707.457500", "185708.947500", "185710.437500", "185711.927500", "185713.417500", "185714.907500", "185716.397500", "185717.887500", "185719.377500", "185720.867500", "185722.357500", "185723.847500", "185725.337500", "185726.827500", "185728.317500", "185729.807500", "185731.297500", "185732.787500", "185734.277500", "185735.767500", "185737.257500", "185738.747500", "185740.237500", "185741.727500", "185743.217500", "185744.707500", "185746.197500", "185747.687500", "185749.177500", "185750.667500", "185752.157500", "185753.647500", "185755.137500", "185756.627500", "185758.117500", "185759.607500", "185801.097500", "185802.587500", "185804.077500", "185805.567500", "185807.057500", "185808.547500", "185810.037500", "185811.527500", "185813.017500", "185814.507500", "185815.997500", "185817.487500", "185818.977500", "185820.467500", "185821.957500", "185823.447500", "185824.937500", "185826.427500", "185827.917500", "185829.407500", "185830.897500", "185832.387500", "185833.877500", "185835.367500", "185836.857500", "185838.347500", "185839.837500", "185841.327500", "185842.817500", "185844.307500", "185845.797500", "185847.287500", "185848.777500", "185850.267500", "185851.757500"],
      "ContentTime": ["185051.875000", "185051.879000", "185051.882000", "185051.885000", "185051.889000", "185051.892000", "185051.903000", "185051.906000", "185051.910000", "185051.913000", "185051.916000", "185051.919000", "185051.923000", "185051.926000", "185051.929000", "185051.932000", "185051.936000", "185051.939000", "185051.942000", "185051.945000", "185051.949000", "185051.952000", "185051.956000", "185051.959000", "185051.962000", "185051.966000", "185051.969000", "185051.973000", "185051.976000", "185111.826000", "185111.830000", "185111.833000", "185111.836000", "185111.840000", "185111.843000", "185111.846000", "185111.849000", "185111.853000", "185111.856000", "185111.860000", "185111.863000", "185111.866000", "185111.869000", "185111.873000", "185111.876000", "185111.879000", "185111.882000", "185111.886000", "185111.889000", "185131.825000", "185131.829000", "185131.832000", "185131.835000", "185131.839000", "185131.842000", "185131.845000", "185131.848000", "185131.852000", "185131.855000", "185131.858000", "185131.861000", "185131.865000", "185131.868000", "185131.881000", "185131.884000", "185131.887000", "185131.891000", "185131.894000", "185131.897000", "185151.825000", "185151.829000", "185151.832000", "185151.836000", "185151.839000", "185151.842000", "185151.846000", "185151.849000", "185151.852000", "185151.856000", "185151.859000", "185151.862000", "185151.874000", "185151.878000", "185151.881000", "185151.884000", "185151.887000", "185151.891000", "185151.894000", "185151.897000", "185231.826000", "185231.830000", "185231.842000", "185231.845000", "185231.849000", "185231.852000", "185231.856000", "185231.859000", "185231.875000", "185231.878000", "185231.882000", "185231.885000", "185231.888000", "185231.892000", "185231.895000", "185231.898000", "185231.902000", "185231.905000", "185231.908000", "185231.912000", "185231.915000", "185231.918000", "185231.922000", "185231.925000", "185231.928000", "185231.931000", "185231.935000", "185231.938000", "185231.941000", "185311.826000", "185311.830000", "185311.833000", "185311.836000", "185311.840000", "185311.843000", "185311.846000", "185311.850000", "185311.853000", "185311.856000", "185311.860000", "185311.863000", "185311.866000", "185311.869000", "185311.873000", "185311.876000", "185311.879000", "185311.883000", "185311.886000", "185311.889000", "185311.893000", "185311.896000", "185311.899000", "185311.902000", "185311.906000", "185311.909000", "185311.912000", "185351.825000", "185351.829000", "185351.832000", "185351.835000", "185351.839000", "185351.842000", "185351.845000", "185351.848000", "185351.852000", "185351.855000", "185351.858000", "185351.862000", "185351.865000", "185351.868000", "185351.872000", "185351.875000", "185351.878000", "185351.881000", "185351.885000", "185351.888000", "185351.891000", "185351.895000", "185351.898000", "185351.901000", "185351.904000", "185351.908000", "185351.911000", "185431.825000", "185431.829000", "185431.832000", "185431.836000", "185431.839000", "185431.842000", "185431.845000", "185431.849000", "185431.852000", "185431.855000", "185431.884000", "185431.888000", "185431.891000", "185431.895000", "185431.898000", "185431.901000", "185431.904000", "185431.908000", "185431.911000", "185431.914000", "185431.918000", "185431.921000", "185431.924000", "185431.927000", "185431.931000", "185431.934000", "185431.937000", "185511.826000", "185511.830000", "185511.833000", "185511.837000", "185511.840000", "185511.843000", "185511.846000", "185511.850000", "185511.853000", "185511.856000", "185511.860000", "185511.863000", "185511.867000", "185511.870000", "185511.873000", "185511.877000", "185511.880000", "185511.883000", "185511.886000", "185511.890000", "185511.893000", "185511.896000", "185511.900000", "185511.903000", "185511.906000", "185511.910000", "185511.913000", "185551.825000", "185551.829000", "185551.832000", "185551.835000", "185551.839000", "185551.842000", "185551.845000", "185551.849000", "185551.852000", "185551.855000", "185551.859000", "185551.862000", "185551.865000", "185551.868000", "185551.872000", "185551.875000", "185551.878000", "185551.882000", "185551.885000", "185551.889000", "185551.892000", "185551.896000", "185551.899000", "185551.902000", "185551.906000", "185551.909000", "185551.913000", "185631.825000", "185631.829000", "185631.832000", "185631.835000", "185631.839000", "185631.842000", "185631.845000", "185631.849000", "185631.852000", "185631.855000", "185631.859000", "185631.862000", "185631.865000", "185631.869000", "185631.872000", "185631.876000", "185631.879000", "185631.882000", "185631.885000", "185631.889000", "185631.892000", "185631.897000", "185631.901000", "185631.904000", "185631.907000", "185631.910000", "185711.826000", "185711.830000", "185711.833000", "185711.837000", "185711.840000", "185711.843000", "185711.847000", "185711.850000", "185711.854000", "185711.857000", "185711.860000", "185711.864000", "185711.867000", "185711.870000", "185711.874000", "185711.877000", "185711.880000", "185711.884000", "185711.887000", "185711.890000", "185711.893000", "185711.897000", "185711.900000", "185711.903000", "185711.907000", "185711.910000", "185711.913000", "185751.826000", "185751.830000", "185751.833000", "185751.837000", "185751.840000", "185751.843000", "185751.847000", "185751.850000", "185751.853000", "185751.856000", "185751.860000", "185751.863000", "185751.866000", "185751.870000", "185751.873000", "185751.876000", "185751.879000", "185751.883000", "185751.886000", "185751.889000", "185751.893000", "185751.896000", "185751.899000", "185751.902000", "185751.906000", "185751.909000", "185751.912000", "185831.825000", "185831.829000", "185831.832000", "185831.836000", "185831.839000", "185831.842000", "185831.846000", "185831.849000", "185831.852000", "185831.855000", "185831.859000", "185831.862000", "185831.865000", "185831.869000", "185831.872000", "185831.875000", "185831.879000", "185831.882000", "185831.885000", "185831.888000", "185831.892000", "185831.895000", "185831.898000", "185831.902000", "185831.905000", "185831.908000", "185831.912000", "185853.908000", "185853.912000", "185853.915000", "185853.918000", "185853.922000", "185853.927000", "185853.930000", "185853.933000", "185853.937000", "185853.940000", "185853.943000", "185853.969000", "185853.972000", "185853.975000", "185853.979000"],
      "InstanceCreationTime": ["185051.875000", "185051.879000", "185051.882000", "185051.885000", "185051.889000", "185051.892000", "185051.903000", "185051.906000", "185051.910000", "185051.913000", "185051.916000", "185051.919000", "185051.923000", "185051.926000", "185051.929000", "185051.932000", "185051.936000", "185051.939000", "185051.942000", "185051.945000", "185051.949000", "185051.952000", "185051.956000", "185051.959000", "185051.962000", "185051.966000", "185051.969000", "185051.973000", "185051.976000", "185111.826000", "185111.830000", "185111.833000", "185111.836000", "185111.840000", "185111.843000", "185111.846000", "185111.849000", "185111.853000", "185111.856000", "185111.860000", "185111.863000", "185111.866000", "185111.869000", "185111.873000", "185111.876000", "185111.879000", "185111.882000", "185111.886000", "185111.889000", "185131.825000", "185131.829000", "185131.832000", "185131.835000", "185131.839000", "185131.842000", "185131.845000", "185131.848000", "185131.852000", "185131.855000", "185131.858000", "185131.861000", "185131.865000", "185131.868000", "185131.881000", "185131.884000", "185131.887000", "185131.891000", "185131.894000", "185131.897000", "185151.825000", "185151.829000", "185151.832000", "185151.836000", "185151.839000", "185151.842000", "185151.846000", "185151.849000", "185151.852000", "185151.856000", "185151.859000", "185151.862000", "185151.874000", "185151.878000", "185151.881000", "185151.884000", "185151.887000", "185151.891000", "185151.894000", "185151.897000", "185231.826000", "185231.830000", "185231.842000", "185231.845000", "185231.849000", "185231.852000", "185231.856000", "185231.859000", "185231.875000", "185231.878000", "185231.882000", "185231.885000", "185231.888000", "185231.892000", "185231.895000", "185231.898000", "185231.902000", "185231.905000", "185231.908000", "185231.912000", "185231.915000", "185231.918000", "185231.922000", "185231.925000", "185231.928000", "185231.931000", "185231.935000", "185231.938000", "185231.941000", "185311.826000", "185311.830000", "185311.833000", "185311.836000", "185311.840000", "185311.843000", "185311.846000", "185311.850000", "185311.853000", "185311.856000", "185311.860000", "185311.863000", "185311.866000", "185311.869000", "185311.873000", "185311.876000", "185311.879000", "185311.883000", "185311.886000", "185311.889000", "185311.893000", "185311.896000", "185311.899000", "185311.902000", "185311.906000", "185311.909000", "185311.912000", "185351.825000", "185351.829000", "185351.832000", "185351.835000", "185351.839000", "185351.842000", "185351.845000", "185351.848000", "185351.852000", "185351.855000", "185351.858000", "185351.862000", "185351.865000", "185351.868000", "185351.872000", "185351.875000", "185351.878000", "185351.881000", "185351.885000", "185351.888000", "185351.891000", "185351.895000", "185351.898000", "185351.901000", "185351.904000", "185351.908000", "185351.911000", "185431.825000", "185431.829000", "185431.832000", "185431.836000", "185431.839000", "185431.842000", "185431.845000", "185431.849000", "185431.852000", "185431.855000", "185431.884000", "185431.888000", "185431.891000", "185431.895000", "185431.898000", "185431.901000", "185431.904000", "185431.908000", "185431.911000", "185431.914000", "185431.918000", "185431.921000", "185431.924000", "185431.927000", "185431.931000", "185431.934000", "185431.937000", "185511.826000", "185511.830000", "185511.833000", "185511.837000", "185511.840000", "185511.843000", "185511.846000", "185511.850000", "185511.853000", "185511.856000", "185511.860000", "185511.863000", "185511.867000", "185511.870000", "185511.873000", "185511.877000", "185511.880000", "185511.883000", "185511.886000", "185511.890000", "185511.893000", "185511.896000", "185511.900000", "185511.903000", "185511.906000", "185511.910000", "185511.913000", "185551.825000", "185551.829000", "185551.832000", "185551.835000", "185551.839000", "185551.842000", "185551.845000", "185551.849000", "185551.852000", "185551.855000", "185551.859000", "185551.862000", "185551.865000", "185551.868000", "185551.872000", "185551.875000", "185551.878000", "185551.882000", "185551.885000", "185551.889000", "185551.892000", "185551.896000", "185551.899000", "185551.902000", "185551.906000", "185551.909000", "185551.913000", "185631.825000", "185631.829000", "185631.832000", "185631.835000", "185631.839000", "185631.842000", "185631.845000", "185631.849000", "185631.852000", "185631.855000", "185631.859000", "185631.862000", "185631.865000", "185631.869000", "185631.872000", "185631.876000", "185631.879000", "185631.882000", "185631.885000", "185631.889000", "185631.892000", "185631.897000", "185631.901000", "185631.904000", "185631.907000", "185631.910000", "185711.826000", "185711.830000", "185711.833000", "185711.837000", "185711.840000", "185711.843000", "185711.847000", "185711.850000", "185711.854000", "185711.857000", "185711.860000", "185711.864000", "185711.867000", "185711.870000", "185711.874000", "185711.877000", "185711.880000", "185711.884000", "185711.887000", "185711.890000", "185711.893000", "185711.897000", "185711.900000", "185711.903000", "185711.907000", "185711.910000", "185711.913000", "185751.826000", "185751.830000", "185751.833000", "185751.837000", "185751.840000", "185751.843000", "185751.847000", "185751.850000", "185751.853000", "185751.856000", "185751.860000", "185751.863000", "185751.866000", "185751.870000", "185751.873000", "185751.876000", "185751.879000", "185751.883000", "185751.886000", "185751.889000", "185751.893000", "185751.896000", "185751.899000", "185751.902000", "185751.906000", "185751.909000", "185751.912000", "185831.825000", "185831.829000", "185831.832000", "185831.836000", "185831.839000", "185831.842000", "185831.846000", "185831.849000", "185831.852000", "185831.855000", "185831.859000", "185831.862000", "185831.865000", "185831.869000", "185831.872000", "185831.875000", "185831.879000", "185831.882000", "185831.885000", "185831.888000", "185831.892000", "185831.895000", "185831.898000", "185831.902000", "185831.905000", "185831.908000", "185831.912000", "185853.908000", "185853.912000", "185853.915000", "185853.918000", "185853.922000", "185853.927000", "185853.930000", "185853.933000", "185853.937000", "185853.940000", "185853.943000", "185853.969000", "185853.972000", "185853.975000", "185853.979000"],
      "InstanceNumber": [1, 2, 3, 4, 5, 6, 7, 8, 9, 10, 11, 12, 13, 14, 15, 16, 17, 18, 19, 20, 21, 22, 23, 24, 25, 26, 27, 28, 29, 30, 31, 32, 33, 34, 35, 36, 37, 38, 39, 40, 41, 42, 43, 44, 45, 46, 47, 48, 49, 50, 51, 52, 53, 54, 55, 56, 57, 58, 59, 60, 61, 62, 63, 64, 65, 66, 67, 68, 69, 70, 71, 72, 73, 74, 75, 76, 77, 78, 79, 80, 81, 82, 83, 84, 85, 86, 87, 88, 89, 90, 91, 92, 93, 94, 95, 96, 97, 98, 99, 100, 101, 102, 103, 104, 105, 106, 107, 108, 109, 110, 111, 112, 113, 114, 115, 116, 117, 118, 119, 120, 121, 122, 123, 124, 125, 126, 127, 128, 129, 130, 131, 132, 133, 134, 135, 136, 137, 138, 139, 140, 141, 142, 143, 144, 145, 146, 147, 148, 149, 150, 151, 152, 153, 154, 155, 156, 157, 158, 159, 160, 161, 162, 163, 164, 165, 166, 167, 168, 169, 170, 171, 172, 173, 174, 175, 176, 177, 178, 179, 180, 181, 182, 183, 184, 185, 186, 187, 188, 189, 190, 191, 192, 193, 194, 195, 196, 197, 198, 199, 200, 201, 202, 203, 204, 205, 206, 207, 208, 209, 210, 211, 212, 213, 214, 215, 216, 217, 218, 219, 220, 221, 222, 223, 224, 225, 226, 227, 228, 229, 230, 231, 232, 233, 234, 235, 236, 237, 238, 239, 240, 241, 242, 243, 244, 245, 246, 247, 248, 249, 250, 251, 252, 253, 254, 255, 256, 257, 258, 259, 260, 261, 262, 263, 264, 265, 266, 267, 268, 269, 270, 271, 272, 273, 274, 275, 276, 277, 278, 279, 280, 281, 282, 283, 284, 285, 286, 287, 288, 289, 290, 291, 292, 293, 294, 295, 296, 297, 298, 299, 300, 301, 302, 303, 304, 305, 306, 307, 308, 309, 310, 311, 312, 313, 314, 315, 316, 317, 318, 319, 320, 321, 322, 323, 324, 325, 326, 327, 328, 329, 330, 331, 332, 333, 334, 335, 336, 337, 338, 339, 340, 341, 342, 343, 344, 345, 346, 347, 348, 349, 350, 351, 352, 353, 354, 355, 356, 357, 358, 359, 360, 361, 362, 363, 364, 365, 366, 367, 368, 369, 370, 371, 372, 373, 374, 375],
