{
  "AcquisitionMatrixPE": 104,
  "AcquisitionNumber": 1,
  "AcquisitionTime": "19:14:15.540000",
  "BandwidthPerPixelPhaseEncode": 17.17,
  "BaseResolution": 104,
  "BodyPartExamined": "BRAIN",
  "CoilCombinationMethod": "Sum of Squares",
  "ConsistencyInfo": "N4_VE11C_LATEST_20160120",
  "ConversionSoftware": "dcm2niix",
  "ConversionSoftwareVersion": "v1.0.20220505",
  "DerivedVendorReportedEchoSpacing": 0.000560011,
  "DeviceSerialNumber": "167006",
  "DwellTime": 2.1e-06,
  "EchoTime": 0.037,
  "EchoTime1": 0.037,
  "EchoTime2": 0.001,
  "EchoTrainLength": 104,
  "EffectiveEchoSpacing": 0.000560011,
  "FlipAngle": 52,
  "HeudiconvVersion": "0.5.3.post811+g6206e14",
  "ImageComments": "Unaliased MB4/PE3/LB",
  "ImageOrientationPatientDICOM": [0.999863, -0.0144349, 0.00811844, 0.0164053, 0.930407, -0.366161],
  "ImageOrientationText": "Tra>Cor(-21.5)>Sag(0.1)",
  "ImageType": [
    "ORIGINAL",
    "PRIMARY",
    "P",
    "MB",
    "ND",
    "MOSAIC",
    "PHASE"
],
  "ImagingFrequency": 123.26,
  "InPlanePhaseEncodingDirectionDICOM": "COL",
  "InstitutionAddress": "Chemin Queen-Mary 4565,Montreal,District,CA,H3W 1W5",
  "InstitutionName": "IUGM",
  "InstitutionalDepartmentName": "Department",
  "MRAcquisitionType": "2D",
  "MagneticFieldStrength": 3,
  "Manufacturer": "Siemens",
  "ManufacturersModelName": "Prisma_fit",
  "MatrixCoilMode": "SENSE",
  "Modality": "MR",
  "MultibandAccelerationFactor": 4,
  "PartialFourier": 1,
  "PatientPosition": "HFS",
  "PercentPhaseFOV": 100,
  "PercentSampling": 100,
  "PhaseEncodingDirection": "j",
  "PhaseEncodingSteps": 104,
  "PhaseResolution": 1,
  "PixelBandwidth": 2290,
  "ProcedureStepDescription": "games^mario3",
  "ProtocolName": "func_task-mario3_run-05",
  "PulseSequenceDetails": "%CustomerSeq%\\cmrr_mbep2d_bold",
  "ReceiveCoilActiveElements": "HC1-7;NC1,2",
  "ReceiveCoilName": "HeadNeck_64",
  "ReconMatrixPE": 104,
  "RepetitionTime": 1.49,
  "SAR": 0.0967074,
  "ScanOptions": "FS",
  "ScanningSequence": "EP",
  "SequenceName": "epfid2d1_104",
  "SequenceVariant": "SK\\SS",
  "SeriesDescription": "func_task-mario3_run-05",
  "SeriesNumber": 23,
  "ShimSetting": [599, -7261, -8811, 450, 13, -363, -8, 32],
  "SliceThickness": 2,
  "SliceTiming": [0, 0.785, 0.0975, 0.8825, 0.195, 0.98, 0.295, 1.0775, 0.3925, 1.175, 0.49, 1.2725, 0.5875, 1.3725, 0.685, 0, 0.785, 0.0975, 0.8825, 0.195, 0.98, 0.295, 1.0775, 0.3925, 1.175, 0.49, 1.2725, 0.5875, 1.3725, 0.685, 0, 0.785, 0.0975, 0.8825, 0.195, 0.98, 0.295, 1.0775, 0.3925, 1.175, 0.49, 1.2725, 0.5875, 1.3725, 0.685, 0, 0.785, 0.0975, 0.8825, 0.195, 0.98, 0.295, 1.0775, 0.3925, 1.175, 0.49, 1.2725, 0.5875, 1.3725, 0.685],
  "SoftwareVersions": "syngo MR E11",
  "SpacingBetweenSlices": 2,
  "StationName": "MRC35049",
  "TaskName": "mario3",
  "TotalReadoutTime": 0.0576811,
  "TxRefAmp": 322.451,
  "WipMemBlock": "a29f2b55-0d46-4763-bfaf-427a97eb2389||Sequence: R017 ve11c/master r/75a17815+; Jun 28 2022 16:32:11 by eja",
  "dcmmeta_affine": [
    [-1.9997256994247437, 0.03281054273247719, 0.0045358953066170216, 102.30154418945312],
    [0.028869876638054848, 1.8608139753341675, -0.7324873805046082, -69.79436492919922],
    [0.016236882656812668, 0.7323214411735535, 1.861032485961914, -63.09316635131836],
    [0.0, 0.0, 0.0, 1.0]
],
  "dcmmeta_reorient_transform": [
    [0.0, -1.0, 0.0, 103.0],
    [1.0, 0.0, 0.0, 0.0],
    [0.0, 0.0, 1.0, 0.0],
    [0.0, 0.0, 0.0, 1.0]
],
  "dcmmeta_shape": [104, 104, 60, 319],
  "dcmmeta_slice_dim": 2,
  "dcmmeta_version": 0.6,
  "global": {
    "const": {
      "AcquisitionMatrix": [104, 0, 0, 104],
      "AngioFlag": "N",
      "BitsAllocated": 16,
      "BitsStored": 16,
      "BodyPartExamined": "BRAIN",
      "Columns": 832,
      "EchoNumbers": 1,
      "EchoTime": 37.0,
      "EchoTrainLength": 104,
      "FlipAngle": 52.0,
      "HighBit": 15,
      "ImageOrientationPatient": [0.99986285233304, -0.0144349378815, 0.00811844152443, 0.01640527166881, 0.93040700226537, -0.3661607259074],
      "ImagePositionPatient": [-845.52422278047, -788.69713693136, 272.99072513179],
      "ImageType": [
        "ORIGINAL",
        "PRIMARY",
        "P",
        "MB",
        "ND",
        "MOSAIC"
],
      "ImagedNucleus": "1H",
      "ImagingFrequency": 123.26018,
      "InPlanePhaseEncodingDirection": "COL",
      "LargestImagePixelValue": 4095,
      "MRAcquisitionType": "2D",
      "MagneticFieldStrength": 3.0,
      "Manufacturer": "SIEMENS",
      "ManufacturerModelName": "Prisma_fit",
      "Modality": "MR",
      "NumberOfAverages": 1.0,
      "NumberOfPhaseEncodingSteps": 104,
      "PercentPhaseFieldOfView": 100.0,
      "PercentSampling": 100.0,
      "PerformedProcedureStepStartTime": "182341.927000",
      "PhotometricInterpretation": "MONOCHROME2",
      "PixelBandwidth": 2290.0,
      "PixelRepresentation": 0,
      "PixelSpacing": [2.0, 2.0],
      "ProtocolName": "func_task-mario3_run-05",
      "RepetitionTime": 1490.0,
      "RescaleIntercept": -4096.0,
      "RescaleSlope": 2.0,
      "RescaleType": "US",
      "Rows": 832,
      "SAR": 0.09670735822059,
      "SamplesPerPixel": 1,
      "ScanOptions": "FS",
      "ScanningSequence": "EP",
      "SequenceName": "epfid2d1_104",
      "SequenceVariant": [
        "SK",
        "SS"
],
      "SeriesDescription": "func_task-mario3_run-05",
      "SeriesNumber": 23,
      "SeriesTime": "191534.261000",
      "SliceLocation": -32.915453156998,
      "SliceThickness": 2.0,
      "SmallestImagePixelValue": 0,
      "SoftwareVersions": "syngo MR E11",
      "SpacingBetweenSlices": 2.0000000529304,
      "SpecificCharacterSet": "ISO_IR 100",
      "StudyID": "1",
      "StudyTime": "182341.858000",
      "TransmitCoilName": "Body",
      "VariableFlipAngleFlag": "N",
      "WindowCenterWidthExplanation": "Algo1",
      "dBdt": 0.0},
    "slices": {}
  },
  "time": {
    "samples": {
      "AcquisitionNumber": [1, 2, 3, 4, 5, 6, 7, 8, 9, 10, 11, 12, 13, 14, 15, 16, 17, 18, 19, 20, 21, 22, 23, 24, 25, 26, 27, 28, 29, 30, 31, 32, 33, 34, 35, 36, 37, 38, 39, 40, 41, 42, 43, 44, 45, 46, 47, 48, 49, 50, 51, 52, 53, 54, 55, 56, 57, 58, 59, 60, 61, 62, 63, 64, 65, 66, 67, 68, 69, 70, 71, 72, 73, 74, 75, 76, 77, 78, 79, 80, 81, 82, 83, 84, 85, 86, 87, 88, 89, 90, 91, 92, 93, 94, 95, 96, 97, 98, 99, 100, 101, 102, 103, 104, 105, 106, 107, 108, 109, 110, 111, 112, 113, 114, 115, 116, 117, 118, 119, 120, 121, 122, 123, 124, 125, 126, 127, 128, 129, 130, 131, 132, 133, 134, 135, 136, 137, 138, 139, 140, 141, 142, 143, 144, 145, 146, 147, 148, 149, 150, 151, 152, 153, 154, 155, 156, 157, 158, 159, 160, 161, 162, 163, 164, 165, 166, 167, 168, 169, 170, 171, 172, 173, 174, 175, 176, 177, 178, 179, 180, 181, 182, 183, 184, 185, 186, 187, 188, 189, 190, 191, 192, 193, 194, 195, 196, 197, 198, 199, 200, 201, 202, 203, 204, 205, 206, 207, 208, 209, 210, 211, 212, 213, 214, 215, 216, 217, 218, 219, 220, 221, 222, 223, 224, 225, 226, 227, 228, 229, 230, 231, 232, 233, 234, 235, 236, 237, 238, 239, 240, 241, 242, 243, 244, 245, 246, 247, 248, 249, 250, 251, 252, 253, 254, 255, 256, 257, 258, 259, 260, 261, 262, 263, 264, 265, 266, 267, 268, 269, 270, 271, 272, 273, 274, 275, 276, 277, 278, 279, 280, 281, 282, 283, 284, 285, 286, 287, 288, 289, 290, 291, 292, 293, 294, 295, 296, 297, 298, 299, 300, 301, 302, 303, 304, 305, 306, 307, 308, 309, 310, 311, 312, 313, 314, 315, 316, 317, 318, 319],
      "AcquisitionTime": ["191415.540000", "191417.030000", "191418.520000", "191420.010000", "191421.500000", "191422.990000", "191424.480000", "191425.970000", "191427.460000", "191428.950000", "191430.440000", "191431.930000", "191433.420000", "191434.910000", "191436.400000", "191437.890000", "191439.380000", "191440.870000", "191442.360000", "191443.850000", "191445.340000", "191446.830000", "191448.320000", "191449.810000", "191451.300000", "191452.790000", "191454.280000", "191455.770000", "191457.260000", "191458.750000", "191500.240000", "191501.730000", "191503.220000", "191504.710000", "191506.200000", "191507.690000", "191509.180000", "191510.670000", "191512.160000", "191513.650000", "191515.140000", "191516.630000", "191518.120000", "191519.610000", "191521.100000", "191522.590000", "191524.080000", "191525.570000", "191527.060000", "191528.550000", "191530.040000", "191531.530000", "191533.020000", "191534.510000", "191536.000000", "191537.490000", "191538.980000", "191540.470000", "191541.960000", "191543.450000", "191544.940000", "191546.430000", "191547.920000", "191549.410000", "191550.900000", "191552.390000", "191553.880000", "191555.370000", "191556.860000", "191558.350000", "191559.840000", "191601.330000", "191602.820000", "191604.310000", "191605.800000", "191607.290000", "191608.780000", "191610.270000", "191611.760000", "191613.250000", "191614.740000", "191616.230000", "191617.720000", "191619.210000", "191620.700000", "191622.190000", "191623.680000", "191625.170000", "191626.660000", "191628.150000", "191629.640000", "191631.130000", "191632.620000", "191634.110000", "191635.600000", "191637.090000", "191638.580000", "191640.070000", "191641.560000", "191643.050000", "191644.540000", "191646.030000", "191647.520000", "191649.010000", "191650.500000", "191651.990000", "191653.480000", "191654.970000", "191656.460000", "191657.950000", "191659.440000", "191700.930000", "191702.420000", "191703.910000", "191705.400000", "191706.890000", "191708.380000", "191709.870000", "191711.360000", "191712.850000", "191714.340000", "191715.830000", "191717.320000", "191718.810000", "191720.300000", "191721.790000", "191723.280000", "191724.770000", "191726.260000", "191727.750000", "191729.240000", "191730.730000", "191732.220000", "191733.710000", "191735.200000", "191736.690000", "191738.180000", "191739.670000", "191741.160000", "191742.650000", "191744.140000", "191745.630000", "191747.120000", "191748.610000", "191750.100000", "191751.590000", "191753.080000", "191754.570000", "191756.060000", "191757.550000", "191759.040000", "191800.530000", "191802.020000", "191803.510000", "191805.000000", "191806.490000", "191807.980000", "191809.470000", "191810.960000", "191812.450000", "191813.940000", "191815.430000", "191816.920000", "191818.410000", "191819.900000", "191821.390000", "191822.880000", "191824.370000", "191825.860000", "191827.350000", "191828.840000", "191830.330000", "191831.820000", "191833.310000", "191834.800000", "191836.290000", "191837.780000", "191839.270000", "191840.760000", "191842.250000", "191843.740000", "191845.230000", "191846.720000", "191848.210000", "191849.700000", "191851.190000", "191852.680000", "191854.170000", "191855.660000", "191857.150000", "191858.640000", "191900.130000", "191901.620000", "191903.110000", "191904.600000", "191906.090000", "191907.580000", "191909.070000", "191910.560000", "191912.050000", "191913.540000", "191915.030000", "191916.520000", "191918.010000", "191919.500000", "191920.990000", "191922.480000", "191923.970000", "191925.460000", "191926.950000", "191928.440000", "191929.930000", "191931.420000", "191932.910000", "191934.400000", "191935.890000", "191937.380000", "191938.870000", "191940.360000", "191941.850000", "191943.340000", "191944.830000", "191946.320000", "191947.810000", "191949.300000", "191950.790000", "191952.280000", "191953.770000", "191955.260000", "191956.750000", "191958.240000", "191959.730000", "192001.220000", "192002.710000", "192004.200000", "192005.690000", "192007.180000", "192008.670000", "192010.160000", "192011.650000", "192013.140000", "192014.630000", "192016.120000", "192017.610000", "192019.100000", "192020.590000", "192022.080000", "192023.570000", "192025.060000", "192026.550000", "192028.040000", "192029.530000", "192031.020000", "192032.510000", "192034.000000", "192035.490000", "192036.980000", "192038.470000", "192039.960000", "192041.450000", "192042.940000", "192044.430000", "192045.920000", "192047.410000", "192048.900000", "192050.390000", "192051.880000", "192053.370000", "192054.860000", "192056.350000", "192057.840000", "192059.330000", "192100.820000", "192102.310000", "192103.800000", "192105.290000", "192106.780000", "192108.270000", "192109.760000", "192111.250000", "192112.740000", "192114.230000", "192115.720000", "192117.210000", "192118.700000", "192120.190000", "192121.680000", "192123.170000", "192124.660000", "192126.150000", "192127.640000", "192129.130000", "192130.620000", "192132.110000", "192133.600000", "192135.090000", "192136.580000", "192138.070000", "192139.560000", "192141.050000", "192142.540000", "192144.030000", "192145.520000", "192147.010000", "192148.500000", "192149.990000", "192151.480000", "192152.970000", "192154.460000", "192155.950000", "192157.440000", "192158.930000", "192200.420000", "192201.910000", "192203.400000", "192204.890000", "192206.380000", "192207.870000", "192209.360000"],
      "ContentTime": ["191534.263000", "191534.266000", "191534.268000", "191534.271000", "191534.273000", "191534.276000", "191534.278000", "191534.280000", "191534.283000", "191534.285000", "191534.288000", "191534.290000", "191534.293000", "191534.295000", "191534.298000", "191534.300000", "191534.303000", "191534.305000", "191534.308000", "191534.310000", "191534.312000", "191534.315000", "191534.317000", "191534.320000", "191534.322000", "191534.325000", "191534.327000", "191534.330000", "191534.332000", "191554.197000", "191554.199000", "191554.202000", "191554.204000", "191554.207000", "191554.209000", "191554.212000", "191554.214000", "191554.217000", "191554.219000", "191554.222000", "191554.224000", "191554.226000", "191554.229000", "191554.231000", "191554.234000", "191554.236000", "191554.239000", "191554.241000", "191554.244000", "191614.207000", "191614.210000", "191614.212000", "191614.215000", "191614.217000", "191614.220000", "191614.222000", "191614.225000", "191614.227000", "191614.229000", "191614.232000", "191614.234000", "191614.237000", "191614.239000", "191614.242000", "191614.244000", "191614.247000", "191614.249000", "191614.252000", "191614.254000", "191634.196000", "191634.199000", "191634.201000", "191634.204000", "191634.206000", "191634.209000", "191634.211000", "191634.214000", "191634.216000", "191634.219000", "191634.221000", "191634.224000", "191634.226000", "191634.229000", "191634.231000", "191634.234000", "191634.236000", "191634.239000", "191634.241000", "191634.243000", "191714.231000", "191714.234000", "191714.236000", "191714.239000", "191714.241000", "191714.244000", "191714.246000", "191714.249000", "191714.251000", "191714.254000", "191714.256000", "191714.259000", "191714.261000", "191714.264000", "191714.266000", "191714.269000", "191714.271000", "191714.274000", "191714.276000", "191714.279000", "191714.281000", "191714.284000", "191714.286000", "191714.289000", "191714.291000", "191714.294000", "191714.296000", "191714.299000", "191714.301000", "191714.304000", "191754.228000", "191754.231000", "191754.234000", "191754.236000", "191754.239000", "191754.241000", "191754.244000", "191754.246000", "191754.249000", "191754.251000", "191754.254000", "191754.256000", "191754.259000", "191754.261000", "191754.264000", "191754.266000", "191754.269000", "191754.271000", "191754.274000", "191754.276000", "191754.279000", "191754.281000", "191754.284000", "191754.286000", "191754.289000", "191754.292000", "191754.294000", "191834.218000", "191834.221000", "191834.223000", "191834.226000", "191834.228000", "191834.231000", "191834.233000", "191834.236000", "191834.238000", "191834.241000", "191834.243000", "191834.246000", "191834.248000", "191834.251000", "191834.253000", "191834.256000", "191834.258000", "191834.260000", "191834.263000", "191834.265000", "191834.268000", "191834.270000", "191834.273000", "191834.275000", "191834.278000", "191834.280000", "191914.215000", "191914.218000", "191914.220000", "191914.222000", "191914.225000", "191914.227000", "191914.230000", "191914.232000", "191914.235000", "191914.237000", "191914.240000", "191914.242000", "191914.245000", "191914.247000", "191914.250000", "191914.252000", "191914.255000", "191914.257000", "191914.260000", "191914.262000", "191914.265000", "191914.267000", "191914.270000", "191914.272000", "191914.275000", "191914.277000", "191914.280000", "191954.212000", "191954.214000", "191954.217000", "191954.219000", "191954.222000", "191954.224000", "191954.227000", "191954.230000", "191954.232000", "191954.235000", "191954.237000", "191954.239000", "191954.242000", "191954.244000", "191954.247000", "191954.249000", "191954.252000", "191954.254000", "191954.257000", "191954.259000", "191954.262000", "191954.264000", "191954.267000", "191954.269000", "191954.272000", "191954.274000", "191954.277000", "192034.636000", "192034.639000", "192034.641000", "192034.644000", "192034.646000", "192034.649000", "192034.651000", "192034.653000", "192034.656000", "192034.658000", "192034.661000", "192034.663000", "192034.666000", "192034.670000", "192034.672000", "192034.675000", "192034.677000", "192034.680000", "192034.682000", "192034.685000", "192034.687000", "192034.690000", "192034.692000", "192034.695000", "192034.697000", "192034.700000", "192034.702000", "192114.227000", "192114.230000", "192114.233000", "192114.235000", "192114.238000", "192114.240000", "192114.243000", "192114.245000", "192114.248000", "192114.250000", "192114.252000", "192114.255000", "192114.257000", "192114.260000", "192114.262000", "192114.265000", "192114.267000", "192114.270000", "192114.272000", "192114.275000", "192114.277000", "192114.280000", "192114.282000", "192114.285000", "192114.287000", "192114.290000", "192114.292000", "192154.218000", "192154.221000", "192154.223000", "192154.226000", "192154.228000", "192154.231000", "192154.233000", "192154.235000", "192154.238000", "192154.240000", "192154.243000", "192154.245000", "192154.248000", "192154.250000", "192154.253000", "192154.255000", "192154.258000", "192154.260000", "192154.263000", "192154.265000", "192154.268000", "192154.270000", "192154.273000", "192154.275000", "192154.278000", "192154.280000", "192154.283000", "192213.114000", "192213.116000", "192213.119000", "192213.142000", "192213.145000", "192213.147000", "192213.150000", "192213.152000", "192213.155000", "192213.157000", "192213.160000", "192213.162000"],
      "InstanceCreationTime": ["191534.263000", "191534.266000", "191534.268000", "191534.271000", "191534.273000", "191534.276000", "191534.278000", "191534.280000", "191534.283000", "191534.285000", "191534.288000", "191534.290000", "191534.293000", "191534.295000", "191534.298000", "191534.300000", "191534.303000", "191534.305000", "191534.308000", "191534.310000", "191534.312000", "191534.315000", "191534.317000", "191534.320000", "191534.322000", "191534.325000", "191534.327000", "191534.330000", "191534.332000", "191554.197000", "191554.199000", "191554.202000", "191554.204000", "191554.207000", "191554.209000", "191554.212000", "191554.214000", "191554.217000", "191554.219000", "191554.222000", "191554.224000", "191554.226000", "191554.229000", "191554.231000", "191554.234000", "191554.236000", "191554.239000", "191554.241000", "191554.244000", "191614.207000", "191614.210000", "191614.212000", "191614.215000", "191614.217000", "191614.220000", "191614.222000", "191614.225000", "191614.227000", "191614.229000", "191614.232000", "191614.234000", "191614.237000", "191614.239000", "191614.242000", "191614.244000", "191614.247000", "191614.249000", "191614.252000", "191614.254000", "191634.196000", "191634.199000", "191634.201000", "191634.204000", "191634.206000", "191634.209000", "191634.211000", "191634.214000", "191634.216000", "191634.219000", "191634.221000", "191634.224000", "191634.226000", "191634.229000", "191634.231000", "191634.234000", "191634.236000", "191634.239000", "191634.241000", "191634.243000", "191714.231000", "191714.234000", "191714.236000", "191714.239000", "191714.241000", "191714.244000", "191714.246000", "191714.249000", "191714.251000", "191714.254000", "191714.256000", "191714.259000", "191714.261000", "191714.264000", "191714.266000", "191714.269000", "191714.271000", "191714.274000", "191714.276000", "191714.279000", "191714.281000", "191714.284000", "191714.286000", "191714.289000", "191714.291000", "191714.294000", "191714.296000", "191714.299000", "191714.301000", "191714.304000", "191754.228000", "191754.231000", "191754.234000", "191754.236000", "191754.239000", "191754.241000", "191754.244000", "191754.246000", "191754.249000", "191754.251000", "191754.254000", "191754.256000", "191754.259000", "191754.261000", "191754.264000", "191754.266000", "191754.269000", "191754.271000", "191754.274000", "191754.276000", "191754.279000", "191754.281000", "191754.284000", "191754.286000", "191754.289000", "191754.292000", "191754.294000", "191834.218000", "191834.221000", "191834.223000", "191834.226000", "191834.228000", "191834.231000", "191834.233000", "191834.236000", "191834.238000", "191834.241000", "191834.243000", "191834.246000", "191834.248000", "191834.251000", "191834.253000", "191834.256000", "191834.258000", "191834.260000", "191834.263000", "191834.265000", "191834.268000", "191834.270000", "191834.273000", "191834.275000", "191834.278000", "191834.280000", "191914.215000", "191914.218000", "191914.220000", "191914.222000", "191914.225000", "191914.227000", "191914.230000", "191914.232000", "191914.235000", "191914.237000", "191914.240000", "191914.242000", "191914.245000", "191914.247000", "191914.250000", "191914.252000", "191914.255000", "191914.257000", "191914.260000", "191914.262000", "191914.265000", "191914.267000", "191914.270000", "191914.272000", "191914.275000", "191914.277000", "191914.280000", "191954.212000", "191954.214000", "191954.217000", "191954.219000", "191954.222000", "191954.224000", "191954.227000", "191954.230000", "191954.232000", "191954.235000", "191954.237000", "191954.239000", "191954.242000", "191954.244000", "191954.247000", "191954.249000", "191954.252000", "191954.254000", "191954.257000", "191954.259000", "191954.262000", "191954.264000", "191954.267000", "191954.269000", "191954.272000", "191954.274000", "191954.277000", "192034.636000", "192034.639000", "192034.641000", "192034.644000", "192034.646000", "192034.649000", "192034.651000", "192034.653000", "192034.656000", "192034.658000", "192034.661000", "192034.663000", "192034.666000", "192034.670000", "192034.672000", "192034.675000", "192034.677000", "192034.680000", "192034.682000", "192034.685000", "192034.687000", "192034.690000", "192034.692000", "192034.695000", "192034.697000", "192034.700000", "192034.702000", "192114.227000", "192114.230000", "192114.233000", "192114.235000", "192114.238000", "192114.240000", "192114.243000", "192114.245000", "192114.248000", "192114.250000", "192114.252000", "192114.255000", "192114.257000", "192114.260000", "192114.262000", "192114.265000", "192114.267000", "192114.270000", "192114.272000", "192114.275000", "192114.277000", "192114.280000", "192114.282000", "192114.285000", "192114.287000", "192114.290000", "192114.292000", "192154.218000", "192154.221000", "192154.223000", "192154.226000", "192154.228000", "192154.231000", "192154.233000", "192154.235000", "192154.238000", "192154.240000", "192154.243000", "192154.245000", "192154.248000", "192154.250000", "192154.253000", "192154.255000", "192154.258000", "192154.260000", "192154.263000", "192154.265000", "192154.268000", "192154.270000", "192154.273000", "192154.275000", "192154.278000", "192154.280000", "192154.283000", "192213.114000", "192213.116000", "192213.119000", "192213.142000", "192213.145000", "192213.147000", "192213.150000", "192213.152000", "192213.155000", "192213.157000", "192213.160000", "192213.162000"],
      "InstanceNumber": [1, 2, 3, 4, 5, 6, 7, 8, 9, 10, 11, 12, 13, 14, 15, 16, 17, 18, 19, 20, 21, 22, 23, 24, 25, 26, 27, 28, 29, 30, 31, 32, 33, 34, 35, 36, 37, 38, 39, 40, 41, 42, 43, 44, 45, 46, 47, 48, 49, 50, 51, 52, 53, 54, 55, 56, 57, 58, 59, 60, 61, 62, 63, 64, 65, 66, 67, 68, 69, 70, 71, 72, 73, 74, 75, 76, 77, 78, 79, 80, 81, 82, 83, 84, 85, 86, 87, 88, 89, 90, 91, 92, 93, 94, 95, 96, 97, 98, 99, 100, 101, 102, 103, 104, 105, 106, 107, 108, 109, 110, 111, 112, 113, 114, 115, 116, 117, 118, 119, 120, 121, 122, 123, 124, 125, 126, 127, 128, 129, 130, 131, 132, 133, 134, 135, 136, 137, 138, 139, 140, 141, 142, 143, 144, 145, 146, 147, 148, 149, 150, 151, 152, 153, 154, 155, 156, 157, 158, 159, 160, 161, 162, 163, 164, 165, 166, 167, 168, 169, 170, 171, 172, 173, 174, 175, 176, 177, 178, 179, 180, 181, 182, 183, 184, 185, 186, 187, 188, 189, 190, 191, 192, 193, 194, 195, 196, 197, 198, 199, 200, 201, 202, 203, 204, 205, 206, 207, 208, 209, 210, 211, 212, 213, 214, 215, 216, 217, 218, 219, 220, 221, 222, 223, 224, 225, 226, 227, 228, 229, 230, 231, 232, 233, 234, 235, 236, 237, 238, 239, 240, 241, 242, 243, 244, 245, 246, 247, 248, 249, 250, 251, 252, 253, 254, 255, 256, 257, 258, 259, 260, 261, 262, 263, 264, 265, 266, 267, 268, 269, 270, 271, 272, 273, 274, 275, 276, 277, 278, 279, 280, 281, 282, 283, 284, 285, 286, 287, 288, 289, 290, 291, 292, 293, 294, 295, 296, 297, 298, 299, 300, 301, 302, 303, 304, 305, 306, 307, 308, 309, 310, 311, 312, 313, 314, 315, 316, 317, 318, 319],
      "WindowCenter": [4788.0, 4794.0, 4792.0, 4792.0, 4790.0, 4788.0, 4790.0, 4786.0, 4790.0, 4794.0, 4788.0, 4794.0, 4790.0, 4792.0, 4794.0, 4788.0, 4788.0, 4788.0, 4788.0, 4788.0, 4766.0, 4788.0, 4792.0, 4790.0, 4786.0, 4788.0, 4784.0, 4788.0, 4790.0, 4786.0, 4794.0, 4788.0, 4790.0, 4792.0, 4790.0, 4790.0, 4790.0, 4760.0, 4784.0, 4784.0, 4788.0, 4786.0, 4792.0, 4792.0, 4794.0, 4788.0, 4788.0, 4788.0, 4786.0, 4786.0, 4790.0, 4788.0, 4790.0, 4792.0, 4786.0, 4790.0, 4790.0, 4786.0, 4766.0, 4786.0, 4790.0, 4790.0, 4786.0, 4792.0, 4788.0, 4788.0, 4790.0, 4786.0, 4764.0, 4788.0, 4792.0, 4794.0, 4790.0, 4788.0, 4790.0, 4788.0, 4788.0, 4788.0, 4790.0, 4794.0, 4790.0, 4786.0, 4792.0, 4792.0, 4788.0, 4788.0, 4792.0, 4786.0, 4790.0, 4788.0, 4786.0, 4766.0, 4784.0, 4788.0, 4790.0, 4792.0, 4788.0, 4792.0, 4794.0, 4784.0, 4764.0, 4788.0, 4788.0, 4792.0, 4788.0, 4794.0, 4792.0, 4788.0, 4788.0, 4784.0, 4788.0, 4786.0, 4764.0, 4766.0, 4790.0, 4792.0, 4792.0, 4794.0, 4794.0, 4786.0, 4788.0, 4790.0, 4788.0, 4788.0, 4794.0, 4790.0, 4788.0, 4792.0, 4792.0, 4788.0, 4788.0, 4788.0, 4788.0, 4792.0, 4790.0, 4790.0, 4794.0, 4790.0, 4790.0, 4790.0, 4794.0, 4790.0, 4788.0, 4794.0, 4790.0, 4788.0, 4790.0, 4792.0, 4790.0, 4788.0, 4788.0, 4790.0, 4792.0, 4794.0, 4788.0, 4792.0, 4792.0, 4790.0, 4796.0, 4792.0, 4788.0, 4792.0, 4796.0, 4788.0, 4790.0, 4792.0, 4790.0, 4790.0, 4794.0, 4792.0, 4790.0, 4794.0, 4798.0, 4790.0, 4790.0, 4792.0, 4790.0, 4790.0, 4792.0, 4790.0, 4794.0, 4794.0, 4790.0, 4794.0, 4792.0, 4796.0, 4794.0, 4790.0, 4796.0, 4790.0, 4796.0, 4794.0, 4794.0, 4790.0, 4798.0, 4796.0, 4796.0, 4790.0, 4798.0, 4794.0, 4790.0, 4802.0, 4802.0, 4794.0, 4786.0, 4784.0, 4784.0, 4786.0, 4792.0, 4796.0, 4800.0, 4800.0, 4802.0, 4800.0, 4794.0, 4796.0, 4794.0, 4790.0, 4788.0, 4792.0, 4794.0, 4794.0, 4794.0, 4796.0, 4796.0, 4794.0, 4796.0, 4796.0, 4796.0, 4794.0, 4794.0, 4792.0, 4794.0, 4796.0, 4796.0, 4796.0, 4794.0, 4790.0, 4790.0, 4792.0, 4792.0, 4792.0, 4796.0, 4796.0, 4796.0, 4798.0, 4796.0, 4796.0, 4796.0, 4798.0, 4796.0, 4796.0, 4796.0, 4794.0, 4790.0, 4794.0, 4792.0, 4790.0, 4792.0, 4796.0, 4794.0, 4794.0, 4796.0, 4794.0, 4794.0, 4798.0, 4792.0, 4796.0, 4794.0, 4796.0, 4794.0, 4796.0, 4798.0, 4822.0, 4796.0, 4794.0, 4794.0, 4796.0, 4796.0, 4792.0, 4794.0, 4794.0, 4792.0, 4794.0, 4794.0, 4794.0, 4798.0, 4794.0, 4790.0, 4796.0, 4796.0, 4794.0, 4796.0, 4796.0, 4794.0, 4798.0, 4792.0, 4798.0, 4792.0, 4796.0, 4798.0, 4792.0, 4792.0, 4798.0, 4792.0, 4792.0, 4794.0, 4792.0, 4796.0, 4790.0, 4796.0, 4800.0, 4796.0, 4794.0, 4794.0, 4790.0, 4796.0, 4794.0, 4798.0],
