{
  "AcquisitionMatrixPE": 104,
  "AcquisitionNumber": 1,
  "AcquisitionTime": "19:45:21.885000",
  "BandwidthPerPixelPhaseEncode": 17.17,
  "BaseResolution": 104,
  "BodyPartExamined": "BRAIN",
  "CoilCombinationMethod": "Sum of Squares",
  "ConsistencyInfo": "N4_VE11C_LATEST_20160120",
  "ConversionSoftware": "dcm2niix",
  "ConversionSoftwareVersion": "v1.0.20220505",
  "DerivedVendorReportedEchoSpacing": 0.000560011,
  "DeviceSerialNumber": "167006",
  "DwellTime": 2.1e-06,
  "EchoTime": 0.037,
  "EchoTime1": 0.037,
  "EchoTime2": 0.001,
  "EchoTrainLength": 104,
  "EffectiveEchoSpacing": 0.000560011,
  "FlipAngle": 52,
  "HeudiconvVersion": "0.5.3.post811+g6206e14",
  "ImageComments": "Unaliased MB4/PE3/LB",
  "ImageOrientationPatientDICOM": [0.999863, -0.0144349, 0.00811844, 0.0164053, 0.930407, -0.366161],
  "ImageOrientationText": "Tra>Cor(-21.5)>Sag(0.1)",
  "ImageType": [
    "ORIGINAL",
    "PRIMARY",
    "P",
    "MB",
    "ND",
    "MOSAIC",
    "PHASE"
],
  "ImagingFrequency": 123.26,
  "InPlanePhaseEncodingDirectionDICOM": "COL",
  "InstitutionAddress": "Chemin Queen-Mary 4565,Montreal,District,CA,H3W 1W5",
  "InstitutionName": "IUGM",
  "InstitutionalDepartmentName": "Department",
  "MRAcquisitionType": "2D",
  "MagneticFieldStrength": 3,
  "Manufacturer": "Siemens",
  "ManufacturersModelName": "Prisma_fit",
  "MatrixCoilMode": "SENSE",
  "Modality": "MR",
  "MultibandAccelerationFactor": 4,
  "PartialFourier": 1,
  "PatientPosition": "HFS",
  "PercentPhaseFOV": 100,
  "PercentSampling": 100,
  "PhaseEncodingDirection": "j",
  "PhaseEncodingSteps": 104,
  "PhaseResolution": 1,
  "PixelBandwidth": 2290,
  "ProcedureStepDescription": "games^mario3",
  "ProtocolName": "func_task-mario3_run-08",
  "PulseSequenceDetails": "%CustomerSeq%\\cmrr_mbep2d_bold",
  "ReceiveCoilActiveElements": "HC1-7;NC1,2",
  "ReceiveCoilName": "HeadNeck_64",
  "ReconMatrixPE": 104,
  "RepetitionTime": 1.49,
  "SAR": 0.0967074,
  "ScanOptions": "FS",
  "ScanningSequence": "EP",
  "SequenceName": "epfid2d1_104",
  "SequenceVariant": "SK\\SS",
  "SeriesDescription": "func_task-mario3_run-08",
  "SeriesNumber": 32,
  "ShimSetting": [599, -7261, -8811, 450, 13, -363, -8, 32],
  "SliceThickness": 2,
  "SliceTiming": [0, 0.7825, 0.0975, 0.88, 0.195, 0.98, 0.2925, 1.0775, 0.39, 1.175, 0.49, 1.2725, 0.5875, 1.37, 0.685, 0, 0.7825, 0.0975, 0.88, 0.195, 0.98, 0.2925, 1.0775, 0.39, 1.175, 0.49, 1.2725, 0.5875, 1.37, 0.685, 0, 0.7825, 0.0975, 0.88, 0.195, 0.98, 0.2925, 1.0775, 0.39, 1.175, 0.49, 1.2725, 0.5875, 1.37, 0.685, 0, 0.7825, 0.0975, 0.88, 0.195, 0.98, 0.2925, 1.0775, 0.39, 1.175, 0.49, 1.2725, 0.5875, 1.37, 0.685],
  "SoftwareVersions": "syngo MR E11",
  "SpacingBetweenSlices": 2,
  "StationName": "MRC35049",
  "TaskName": "mario3",
  "TotalReadoutTime": 0.0576811,
  "TxRefAmp": 322.451,
  "WipMemBlock": "0cfb78f7-fd37-4ed3-8283-11ea08dd0781||Sequence: R017 ve11c/master r/75a17815+; Jun 28 2022 16:32:11 by eja",
  "dcmmeta_affine": [
    [-1.9997256994247437, 0.03281054273247719, 0.0045358953066170216, 102.30154418945312],
    [0.028869876638054848, 1.8608139753341675, -0.7324873805046082, -69.79436492919922],
    [0.016236882656812668, 0.7323214411735535, 1.861032485961914, -63.09316635131836],
    [0.0, 0.0, 0.0, 1.0]
],
  "dcmmeta_reorient_transform": [
    [0.0, -1.0, 0.0, 103.0],
    [1.0, 0.0, 0.0, 0.0],
    [0.0, 0.0, 1.0, 0.0],
    [0.0, 0.0, 0.0, 1.0]
],
  "dcmmeta_shape": [104, 104, 60, 324],
  "dcmmeta_slice_dim": 2,
  "dcmmeta_version": 0.6,
  "global": {
    "const": {
      "AcquisitionMatrix": [104, 0, 0, 104],
      "AngioFlag": "N",
      "BitsAllocated": 16,
      "BitsStored": 16,
      "BodyPartExamined": "BRAIN",
      "Columns": 832,
      "EchoNumbers": 1,
      "EchoTime": 37.0,
      "EchoTrainLength": 104,
      "FlipAngle": 52.0,
      "HighBit": 15,
      "ImageOrientationPatient": [0.99986285233304, -0.0144349378815, 0.00811844152443, 0.01640527166881, 0.93040700226537, -0.3661607259074],
      "ImagePositionPatient": [-845.52422278047, -788.69713693136, 272.99072513179],
      "ImageType": [
        "ORIGINAL",
        "PRIMARY",
        "P",
        "MB",
        "ND",
        "MOSAIC"
],
      "ImagedNucleus": "1H",
      "ImagingFrequency": 123.26018,
      "InPlanePhaseEncodingDirection": "COL",
      "LargestImagePixelValue": 4095,
      "MRAcquisitionType": "2D",
      "MagneticFieldStrength": 3.0,
      "Manufacturer": "SIEMENS",
      "ManufacturerModelName": "Prisma_fit",
      "Modality": "MR",
      "NumberOfAverages": 1.0,
      "NumberOfPhaseEncodingSteps": 104,
      "PercentPhaseFieldOfView": 100.0,
      "PercentSampling": 100.0,
      "PerformedProcedureStepStartTime": "182341.927000",
      "PhotometricInterpretation": "MONOCHROME2",
      "PixelBandwidth": 2290.0,
      "PixelRepresentation": 0,
      "PixelSpacing": [2.0, 2.0],
      "ProtocolName": "func_task-mario3_run-08",
      "RepetitionTime": 1490.0,
      "RescaleIntercept": -4096.0,
      "RescaleSlope": 2.0,
      "RescaleType": "US",
      "Rows": 832,
      "SAR": 0.09670735822059,
      "SamplesPerPixel": 1,
      "ScanOptions": "FS",
      "ScanningSequence": "EP",
      "SequenceName": "epfid2d1_104",
      "SequenceVariant": [
        "SK",
        "SS"
],
      "SeriesDescription": "func_task-mario3_run-08",
      "SeriesNumber": 32,
      "SeriesTime": "194634.251000",
      "SliceLocation": -32.915453156998,
      "SliceThickness": 2.0,
      "SmallestImagePixelValue": 0,
      "SoftwareVersions": "syngo MR E11",
      "SpacingBetweenSlices": 2.0000000529304,
      "SpecificCharacterSet": "ISO_IR 100",
      "StudyID": "1",
      "StudyTime": "182341.858000",
      "TransmitCoilName": "Body",
      "VariableFlipAngleFlag": "N",
      "WindowCenterWidthExplanation": "Algo1",
      "dBdt": 0.0},
    "slices": {}
  },
  "time": {
    "samples": {
      "AcquisitionNumber": [1, 2, 3, 4, 5, 6, 7, 8, 9, 10, 11, 12, 13, 14, 15, 16, 17, 18, 19, 20, 21, 22, 23, 24, 25, 26, 27, 28, 29, 30, 31, 32, 33, 34, 35, 36, 37, 38, 39, 40, 41, 42, 43, 44, 45, 46, 47, 48, 49, 50, 51, 52, 53, 54, 55, 56, 57, 58, 59, 60, 61, 62, 63, 64, 65, 66, 67, 68, 69, 70, 71, 72, 73, 74, 75, 76, 77, 78, 79, 80, 81, 82, 83, 84, 85, 86, 87, 88, 89, 90, 91, 92, 93, 94, 95, 96, 97, 98, 99, 100, 101, 102, 103, 104, 105, 106, 107, 108, 109, 110, 111, 112, 113, 114, 115, 116, 117, 118, 119, 120, 121, 122, 123, 124, 125, 126, 127, 128, 129, 130, 131, 132, 133, 134, 135, 136, 137, 138, 139, 140, 141, 142, 143, 144, 145, 146, 147, 148, 149, 150, 151, 152, 153, 154, 155, 156, 157, 158, 159, 160, 161, 162, 163, 164, 165, 166, 167, 168, 169, 170, 171, 172, 173, 174, 175, 176, 177, 178, 179, 180, 181, 182, 183, 184, 185, 186, 187, 188, 189, 190, 191, 192, 193, 194, 195, 196, 197, 198, 199, 200, 201, 202, 203, 204, 205, 206, 207, 208, 209, 210, 211, 212, 213, 214, 215, 216, 217, 218, 219, 220, 221, 222, 223, 224, 225, 226, 227, 228, 229, 230, 231, 232, 233, 234, 235, 236, 237, 238, 239, 240, 241, 242, 243, 244, 245, 246, 247, 248, 249, 250, 251, 252, 253, 254, 255, 256, 257, 258, 259, 260, 261, 262, 263, 264, 265, 266, 267, 268, 269, 270, 271, 272, 273, 274, 275, 276, 277, 278, 279, 280, 281, 282, 283, 284, 285, 286, 287, 288, 289, 290, 291, 292, 293, 294, 295, 296, 297, 298, 299, 300, 301, 302, 303, 304, 305, 306, 307, 308, 309, 310, 311, 312, 313, 314, 315, 316, 317, 318, 319, 320, 321, 322, 323, 324],
      "AcquisitionTime": ["194521.885000", "194523.375000", "194524.865000", "194526.355000", "194527.845000", "194529.335000", "194530.825000", "194532.315000", "194533.805000", "194535.295000", "194536.785000", "194538.275000", "194539.765000", "194541.255000", "194542.745000", "194544.235000", "194545.725000", "194547.215000", "194548.705000", "194550.195000", "194551.685000", "194553.175000", "194554.665000", "194556.155000", "194557.645000", "194559.135000", "194600.625000", "194602.115000", "194603.605000", "194605.095000", "194606.585000", "194608.075000", "194609.565000", "194611.055000", "194612.545000", "194614.035000", "194615.525000", "194617.015000", "194618.505000", "194619.995000", "194621.485000", "194622.975000", "194624.465000", "194625.955000", "194627.445000", "194628.935000", "194630.425000", "194631.915000", "194633.405000", "194634.895000", "194636.385000", "194637.875000", "194639.365000", "194640.855000", "194642.345000", "194643.835000", "194645.325000", "194646.815000", "194648.305000", "194649.795000", "194651.285000", "194652.775000", "194654.265000", "194655.755000", "194657.245000", "194658.735000", "194700.225000", "194701.715000", "194703.205000", "194704.695000", "194706.185000", "194707.675000", "194709.165000", "194710.655000", "194712.145000", "194713.635000", "194715.125000", "194716.615000", "194718.105000", "194719.595000", "194721.085000", "194722.575000", "194724.065000", "194725.555000", "194727.045000", "194728.535000", "194730.025000", "194731.515000", "194733.005000", "194734.495000", "194735.985000", "194737.475000", "194738.965000", "194740.455000", "194741.945000", "194743.435000", "194744.925000", "194746.415000", "194747.905000", "194749.395000", "194750.885000", "194752.375000", "194753.865000", "194755.355000", "194756.845000", "194758.335000", "194759.825000", "194801.315000", "194802.805000", "194804.295000", "194805.785000", "194807.275000", "194808.765000", "194810.255000", "194811.745000", "194813.235000", "194814.725000", "194816.215000", "194817.705000", "194819.195000", "194820.685000", "194822.175000", "194823.665000", "194825.155000", "194826.645000", "194828.135000", "194829.625000", "194831.115000", "194832.605000", "194834.095000", "194835.585000", "194837.075000", "194838.565000", "194840.055000", "194841.545000", "194843.035000", "194844.525000", "194846.015000", "194847.505000", "194848.995000", "194850.485000", "194851.975000", "194853.465000", "194854.955000", "194856.445000", "194857.935000", "194859.425000", "194900.915000", "194902.405000", "194903.895000", "194905.385000", "194906.875000", "194908.365000", "194909.855000", "194911.345000", "194912.835000", "194914.325000", "194915.815000", "194917.305000", "194918.795000", "194920.285000", "194921.775000", "194923.265000", "194924.755000", "194926.245000", "194927.735000", "194929.225000", "194930.715000", "194932.205000", "194933.695000", "194935.185000", "194936.675000", "194938.165000", "194939.655000", "194941.145000", "194942.635000", "194944.125000", "194945.615000", "194947.105000", "194948.595000", "194950.085000", "194951.575000", "194953.065000", "194954.555000", "194956.045000", "194957.535000", "194959.025000", "195000.515000", "195002.005000", "195003.495000", "195004.985000", "195006.475000", "195007.965000", "195009.455000", "195010.945000", "195012.435000", "195013.925000", "195015.415000", "195016.905000", "195018.395000", "195019.885000", "195021.375000", "195022.865000", "195024.355000", "195025.845000", "195027.335000", "195028.825000", "195030.315000", "195031.805000", "195033.295000", "195034.785000", "195036.275000", "195037.765000", "195039.255000", "195040.745000", "195042.235000", "195043.725000", "195045.215000", "195046.705000", "195048.195000", "195049.685000", "195051.175000", "195052.665000", "195054.155000", "195055.645000", "195057.135000", "195058.625000", "195100.115000", "195101.605000", "195103.095000", "195104.585000", "195106.075000", "195107.565000", "195109.055000", "195110.545000", "195112.035000", "195113.525000", "195115.015000", "195116.505000", "195117.995000", "195119.485000", "195120.975000", "195122.465000", "195123.955000", "195125.445000", "195126.935000", "195128.425000", "195129.915000", "195131.405000", "195132.895000", "195134.385000", "195135.875000", "195137.365000", "195138.855000", "195140.345000", "195141.835000", "195143.325000", "195144.815000", "195146.305000", "195147.795000", "195149.285000", "195150.775000", "195152.265000", "195153.755000", "195155.245000", "195156.735000", "195158.225000", "195159.715000", "195201.205000", "195202.695000", "195204.185000", "195205.675000", "195207.165000", "195208.655000", "195210.145000", "195211.635000", "195213.125000", "195214.615000", "195216.105000", "195217.595000", "195219.085000", "195220.575000", "195222.065000", "195223.555000", "195225.045000", "195226.535000", "195228.025000", "195229.515000", "195231.005000", "195232.495000", "195233.985000", "195235.475000", "195236.965000", "195238.455000", "195239.945000", "195241.435000", "195242.925000", "195244.415000", "195245.905000", "195247.395000", "195248.885000", "195250.375000", "195251.865000", "195253.355000", "195254.845000", "195256.335000", "195257.825000", "195259.315000", "195300.805000", "195302.295000", "195303.785000", "195305.275000", "195306.765000", "195308.255000", "195309.745000", "195311.235000", "195312.725000", "195314.215000", "195315.705000", "195317.195000", "195318.685000", "195320.175000", "195321.665000", "195323.155000"],
      "ContentTime": ["194634.253000", "194634.256000", "194634.258000", "194634.261000", "194634.263000", "194634.266000", "194634.268000", "194634.271000", "194634.273000", "194634.276000", "194634.278000", "194634.281000", "194634.283000", "194634.286000", "194634.288000", "194634.291000", "194634.293000", "194634.295000", "194634.298000", "194634.300000", "194634.303000", "194634.305000", "194634.308000", "194654.193000", "194654.196000", "194654.198000", "194654.201000", "194654.203000", "194654.206000", "194654.208000", "194654.211000", "194654.213000", "194654.216000", "194654.218000", "194654.221000", "194654.223000", "194654.226000", "194654.238000", "194654.240000", "194654.243000", "194654.245000", "194654.248000", "194654.250000", "194714.198000", "194714.201000", "194714.203000", "194714.206000", "194714.209000", "194714.211000", "194714.214000", "194714.226000", "194714.228000", "194714.231000", "194714.233000", "194714.236000", "194714.238000", "194714.241000", "194714.243000", "194714.246000", "194714.248000", "194714.251000", "194714.253000", "194714.255000", "194734.191000", "194734.194000", "194734.196000", "194734.199000", "194734.201000", "194734.210000", "194734.213000", "194734.215000", "194734.218000", "194734.220000", "194734.223000", "194734.225000", "194734.228000", "194734.230000", "194734.233000", "194734.235000", "194734.238000", "194734.240000", "194734.243000", "194734.245000", "194814.258000", "194814.260000", "194814.263000", "194814.265000", "194814.268000", "194814.270000", "194814.273000", "194814.275000", "194814.278000", "194814.280000", "194814.283000", "194814.285000", "194814.288000", "194814.290000", "194814.293000", "194814.295000", "194814.298000", "194814.300000", "194814.303000", "194814.305000", "194814.308000", "194814.310000", "194814.313000", "194814.315000", "194814.318000", "194814.320000", "194814.323000", "194814.325000", "194814.328000", "194814.330000", "194814.333000", "194814.335000", "194854.219000", "194854.222000", "194854.225000", "194854.227000", "194854.230000", "194854.232000", "194854.235000", "194854.237000", "194854.240000", "194854.242000", "194854.245000", "194854.247000", "194854.250000", "194854.252000", "194854.255000", "194854.257000", "194854.260000", "194854.262000", "194854.265000", "194854.267000", "194854.270000", "194854.272000", "194854.275000", "194854.277000", "194854.279000", "194854.282000", "194934.244000", "194934.246000", "194934.249000", "194934.251000", "194934.254000", "194934.256000", "194934.259000", "194934.261000", "194934.265000", "194934.268000", "194934.271000", "194934.273000", "194934.276000", "194934.278000", "194934.281000", "194934.283000", "194934.286000", "194934.288000", "194934.291000", "194934.293000", "194934.295000", "194934.298000", "194934.300000", "194934.303000", "194934.305000", "194934.308000", "194934.310000", "195014.218000", "195014.221000", "195014.223000", "195014.226000", "195014.228000", "195014.231000", "195014.233000", "195014.236000", "195014.238000", "195014.241000", "195014.243000", "195014.246000", "195014.248000", "195014.251000", "195014.253000", "195014.256000", "195014.258000", "195014.261000", "195014.263000", "195014.266000", "195014.283000", "195014.286000", "195014.289000", "195014.291000", "195014.293000", "195014.296000", "195014.298000", "195054.209000", "195054.211000", "195054.214000", "195054.216000", "195054.219000", "195054.221000", "195054.224000", "195054.226000", "195054.229000", "195054.231000", "195054.234000", "195054.236000", "195054.239000", "195054.241000", "195054.244000", "195054.246000", "195054.249000", "195054.251000", "195054.254000", "195054.256000", "195054.259000", "195054.261000", "195054.264000", "195054.266000", "195054.269000", "195054.271000", "195054.274000", "195134.222000", "195134.225000", "195134.227000", "195134.230000", "195134.232000", "195134.235000", "195134.237000", "195134.240000", "195134.242000", "195134.245000", "195134.247000", "195134.250000", "195134.252000", "195134.255000", "195134.257000", "195134.260000", "195134.262000", "195134.265000", "195134.267000", "195134.270000", "195134.272000", "195134.275000", "195134.277000", "195134.280000", "195134.282000", "195134.285000", "195134.287000", "195154.151000", "195154.154000", "195154.156000", "195154.159000", "195154.161000", "195154.164000", "195154.166000", "195154.169000", "195154.171000", "195154.174000", "195154.176000", "195154.179000", "195154.181000", "195234.235000", "195234.238000", "195234.240000", "195234.243000", "195234.245000", "195234.248000", "195234.251000", "195234.253000", "195234.256000", "195234.258000", "195234.261000", "195234.263000", "195234.266000", "195234.268000", "195234.271000", "195234.274000", "195234.276000", "195234.279000", "195234.281000", "195234.284000", "195234.286000", "195234.289000", "195234.291000", "195234.294000", "195234.296000", "195234.299000", "195234.301000", "195314.214000", "195314.217000", "195314.219000", "195314.222000", "195314.224000", "195314.227000", "195314.229000", "195314.232000", "195314.234000", "195314.237000", "195314.239000", "195314.242000", "195314.244000", "195314.247000", "195314.249000", "195314.252000", "195314.254000", "195314.257000", "195314.259000", "195314.262000", "195314.264000", "195314.267000", "195314.269000", "195314.272000", "195314.274000", "195314.277000", "195314.279000", "195326.329000", "195326.332000", "195326.335000", "195326.337000", "195326.340000", "195326.342000", "195326.345000", "195326.347000"],
      "InstanceCreationTime": ["194634.253000", "194634.256000", "194634.258000", "194634.261000", "194634.263000", "194634.266000", "194634.268000", "194634.271000", "194634.273000", "194634.276000", "194634.278000", "194634.281000", "194634.283000", "194634.286000", "194634.288000", "194634.291000", "194634.293000", "194634.295000", "194634.298000", "194634.300000", "194634.303000", "194634.305000", "194634.308000", "194654.193000", "194654.196000", "194654.198000", "194654.201000", "194654.203000", "194654.206000", "194654.208000", "194654.211000", "194654.213000", "194654.216000", "194654.218000", "194654.221000", "194654.223000", "194654.226000", "194654.238000", "194654.240000", "194654.243000", "194654.245000", "194654.248000", "194654.250000", "194714.198000", "194714.201000", "194714.203000", "194714.206000", "194714.209000", "194714.211000", "194714.214000", "194714.226000", "194714.228000", "194714.231000", "194714.233000", "194714.236000", "194714.238000", "194714.241000", "194714.243000", "194714.246000", "194714.248000", "194714.251000", "194714.253000", "194714.255000", "194734.191000", "194734.194000", "194734.196000", "194734.199000", "194734.201000", "194734.210000", "194734.213000", "194734.215000", "194734.218000", "194734.220000", "194734.223000", "194734.225000", "194734.228000", "194734.230000", "194734.233000", "194734.235000", "194734.238000", "194734.240000", "194734.243000", "194734.245000", "194814.258000", "194814.260000", "194814.263000", "194814.265000", "194814.268000", "194814.270000", "194814.273000", "194814.275000", "194814.278000", "194814.280000", "194814.283000", "194814.285000", "194814.288000", "194814.290000", "194814.293000", "194814.295000", "194814.298000", "194814.300000", "194814.303000", "194814.305000", "194814.308000", "194814.310000", "194814.313000", "194814.315000", "194814.318000", "194814.320000", "194814.323000", "194814.325000", "194814.328000", "194814.330000", "194814.333000", "194814.335000", "194854.219000", "194854.222000", "194854.225000", "194854.227000", "194854.230000", "194854.232000", "194854.235000", "194854.237000", "194854.240000", "194854.242000", "194854.245000", "194854.247000", "194854.250000", "194854.252000", "194854.255000", "194854.257000", "194854.260000", "194854.262000", "194854.265000", "194854.267000", "194854.270000", "194854.272000", "194854.275000", "194854.277000", "194854.279000", "194854.282000", "194934.244000", "194934.246000", "194934.249000", "194934.251000", "194934.254000", "194934.256000", "194934.259000", "194934.261000", "194934.265000", "194934.268000", "194934.271000", "194934.273000", "194934.276000", "194934.278000", "194934.281000", "194934.283000", "194934.286000", "194934.288000", "194934.291000", "194934.293000", "194934.295000", "194934.298000", "194934.300000", "194934.303000", "194934.305000", "194934.308000", "194934.310000", "195014.218000", "195014.221000", "195014.223000", "195014.226000", "195014.228000", "195014.231000", "195014.233000", "195014.236000", "195014.238000", "195014.241000", "195014.243000", "195014.246000", "195014.248000", "195014.251000", "195014.253000", "195014.256000", "195014.258000", "195014.261000", "195014.263000", "195014.266000", "195014.283000", "195014.286000", "195014.289000", "195014.291000", "195014.293000", "195014.296000", "195014.298000", "195054.209000", "195054.211000", "195054.214000", "195054.216000", "195054.219000", "195054.221000", "195054.224000", "195054.226000", "195054.229000", "195054.231000", "195054.234000", "195054.236000", "195054.239000", "195054.241000", "195054.244000", "195054.246000", "195054.249000", "195054.251000", "195054.254000", "195054.256000", "195054.259000", "195054.261000", "195054.264000", "195054.266000", "195054.269000", "195054.271000", "195054.274000", "195134.222000", "195134.225000", "195134.227000", "195134.230000", "195134.232000", "195134.235000", "195134.237000", "195134.240000", "195134.242000", "195134.245000", "195134.247000", "195134.250000", "195134.252000", "195134.255000", "195134.257000", "195134.260000", "195134.262000", "195134.265000", "195134.267000", "195134.270000", "195134.272000", "195134.275000", "195134.277000", "195134.280000", "195134.282000", "195134.285000", "195134.287000", "195154.151000", "195154.154000", "195154.156000", "195154.159000", "195154.161000", "195154.164000", "195154.166000", "195154.169000", "195154.171000", "195154.174000", "195154.176000", "195154.179000", "195154.181000", "195234.235000", "195234.238000", "195234.240000", "195234.243000", "195234.245000", "195234.248000", "195234.251000", "195234.253000", "195234.256000", "195234.258000", "195234.261000", "195234.263000", "195234.266000", "195234.268000", "195234.271000", "195234.274000", "195234.276000", "195234.279000", "195234.281000", "195234.284000", "195234.286000", "195234.289000", "195234.291000", "195234.294000", "195234.296000", "195234.299000", "195234.301000", "195314.214000", "195314.217000", "195314.219000", "195314.222000", "195314.224000", "195314.227000", "195314.229000", "195314.232000", "195314.234000", "195314.237000", "195314.239000", "195314.242000", "195314.244000", "195314.247000", "195314.249000", "195314.252000", "195314.254000", "195314.257000", "195314.259000", "195314.262000", "195314.264000", "195314.267000", "195314.269000", "195314.272000", "195314.274000", "195314.277000", "195314.279000", "195326.329000", "195326.332000", "195326.335000", "195326.337000", "195326.340000", "195326.342000", "195326.345000", "195326.347000"],
      "InstanceNumber": [1, 2, 3, 4, 5, 6, 7, 8, 9, 10, 11, 12, 13, 14, 15, 16, 17, 18, 19, 20, 21, 22, 23, 24, 25, 26, 27, 28, 29, 30, 31, 32, 33, 34, 35, 36, 37, 38, 39, 40, 41, 42, 43, 44, 45, 46, 47, 48, 49, 50, 51, 52, 53, 54, 55, 56, 57, 58, 59, 60, 61, 62, 63, 64, 65, 66, 67, 68, 69, 70, 71, 72, 73, 74, 75, 76, 77, 78, 79, 80, 81, 82, 83, 84, 85, 86, 87, 88, 89, 90, 91, 92, 93, 94, 95, 96, 97, 98, 99, 100, 101, 102, 103, 104, 105, 106, 107, 108, 109, 110, 111, 112, 113, 114, 115, 116, 117, 118, 119, 120, 121, 122, 123, 124, 125, 126, 127, 128, 129, 130, 131, 132, 133, 134, 135, 136, 137, 138, 139, 140, 141, 142, 143, 144, 145, 146, 147, 148, 149, 150, 151, 152, 153, 154, 155, 156, 157, 158, 159, 160, 161, 162, 163, 164, 165, 166, 167, 168, 169, 170, 171, 172, 173, 174, 175, 176, 177, 178, 179, 180, 181, 182, 183, 184, 185, 186, 187, 188, 189, 190, 191, 192, 193, 194, 195, 196, 197, 198, 199, 200, 201, 202, 203, 204, 205, 206, 207, 208, 209, 210, 211, 212, 213, 214, 215, 216, 217, 218, 219, 220, 221, 222, 223, 224, 225, 226, 227, 228, 229, 230, 231, 232, 233, 234, 235, 236, 237, 238, 239, 240, 241, 242, 243, 244, 245, 246, 247, 248, 249, 250, 251, 252, 253, 254, 255, 256, 257, 258, 259, 260, 261, 262, 263, 264, 265, 266, 267, 268, 269, 270, 271, 272, 273, 274, 275, 276, 277, 278, 279, 280, 281, 282, 283, 284, 285, 286, 287, 288, 289, 290, 291, 292, 293, 294, 295, 296, 297, 298, 299, 300, 301, 302, 303, 304, 305, 306, 307, 308, 309, 310, 311, 312, 313, 314, 315, 316, 317, 318, 319, 320, 321, 322, 323, 324],
      "WindowCenter": [4830.0, 4804.0, 4806.0, 4828.0, 4832.0, 4830.0, 4804.0, 4830.0, 4804.0, 4804.0, 4830.0, 4826.0, 4830.0, 4804.0, 4830.0, 4806.0, 4830.0, 4826.0, 4828.0, 4830.0, 4806.0, 4828.0, 4806.0, 4804.0, 4804.0, 4804.0, 4828.0, 4828.0, 4826.0, 4826.0, 4830.0, 4826.0, 4806.0, 4806.0, 4806.0, 4828.0, 4802.0, 4828.0, 4806.0, 4830.0, 4830.0, 4826.0, 4806.0, 4828.0, 4828.0, 4828.0, 4830.0, 4830.0, 4830.0, 4830.0, 4828.0, 4828.0, 4830.0, 4806.0, 4804.0, 4802.0, 4804.0, 4826.0, 4830.0, 4828.0, 4828.0, 4830.0, 4830.0, 4804.0, 4806.0, 4804.0, 4806.0, 4806.0, 4828.0, 4802.0, 4828.0, 4828.0, 4828.0, 4804.0, 4804.0, 4826.0, 4828.0, 4830.0, 4830.0, 4802.0, 4806.0, 4824.0, 4828.0, 4804.0, 4804.0, 4830.0, 4832.0, 4830.0, 4828.0, 4826.0, 4830.0, 4804.0, 4828.0, 4804.0, 4826.0, 4804.0, 4830.0, 4826.0, 4828.0, 4804.0, 4804.0, 4802.0, 4826.0, 4806.0, 4802.0, 4828.0, 4804.0, 4806.0, 4804.0, 4830.0, 4804.0, 4826.0, 4826.0, 4800.0, 4804.0, 4802.0, 4802.0, 4804.0, 4806.0, 4802.0, 4802.0, 4800.0, 4804.0, 4824.0, 4826.0, 4824.0, 4804.0, 4804.0, 4828.0, 4826.0, 4828.0, 4828.0, 4824.0, 4802.0, 4802.0, 4826.0, 4828.0, 4804.0, 4802.0, 4800.0, 4826.0, 4802.0, 4826.0, 4806.0, 4806.0, 4802.0, 4828.0, 4826.0, 4802.0, 4802.0, 4802.0, 4802.0, 4802.0, 4802.0, 4804.0, 4826.0, 4804.0, 4802.0, 4802.0, 4826.0, 4826.0, 4804.0, 4804.0, 4802.0, 4802.0, 4826.0, 4804.0, 4828.0, 4824.0, 4804.0, 4800.0, 4804.0, 4800.0, 4802.0, 4802.0, 4826.0, 4802.0, 4798.0, 4798.0, 4804.0, 4824.0, 4826.0, 4798.0, 4802.0, 4802.0, 4804.0, 4800.0, 4802.0, 4802.0, 4804.0, 4800.0, 4824.0, 4804.0, 4800.0, 4828.0, 4826.0, 4804.0, 4826.0, 4804.0, 4826.0, 4804.0, 4804.0, 4802.0, 4802.0, 4826.0, 4832.0, 4832.0, 4828.0, 4802.0, 4800.0, 4796.0, 4800.0, 4824.0, 4826.0, 4826.0, 4828.0, 4832.0, 4824.0, 4826.0, 4826.0, 4802.0, 4804.0, 4800.0, 4800.0, 4802.0, 4802.0, 4826.0, 4804.0, 4828.0, 4826.0, 4826.0, 4822.0, 4800.0, 4804.0, 4802.0, 4802.0, 4826.0, 4802.0, 4824.0, 4828.0, 4828.0, 4828.0, 4826.0, 4798.0, 4802.0, 4802.0, 4802.0, 4802.0, 4802.0, 4800.0, 4826.0, 4802.0, 4824.0, 4828.0, 4804.0, 4826.0, 4804.0, 4800.0, 4804.0, 4802.0, 4804.0, 4802.0, 4800.0, 4826.0, 4804.0, 4804.0, 4800.0, 4824.0, 4802.0, 4802.0, 4802.0, 4826.0, 4802.0, 4828.0, 4800.0, 4800.0, 4826.0, 4802.0, 4824.0, 4802.0, 4802.0, 4804.0, 4824.0, 4824.0, 4802.0, 4802.0, 4802.0, 4802.0, 4800.0, 4802.0, 4796.0, 4800.0, 4800.0, 4798.0, 4826.0, 4804.0, 4828.0, 4804.0, 4802.0, 4824.0, 4802.0, 4802.0, 4802.0, 4826.0, 4804.0, 4802.0, 4802.0, 4800.0, 4826.0, 4800.0, 4824.0, 4802.0, 4822.0, 4802.0, 4802.0, 4804.0, 4804.0, 4826.0, 4806.0, 4804.0, 4800.0, 4802.0, 4802.0, 4802.0],
