{
  "AcquisitionMatrixPE": 104,
  "AcquisitionNumber": 1,
  "AcquisitionTime": "18:28:47.672500",
  "BandwidthPerPixelPhaseEncode": 17.17,
  "BaseResolution": 104,
  "BodyPartExamined": "BRAIN",
  "CoilCombinationMethod": "Sum of Squares",
  "ConsistencyInfo": "N4_VE11C_LATEST_20160120",
  "ConversionSoftware": "dcm2niix",
  "ConversionSoftwareVersion": "v1.0.20220505",
  "DerivedVendorReportedEchoSpacing": 0.000560011,
  "DeviceSerialNumber": "167006",
  "DwellTime": 2.1e-06,
  "EchoTime": 0.037,
  "EchoTime1": 0.037,
  "EchoTime2": 0.001,
  "EchoTrainLength": 104,
  "EffectiveEchoSpacing": 0.000560011,
  "FlipAngle": 52,
  "HeudiconvVersion": "0.5.3.post811+g6206e14",
  "ImageComments": "Unaliased MB4/PE3/LB",
  "ImageOrientationPatientDICOM": [0.999863, -0.0144349, 0.00811844, 0.0164053, 0.930407, -0.366161],
  "ImageOrientationText": "Tra>Cor(-21.5)>Sag(0.1)",
  "ImageType": [
    "ORIGINAL",
    "PRIMARY",
    "P",
    "MB",
    "ND",
    "MOSAIC",
    "PHASE"
],
  "ImagingFrequency": 123.26,
  "InPlanePhaseEncodingDirectionDICOM": "COL",
  "InstitutionAddress": "Chemin Queen-Mary 4565,Montreal,District,CA,H3W 1W5",
  "InstitutionName": "IUGM",
  "InstitutionalDepartmentName": "Department",
  "MRAcquisitionType": "2D",
  "MagneticFieldStrength": 3,
  "Manufacturer": "Siemens",
  "ManufacturersModelName": "Prisma_fit",
  "MatrixCoilMode": "SENSE",
  "Modality": "MR",
  "MultibandAccelerationFactor": 4,
  "PartialFourier": 1,
  "PatientPosition": "HFS",
  "PercentPhaseFOV": 100,
  "PercentSampling": 100,
  "PhaseEncodingDirection": "j",
  "PhaseEncodingSteps": 104,
  "PhaseResolution": 1,
  "PixelBandwidth": 2290,
  "ProcedureStepDescription": "games^mario3",
  "ProtocolName": "func_task-mario3_run-01",
  "PulseSequenceDetails": "%CustomerSeq%\\cmrr_mbep2d_bold",
  "ReceiveCoilActiveElements": "HC1-7;NC1,2",
  "ReceiveCoilName": "HeadNeck_64",
  "ReconMatrixPE": 104,
  "RepetitionTime": 1.49,
  "SAR": 0.0967074,
  "ScanOptions": "FS",
  "ScanningSequence": "EP",
  "SequenceName": "epfid2d1_104",
  "SequenceVariant": "SK\\SS",
  "SeriesDescription": "func_task-mario3_run-01",
  "SeriesNumber": 11,
  "ShimSetting": [599, -7261, -8811, 450, 13, -363, -8, 32],
  "SliceThickness": 2,
  "SliceTiming": [0, 0.785, 0.1, 0.8825, 0.1975, 0.98, 0.295, 1.08, 0.3925, 1.1775, 0.49, 1.275, 0.59, 1.3725, 0.6875, 0, 0.785, 0.1, 0.8825, 0.1975, 0.98, 0.295, 1.08, 0.3925, 1.1775, 0.49, 1.275, 0.59, 1.3725, 0.6875, 0, 0.785, 0.1, 0.8825, 0.1975, 0.98, 0.295, 1.08, 0.3925, 1.1775, 0.49, 1.275, 0.59, 1.3725, 0.6875, 0, 0.785, 0.1, 0.8825, 0.1975, 0.98, 0.295, 1.08, 0.3925, 1.1775, 0.49, 1.275, 0.59, 1.3725, 0.6875],
  "SoftwareVersions": "syngo MR E11",
  "SpacingBetweenSlices": 2,
  "StationName": "MRC35049",
  "TaskName": "mario3",
  "TotalReadoutTime": 0.0576811,
  "TxRefAmp": 322.451,
  "WipMemBlock": "df8c61ba-1830-4b92-8ee8-3a3e25a7f2bc||Sequence: R017 ve11c/master r/75a17815+; Jun 28 2022 16:32:11 by eja",
  "dcmmeta_affine": [
    [-1.9997256994247437, 0.03281054273247719, 0.0045358953066170216, 102.30154418945312],
    [0.028869876638054848, 1.8608139753341675, -0.7324873805046082, -69.79436492919922],
    [0.016236882656812668, 0.7323214411735535, 1.861032485961914, -63.09316635131836],
    [0.0, 0.0, 0.0, 1.0]
],
  "dcmmeta_reorient_transform": [
    [0.0, -1.0, 0.0, 103.0],
    [1.0, 0.0, 0.0, 0.0],
    [0.0, 0.0, 1.0, 0.0],
    [0.0, 0.0, 0.0, 1.0]
],
  "dcmmeta_shape": [104, 104, 60, 377],
  "dcmmeta_slice_dim": 2,
  "dcmmeta_version": 0.6,
  "global": {
    "const": {
      "AcquisitionMatrix": [104, 0, 0, 104],
      "AngioFlag": "N",
      "BitsAllocated": 16,
      "BitsStored": 16,
      "BodyPartExamined": "BRAIN",
      "Columns": 832,
      "EchoNumbers": 1,
      "EchoTime": 37.0,
      "EchoTrainLength": 104,
      "FlipAngle": 52.0,
      "HighBit": 15,
      "ImageOrientationPatient": [0.99986285233304, -0.0144349378815, 0.00811844152443, 0.01640527166881, 0.93040700226537, -0.3661607259074],
      "ImagePositionPatient": [-845.52422278047, -788.69713693136, 272.99072513179],
      "ImageType": [
        "ORIGINAL",
        "PRIMARY",
        "P",
        "MB",
        "ND",
        "MOSAIC"
],
      "ImagedNucleus": "1H",
      "ImagingFrequency": 123.260174,
      "InPlanePhaseEncodingDirection": "COL",
      "LargestImagePixelValue": 4095,
      "MRAcquisitionType": "2D",
      "MagneticFieldStrength": 3.0,
      "Manufacturer": "SIEMENS",
      "ManufacturerModelName": "Prisma_fit",
      "Modality": "MR",
      "NumberOfAverages": 1.0,
      "NumberOfPhaseEncodingSteps": 104,
      "PercentPhaseFieldOfView": 100.0,
      "PercentSampling": 100.0,
      "PerformedProcedureStepStartTime": "182341.927000",
      "PhotometricInterpretation": "MONOCHROME2",
      "PixelBandwidth": 2290.0,
      "PixelRepresentation": 0,
      "PixelSpacing": [2.0, 2.0],
      "ProtocolName": "func_task-mario3_run-01",
      "RepetitionTime": 1490.0,
      "RescaleIntercept": -4096.0,
      "RescaleSlope": 2.0,
      "RescaleType": "US",
      "Rows": 832,
      "SAR": 0.09670735822059,
      "SamplesPerPixel": 1,
      "ScanOptions": "FS",
      "ScanningSequence": "EP",
      "SequenceName": "epfid2d1_104",
      "SequenceVariant": [
        "SK",
        "SS"
],
      "SeriesDescription": "func_task-mario3_run-01",
      "SeriesNumber": 11,
      "SeriesTime": "182959.929000",
      "SliceLocation": -32.915453156998,
      "SliceThickness": 2.0,
      "SmallestImagePixelValue": 0,
      "SoftwareVersions": "syngo MR E11",
      "SpacingBetweenSlices": 2.0000000529304,
      "SpecificCharacterSet": "ISO_IR 100",
      "StudyID": "1",
      "StudyTime": "182341.858000",
      "TransmitCoilName": "Body",
      "VariableFlipAngleFlag": "N",
      "WindowCenterWidthExplanation": "Algo1",
      "dBdt": 0.0},
    "slices": {}
  },
  "time": {
    "samples": {
      "AcquisitionNumber": [1, 2, 3, 4, 5, 6, 7, 8, 9, 10, 11, 12, 13, 14, 15, 16, 17, 18, 19, 20, 21, 22, 23, 24, 25, 26, 27, 28, 29, 30, 31, 32, 33, 34, 35, 36, 37, 38, 39, 40, 41, 42, 43, 44, 45, 46, 47, 48, 49, 50, 51, 52, 53, 54, 55, 56, 57, 58, 59, 60, 61, 62, 63, 64, 65, 66, 67, 68, 69, 70, 71, 72, 73, 74, 75, 76, 77, 78, 79, 80, 81, 82, 83, 84, 85, 86, 87, 88, 89, 90, 91, 92, 93, 94, 95, 96, 97, 98, 99, 100, 101, 102, 103, 104, 105, 106, 107, 108, 109, 110, 111, 112, 113, 114, 115, 116, 117, 118, 119, 120, 121, 122, 123, 124, 125, 126, 127, 128, 129, 130, 131, 132, 133, 134, 135, 136, 137, 138, 139, 140, 141, 142, 143, 144, 145, 146, 147, 148, 149, 150, 151, 152, 153, 154, 155, 156, 157, 158, 159, 160, 161, 162, 163, 164, 165, 166, 167, 168, 169, 170, 171, 172, 173, 174, 175, 176, 177, 178, 179, 180, 181, 182, 183, 184, 185, 186, 187, 188, 189, 190, 191, 192, 193, 194, 195, 196, 197, 198, 199, 200, 201, 202, 203, 204, 205, 206, 207, 208, 209, 210, 211, 212, 213, 214, 215, 216, 217, 218, 219, 220, 221, 222, 223, 224, 225, 226, 227, 228, 229, 230, 231, 232, 233, 234, 235, 236, 237, 238, 239, 240, 241, 242, 243, 244, 245, 246, 247, 248, 249, 250, 251, 252, 253, 254, 255, 256, 257, 258, 259, 260, 261, 262, 263, 264, 265, 266, 267, 268, 269, 270, 271, 272, 273, 274, 275, 276, 277, 278, 279, 280, 281, 282, 283, 284, 285, 286, 287, 288, 289, 290, 291, 292, 293, 294, 295, 296, 297, 298, 299, 300, 301, 302, 303, 304, 305, 306, 307, 308, 309, 310, 311, 312, 313, 314, 315, 316, 317, 318, 319, 320, 321, 322, 323, 324, 325, 326, 327, 328, 329, 330, 331, 332, 333, 334, 335, 336, 337, 338, 339, 340, 341, 342, 343, 344, 345, 346, 347, 348, 349, 350, 351, 352, 353, 354, 355, 356, 357, 358, 359, 360, 361, 362, 363, 364, 365, 366, 367, 368, 369, 370, 371, 372, 373, 374, 375, 376, 377],
      "AcquisitionTime": ["182847.672500", "182849.162500", "182850.652500", "182852.142500", "182853.632500", "182855.122500", "182856.612500", "182858.102500", "182859.592500", "182901.082500", "182902.572500", "182904.062500", "182905.552500", "182907.042500", "182908.532500", "182910.022500", "182911.512500", "182913.002500", "182914.492500", "182915.982500", "182917.472500", "182918.962500", "182920.452500", "182921.942500", "182923.432500", "182924.922500", "182926.412500", "182927.902500", "182929.392500", "182930.882500", "182932.372500", "182933.862500", "182935.352500", "182936.842500", "182938.332500", "182939.822500", "182941.312500", "182942.802500", "182944.292500", "182945.782500", "182947.272500", "182948.762500", "182950.252500", "182951.742500", "182953.232500", "182954.722500", "182956.212500", "182957.702500", "182959.192500", "183000.682500", "183002.172500", "183003.662500", "183005.152500", "183006.642500", "183008.132500", "183009.622500", "183011.112500", "183012.602500", "183014.092500", "183015.582500", "183017.072500", "183018.562500", "183020.052500", "183021.542500", "183023.032500", "183024.522500", "183026.012500", "183027.502500", "183028.992500", "183030.482500", "183031.972500", "183033.462500", "183034.952500", "183036.442500", "183037.932500", "183039.422500", "183040.912500", "183042.402500", "183043.892500", "183045.382500", "183046.872500", "183048.362500", "183049.852500", "183051.342500", "183052.832500", "183054.322500", "183055.812500", "183057.302500", "183058.792500", "183100.282500", "183101.772500", "183103.262500", "183104.752500", "183106.242500", "183107.732500", "183109.222500", "183110.712500", "183112.202500", "183113.692500", "183115.182500", "183116.672500", "183118.162500", "183119.652500", "183121.142500", "183122.632500", "183124.122500", "183125.612500", "183127.102500", "183128.592500", "183130.082500", "183131.572500", "183133.062500", "183134.552500", "183136.042500", "183137.532500", "183139.022500", "183140.512500", "183142.002500", "183143.492500", "183144.982500", "183146.472500", "183147.962500", "183149.452500", "183150.942500", "183152.432500", "183153.922500", "183155.412500", "183156.902500", "183158.392500", "183159.882500", "183201.372500", "183202.862500", "183204.352500", "183205.842500", "183207.332500", "183208.822500", "183210.312500", "183211.802500", "183213.292500", "183214.782500", "183216.272500", "183217.762500", "183219.252500", "183220.742500", "183222.232500", "183223.722500", "183225.212500", "183226.702500", "183228.192500", "183229.682500", "183231.172500", "183232.662500", "183234.152500", "183235.642500", "183237.132500", "183238.622500", "183240.112500", "183241.602500", "183243.092500", "183244.582500", "183246.072500", "183247.562500", "183249.052500", "183250.542500", "183252.032500", "183253.522500", "183255.012500", "183256.502500", "183257.992500", "183259.482500", "183300.972500", "183302.462500", "183303.952500", "183305.442500", "183306.932500", "183308.422500", "183309.912500", "183311.402500", "183312.892500", "183314.382500", "183315.872500", "183317.362500", "183318.852500", "183320.342500", "183321.832500", "183323.322500", "183324.812500", "183326.302500", "183327.792500", "183329.282500", "183330.772500", "183332.262500", "183333.752500", "183335.242500", "183336.732500", "183338.222500", "183339.712500", "183341.202500", "183342.692500", "183344.182500", "183345.672500", "183347.162500", "183348.652500", "183350.142500", "183351.632500", "183353.122500", "183354.612500", "183356.102500", "183357.592500", "183359.082500", "183400.572500", "183402.062500", "183403.552500", "183405.042500", "183406.532500", "183408.022500", "183409.512500", "183411.002500", "183412.492500", "183413.982500", "183415.472500", "183416.962500", "183418.452500", "183419.942500", "183421.432500", "183422.922500", "183424.412500", "183425.902500", "183427.392500", "183428.882500", "183430.372500", "183431.862500", "183433.352500", "183434.842500", "183436.332500", "183437.822500", "183439.312500", "183440.802500", "183442.292500", "183443.782500", "183445.272500", "183446.762500", "183448.252500", "183449.742500", "183451.232500", "183452.722500", "183454.212500", "183455.702500", "183457.192500", "183458.682500", "183500.172500", "183501.662500", "183503.152500", "183504.642500", "183506.132500", "183507.622500", "183509.112500", "183510.602500", "183512.092500", "183513.582500", "183515.072500", "183516.562500", "183518.052500", "183519.542500", "183521.032500", "183522.522500", "183524.012500", "183525.502500", "183526.992500", "183528.482500", "183529.972500", "183531.462500", "183532.952500", "183534.442500", "183535.932500", "183537.422500", "183538.912500", "183540.402500", "183541.892500", "183543.382500", "183544.872500", "183546.362500", "183547.852500", "183549.342500", "183550.832500", "183552.322500", "183553.812500", "183555.302500", "183556.792500", "183558.282500", "183559.772500", "183601.262500", "183602.752500", "183604.242500", "183605.732500", "183607.222500", "183608.712500", "183610.202500", "183611.692500", "183613.182500", "183614.672500", "183616.162500", "183617.652500", "183619.142500", "183620.632500", "183622.122500", "183623.612500", "183625.102500", "183626.592500", "183628.082500", "183629.572500", "183631.062500", "183632.552500", "183634.042500", "183635.532500", "183637.022500", "183638.512500", "183640.002500", "183641.492500", "183642.982500", "183644.472500", "183645.962500", "183647.452500", "183648.942500", "183650.432500", "183651.922500", "183653.412500", "183654.902500", "183656.392500", "183657.882500", "183659.372500", "183700.862500", "183702.352500", "183703.842500", "183705.332500", "183706.822500", "183708.312500", "183709.802500", "183711.292500", "183712.782500", "183714.272500", "183715.762500", "183717.252500", "183718.742500", "183720.232500", "183721.722500", "183723.212500", "183724.702500", "183726.192500", "183727.682500", "183729.172500", "183730.662500", "183732.152500", "183733.642500", "183735.132500", "183736.622500", "183738.112500", "183739.602500", "183741.092500", "183742.582500", "183744.072500", "183745.562500", "183747.052500", "183748.542500", "183750.032500", "183751.522500", "183753.012500", "183754.502500", "183755.992500", "183757.482500", "183758.972500", "183800.462500", "183801.952500", "183803.442500", "183804.932500", "183806.422500", "183807.912500"],
      "ContentTime": ["182959.931000", "182959.934000", "182959.936000", "182959.939000", "182959.941000", "182959.944000", "182959.946000", "182959.948000", "182959.951000", "182959.954000", "182959.956000", "182959.979000", "182959.981000", "182959.984000", "182959.986000", "182959.989000", "182959.991000", "182959.994000", "182959.996000", "183000.000000", "183000.002000", "183000.005000", "183000.007000", "183019.883000", "183019.886000", "183019.888000", "183019.891000", "183019.893000", "183019.896000", "183019.904000", "183019.906000", "183019.909000", "183019.911000", "183019.914000", "183019.916000", "183019.919000", "183019.921000", "183019.924000", "183019.926000", "183019.928000", "183019.931000", "183019.933000", "183019.936000", "183039.888000", "183039.891000", "183039.894000", "183039.896000", "183039.899000", "183039.901000", "183039.904000", "183039.906000", "183039.909000", "183039.911000", "183039.914000", "183039.916000", "183039.919000", "183039.921000", "183039.924000", "183039.926000", "183039.929000", "183039.931000", "183039.934000", "183039.936000", "183059.887000", "183059.890000", "183059.893000", "183059.895000", "183059.898000", "183059.901000", "183059.903000", "183059.906000", "183059.908000", "183059.911000", "183059.913000", "183059.916000", "183059.919000", "183059.922000", "183059.925000", "183059.928000", "183059.930000", "183059.933000", "183059.935000", "183059.938000", "183140.729000", "183140.732000", "183140.735000", "183140.737000", "183140.740000", "183140.742000", "183140.745000", "183140.747000", "183140.750000", "183140.752000", "183140.755000", "183140.757000", "183140.760000", "183140.763000", "183140.765000", "183140.768000", "183140.770000", "183140.773000", "183140.775000", "183140.778000", "183140.780000", "183140.783000", "183140.786000", "183140.788000", "183140.791000", "183140.794000", "183140.796000", "183140.799000", "183140.801000", "183140.804000", "183140.806000", "183159.859000", "183159.862000", "183159.865000", "183159.867000", "183159.870000", "183159.872000", "183159.875000", "183159.877000", "183159.880000", "183159.883000", "183159.885000", "183159.896000", "183159.898000", "183159.901000", "183239.912000", "183239.915000", "183239.918000", "183239.921000", "183239.923000", "183239.926000", "183239.928000", "183239.931000", "183239.933000", "183239.936000", "183239.938000", "183239.941000", "183239.944000", "183239.946000", "183239.949000", "183239.951000", "183239.954000", "183239.956000", "183239.959000", "183239.961000", "183239.964000", "183239.966000", "183239.969000", "183239.971000", "183239.974000", "183239.976000", "183239.979000", "183319.933000", "183319.936000", "183319.939000", "183319.941000", "183319.944000", "183319.946000", "183319.949000", "183319.951000", "183319.954000", "183319.956000", "183319.959000", "183319.961000", "183319.964000", "183319.966000", "183319.969000", "183319.971000", "183319.974000", "183319.976000", "183319.979000", "183319.981000", "183319.983000", "183319.986000", "183319.989000", "183319.991000", "183319.993000", "183319.996000", "183359.909000", "183359.912000", "183359.914000", "183359.917000", "183359.919000", "183359.922000", "183359.924000", "183359.927000", "183359.929000", "183359.932000", "183359.934000", "183359.937000", "183359.948000", "183359.951000", "183359.953000", "183359.956000", "183359.959000", "183359.962000", "183359.964000", "183359.967000", "183359.969000", "183359.972000", "183359.974000", "183359.977000", "183359.979000", "183359.982000", "183359.984000", "183439.928000", "183439.931000", "183439.933000", "183439.936000", "183439.938000", "183439.941000", "183439.943000", "183439.946000", "183439.948000", "183439.951000", "183439.953000", "183439.956000", "183439.958000", "183439.961000", "183439.963000", "183439.966000", "183439.969000", "183439.971000", "183439.974000", "183439.976000", "183439.979000", "183439.981000", "183439.984000", "183439.986000", "183439.989000", "183439.992000", "183439.994000", "183519.915000", "183519.917000", "183519.920000", "183519.922000", "183519.925000", "183519.928000", "183519.930000", "183519.933000", "183519.935000", "183519.938000", "183519.940000", "183519.943000", "183519.945000", "183519.948000", "183519.950000", "183519.953000", "183519.955000", "183519.958000", "183519.960000", "183519.963000", "183519.965000", "183519.968000", "183519.970000", "183519.973000", "183519.975000", "183519.978000", "183519.980000", "183559.911000", "183559.914000", "183559.917000", "183559.919000", "183559.922000", "183559.924000", "183559.927000", "183559.929000", "183559.932000", "183559.934000", "183559.937000", "183559.939000", "183559.941000", "183559.944000", "183559.946000", "183559.949000", "183559.951000", "183559.954000", "183559.956000", "183559.959000", "183559.961000", "183559.964000", "183559.966000", "183559.969000", "183559.971000", "183559.974000", "183559.976000", "183639.902000", "183639.905000", "183639.908000", "183639.910000", "183639.913000", "183639.915000", "183639.918000", "183639.920000", "183639.923000", "183639.925000", "183639.928000", "183639.930000", "183639.933000", "183639.935000", "183639.938000", "183639.940000", "183639.943000", "183639.945000", "183639.948000", "183639.950000", "183639.953000", "183639.955000", "183639.958000", "183639.960000", "183639.963000", "183639.965000", "183639.968000", "183719.922000", "183719.925000", "183719.927000", "183719.930000", "183719.932000", "183719.935000", "183719.937000", "183719.940000", "183719.942000", "183719.945000", "183719.947000", "183719.950000", "183719.952000", "183719.955000", "183719.957000", "183719.959000", "183719.962000", "183719.964000", "183719.967000", "183719.969000", "183719.972000", "183719.974000", "183719.977000", "183719.980000", "183719.982000", "183719.985000", "183719.987000", "183759.915000", "183759.918000", "183759.920000", "183759.923000", "183759.926000", "183759.928000", "183759.931000", "183759.933000", "183759.936000", "183759.938000", "183759.941000", "183759.943000", "183759.946000", "183759.948000", "183759.951000", "183759.954000", "183759.956000", "183759.959000", "183759.961000", "183759.964000", "183759.967000", "183759.971000", "183759.973000", "183759.976000", "183759.978000", "183759.981000", "183811.892000", "183811.895000", "183811.897000", "183811.900000", "183811.902000", "183811.905000", "183811.907000", "183811.910000"],
      "InstanceCreationTime": ["182959.931000", "182959.934000", "182959.936000", "182959.939000", "182959.941000", "182959.944000", "182959.946000", "182959.948000", "182959.951000", "182959.954000", "182959.956000", "182959.979000", "182959.981000", "182959.984000", "182959.986000", "182959.989000", "182959.991000", "182959.994000", "182959.996000", "183000.000000", "183000.002000", "183000.005000", "183000.007000", "183019.883000", "183019.886000", "183019.888000", "183019.891000", "183019.893000", "183019.896000", "183019.904000", "183019.906000", "183019.909000", "183019.911000", "183019.914000", "183019.916000", "183019.919000", "183019.921000", "183019.924000", "183019.926000", "183019.928000", "183019.931000", "183019.933000", "183019.936000", "183039.888000", "183039.891000", "183039.894000", "183039.896000", "183039.899000", "183039.901000", "183039.904000", "183039.906000", "183039.909000", "183039.911000", "183039.914000", "183039.916000", "183039.919000", "183039.921000", "183039.924000", "183039.926000", "183039.929000", "183039.931000", "183039.934000", "183039.936000", "183059.887000", "183059.890000", "183059.893000", "183059.895000", "183059.898000", "183059.901000", "183059.903000", "183059.906000", "183059.908000", "183059.911000", "183059.913000", "183059.916000", "183059.919000", "183059.922000", "183059.925000", "183059.928000", "183059.930000", "183059.933000", "183059.935000", "183059.938000", "183140.729000", "183140.732000", "183140.735000", "183140.737000", "183140.740000", "183140.742000", "183140.745000", "183140.747000", "183140.750000", "183140.752000", "183140.755000", "183140.757000", "183140.760000", "183140.763000", "183140.765000", "183140.768000", "183140.770000", "183140.773000", "183140.775000", "183140.778000", "183140.780000", "183140.783000", "183140.786000", "183140.788000", "183140.791000", "183140.794000", "183140.796000", "183140.799000", "183140.801000", "183140.804000", "183140.806000", "183159.859000", "183159.862000", "183159.865000", "183159.867000", "183159.870000", "183159.872000", "183159.875000", "183159.877000", "183159.880000", "183159.883000", "183159.885000", "183159.896000", "183159.898000", "183159.901000", "183239.912000", "183239.915000", "183239.918000", "183239.921000", "183239.923000", "183239.926000", "183239.928000", "183239.931000", "183239.933000", "183239.936000", "183239.938000", "183239.941000", "183239.944000", "183239.946000", "183239.949000", "183239.951000", "183239.954000", "183239.956000", "183239.959000", "183239.961000", "183239.964000", "183239.966000", "183239.969000", "183239.971000", "183239.974000", "183239.976000", "183239.979000", "183319.933000", "183319.936000", "183319.939000", "183319.941000", "183319.944000", "183319.946000", "183319.949000", "183319.951000", "183319.954000", "183319.956000", "183319.959000", "183319.961000", "183319.964000", "183319.966000", "183319.969000", "183319.971000", "183319.974000", "183319.976000", "183319.979000", "183319.981000", "183319.983000", "183319.986000", "183319.989000", "183319.991000", "183319.993000", "183319.996000", "183359.909000", "183359.912000", "183359.914000", "183359.917000", "183359.919000", "183359.922000", "183359.924000", "183359.927000", "183359.929000", "183359.932000", "183359.934000", "183359.937000", "183359.948000", "183359.951000", "183359.953000", "183359.956000", "183359.959000", "183359.962000", "183359.964000", "183359.967000", "183359.969000", "183359.972000", "183359.974000", "183359.977000", "183359.979000", "183359.982000", "183359.984000", "183439.928000", "183439.931000", "183439.933000", "183439.936000", "183439.938000", "183439.941000", "183439.943000", "183439.946000", "183439.948000", "183439.951000", "183439.953000", "183439.956000", "183439.958000", "183439.961000", "183439.963000", "183439.966000", "183439.969000", "183439.971000", "183439.974000", "183439.976000", "183439.979000", "183439.981000", "183439.984000", "183439.986000", "183439.989000", "183439.992000", "183439.994000", "183519.915000", "183519.917000", "183519.920000", "183519.922000", "183519.925000", "183519.928000", "183519.930000", "183519.933000", "183519.935000", "183519.938000", "183519.940000", "183519.943000", "183519.945000", "183519.948000", "183519.950000", "183519.953000", "183519.955000", "183519.958000", "183519.960000", "183519.963000", "183519.965000", "183519.968000", "183519.970000", "183519.973000", "183519.975000", "183519.978000", "183519.980000", "183559.911000", "183559.914000", "183559.917000", "183559.919000", "183559.922000", "183559.924000", "183559.927000", "183559.929000", "183559.932000", "183559.934000", "183559.937000", "183559.939000", "183559.941000", "183559.944000", "183559.946000", "183559.949000", "183559.951000", "183559.954000", "183559.956000", "183559.959000", "183559.961000", "183559.964000", "183559.966000", "183559.969000", "183559.971000", "183559.974000", "183559.976000", "183639.902000", "183639.905000", "183639.908000", "183639.910000", "183639.913000", "183639.915000", "183639.918000", "183639.920000", "183639.923000", "183639.925000", "183639.928000", "183639.930000", "183639.933000", "183639.935000", "183639.938000", "183639.940000", "183639.943000", "183639.945000", "183639.948000", "183639.950000", "183639.953000", "183639.955000", "183639.958000", "183639.960000", "183639.963000", "183639.965000", "183639.968000", "183719.922000", "183719.925000", "183719.927000", "183719.930000", "183719.932000", "183719.935000", "183719.937000", "183719.940000", "183719.942000", "183719.945000", "183719.947000", "183719.950000", "183719.952000", "183719.955000", "183719.957000", "183719.959000", "183719.962000", "183719.964000", "183719.967000", "183719.969000", "183719.972000", "183719.974000", "183719.977000", "183719.980000", "183719.982000", "183719.985000", "183719.987000", "183759.915000", "183759.918000", "183759.920000", "183759.923000", "183759.926000", "183759.928000", "183759.931000", "183759.933000", "183759.936000", "183759.938000", "183759.941000", "183759.943000", "183759.946000", "183759.948000", "183759.951000", "183759.954000", "183759.956000", "183759.959000", "183759.961000", "183759.964000", "183759.967000", "183759.971000", "183759.973000", "183759.976000", "183759.978000", "183759.981000", "183811.892000", "183811.895000", "183811.897000", "183811.900000", "183811.902000", "183811.905000", "183811.907000", "183811.910000"],
      "InstanceNumber": [1, 2, 3, 4, 5, 6, 7, 8, 9, 10, 11, 12, 13, 14, 15, 16, 17, 18, 19, 20, 21, 22, 23, 24, 25, 26, 27, 28, 29, 30, 31, 32, 33, 34, 35, 36, 37, 38, 39, 40, 41, 42, 43, 44, 45, 46, 47, 48, 49, 50, 51, 52, 53, 54, 55, 56, 57, 58, 59, 60, 61, 62, 63, 64, 65, 66, 67, 68, 69, 70, 71, 72, 73, 74, 75, 76, 77, 78, 79, 80, 81, 82, 83, 84, 85, 86, 87, 88, 89, 90, 91, 92, 93, 94, 95, 96, 97, 98, 99, 100, 101, 102, 103, 104, 105, 106, 107, 108, 109, 110, 111, 112, 113, 114, 115, 116, 117, 118, 119, 120, 121, 122, 123, 124, 125, 126, 127, 128, 129, 130, 131, 132, 133, 134, 135, 136, 137, 138, 139, 140, 141, 142, 143, 144, 145, 146, 147, 148, 149, 150, 151, 152, 153, 154, 155, 156, 157, 158, 159, 160, 161, 162, 163, 164, 165, 166, 167, 168, 169, 170, 171, 172, 173, 174, 175, 176, 177, 178, 179, 180, 181, 182, 183, 184, 185, 186, 187, 188, 189, 190, 191, 192, 193, 194, 195, 196, 197, 198, 199, 200, 201, 202, 203, 204, 205, 206, 207, 208, 209, 210, 211, 212, 213, 214, 215, 216, 217, 218, 219, 220, 221, 222, 223, 224, 225, 226, 227, 228, 229, 230, 231, 232, 233, 234, 235, 236, 237, 238, 239, 240, 241, 242, 243, 244, 245, 246, 247, 248, 249, 250, 251, 252, 253, 254, 255, 256, 257, 258, 259, 260, 261, 262, 263, 264, 265, 266, 267, 268, 269, 270, 271, 272, 273, 274, 275, 276, 277, 278, 279, 280, 281, 282, 283, 284, 285, 286, 287, 288, 289, 290, 291, 292, 293, 294, 295, 296, 297, 298, 299, 300, 301, 302, 303, 304, 305, 306, 307, 308, 309, 310, 311, 312, 313, 314, 315, 316, 317, 318, 319, 320, 321, 322, 323, 324, 325, 326, 327, 328, 329, 330, 331, 332, 333, 334, 335, 336, 337, 338, 339, 340, 341, 342, 343, 344, 345, 346, 347, 348, 349, 350, 351, 352, 353, 354, 355, 356, 357, 358, 359, 360, 361, 362, 363, 364, 365, 366, 367, 368, 369, 370, 371, 372, 373, 374, 375, 376, 377],
