{
  "AcquisitionMatrixPE": 104,
  "AcquisitionNumber": 1,
  "AcquisitionTime": "18:39:46.065000",
  "BandwidthPerPixelPhaseEncode": 17.17,
  "BaseResolution": 104,
  "BodyPartExamined": "BRAIN",
  "CoilCombinationMethod": "Sum of Squares",
  "ConsistencyInfo": "N4_VE11C_LATEST_20160120",
  "ConversionSoftware": "dcm2niix",
  "ConversionSoftwareVersion": "v1.0.20220505",
  "DerivedVendorReportedEchoSpacing": 0.000560011,
  "DeviceSerialNumber": "167006",
  "DwellTime": 2.1e-06,
  "EchoTime": 0.037,
  "EchoTrainLength": 104,
  "EffectiveEchoSpacing": 0.000560011,
  "FlipAngle": 52,
  "HeudiconvVersion": "0.5.3.post811+g6206e14",
  "ImageComments": "Unaliased MB4/PE3/LB",
  "ImageOrientationPatientDICOM": [0.999863, -0.0144349, 0.00811844, 0.0164053, 0.930407, -0.366161],
  "ImageOrientationText": "Tra>Cor(-21.5)>Sag(0.1)",
  "ImageType": [
    "ORIGINAL",
    "PRIMARY",
    "M",
    "MB",
    "ND",
    "MOSAIC"
],
  "ImagingFrequency": 123.26,
  "InPlanePhaseEncodingDirectionDICOM": "COL",
  "InstitutionAddress": "Chemin Queen-Mary 4565,Montreal,District,CA,H3W 1W5",
  "InstitutionName": "IUGM",
  "InstitutionalDepartmentName": "Department",
  "MRAcquisitionType": "2D",
  "MagneticFieldStrength": 3,
  "Manufacturer": "Siemens",
  "ManufacturersModelName": "Prisma_fit",
  "MatrixCoilMode": "SENSE",
  "Modality": "MR",
  "MultibandAccelerationFactor": 4,
  "PartialFourier": 1,
  "PatientPosition": "HFS",
  "PercentPhaseFOV": 100,
  "PercentSampling": 100,
  "PhaseEncodingDirection": "j",
  "PhaseEncodingSteps": 104,
  "PhaseResolution": 1,
  "PixelBandwidth": 2290,
  "ProcedureStepDescription": "games^mario3",
  "ProtocolName": "func_task-mario3_run-02",
  "PulseSequenceDetails": "%CustomerSeq%\\cmrr_mbep2d_bold",
  "ReceiveCoilActiveElements": "HC1-7;NC1,2",
  "ReceiveCoilName": "HeadNeck_64",
  "ReconMatrixPE": 104,
  "RepetitionTime": 1.49,
  "SAR": 0.0967074,
  "ScanOptions": "FS",
  "ScanningSequence": "EP",
  "SequenceName": "epfid2d1_104",
  "SequenceVariant": "SK\\SS",
  "SeriesDescription": "func_task-mario3_run-02",
  "SeriesNumber": 13,
  "ShimSetting": [599, -7261, -8811, 450, 13, -363, -8, 32],
  "SliceThickness": 2,
  "SliceTiming": [0, 0.7825, 0.0975, 0.88, 0.195, 0.98, 0.2925, 1.0775, 0.39, 1.175, 0.49, 1.2725, 0.5875, 1.37, 0.685, 0, 0.7825, 0.0975, 0.88, 0.195, 0.98, 0.2925, 1.0775, 0.39, 1.175, 0.49, 1.2725, 0.5875, 1.37, 0.685, 0, 0.7825, 0.0975, 0.88, 0.195, 0.98, 0.2925, 1.0775, 0.39, 1.175, 0.49, 1.2725, 0.5875, 1.37, 0.685, 0, 0.7825, 0.0975, 0.88, 0.195, 0.98, 0.2925, 1.0775, 0.39, 1.175, 0.49, 1.2725, 0.5875, 1.37, 0.685],
  "SoftwareVersions": "syngo MR E11",
  "SpacingBetweenSlices": 2,
  "StationName": "MRC35049",
  "TaskName": "mario3",
  "TotalReadoutTime": 0.0576811,
  "TxRefAmp": 322.451,
  "WipMemBlock": "de01ba84-c060-450b-8dbf-6767c2fe9609||Sequence: R017 ve11c/master r/75a17815+; Jun 28 2022 16:32:11 by eja",
  "dcmmeta_affine": [
    [-1.9997256994247437, 0.03281054273247719, 0.0045358953066170216, 102.30154418945312],
    [0.028869876638054848, 1.8608139753341675, -0.7324873805046082, -69.79436492919922],
    [0.016236882656812668, 0.7323214411735535, 1.861032485961914, -63.09316635131836],
    [0.0, 0.0, 0.0, 1.0]
],
  "dcmmeta_reorient_transform": [
    [0.0, -1.0, 0.0, 103.0],
    [1.0, 0.0, 0.0, 0.0],
    [0.0, 0.0, 1.0, 0.0],
    [0.0, 0.0, 0.0, 1.0]
],
  "dcmmeta_shape": [104, 104, 60, 339],
  "dcmmeta_slice_dim": 2,
  "dcmmeta_version": 0.6,
  "global": {
    "const": {
      "AcquisitionMatrix": [104, 0, 0, 104],
      "AngioFlag": "N",
      "BitsAllocated": 16,
      "BitsStored": 16,
      "BodyPartExamined": "BRAIN",
      "Columns": 832,
      "EchoNumbers": 1,
      "EchoTime": 37.0,
      "EchoTrainLength": 104,
      "FlipAngle": 52.0,
      "HighBit": 15,
      "ImageOrientationPatient": [0.99986285233304, -0.0144349378815, 0.00811844152443, 0.01640527166881, 0.93040700226537, -0.3661607259074],
      "ImagePositionPatient": [-845.52422278047, -788.69713693136, 272.99072513179],
      "ImageType": [
        "ORIGINAL",
        "PRIMARY",
        "M",
        "MB",
        "ND",
        "MOSAIC"
],
      "ImagedNucleus": "1H",
      "ImagingFrequency": 123.260177,
      "InPlanePhaseEncodingDirection": "COL",
      "MRAcquisitionType": "2D",
      "MagneticFieldStrength": 3.0,
      "Manufacturer": "SIEMENS",
      "ManufacturerModelName": "Prisma_fit",
      "Modality": "MR",
      "NumberOfAverages": 1.0,
      "NumberOfPhaseEncodingSteps": 104,
      "PercentPhaseFieldOfView": 100.0,
      "PercentSampling": 100.0,
      "PerformedProcedureStepStartTime": "182341.927000",
      "PhotometricInterpretation": "MONOCHROME2",
      "PixelBandwidth": 2290.0,
      "PixelRepresentation": 0,
      "PixelSpacing": [2.0, 2.0],
      "ProtocolName": "func_task-mario3_run-02",
      "RepetitionTime": 1490.0,
      "Rows": 832,
      "SAR": 0.09670735822059,
      "SamplesPerPixel": 1,
      "ScanOptions": "FS",
      "ScanningSequence": "EP",
      "SequenceName": "epfid2d1_104",
      "SequenceVariant": [
        "SK",
        "SS"
],
      "SeriesDescription": "func_task-mario3_run-02",
      "SeriesNumber": 13,
      "SeriesTime": "184114.112000",
      "SliceLocation": -32.915453156998,
      "SliceThickness": 2.0,
      "SmallestImagePixelValue": 0,
      "SoftwareVersions": "syngo MR E11",
      "SpacingBetweenSlices": 2.0000000529304,
      "SpecificCharacterSet": "ISO_IR 100",
      "StudyID": "1",
      "StudyTime": "182341.858000",
      "TransmitCoilName": "Body",
      "VariableFlipAngleFlag": "N",
      "WindowCenterWidthExplanation": "Algo1",
      "dBdt": 0.0},
    "slices": {}
  },
  "time": {
    "samples": {
      "AcquisitionNumber": [1, 2, 3, 4, 5, 6, 7, 8, 9, 10, 11, 12, 13, 14, 15, 16, 17, 18, 19, 20, 21, 22, 23, 24, 25, 26, 27, 28, 29, 30, 31, 32, 33, 34, 35, 36, 37, 38, 39, 40, 41, 42, 43, 44, 45, 46, 47, 48, 49, 50, 51, 52, 53, 54, 55, 56, 57, 58, 59, 60, 61, 62, 63, 64, 65, 66, 67, 68, 69, 70, 71, 72, 73, 74, 75, 76, 77, 78, 79, 80, 81, 82, 83, 84, 85, 86, 87, 88, 89, 90, 91, 92, 93, 94, 95, 96, 97, 98, 99, 100, 101, 102, 103, 104, 105, 106, 107, 108, 109, 110, 111, 112, 113, 114, 115, 116, 117, 118, 119, 120, 121, 122, 123, 124, 125, 126, 127, 128, 129, 130, 131, 132, 133, 134, 135, 136, 137, 138, 139, 140, 141, 142, 143, 144, 145, 146, 147, 148, 149, 150, 151, 152, 153, 154, 155, 156, 157, 158, 159, 160, 161, 162, 163, 164, 165, 166, 167, 168, 169, 170, 171, 172, 173, 174, 175, 176, 177, 178, 179, 180, 181, 182, 183, 184, 185, 186, 187, 188, 189, 190, 191, 192, 193, 194, 195, 196, 197, 198, 199, 200, 201, 202, 203, 204, 205, 206, 207, 208, 209, 210, 211, 212, 213, 214, 215, 216, 217, 218, 219, 220, 221, 222, 223, 224, 225, 226, 227, 228, 229, 230, 231, 232, 233, 234, 235, 236, 237, 238, 239, 240, 241, 242, 243, 244, 245, 246, 247, 248, 249, 250, 251, 252, 253, 254, 255, 256, 257, 258, 259, 260, 261, 262, 263, 264, 265, 266, 267, 268, 269, 270, 271, 272, 273, 274, 275, 276, 277, 278, 279, 280, 281, 282, 283, 284, 285, 286, 287, 288, 289, 290, 291, 292, 293, 294, 295, 296, 297, 298, 299, 300, 301, 302, 303, 304, 305, 306, 307, 308, 309, 310, 311, 312, 313, 314, 315, 316, 317, 318, 319, 320, 321, 322, 323, 324, 325, 326, 327, 328, 329, 330, 331, 332, 333, 334, 335, 336, 337, 338, 339],
      "AcquisitionTime": ["183946.065000", "183947.555000", "183949.045000", "183950.535000", "183952.025000", "183953.515000", "183955.005000", "183956.495000", "183957.985000", "183959.475000", "184000.965000", "184002.455000", "184003.945000", "184005.435000", "184006.925000", "184008.415000", "184009.905000", "184011.395000", "184012.885000", "184014.375000", "184015.865000", "184017.355000", "184018.845000", "184020.335000", "184021.825000", "184023.315000", "184024.805000", "184026.295000", "184027.785000", "184029.275000", "184030.765000", "184032.255000", "184033.745000", "184035.235000", "184036.725000", "184038.215000", "184039.705000", "184041.195000", "184042.685000", "184044.175000", "184045.665000", "184047.155000", "184048.645000", "184050.135000", "184051.625000", "184053.115000", "184054.605000", "184056.095000", "184057.585000", "184059.075000", "184100.565000", "184102.055000", "184103.545000", "184105.035000", "184106.525000", "184108.015000", "184109.505000", "184110.995000", "184112.485000", "184113.975000", "184115.465000", "184116.955000", "184118.445000", "184119.935000", "184121.425000", "184122.915000", "184124.405000", "184125.895000", "184127.385000", "184128.875000", "184130.365000", "184131.855000", "184133.345000", "184134.835000", "184136.325000", "184137.815000", "184139.305000", "184140.795000", "184142.285000", "184143.775000", "184145.265000", "184146.755000", "184148.245000", "184149.735000", "184151.225000", "184152.715000", "184154.205000", "184155.695000", "184157.185000", "184158.675000", "184200.165000", "184201.655000", "184203.145000", "184204.635000", "184206.125000", "184207.615000", "184209.105000", "184210.595000", "184212.085000", "184213.575000", "184215.065000", "184216.555000", "184218.045000", "184219.535000", "184221.025000", "184222.515000", "184224.005000", "184225.495000", "184226.985000", "184228.475000", "184229.965000", "184231.455000", "184232.945000", "184234.435000", "184235.925000", "184237.415000", "184238.905000", "184240.395000", "184241.885000", "184243.375000", "184244.865000", "184246.355000", "184247.845000", "184249.335000", "184250.825000", "184252.315000", "184253.805000", "184255.295000", "184256.785000", "184258.275000", "184259.765000", "184301.255000", "184302.745000", "184304.235000", "184305.725000", "184307.215000", "184308.705000", "184310.195000", "184311.685000", "184313.175000", "184314.665000", "184316.155000", "184317.645000", "184319.135000", "184320.625000", "184322.115000", "184323.605000", "184325.095000", "184326.585000", "184328.075000", "184329.565000", "184331.055000", "184332.545000", "184334.035000", "184335.525000", "184337.015000", "184338.505000", "184339.995000", "184341.485000", "184342.975000", "184344.465000", "184345.955000", "184347.445000", "184348.935000", "184350.425000", "184351.915000", "184353.405000", "184354.895000", "184356.385000", "184357.875000", "184359.365000", "184400.855000", "184402.345000", "184403.835000", "184405.325000", "184406.815000", "184408.305000", "184409.795000", "184411.285000", "184412.775000", "184414.265000", "184415.755000", "184417.245000", "184418.735000", "184420.225000", "184421.715000", "184423.205000", "184424.695000", "184426.185000", "184427.675000", "184429.165000", "184430.655000", "184432.145000", "184433.635000", "184435.125000", "184436.615000", "184438.105000", "184439.595000", "184441.085000", "184442.575000", "184444.065000", "184445.555000", "184447.045000", "184448.535000", "184450.025000", "184451.515000", "184453.005000", "184454.495000", "184455.985000", "184457.475000", "184458.965000", "184500.455000", "184501.945000", "184503.435000", "184504.925000", "184506.415000", "184507.905000", "184509.395000", "184510.885000", "184512.375000", "184513.865000", "184515.355000", "184516.845000", "184518.335000", "184519.825000", "184521.315000", "184522.805000", "184524.295000", "184525.785000", "184527.275000", "184528.765000", "184530.255000", "184531.745000", "184533.235000", "184534.725000", "184536.215000", "184537.705000", "184539.195000", "184540.685000", "184542.175000", "184543.665000", "184545.155000", "184546.645000", "184548.135000", "184549.625000", "184551.115000", "184552.605000", "184554.095000", "184555.585000", "184557.075000", "184558.565000", "184600.055000", "184601.545000", "184603.035000", "184604.525000", "184606.015000", "184607.505000", "184608.995000", "184610.485000", "184611.975000", "184613.465000", "184614.955000", "184616.445000", "184617.935000", "184619.425000", "184620.915000", "184622.405000", "184623.895000", "184625.385000", "184626.875000", "184628.365000", "184629.855000", "184631.345000", "184632.835000", "184634.325000", "184635.815000", "184637.305000", "184638.795000", "184640.285000", "184641.775000", "184643.265000", "184644.755000", "184646.245000", "184647.735000", "184649.225000", "184650.715000", "184652.205000", "184653.695000", "184655.185000", "184656.675000", "184658.165000", "184659.655000", "184701.145000", "184702.635000", "184704.125000", "184705.615000", "184707.105000", "184708.595000", "184710.085000", "184711.575000", "184713.065000", "184714.555000", "184716.045000", "184717.535000", "184719.025000", "184720.515000", "184722.005000", "184723.495000", "184724.985000", "184726.475000", "184727.965000", "184729.455000", "184730.945000", "184732.435000", "184733.925000", "184735.415000", "184736.905000", "184738.395000", "184739.885000", "184741.375000", "184742.865000", "184744.355000", "184745.845000", "184747.335000", "184748.825000", "184750.315000", "184751.805000", "184753.295000", "184754.785000", "184756.275000", "184757.765000", "184759.255000", "184800.745000", "184802.235000", "184803.725000", "184805.215000", "184806.705000", "184808.195000", "184809.685000"],
      "ContentTime": ["184114.115000", "184114.119000", "184114.122000", "184114.125000", "184114.129000", "184114.132000", "184114.149000", "184114.152000", "184114.156000", "184114.159000", "184114.162000", "184114.166000", "184114.169000", "184114.172000", "184114.175000", "184114.179000", "184114.182000", "184114.185000", "184114.188000", "184114.198000", "184114.202000", "184114.205000", "184114.208000", "184114.212000", "184114.215000", "184114.218000", "184114.222000", "184114.225000", "184114.229000", "184114.232000", "184114.235000", "184114.238000", "184114.242000", "184114.245000", "184114.248000", "184114.252000", "184114.255000", "184114.258000", "184114.262000", "184134.077000", "184134.081000", "184134.084000", "184134.087000", "184134.091000", "184134.094000", "184134.097000", "184134.101000", "184134.104000", "184134.107000", "184134.111000", "184134.114000", "184134.126000", "184134.129000", "184134.132000", "184134.136000", "184134.139000", "184134.142000", "184134.145000", "184134.148000", "184154.077000", "184154.081000", "184154.084000", "184154.088000", "184154.091000", "184154.095000", "184154.098000", "184154.101000", "184154.105000", "184154.108000", "184154.111000", "184154.115000", "184154.118000", "184154.121000", "184154.124000", "184154.128000", "184154.131000", "184154.134000", "184154.138000", "184154.141000", "184234.077000", "184234.081000", "184234.093000", "184234.097000", "184234.100000", "184234.104000", "184234.107000", "184234.111000", "184234.114000", "184234.117000", "184234.121000", "184234.124000", "184234.127000", "184234.131000", "184234.134000", "184234.137000", "184234.140000", "184234.144000", "184234.147000", "184234.150000", "184234.163000", "184234.166000", "184234.170000", "184234.173000", "184234.176000", "184234.179000", "184234.183000", "184234.186000", "184234.189000", "184234.192000", "184234.196000", "184234.199000", "184234.202000", "184314.078000", "184314.082000", "184314.103000", "184314.107000", "184314.110000", "184314.114000", "184314.117000", "184314.120000", "184314.132000", "184314.135000", "184314.140000", "184314.143000", "184314.147000", "184314.150000", "184314.153000", "184314.156000", "184314.160000", "184314.163000", "184314.166000", "184314.170000", "184314.173000", "184314.176000", "184314.179000", "184314.183000", "184314.186000", "184314.189000", "184354.077000", "184354.081000", "184354.084000", "184354.087000", "184354.091000", "184354.094000", "184354.097000", "184354.101000", "184354.104000", "184354.107000", "184354.111000", "184354.114000", "184354.117000", "184354.120000", "184354.124000", "184354.127000", "184354.130000", "184354.134000", "184354.137000", "184354.140000", "184354.143000", "184354.147000", "184354.150000", "184354.163000", "184354.166000", "184354.169000", "184354.173000", "184434.077000", "184434.081000", "184434.084000", "184434.087000", "184434.091000", "184434.094000", "184434.097000", "184434.101000", "184434.104000", "184434.107000", "184434.110000", "184434.114000", "184434.117000", "184434.120000", "184434.124000", "184434.127000", "184434.130000", "184434.133000", "184434.137000", "184434.141000", "184434.144000", "184434.147000", "184434.151000", "184434.154000", "184434.158000", "184434.161000", "184434.165000", "184514.078000", "184514.082000", "184514.086000", "184514.089000", "184514.092000", "184514.096000", "184514.099000", "184514.103000", "184514.106000", "184514.110000", "184514.113000", "184514.116000", "184514.119000", "184514.123000", "184514.126000", "184514.129000", "184514.132000", "184514.136000", "184514.139000", "184514.142000", "184514.146000", "184514.149000", "184514.152000", "184514.156000", "184514.159000", "184514.162000", "184514.166000", "184554.078000", "184554.082000", "184554.086000", "184554.089000", "184554.092000", "184554.096000", "184554.099000", "184554.103000", "184554.106000", "184554.110000", "184554.113000", "184554.117000", "184554.120000", "184554.123000", "184554.127000", "184554.131000", "184554.134000", "184554.137000", "184554.141000", "184554.144000", "184554.148000", "184554.151000", "184554.154000", "184554.158000", "184554.161000", "184554.164000", "184554.168000", "184634.077000", "184634.081000", "184634.084000", "184634.087000", "184634.091000", "184634.094000", "184634.098000", "184634.101000", "184634.104000", "184634.108000", "184634.111000", "184634.114000", "184634.118000", "184634.121000", "184634.124000", "184634.128000", "184634.131000", "184634.135000", "184634.138000", "184634.142000", "184634.145000", "184634.148000", "184634.152000", "184634.155000", "184634.158000", "184634.162000", "184634.165000", "184714.078000", "184714.082000", "184714.086000", "184714.089000", "184714.092000", "184714.095000", "184714.099000", "184714.102000", "184714.106000", "184714.109000", "184714.112000", "184714.115000", "184714.119000", "184714.122000", "184714.126000", "184714.129000", "184714.132000", "184714.136000", "184714.139000", "184714.142000", "184714.146000", "184714.150000", "184714.154000", "184714.158000", "184714.162000", "184714.165000", "184754.078000", "184754.082000", "184754.085000", "184754.088000", "184754.092000", "184754.095000", "184754.099000", "184754.102000", "184754.106000", "184754.109000", "184754.113000", "184754.116000", "184754.119000", "184754.123000", "184754.126000", "184754.129000", "184754.133000", "184754.136000", "184754.139000", "184754.142000", "184754.146000", "184754.149000", "184754.152000", "184754.156000", "184754.159000", "184754.162000", "184754.165000", "184812.498000", "184812.502000", "184812.505000", "184812.509000", "184812.512000", "184812.516000", "184812.519000", "184812.523000", "184812.526000", "184812.530000", "184812.533000", "184812.536000", "184812.540000"],
      "InstanceCreationTime": ["184114.115000", "184114.119000", "184114.122000", "184114.125000", "184114.129000", "184114.132000", "184114.149000", "184114.152000", "184114.156000", "184114.159000", "184114.162000", "184114.166000", "184114.169000", "184114.172000", "184114.175000", "184114.179000", "184114.182000", "184114.185000", "184114.188000", "184114.198000", "184114.202000", "184114.205000", "184114.208000", "184114.212000", "184114.215000", "184114.218000", "184114.222000", "184114.225000", "184114.229000", "184114.232000", "184114.235000", "184114.238000", "184114.242000", "184114.245000", "184114.248000", "184114.252000", "184114.255000", "184114.258000", "184114.262000", "184134.077000", "184134.081000", "184134.084000", "184134.087000", "184134.091000", "184134.094000", "184134.097000", "184134.101000", "184134.104000", "184134.107000", "184134.111000", "184134.114000", "184134.126000", "184134.129000", "184134.132000", "184134.136000", "184134.139000", "184134.142000", "184134.145000", "184134.148000", "184154.077000", "184154.081000", "184154.084000", "184154.088000", "184154.091000", "184154.095000", "184154.098000", "184154.101000", "184154.105000", "184154.108000", "184154.111000", "184154.115000", "184154.118000", "184154.121000", "184154.124000", "184154.128000", "184154.131000", "184154.134000", "184154.138000", "184154.141000", "184234.077000", "184234.081000", "184234.093000", "184234.097000", "184234.100000", "184234.104000", "184234.107000", "184234.111000", "184234.114000", "184234.117000", "184234.121000", "184234.124000", "184234.127000", "184234.131000", "184234.134000", "184234.137000", "184234.140000", "184234.144000", "184234.147000", "184234.150000", "184234.163000", "184234.166000", "184234.170000", "184234.173000", "184234.176000", "184234.179000", "184234.183000", "184234.186000", "184234.189000", "184234.192000", "184234.196000", "184234.199000", "184234.202000", "184314.078000", "184314.082000", "184314.103000", "184314.107000", "184314.110000", "184314.114000", "184314.117000", "184314.120000", "184314.132000", "184314.135000", "184314.140000", "184314.143000", "184314.147000", "184314.150000", "184314.153000", "184314.156000", "184314.160000", "184314.163000", "184314.166000", "184314.170000", "184314.173000", "184314.176000", "184314.179000", "184314.183000", "184314.186000", "184314.189000", "184354.077000", "184354.081000", "184354.084000", "184354.087000", "184354.091000", "184354.094000", "184354.097000", "184354.101000", "184354.104000", "184354.107000", "184354.111000", "184354.114000", "184354.117000", "184354.120000", "184354.124000", "184354.127000", "184354.130000", "184354.134000", "184354.137000", "184354.140000", "184354.143000", "184354.147000", "184354.150000", "184354.163000", "184354.166000", "184354.169000", "184354.173000", "184434.077000", "184434.081000", "184434.084000", "184434.087000", "184434.091000", "184434.094000", "184434.097000", "184434.101000", "184434.104000", "184434.107000", "184434.110000", "184434.114000", "184434.117000", "184434.120000", "184434.124000", "184434.127000", "184434.130000", "184434.133000", "184434.137000", "184434.141000", "184434.144000", "184434.147000", "184434.151000", "184434.154000", "184434.158000", "184434.161000", "184434.165000", "184514.078000", "184514.082000", "184514.086000", "184514.089000", "184514.092000", "184514.096000", "184514.099000", "184514.103000", "184514.106000", "184514.110000", "184514.113000", "184514.116000", "184514.119000", "184514.123000", "184514.126000", "184514.129000", "184514.132000", "184514.136000", "184514.139000", "184514.142000", "184514.146000", "184514.149000", "184514.152000", "184514.156000", "184514.159000", "184514.162000", "184514.166000", "184554.078000", "184554.082000", "184554.086000", "184554.089000", "184554.092000", "184554.096000", "184554.099000", "184554.103000", "184554.106000", "184554.110000", "184554.113000", "184554.117000", "184554.120000", "184554.123000", "184554.127000", "184554.131000", "184554.134000", "184554.137000", "184554.141000", "184554.144000", "184554.148000", "184554.151000", "184554.154000", "184554.158000", "184554.161000", "184554.164000", "184554.168000", "184634.077000", "184634.081000", "184634.084000", "184634.087000", "184634.091000", "184634.094000", "184634.098000", "184634.101000", "184634.104000", "184634.108000", "184634.111000", "184634.114000", "184634.118000", "184634.121000", "184634.124000", "184634.128000", "184634.131000", "184634.135000", "184634.138000", "184634.142000", "184634.145000", "184634.148000", "184634.152000", "184634.155000", "184634.158000", "184634.162000", "184634.165000", "184714.078000", "184714.082000", "184714.086000", "184714.089000", "184714.092000", "184714.095000", "184714.099000", "184714.102000", "184714.106000", "184714.109000", "184714.112000", "184714.115000", "184714.119000", "184714.122000", "184714.126000", "184714.129000", "184714.132000", "184714.136000", "184714.139000", "184714.142000", "184714.146000", "184714.150000", "184714.154000", "184714.158000", "184714.162000", "184714.165000", "184754.078000", "184754.082000", "184754.085000", "184754.088000", "184754.092000", "184754.095000", "184754.099000", "184754.102000", "184754.106000", "184754.109000", "184754.113000", "184754.116000", "184754.119000", "184754.123000", "184754.126000", "184754.129000", "184754.133000", "184754.136000", "184754.139000", "184754.142000", "184754.146000", "184754.149000", "184754.152000", "184754.156000", "184754.159000", "184754.162000", "184754.165000", "184812.498000", "184812.502000", "184812.505000", "184812.509000", "184812.512000", "184812.516000", "184812.519000", "184812.523000", "184812.526000", "184812.530000", "184812.533000", "184812.536000", "184812.540000"],
      "InstanceNumber": [1, 2, 3, 4, 5, 6, 7, 8, 9, 10, 11, 12, 13, 14, 15, 16, 17, 18, 19, 20, 21, 22, 23, 24, 25, 26, 27, 28, 29, 30, 31, 32, 33, 34, 35, 36, 37, 38, 39, 40, 41, 42, 43, 44, 45, 46, 47, 48, 49, 50, 51, 52, 53, 54, 55, 56, 57, 58, 59, 60, 61, 62, 63, 64, 65, 66, 67, 68, 69, 70, 71, 72, 73, 74, 75, 76, 77, 78, 79, 80, 81, 82, 83, 84, 85, 86, 87, 88, 89, 90, 91, 92, 93, 94, 95, 96, 97, 98, 99, 100, 101, 102, 103, 104, 105, 106, 107, 108, 109, 110, 111, 112, 113, 114, 115, 116, 117, 118, 119, 120, 121, 122, 123, 124, 125, 126, 127, 128, 129, 130, 131, 132, 133, 134, 135, 136, 137, 138, 139, 140, 141, 142, 143, 144, 145, 146, 147, 148, 149, 150, 151, 152, 153, 154, 155, 156, 157, 158, 159, 160, 161, 162, 163, 164, 165, 166, 167, 168, 169, 170, 171, 172, 173, 174, 175, 176, 177, 178, 179, 180, 181, 182, 183, 184, 185, 186, 187, 188, 189, 190, 191, 192, 193, 194, 195, 196, 197, 198, 199, 200, 201, 202, 203, 204, 205, 206, 207, 208, 209, 210, 211, 212, 213, 214, 215, 216, 217, 218, 219, 220, 221, 222, 223, 224, 225, 226, 227, 228, 229, 230, 231, 232, 233, 234, 235, 236, 237, 238, 239, 240, 241, 242, 243, 244, 245, 246, 247, 248, 249, 250, 251, 252, 253, 254, 255, 256, 257, 258, 259, 260, 261, 262, 263, 264, 265, 266, 267, 268, 269, 270, 271, 272, 273, 274, 275, 276, 277, 278, 279, 280, 281, 282, 283, 284, 285, 286, 287, 288, 289, 290, 291, 292, 293, 294, 295, 296, 297, 298, 299, 300, 301, 302, 303, 304, 305, 306, 307, 308, 309, 310, 311, 312, 313, 314, 315, 316, 317, 318, 319, 320, 321, 322, 323, 324, 325, 326, 327, 328, 329, 330, 331, 332, 333, 334, 335, 336, 337, 338, 339],
      "LargestImagePixelValue": [63884, 61899, 60376, 60124, 59698, 60084, 59923, 59907, 59514, 59588, 59903, 59035, 59764, 60613, 59538, 59253, 59119, 59138, 59353, 59388, 59033, 59995, 59490, 59147, 59146, 59542, 60229, 58958, 59682, 59253, 60123, 58830, 59482, 59651, 59262, 59269, 59286, 59276, 59593, 59012, 59431, 59227, 58851, 59116, 59055, 58970, 59729, 59059, 59250, 59902, 59174, 59343, 59301, 59662, 59348, 59634, 59508, 58986, 59066, 58953, 59194, 58671, 58786, 59191, 58704, 58508, 58819, 58443, 59435, 58977, 58493, 58405, 58866, 58059, 58223, 57889, 57581, 57564, 57660, 56964, 57425, 56579, 57852, 57400, 58053, 57157, 56975, 57688, 57359, 57068, 57127, 57018, 57081, 57569, 57351, 58354, 58212, 57489, 57459, 57454, 58025, 57704, 56879, 57469, 56912, 56600, 57301, 56490, 57054, 56403, 56301, 57322, 56480, 57069, 56620, 56613, 57153, 56332, 56652, 56871, 56132, 56368, 56457, 55812, 56445, 55743, 56309, 56603, 56953, 56401, 55946, 55741, 56313, 56242, 55997, 56644, 56730, 56051, 56903, 56118, 55739, 56309, 55924, 56310, 56187, 55820, 56222, 56401, 56358, 56196, 56861, 56520, 56323, 56563, 56333, 56154, 56443, 56230, 56364, 56287, 56250, 56569, 56065, 55801, 56913, 55852, 56401, 55851, 57020, 57723, 58017, 57322, 57376, 57626, 57445, 57916, 57310, 58522, 55950, 56579, 56629, 56339, 57425, 57381, 58080, 57568, 57601, 57976, 57054, 57423, 57454, 57733, 58236, 57151, 57186, 58001, 57718, 57833, 57439, 57256, 57481, 58823, 58896, 58391, 57921, 58409, 56936, 58048, 58971, 59586, 59751, 59349, 58878, 58526, 59463, 59522, 59909, 58643, 59035, 58543, 58895, 58726, 58581, 58310, 58669, 59102, 58892, 58880, 59162, 59295, 59089, 58873, 58997, 59108, 58804, 59528, 58732, 59037, 59065, 58970, 58970, 58855, 58989, 59504, 58916, 59201, 59261, 58501, 58976, 58462, 58419, 58522, 57682, 58489, 57961, 58252, 58341, 58712, 58071, 57830, 57975, 58039, 57745, 58132, 58203, 58822, 58831, 58456, 58206, 58426, 58394, 58715, 59673, 59468, 59020, 59289, 59456, 58764, 59243, 59194, 58855, 58980, 58880, 58473, 59181, 59096, 58742, 59247, 58301, 59039, 58644, 59335, 58914, 58485, 58853, 58402, 58551, 59215, 59001, 59471, 57863, 58162, 58667, 58437, 58686, 59097, 59033, 58811, 58909, 58639, 59210, 58597, 58342, 58085, 58159, 57917, 57816, 58653, 58156, 57964, 58402, 58502, 58146, 58928, 59557, 58821, 57685, 58115, 57841, 58557, 58346, 58775, 58815, 58330, 58912, 58781, 58809, 58457, 58411],
