{
  "AcquisitionMatrixPE": 104,
  "AcquisitionNumber": 1,
  "AcquisitionTime": "19:04:23.290000",
  "BandwidthPerPixelPhaseEncode": 17.17,
  "BaseResolution": 104,
  "BodyPartExamined": "BRAIN",
  "CoilCombinationMethod": "Sum of Squares",
  "ConsistencyInfo": "N4_VE11C_LATEST_20160120",
  "ConversionSoftware": "dcm2niix",
  "ConversionSoftwareVersion": "v1.0.20220505",
  "DerivedVendorReportedEchoSpacing": 0.000560011,
  "DeviceSerialNumber": "167006",
  "DwellTime": 2.1e-06,
  "EchoTime": 0.037,
  "EchoTrainLength": 104,
  "EffectiveEchoSpacing": 0.000560011,
  "FlipAngle": 52,
  "HeudiconvVersion": "0.5.3.post811+g6206e14",
  "ImageComments": "Unaliased MB4/PE3/LB",
  "ImageOrientationPatientDICOM": [0.999863, -0.0144349, 0.00811844, 0.0164053, 0.930407, -0.366161],
  "ImageOrientationText": "Tra>Cor(-21.5)>Sag(0.1)",
  "ImageType": [
    "ORIGINAL",
    "PRIMARY",
    "M",
    "MB",
    "ND",
    "MOSAIC"
],
  "ImagingFrequency": 123.26,
  "InPlanePhaseEncodingDirectionDICOM": "COL",
  "InstitutionAddress": "Chemin Queen-Mary 4565,Montreal,District,CA,H3W 1W5",
  "InstitutionName": "IUGM",
  "InstitutionalDepartmentName": "Department",
  "MRAcquisitionType": "2D",
  "MagneticFieldStrength": 3,
  "Manufacturer": "Siemens",
  "ManufacturersModelName": "Prisma_fit",
  "MatrixCoilMode": "SENSE",
  "Modality": "MR",
  "MultibandAccelerationFactor": 4,
  "PartialFourier": 1,
  "PatientPosition": "HFS",
  "PercentPhaseFOV": 100,
  "PercentSampling": 100,
  "PhaseEncodingDirection": "j",
  "PhaseEncodingSteps": 104,
  "PhaseResolution": 1,
  "PixelBandwidth": 2290,
  "ProcedureStepDescription": "games^mario3",
  "ProtocolName": "func_task-mario3_run-04",
  "PulseSequenceDetails": "%CustomerSeq%\\cmrr_mbep2d_bold",
  "ReceiveCoilActiveElements": "HC1-7;NC1,2",
  "ReceiveCoilName": "HeadNeck_64",
  "ReconMatrixPE": 104,
  "RepetitionTime": 1.49,
  "SAR": 0.0967074,
  "ScanOptions": "FS",
  "ScanningSequence": "EP",
  "SequenceName": "epfid2d1_104",
  "SequenceVariant": "SK\\SS",
  "SeriesDescription": "func_task-mario3_run-04",
  "SeriesNumber": 19,
  "ShimSetting": [599, -7261, -8811, 450, 13, -363, -8, 32],
  "SliceThickness": 2,
  "SliceTiming": [0, 0.7825, 0.0975, 0.8825, 0.195, 0.98, 0.2925, 1.0775, 0.3925, 1.175, 0.49, 1.2725, 0.5875, 1.3725, 0.685, 0, 0.7825, 0.0975, 0.8825, 0.195, 0.98, 0.2925, 1.0775, 0.3925, 1.175, 0.49, 1.2725, 0.5875, 1.3725, 0.685, 0, 0.7825, 0.0975, 0.8825, 0.195, 0.98, 0.2925, 1.0775, 0.3925, 1.175, 0.49, 1.2725, 0.5875, 1.3725, 0.685, 0, 0.7825, 0.0975, 0.8825, 0.195, 0.98, 0.2925, 1.0775, 0.3925, 1.175, 0.49, 1.2725, 0.5875, 1.3725, 0.685],
  "SoftwareVersions": "syngo MR E11",
  "SpacingBetweenSlices": 2,
  "StationName": "MRC35049",
  "TaskName": "mario3",
  "TotalReadoutTime": 0.0576811,
  "TxRefAmp": 322.451,
  "WipMemBlock": "35e4e0f2-084b-4002-b283-5b966574a853||Sequence: R017 ve11c/master r/75a17815+; Jun 28 2022 16:32:11 by eja",
  "dcmmeta_affine": [
    [-1.9997256994247437, 0.03281054273247719, 0.0045358953066170216, 102.30154418945312],
    [0.028869876638054848, 1.8608139753341675, -0.7324873805046082, -69.79436492919922],
    [0.016236882656812668, 0.7323214411735535, 1.861032485961914, -63.09316635131836],
    [0.0, 0.0, 0.0, 1.0]
],
  "dcmmeta_reorient_transform": [
    [0.0, -1.0, 0.0, 103.0],
    [1.0, 0.0, 0.0, 0.0],
    [0.0, 0.0, 1.0, 0.0],
    [0.0, 0.0, 0.0, 1.0]
],
  "dcmmeta_shape": [104, 104, 60, 327],
  "dcmmeta_slice_dim": 2,
  "dcmmeta_version": 0.6,
  "global": {
    "const": {
      "AcquisitionMatrix": [104, 0, 0, 104],
      "AngioFlag": "N",
      "BitsAllocated": 16,
      "BitsStored": 16,
      "BodyPartExamined": "BRAIN",
      "Columns": 832,
      "EchoNumbers": 1,
      "EchoTime": 37.0,
      "EchoTrainLength": 104,
      "FlipAngle": 52.0,
      "HighBit": 15,
      "ImageOrientationPatient": [0.99986285233304, -0.0144349378815, 0.00811844152443, 0.01640527166881, 0.93040700226537, -0.3661607259074],
      "ImagePositionPatient": [-845.52422278047, -788.69713693136, 272.99072513179],
      "ImageType": [
        "ORIGINAL",
        "PRIMARY",
        "M",
        "MB",
        "ND",
        "MOSAIC"
],
      "ImagedNucleus": "1H",
      "ImagingFrequency": 123.260181,
      "InPlanePhaseEncodingDirection": "COL",
      "MRAcquisitionType": "2D",
      "MagneticFieldStrength": 3.0,
      "Manufacturer": "SIEMENS",
      "ManufacturerModelName": "Prisma_fit",
      "Modality": "MR",
      "NumberOfAverages": 1.0,
      "NumberOfPhaseEncodingSteps": 104,
      "PercentPhaseFieldOfView": 100.0,
      "PercentSampling": 100.0,
      "PerformedProcedureStepStartTime": "182341.927000",
      "PhotometricInterpretation": "MONOCHROME2",
      "PixelBandwidth": 2290.0,
      "PixelRepresentation": 0,
      "PixelSpacing": [2.0, 2.0],
      "ProtocolName": "func_task-mario3_run-04",
      "RepetitionTime": 1490.0,
      "Rows": 832,
      "SAR": 0.09670735822059,
      "SamplesPerPixel": 1,
      "ScanOptions": "FS",
      "ScanningSequence": "EP",
      "SequenceName": "epfid2d1_104",
      "SequenceVariant": [
        "SK",
        "SS"
],
      "SeriesDescription": "func_task-mario3_run-04",
      "SeriesNumber": 19,
      "SeriesTime": "190519.807000",
      "SliceLocation": -32.915453156998,
      "SliceThickness": 2.0,
      "SmallestImagePixelValue": 0,
      "SoftwareVersions": "syngo MR E11",
      "SpacingBetweenSlices": 2.0000000529304,
      "SpecificCharacterSet": "ISO_IR 100",
      "StudyID": "1",
      "StudyTime": "182341.858000",
      "TransmitCoilName": "Body",
      "VariableFlipAngleFlag": "N",
      "WindowCenterWidthExplanation": "Algo1",
      "dBdt": 0.0},
    "slices": {}
  },
  "time": {
    "samples": {
      "AcquisitionNumber": [1, 2, 3, 4, 5, 6, 7, 8, 9, 10, 11, 12, 13, 14, 15, 16, 17, 18, 19, 20, 21, 22, 23, 24, 25, 26, 27, 28, 29, 30, 31, 32, 33, 34, 35, 36, 37, 38, 39, 40, 41, 42, 43, 44, 45, 46, 47, 48, 49, 50, 51, 52, 53, 54, 55, 56, 57, 58, 59, 60, 61, 62, 63, 64, 65, 66, 67, 68, 69, 70, 71, 72, 73, 74, 75, 76, 77, 78, 79, 80, 81, 82, 83, 84, 85, 86, 87, 88, 89, 90, 91, 92, 93, 94, 95, 96, 97, 98, 99, 100, 101, 102, 103, 104, 105, 106, 107, 108, 109, 110, 111, 112, 113, 114, 115, 116, 117, 118, 119, 120, 121, 122, 123, 124, 125, 126, 127, 128, 129, 130, 131, 132, 133, 134, 135, 136, 137, 138, 139, 140, 141, 142, 143, 144, 145, 146, 147, 148, 149, 150, 151, 152, 153, 154, 155, 156, 157, 158, 159, 160, 161, 162, 163, 164, 165, 166, 167, 168, 169, 170, 171, 172, 173, 174, 175, 176, 177, 178, 179, 180, 181, 182, 183, 184, 185, 186, 187, 188, 189, 190, 191, 192, 193, 194, 195, 196, 197, 198, 199, 200, 201, 202, 203, 204, 205, 206, 207, 208, 209, 210, 211, 212, 213, 214, 215, 216, 217, 218, 219, 220, 221, 222, 223, 224, 225, 226, 227, 228, 229, 230, 231, 232, 233, 234, 235, 236, 237, 238, 239, 240, 241, 242, 243, 244, 245, 246, 247, 248, 249, 250, 251, 252, 253, 254, 255, 256, 257, 258, 259, 260, 261, 262, 263, 264, 265, 266, 267, 268, 269, 270, 271, 272, 273, 274, 275, 276, 277, 278, 279, 280, 281, 282, 283, 284, 285, 286, 287, 288, 289, 290, 291, 292, 293, 294, 295, 296, 297, 298, 299, 300, 301, 302, 303, 304, 305, 306, 307, 308, 309, 310, 311, 312, 313, 314, 315, 316, 317, 318, 319, 320, 321, 322, 323, 324, 325, 326, 327],
      "AcquisitionTime": ["190423.290000", "190424.780000", "190426.270000", "190427.760000", "190429.250000", "190430.740000", "190432.230000", "190433.720000", "190435.210000", "190436.700000", "190438.190000", "190439.680000", "190441.170000", "190442.660000", "190444.150000", "190445.640000", "190447.130000", "190448.620000", "190450.110000", "190451.600000", "190453.090000", "190454.580000", "190456.070000", "190457.560000", "190459.050000", "190500.540000", "190502.030000", "190503.520000", "190505.010000", "190506.500000", "190507.990000", "190509.480000", "190510.970000", "190512.460000", "190513.950000", "190515.440000", "190516.930000", "190518.420000", "190519.910000", "190521.400000", "190522.890000", "190524.380000", "190525.870000", "190527.360000", "190528.850000", "190530.340000", "190531.830000", "190533.320000", "190534.810000", "190536.300000", "190537.790000", "190539.280000", "190540.770000", "190542.260000", "190543.750000", "190545.240000", "190546.730000", "190548.220000", "190549.710000", "190551.200000", "190552.690000", "190554.180000", "190555.670000", "190557.160000", "190558.650000", "190600.140000", "190601.630000", "190603.120000", "190604.610000", "190606.100000", "190607.590000", "190609.080000", "190610.570000", "190612.060000", "190613.550000", "190615.040000", "190616.530000", "190618.020000", "190619.510000", "190621.000000", "190622.490000", "190623.980000", "190625.470000", "190626.960000", "190628.450000", "190629.940000", "190631.430000", "190632.920000", "190634.410000", "190635.900000", "190637.390000", "190638.880000", "190640.370000", "190641.860000", "190643.350000", "190644.840000", "190646.330000", "190647.820000", "190649.310000", "190650.800000", "190652.290000", "190653.780000", "190655.270000", "190656.760000", "190658.250000", "190659.740000", "190701.230000", "190702.720000", "190704.210000", "190705.700000", "190707.190000", "190708.680000", "190710.170000", "190711.660000", "190713.150000", "190714.640000", "190716.130000", "190717.620000", "190719.110000", "190720.600000", "190722.090000", "190723.580000", "190725.070000", "190726.560000", "190728.050000", "190729.540000", "190731.030000", "190732.520000", "190734.010000", "190735.500000", "190736.990000", "190738.480000", "190739.970000", "190741.460000", "190742.950000", "190744.440000", "190745.930000", "190747.420000", "190748.910000", "190750.400000", "190751.890000", "190753.380000", "190754.870000", "190756.360000", "190757.850000", "190759.340000", "190800.830000", "190802.320000", "190803.810000", "190805.300000", "190806.790000", "190808.280000", "190809.770000", "190811.260000", "190812.750000", "190814.240000", "190815.730000", "190817.220000", "190818.710000", "190820.200000", "190821.690000", "190823.180000", "190824.670000", "190826.160000", "190827.650000", "190829.140000", "190830.630000", "190832.120000", "190833.610000", "190835.100000", "190836.590000", "190838.080000", "190839.570000", "190841.060000", "190842.550000", "190844.040000", "190845.530000", "190847.020000", "190848.510000", "190850.000000", "190851.490000", "190852.980000", "190854.470000", "190855.960000", "190857.450000", "190858.940000", "190900.430000", "190901.920000", "190903.410000", "190904.900000", "190906.390000", "190907.880000", "190909.370000", "190910.860000", "190912.350000", "190913.840000", "190915.330000", "190916.820000", "190918.310000", "190919.800000", "190921.290000", "190922.780000", "190924.270000", "190925.760000", "190927.250000", "190928.740000", "190930.230000", "190931.720000", "190933.210000", "190934.700000", "190936.190000", "190937.680000", "190939.170000", "190940.660000", "190942.150000", "190943.640000", "190945.130000", "190946.620000", "190948.110000", "190949.600000", "190951.090000", "190952.580000", "190954.070000", "190955.560000", "190957.050000", "190958.540000", "191000.030000", "191001.520000", "191003.010000", "191004.500000", "191005.990000", "191007.480000", "191008.970000", "191010.460000", "191011.950000", "191013.440000", "191014.930000", "191016.420000", "191017.910000", "191019.400000", "191020.890000", "191022.380000", "191023.870000", "191025.360000", "191026.850000", "191028.340000", "191029.830000", "191031.320000", "191032.810000", "191034.300000", "191035.790000", "191037.280000", "191038.770000", "191040.260000", "191041.750000", "191043.240000", "191044.730000", "191046.220000", "191047.710000", "191049.200000", "191050.690000", "191052.180000", "191053.670000", "191055.160000", "191056.650000", "191058.140000", "191059.630000", "191101.120000", "191102.610000", "191104.100000", "191105.590000", "191107.080000", "191108.570000", "191110.060000", "191111.550000", "191113.040000", "191114.530000", "191116.020000", "191117.510000", "191119.000000", "191120.490000", "191121.980000", "191123.470000", "191124.960000", "191126.450000", "191127.940000", "191129.430000", "191130.920000", "191132.410000", "191133.900000", "191135.390000", "191136.880000", "191138.370000", "191139.860000", "191141.350000", "191142.840000", "191144.330000", "191145.820000", "191147.310000", "191148.800000", "191150.290000", "191151.780000", "191153.270000", "191154.760000", "191156.250000", "191157.740000", "191159.230000", "191200.720000", "191202.210000", "191203.700000", "191205.190000", "191206.680000", "191208.170000", "191209.660000", "191211.150000", "191212.640000", "191214.130000", "191215.620000", "191217.110000", "191218.600000", "191220.090000", "191221.580000", "191223.070000", "191224.560000", "191226.050000", "191227.540000", "191229.030000"],
      "ContentTime": ["190519.810000", "190519.814000", "190519.817000", "190519.821000", "190519.824000", "190519.835000", "190519.839000", "190519.842000", "190539.773000", "190539.777000", "190539.780000", "190539.788000", "190539.791000", "190539.795000", "190539.798000", "190539.801000", "190539.804000", "190539.808000", "190539.811000", "190539.814000", "190539.818000", "190539.821000", "190539.824000", "190539.827000", "190539.831000", "190539.834000", "190539.837000", "190539.840000", "190559.773000", "190559.777000", "190559.780000", "190559.783000", "190559.787000", "190559.790000", "190559.793000", "190559.796000", "190559.800000", "190559.803000", "190559.806000", "190559.810000", "190559.813000", "190559.816000", "190559.820000", "190559.823000", "190559.826000", "190559.829000", "190559.833000", "190559.836000", "190619.773000", "190619.777000", "190619.780000", "190619.783000", "190619.787000", "190619.790000", "190619.793000", "190619.797000", "190619.800000", "190619.803000", "190619.807000", "190619.810000", "190619.813000", "190619.825000", "190619.828000", "190619.831000", "190619.835000", "190619.838000", "190619.841000", "190619.844000", "190639.773000", "190639.777000", "190639.780000", "190639.783000", "190639.787000", "190639.790000", "190639.793000", "190639.796000", "190639.800000", "190639.803000", "190639.806000", "190639.809000", "190639.813000", "190639.816000", "190639.819000", "190639.823000", "190639.837000", "190639.850000", "190639.853000", "190639.856000", "190719.773000", "190719.777000", "190719.780000", "190719.784000", "190719.787000", "190719.790000", "190719.794000", "190719.797000", "190719.800000", "190719.804000", "190719.807000", "190719.810000", "190719.813000", "190719.817000", "190719.820000", "190719.823000", "190719.826000", "190719.830000", "190719.833000", "190719.836000", "190719.840000", "190719.843000", "190719.846000", "190719.850000", "190719.853000", "190719.856000", "190719.860000", "190719.863000", "190719.866000", "190719.870000", "190759.773000", "190759.777000", "190759.780000", "190759.784000", "190759.787000", "190759.790000", "190759.793000", "190759.797000", "190759.800000", "190759.803000", "190759.807000", "190759.810000", "190759.813000", "190759.816000", "190759.820000", "190759.823000", "190759.826000", "190759.830000", "190759.833000", "190759.836000", "190759.840000", "190759.843000", "190759.846000", "190759.849000", "190759.853000", "190759.856000", "190759.859000", "190839.773000", "190839.777000", "190839.780000", "190839.783000", "190839.787000", "190839.790000", "190839.793000", "190839.797000", "190839.800000", "190839.803000", "190839.807000", "190839.810000", "190839.814000", "190839.817000", "190839.820000", "190839.823000", "190839.827000", "190839.830000", "190839.833000", "190839.837000", "190839.840000", "190839.843000", "190839.847000", "190839.850000", "190839.853000", "190839.857000", "190919.773000", "190919.777000", "190919.780000", "190919.784000", "190919.801000", "190919.804000", "190919.807000", "190919.811000", "190919.814000", "190919.817000", "190919.821000", "190919.824000", "190919.827000", "190919.831000", "190919.834000", "190919.837000", "190919.841000", "190919.844000", "190919.847000", "190919.851000", "190919.854000", "190919.857000", "190919.860000", "190919.864000", "190919.867000", "190919.870000", "190919.874000", "190959.773000", "190959.777000", "190959.781000", "190959.784000", "190959.788000", "190959.791000", "190959.794000", "190959.798000", "190959.801000", "190959.804000", "190959.807000", "190959.811000", "190959.814000", "190959.817000", "190959.821000", "190959.824000", "190959.827000", "190959.831000", "190959.834000", "190959.837000", "190959.840000", "190959.844000", "190959.847000", "190959.850000", "190959.854000", "190959.857000", "190959.860000", "191039.773000", "191039.777000", "191039.780000", "191039.784000", "191039.787000", "191039.790000", "191039.794000", "191039.797000", "191039.800000", "191039.803000", "191039.807000", "191039.810000", "191039.813000", "191039.817000", "191039.820000", "191039.823000", "191039.827000", "191039.830000", "191039.833000", "191039.837000", "191039.840000", "191039.843000", "191039.846000", "191039.850000", "191039.853000", "191039.856000", "191039.860000", "191119.773000", "191119.777000", "191119.780000", "191119.784000", "191119.787000", "191119.791000", "191119.794000", "191119.797000", "191119.801000", "191119.804000", "191119.807000", "191119.811000", "191119.814000", "191119.817000", "191119.820000", "191119.824000", "191119.827000", "191119.831000", "191119.834000", "191119.837000", "191119.840000", "191119.844000", "191119.847000", "191119.863000", "191119.867000", "191119.870000", "191119.873000", "191159.772000", "191159.776000", "191159.779000", "191159.783000", "191159.786000", "191159.789000", "191159.793000", "191159.796000", "191159.799000", "191159.802000", "191159.806000", "191159.809000", "191159.812000", "191159.816000", "191159.819000", "191159.822000", "191159.826000", "191159.829000", "191159.832000", "191159.835000", "191159.839000", "191159.842000", "191159.845000", "191159.849000", "191159.852000", "191159.855000", "191159.859000", "191231.562000", "191231.566000", "191231.569000", "191231.572000", "191231.576000", "191231.579000", "191231.582000", "191231.586000", "191231.589000", "191231.592000", "191231.596000", "191231.599000", "191231.602000", "191231.606000", "191231.609000", "191231.613000", "191231.616000", "191231.619000", "191231.623000", "191231.626000", "191231.629000"],
      "InstanceCreationTime": ["190519.810000", "190519.814000", "190519.817000", "190519.821000", "190519.824000", "190519.835000", "190519.839000", "190519.842000", "190539.773000", "190539.777000", "190539.780000", "190539.788000", "190539.791000", "190539.795000", "190539.798000", "190539.801000", "190539.804000", "190539.808000", "190539.811000", "190539.814000", "190539.818000", "190539.821000", "190539.824000", "190539.827000", "190539.831000", "190539.834000", "190539.837000", "190539.840000", "190559.773000", "190559.777000", "190559.780000", "190559.783000", "190559.787000", "190559.790000", "190559.793000", "190559.796000", "190559.800000", "190559.803000", "190559.806000", "190559.810000", "190559.813000", "190559.816000", "190559.820000", "190559.823000", "190559.826000", "190559.829000", "190559.833000", "190559.836000", "190619.773000", "190619.777000", "190619.780000", "190619.783000", "190619.787000", "190619.790000", "190619.793000", "190619.797000", "190619.800000", "190619.803000", "190619.807000", "190619.810000", "190619.813000", "190619.825000", "190619.828000", "190619.831000", "190619.835000", "190619.838000", "190619.841000", "190619.844000", "190639.773000", "190639.777000", "190639.780000", "190639.783000", "190639.787000", "190639.790000", "190639.793000", "190639.796000", "190639.800000", "190639.803000", "190639.806000", "190639.809000", "190639.813000", "190639.816000", "190639.819000", "190639.823000", "190639.837000", "190639.850000", "190639.853000", "190639.856000", "190719.773000", "190719.777000", "190719.780000", "190719.784000", "190719.787000", "190719.790000", "190719.794000", "190719.797000", "190719.800000", "190719.804000", "190719.807000", "190719.810000", "190719.813000", "190719.817000", "190719.820000", "190719.823000", "190719.826000", "190719.830000", "190719.833000", "190719.836000", "190719.840000", "190719.843000", "190719.846000", "190719.850000", "190719.853000", "190719.856000", "190719.860000", "190719.863000", "190719.866000", "190719.870000", "190759.773000", "190759.777000", "190759.780000", "190759.784000", "190759.787000", "190759.790000", "190759.793000", "190759.797000", "190759.800000", "190759.803000", "190759.807000", "190759.810000", "190759.813000", "190759.816000", "190759.820000", "190759.823000", "190759.826000", "190759.830000", "190759.833000", "190759.836000", "190759.840000", "190759.843000", "190759.846000", "190759.849000", "190759.853000", "190759.856000", "190759.859000", "190839.773000", "190839.777000", "190839.780000", "190839.783000", "190839.787000", "190839.790000", "190839.793000", "190839.797000", "190839.800000", "190839.803000", "190839.807000", "190839.810000", "190839.814000", "190839.817000", "190839.820000", "190839.823000", "190839.827000", "190839.830000", "190839.833000", "190839.837000", "190839.840000", "190839.843000", "190839.847000", "190839.850000", "190839.853000", "190839.857000", "190919.773000", "190919.777000", "190919.780000", "190919.784000", "190919.801000", "190919.804000", "190919.807000", "190919.811000", "190919.814000", "190919.817000", "190919.821000", "190919.824000", "190919.827000", "190919.831000", "190919.834000", "190919.837000", "190919.841000", "190919.844000", "190919.847000", "190919.851000", "190919.854000", "190919.857000", "190919.860000", "190919.864000", "190919.867000", "190919.870000", "190919.874000", "190959.773000", "190959.777000", "190959.781000", "190959.784000", "190959.788000", "190959.791000", "190959.794000", "190959.798000", "190959.801000", "190959.804000", "190959.807000", "190959.811000", "190959.814000", "190959.817000", "190959.821000", "190959.824000", "190959.827000", "190959.831000", "190959.834000", "190959.837000", "190959.840000", "190959.844000", "190959.847000", "190959.850000", "190959.854000", "190959.857000", "190959.860000", "191039.773000", "191039.777000", "191039.780000", "191039.784000", "191039.787000", "191039.790000", "191039.794000", "191039.797000", "191039.800000", "191039.803000", "191039.807000", "191039.810000", "191039.813000", "191039.817000", "191039.820000", "191039.823000", "191039.827000", "191039.830000", "191039.833000", "191039.837000", "191039.840000", "191039.843000", "191039.846000", "191039.850000", "191039.853000", "191039.856000", "191039.860000", "191119.773000", "191119.777000", "191119.780000", "191119.784000", "191119.787000", "191119.791000", "191119.794000", "191119.797000", "191119.801000", "191119.804000", "191119.807000", "191119.811000", "191119.814000", "191119.817000", "191119.820000", "191119.824000", "191119.827000", "191119.831000", "191119.834000", "191119.837000", "191119.840000", "191119.844000", "191119.847000", "191119.863000", "191119.867000", "191119.870000", "191119.873000", "191159.772000", "191159.776000", "191159.779000", "191159.783000", "191159.786000", "191159.789000", "191159.793000", "191159.796000", "191159.799000", "191159.802000", "191159.806000", "191159.809000", "191159.812000", "191159.816000", "191159.819000", "191159.822000", "191159.826000", "191159.829000", "191159.832000", "191159.835000", "191159.839000", "191159.842000", "191159.845000", "191159.849000", "191159.852000", "191159.855000", "191159.859000", "191231.562000", "191231.566000", "191231.569000", "191231.572000", "191231.576000", "191231.579000", "191231.582000", "191231.586000", "191231.589000", "191231.592000", "191231.596000", "191231.599000", "191231.602000", "191231.606000", "191231.609000", "191231.613000", "191231.616000", "191231.619000", "191231.623000", "191231.626000", "191231.629000"],
      "InstanceNumber": [1, 2, 3, 4, 5, 6, 7, 8, 9, 10, 11, 12, 13, 14, 15, 16, 17, 18, 19, 20, 21, 22, 23, 24, 25, 26, 27, 28, 29, 30, 31, 32, 33, 34, 35, 36, 37, 38, 39, 40, 41, 42, 43, 44, 45, 46, 47, 48, 49, 50, 51, 52, 53, 54, 55, 56, 57, 58, 59, 60, 61, 62, 63, 64, 65, 66, 67, 68, 69, 70, 71, 72, 73, 74, 75, 76, 77, 78, 79, 80, 81, 82, 83, 84, 85, 86, 87, 88, 89, 90, 91, 92, 93, 94, 95, 96, 97, 98, 99, 100, 101, 102, 103, 104, 105, 106, 107, 108, 109, 110, 111, 112, 113, 114, 115, 116, 117, 118, 119, 120, 121, 122, 123, 124, 125, 126, 127, 128, 129, 130, 131, 132, 133, 134, 135, 136, 137, 138, 139, 140, 141, 142, 143, 144, 145, 146, 147, 148, 149, 150, 151, 152, 153, 154, 155, 156, 157, 158, 159, 160, 161, 162, 163, 164, 165, 166, 167, 168, 169, 170, 171, 172, 173, 174, 175, 176, 177, 178, 179, 180, 181, 182, 183, 184, 185, 186, 187, 188, 189, 190, 191, 192, 193, 194, 195, 196, 197, 198, 199, 200, 201, 202, 203, 204, 205, 206, 207, 208, 209, 210, 211, 212, 213, 214, 215, 216, 217, 218, 219, 220, 221, 222, 223, 224, 225, 226, 227, 228, 229, 230, 231, 232, 233, 234, 235, 236, 237, 238, 239, 240, 241, 242, 243, 244, 245, 246, 247, 248, 249, 250, 251, 252, 253, 254, 255, 256, 257, 258, 259, 260, 261, 262, 263, 264, 265, 266, 267, 268, 269, 270, 271, 272, 273, 274, 275, 276, 277, 278, 279, 280, 281, 282, 283, 284, 285, 286, 287, 288, 289, 290, 291, 292, 293, 294, 295, 296, 297, 298, 299, 300, 301, 302, 303, 304, 305, 306, 307, 308, 309, 310, 311, 312, 313, 314, 315, 316, 317, 318, 319, 320, 321, 322, 323, 324, 325, 326, 327],
      "LargestImagePixelValue": [62009, 60238, 61037, 58747, 57553, 58411, 58275, 57601, 58143, 57959, 57058, 58139, 57887, 57592, 57172, 56680, 57105, 56928, 57045, 57120, 56836, 56490, 56750, 56234, 56656, 56280, 57891, 57607, 58566, 58764, 59188, 58114, 58925, 59426, 59641, 59661, 58001, 58769, 58914, 58906, 59067, 59416, 58851, 58638, 59132, 58403, 58884, 58688, 58500, 58184, 56984, 56187, 57635, 57874, 58248, 57886, 57342, 58121, 58116, 58640, 58834, 59185, 59186, 59499, 59819, 59975, 60662, 60071, 59933, 59320, 59458, 59839, 60119, 60088, 59989, 58491, 59287, 58609, 58339, 58511, 59028, 58842, 58817, 58511, 58600, 58936, 59200, 58605, 58564, 58714, 58888, 58776, 58973, 58987, 59345, 59075, 60142, 59801, 59416, 59363, 59491, 59481, 59719, 60297, 59552, 59728, 59877, 59680, 59679, 60146, 59704, 59855, 59305, 59624, 59776, 59714, 59793, 58291, 58507, 57467, 56685, 57613, 58249, 59425, 59684, 59097, 59878, 58929, 60069, 58915, 57870, 58585, 58372, 60136, 58219, 58115, 59140, 59426, 59185, 59507, 58924, 59297, 59000, 58328, 59120, 58930, 59318, 58814, 59471, 58414, 58046, 59688, 59325, 59705, 60471, 60405, 60014, 59482, 59375, 60403, 59776, 59583, 59807, 59720, 59844, 59988, 60413, 60220, 60597, 60495, 60555, 60161, 60002, 60610, 60944, 60860, 60456, 60564, 60225, 60608, 60680, 60854, 60486, 60663, 60774, 60743, 61147, 60404, 60700, 60783, 60277, 60475, 61115, 60417, 61030, 60193, 60336, 60147, 60549, 60986, 60623, 61038, 60316, 61159, 61439, 60387, 60363, 60746, 60460, 60437, 60429, 61458, 60835, 61037, 60749, 60830, 61054, 60940, 60889, 60620, 60899, 60534, 60407, 60906, 60606, 60659, 60893, 60533, 60872, 60667, 60537, 61235, 61143, 60954, 60589, 60565, 60661, 60211, 61051, 60946, 60238, 60638, 60716, 60849, 60467, 61682, 61220, 59083, 59871, 60619, 60782, 60031, 60190, 60160, 60489, 59871, 60746, 60376, 60510, 61027, 60535, 60403, 60367, 60460, 60367, 60807, 60326, 60829, 61729, 60096, 60768, 60795, 60692, 61008, 61013, 61029, 60646, 60630, 60738, 60654, 60346, 60359, 60621, 60455, 60762, 60380, 60604, 60040, 60861, 60030, 60843, 60577, 60074, 60841, 59742, 60274, 59976, 59722, 59906, 59607, 60423, 60074, 60183, 60177, 60425, 60423, 59963, 60165, 57662, 59606, 57140, 55936, 55347, 55112, 55382, 55112, 55199, 54599, 55123, 55791, 56464, 56601, 56256, 56329, 55581, 54548, 55294],
