{
  "AcquisitionMatrixPE": 104,
  "AcquisitionNumber": 1,
  "AcquisitionTime": "18:28:47.672500",
  "BandwidthPerPixelPhaseEncode": 17.17,
  "BaseResolution": 104,
  "BodyPartExamined": "BRAIN",
  "CoilCombinationMethod": "Sum of Squares",
  "ConsistencyInfo": "N4_VE11C_LATEST_20160120",
  "ConversionSoftware": "dcm2niix",
  "ConversionSoftwareVersion": "v1.0.20220505",
  "DerivedVendorReportedEchoSpacing": 0.000560011,
  "DeviceSerialNumber": "167006",
  "DwellTime": 2.1e-06,
  "EchoTime": 0.037,
  "EchoTrainLength": 104,
  "EffectiveEchoSpacing": 0.000560011,
  "FlipAngle": 52,
  "HeudiconvVersion": "0.5.3.post811+g6206e14",
  "ImageComments": "Unaliased MB4/PE3/LB",
  "ImageOrientationPatientDICOM": [0.999863, -0.0144349, 0.00811844, 0.0164053, 0.930407, -0.366161],
  "ImageOrientationText": "Tra>Cor(-21.5)>Sag(0.1)",
  "ImageType": [
    "ORIGINAL",
    "PRIMARY",
    "M",
    "MB",
    "ND",
    "MOSAIC"
],
  "ImagingFrequency": 123.26,
  "InPlanePhaseEncodingDirectionDICOM": "COL",
  "InstitutionAddress": "Chemin Queen-Mary 4565,Montreal,District,CA,H3W 1W5",
  "InstitutionName": "IUGM",
  "InstitutionalDepartmentName": "Department",
  "MRAcquisitionType": "2D",
  "MagneticFieldStrength": 3,
  "Manufacturer": "Siemens",
  "ManufacturersModelName": "Prisma_fit",
  "MatrixCoilMode": "SENSE",
  "Modality": "MR",
  "MultibandAccelerationFactor": 4,
  "PartialFourier": 1,
  "PatientPosition": "HFS",
  "PercentPhaseFOV": 100,
  "PercentSampling": 100,
  "PhaseEncodingDirection": "j",
  "PhaseEncodingSteps": 104,
  "PhaseResolution": 1,
  "PixelBandwidth": 2290,
  "ProcedureStepDescription": "games^mario3",
  "ProtocolName": "func_task-mario3_run-01",
  "PulseSequenceDetails": "%CustomerSeq%\\cmrr_mbep2d_bold",
  "ReceiveCoilActiveElements": "HC1-7;NC1,2",
  "ReceiveCoilName": "HeadNeck_64",
  "ReconMatrixPE": 104,
  "RepetitionTime": 1.49,
  "SAR": 0.0967074,
  "ScanOptions": "FS",
  "ScanningSequence": "EP",
  "SequenceName": "epfid2d1_104",
  "SequenceVariant": "SK\\SS",
  "SeriesDescription": "func_task-mario3_run-01",
  "SeriesNumber": 10,
  "ShimSetting": [599, -7261, -8811, 450, 13, -363, -8, 32],
  "SliceThickness": 2,
  "SliceTiming": [0, 0.785, 0.1, 0.8825, 0.1975, 0.98, 0.295, 1.08, 0.3925, 1.1775, 0.49, 1.275, 0.59, 1.3725, 0.6875, 0, 0.785, 0.1, 0.8825, 0.1975, 0.98, 0.295, 1.08, 0.3925, 1.1775, 0.49, 1.275, 0.59, 1.3725, 0.6875, 0, 0.785, 0.1, 0.8825, 0.1975, 0.98, 0.295, 1.08, 0.3925, 1.1775, 0.49, 1.275, 0.59, 1.3725, 0.6875, 0, 0.785, 0.1, 0.8825, 0.1975, 0.98, 0.295, 1.08, 0.3925, 1.1775, 0.49, 1.275, 0.59, 1.3725, 0.6875],
  "SoftwareVersions": "syngo MR E11",
  "SpacingBetweenSlices": 2,
  "StationName": "MRC35049",
  "TaskName": "mario3",
  "TotalReadoutTime": 0.0576811,
  "TxRefAmp": 322.451,
  "WipMemBlock": "df8c61ba-1830-4b92-8ee8-3a3e25a7f2bc||Sequence: R017 ve11c/master r/75a17815+; Jun 28 2022 16:32:11 by eja",
  "dcmmeta_affine": [
    [-1.9997256994247437, 0.03281054273247719, 0.0045358953066170216, 102.30154418945312],
    [0.028869876638054848, 1.8608139753341675, -0.7324873805046082, -69.79436492919922],
    [0.016236882656812668, 0.7323214411735535, 1.861032485961914, -63.09316635131836],
    [0.0, 0.0, 0.0, 1.0]
],
  "dcmmeta_reorient_transform": [
    [0.0, -1.0, 0.0, 103.0],
    [1.0, 0.0, 0.0, 0.0],
    [0.0, 0.0, 1.0, 0.0],
    [0.0, 0.0, 0.0, 1.0]
],
  "dcmmeta_shape": [104, 104, 60, 377],
  "dcmmeta_slice_dim": 2,
  "dcmmeta_version": 0.6,
  "global": {
    "const": {
      "AcquisitionMatrix": [104, 0, 0, 104],
      "AngioFlag": "N",
      "BitsAllocated": 16,
      "BitsStored": 16,
      "BodyPartExamined": "BRAIN",
      "Columns": 832,
      "EchoNumbers": 1,
      "EchoTime": 37.0,
      "EchoTrainLength": 104,
      "FlipAngle": 52.0,
      "HighBit": 15,
      "ImageOrientationPatient": [0.99986285233304, -0.0144349378815, 0.00811844152443, 0.01640527166881, 0.93040700226537, -0.3661607259074],
      "ImagePositionPatient": [-845.52422278047, -788.69713693136, 272.99072513179],
      "ImageType": [
        "ORIGINAL",
        "PRIMARY",
        "M",
        "MB",
        "ND",
        "MOSAIC"
],
      "ImagedNucleus": "1H",
      "ImagingFrequency": 123.260174,
      "InPlanePhaseEncodingDirection": "COL",
      "MRAcquisitionType": "2D",
      "MagneticFieldStrength": 3.0,
      "Manufacturer": "SIEMENS",
      "ManufacturerModelName": "Prisma_fit",
      "Modality": "MR",
      "NumberOfAverages": 1.0,
      "NumberOfPhaseEncodingSteps": 104,
      "PercentPhaseFieldOfView": 100.0,
      "PercentSampling": 100.0,
      "PerformedProcedureStepStartTime": "182341.927000",
      "PhotometricInterpretation": "MONOCHROME2",
      "PixelBandwidth": 2290.0,
      "PixelRepresentation": 0,
      "PixelSpacing": [2.0, 2.0],
      "ProtocolName": "func_task-mario3_run-01",
      "RepetitionTime": 1490.0,
      "Rows": 832,
      "SAR": 0.09670735822059,
      "SamplesPerPixel": 1,
      "ScanOptions": "FS",
      "ScanningSequence": "EP",
      "SequenceName": "epfid2d1_104",
      "SequenceVariant": [
        "SK",
        "SS"
],
      "SeriesDescription": "func_task-mario3_run-01",
      "SeriesNumber": 10,
      "SeriesTime": "182959.812000",
      "SliceLocation": -32.915453156998,
      "SliceThickness": 2.0,
      "SmallestImagePixelValue": 0,
      "SoftwareVersions": "syngo MR E11",
      "SpacingBetweenSlices": 2.0000000529304,
      "SpecificCharacterSet": "ISO_IR 100",
      "StudyID": "1",
      "StudyTime": "182341.858000",
      "TransmitCoilName": "Body",
      "VariableFlipAngleFlag": "N",
      "WindowCenterWidthExplanation": "Algo1",
      "dBdt": 0.0},
    "slices": {}
  },
  "time": {
    "samples": {
      "AcquisitionNumber": [1, 2, 3, 4, 5, 6, 7, 8, 9, 10, 11, 12, 13, 14, 15, 16, 17, 18, 19, 20, 21, 22, 23, 24, 25, 26, 27, 28, 29, 30, 31, 32, 33, 34, 35, 36, 37, 38, 39, 40, 41, 42, 43, 44, 45, 46, 47, 48, 49, 50, 51, 52, 53, 54, 55, 56, 57, 58, 59, 60, 61, 62, 63, 64, 65, 66, 67, 68, 69, 70, 71, 72, 73, 74, 75, 76, 77, 78, 79, 80, 81, 82, 83, 84, 85, 86, 87, 88, 89, 90, 91, 92, 93, 94, 95, 96, 97, 98, 99, 100, 101, 102, 103, 104, 105, 106, 107, 108, 109, 110, 111, 112, 113, 114, 115, 116, 117, 118, 119, 120, 121, 122, 123, 124, 125, 126, 127, 128, 129, 130, 131, 132, 133, 134, 135, 136, 137, 138, 139, 140, 141, 142, 143, 144, 145, 146, 147, 148, 149, 150, 151, 152, 153, 154, 155, 156, 157, 158, 159, 160, 161, 162, 163, 164, 165, 166, 167, 168, 169, 170, 171, 172, 173, 174, 175, 176, 177, 178, 179, 180, 181, 182, 183, 184, 185, 186, 187, 188, 189, 190, 191, 192, 193, 194, 195, 196, 197, 198, 199, 200, 201, 202, 203, 204, 205, 206, 207, 208, 209, 210, 211, 212, 213, 214, 215, 216, 217, 218, 219, 220, 221, 222, 223, 224, 225, 226, 227, 228, 229, 230, 231, 232, 233, 234, 235, 236, 237, 238, 239, 240, 241, 242, 243, 244, 245, 246, 247, 248, 249, 250, 251, 252, 253, 254, 255, 256, 257, 258, 259, 260, 261, 262, 263, 264, 265, 266, 267, 268, 269, 270, 271, 272, 273, 274, 275, 276, 277, 278, 279, 280, 281, 282, 283, 284, 285, 286, 287, 288, 289, 290, 291, 292, 293, 294, 295, 296, 297, 298, 299, 300, 301, 302, 303, 304, 305, 306, 307, 308, 309, 310, 311, 312, 313, 314, 315, 316, 317, 318, 319, 320, 321, 322, 323, 324, 325, 326, 327, 328, 329, 330, 331, 332, 333, 334, 335, 336, 337, 338, 339, 340, 341, 342, 343, 344, 345, 346, 347, 348, 349, 350, 351, 352, 353, 354, 355, 356, 357, 358, 359, 360, 361, 362, 363, 364, 365, 366, 367, 368, 369, 370, 371, 372, 373, 374, 375, 376, 377],
      "AcquisitionTime": ["182847.672500", "182849.162500", "182850.652500", "182852.142500", "182853.632500", "182855.122500", "182856.612500", "182858.102500", "182859.592500", "182901.082500", "182902.572500", "182904.062500", "182905.552500", "182907.042500", "182908.532500", "182910.022500", "182911.512500", "182913.002500", "182914.492500", "182915.982500", "182917.472500", "182918.962500", "182920.452500", "182921.942500", "182923.432500", "182924.922500", "182926.412500", "182927.902500", "182929.392500", "182930.882500", "182932.372500", "182933.862500", "182935.352500", "182936.842500", "182938.332500", "182939.822500", "182941.312500", "182942.802500", "182944.292500", "182945.782500", "182947.272500", "182948.762500", "182950.252500", "182951.742500", "182953.232500", "182954.722500", "182956.212500", "182957.702500", "182959.192500", "183000.682500", "183002.172500", "183003.662500", "183005.152500", "183006.642500", "183008.132500", "183009.622500", "183011.112500", "183012.602500", "183014.092500", "183015.582500", "183017.072500", "183018.562500", "183020.052500", "183021.542500", "183023.032500", "183024.522500", "183026.012500", "183027.502500", "183028.992500", "183030.482500", "183031.972500", "183033.462500", "183034.952500", "183036.442500", "183037.932500", "183039.422500", "183040.912500", "183042.402500", "183043.892500", "183045.382500", "183046.872500", "183048.362500", "183049.852500", "183051.342500", "183052.832500", "183054.322500", "183055.812500", "183057.302500", "183058.792500", "183100.282500", "183101.772500", "183103.262500", "183104.752500", "183106.242500", "183107.732500", "183109.222500", "183110.712500", "183112.202500", "183113.692500", "183115.182500", "183116.672500", "183118.162500", "183119.652500", "183121.142500", "183122.632500", "183124.122500", "183125.612500", "183127.102500", "183128.592500", "183130.082500", "183131.572500", "183133.062500", "183134.552500", "183136.042500", "183137.532500", "183139.022500", "183140.512500", "183142.002500", "183143.492500", "183144.982500", "183146.472500", "183147.962500", "183149.452500", "183150.942500", "183152.432500", "183153.922500", "183155.412500", "183156.902500", "183158.392500", "183159.882500", "183201.372500", "183202.862500", "183204.352500", "183205.842500", "183207.332500", "183208.822500", "183210.312500", "183211.802500", "183213.292500", "183214.782500", "183216.272500", "183217.762500", "183219.252500", "183220.742500", "183222.232500", "183223.722500", "183225.212500", "183226.702500", "183228.192500", "183229.682500", "183231.172500", "183232.662500", "183234.152500", "183235.642500", "183237.132500", "183238.622500", "183240.112500", "183241.602500", "183243.092500", "183244.582500", "183246.072500", "183247.562500", "183249.052500", "183250.542500", "183252.032500", "183253.522500", "183255.012500", "183256.502500", "183257.992500", "183259.482500", "183300.972500", "183302.462500", "183303.952500", "183305.442500", "183306.932500", "183308.422500", "183309.912500", "183311.402500", "183312.892500", "183314.382500", "183315.872500", "183317.362500", "183318.852500", "183320.342500", "183321.832500", "183323.322500", "183324.812500", "183326.302500", "183327.792500", "183329.282500", "183330.772500", "183332.262500", "183333.752500", "183335.242500", "183336.732500", "183338.222500", "183339.712500", "183341.202500", "183342.692500", "183344.182500", "183345.672500", "183347.162500", "183348.652500", "183350.142500", "183351.632500", "183353.122500", "183354.612500", "183356.102500", "183357.592500", "183359.082500", "183400.572500", "183402.062500", "183403.552500", "183405.042500", "183406.532500", "183408.022500", "183409.512500", "183411.002500", "183412.492500", "183413.982500", "183415.472500", "183416.962500", "183418.452500", "183419.942500", "183421.432500", "183422.922500", "183424.412500", "183425.902500", "183427.392500", "183428.882500", "183430.372500", "183431.862500", "183433.352500", "183434.842500", "183436.332500", "183437.822500", "183439.312500", "183440.802500", "183442.292500", "183443.782500", "183445.272500", "183446.762500", "183448.252500", "183449.742500", "183451.232500", "183452.722500", "183454.212500", "183455.702500", "183457.192500", "183458.682500", "183500.172500", "183501.662500", "183503.152500", "183504.642500", "183506.132500", "183507.622500", "183509.112500", "183510.602500", "183512.092500", "183513.582500", "183515.072500", "183516.562500", "183518.052500", "183519.542500", "183521.032500", "183522.522500", "183524.012500", "183525.502500", "183526.992500", "183528.482500", "183529.972500", "183531.462500", "183532.952500", "183534.442500", "183535.932500", "183537.422500", "183538.912500", "183540.402500", "183541.892500", "183543.382500", "183544.872500", "183546.362500", "183547.852500", "183549.342500", "183550.832500", "183552.322500", "183553.812500", "183555.302500", "183556.792500", "183558.282500", "183559.772500", "183601.262500", "183602.752500", "183604.242500", "183605.732500", "183607.222500", "183608.712500", "183610.202500", "183611.692500", "183613.182500", "183614.672500", "183616.162500", "183617.652500", "183619.142500", "183620.632500", "183622.122500", "183623.612500", "183625.102500", "183626.592500", "183628.082500", "183629.572500", "183631.062500", "183632.552500", "183634.042500", "183635.532500", "183637.022500", "183638.512500", "183640.002500", "183641.492500", "183642.982500", "183644.472500", "183645.962500", "183647.452500", "183648.942500", "183650.432500", "183651.922500", "183653.412500", "183654.902500", "183656.392500", "183657.882500", "183659.372500", "183700.862500", "183702.352500", "183703.842500", "183705.332500", "183706.822500", "183708.312500", "183709.802500", "183711.292500", "183712.782500", "183714.272500", "183715.762500", "183717.252500", "183718.742500", "183720.232500", "183721.722500", "183723.212500", "183724.702500", "183726.192500", "183727.682500", "183729.172500", "183730.662500", "183732.152500", "183733.642500", "183735.132500", "183736.622500", "183738.112500", "183739.602500", "183741.092500", "183742.582500", "183744.072500", "183745.562500", "183747.052500", "183748.542500", "183750.032500", "183751.522500", "183753.012500", "183754.502500", "183755.992500", "183757.482500", "183758.972500", "183800.462500", "183801.952500", "183803.442500", "183804.932500", "183806.422500", "183807.912500"],
      "ContentTime": ["182959.816000", "182959.820000", "182959.823000", "182959.826000", "182959.829000", "182959.833000", "182959.836000", "182959.839000", "182959.843000", "182959.846000", "182959.849000", "182959.852000", "182959.856000", "182959.859000", "182959.862000", "182959.869000", "182959.872000", "182959.875000", "182959.878000", "182959.882000", "182959.885000", "182959.888000", "182959.892000", "183019.772000", "183019.776000", "183019.779000", "183019.782000", "183019.786000", "183019.789000", "183019.792000", "183019.795000", "183019.799000", "183019.802000", "183019.805000", "183019.808000", "183019.812000", "183019.815000", "183019.818000", "183019.822000", "183019.825000", "183019.828000", "183019.832000", "183019.835000", "183039.773000", "183039.777000", "183039.780000", "183039.783000", "183039.786000", "183039.799000", "183039.802000", "183039.805000", "183039.809000", "183039.812000", "183039.816000", "183039.819000", "183039.823000", "183039.826000", "183039.829000", "183039.833000", "183039.836000", "183039.839000", "183039.843000", "183039.846000", "183059.773000", "183059.787000", "183059.790000", "183059.794000", "183059.797000", "183059.800000", "183059.803000", "183059.806000", "183059.810000", "183059.813000", "183059.816000", "183059.820000", "183059.823000", "183059.826000", "183059.830000", "183059.833000", "183059.836000", "183059.839000", "183059.843000", "183059.846000", "183139.773000", "183139.777000", "183139.780000", "183139.783000", "183139.787000", "183139.790000", "183139.793000", "183139.797000", "183139.800000", "183139.804000", "183139.807000", "183139.811000", "183139.814000", "183139.817000", "183139.821000", "183139.824000", "183139.828000", "183139.831000", "183139.834000", "183139.837000", "183139.841000", "183139.844000", "183139.847000", "183139.851000", "183139.854000", "183139.857000", "183139.860000", "183139.864000", "183139.867000", "183139.870000", "183139.874000", "183159.773000", "183159.777000", "183159.780000", "183159.784000", "183159.787000", "183159.790000", "183159.794000", "183159.797000", "183159.800000", "183159.804000", "183159.807000", "183159.810000", "183159.813000", "183159.817000", "183239.772000", "183239.776000", "183239.779000", "183239.783000", "183239.786000", "183239.789000", "183239.792000", "183239.796000", "183239.799000", "183239.803000", "183239.806000", "183239.809000", "183239.812000", "183239.816000", "183239.819000", "183239.823000", "183239.826000", "183239.829000", "183239.832000", "183239.836000", "183239.839000", "183239.842000", "183239.846000", "183239.849000", "183239.852000", "183239.856000", "183239.859000", "183319.773000", "183319.777000", "183319.780000", "183319.784000", "183319.787000", "183319.791000", "183319.794000", "183319.797000", "183319.800000", "183319.804000", "183319.807000", "183319.810000", "183319.814000", "183319.817000", "183319.820000", "183319.823000", "183319.827000", "183319.830000", "183319.833000", "183319.837000", "183319.840000", "183319.843000", "183319.846000", "183319.851000", "183319.855000", "183319.859000", "183359.773000", "183359.777000", "183359.780000", "183359.784000", "183359.787000", "183359.790000", "183359.794000", "183359.797000", "183359.800000", "183359.804000", "183359.807000", "183359.811000", "183359.814000", "183359.818000", "183359.821000", "183359.824000", "183359.828000", "183359.832000", "183359.835000", "183359.839000", "183359.842000", "183359.845000", "183359.849000", "183359.852000", "183359.855000", "183359.858000", "183359.862000", "183439.773000", "183439.777000", "183439.780000", "183439.784000", "183439.787000", "183439.790000", "183439.794000", "183439.797000", "183439.800000", "183439.804000", "183439.807000", "183439.810000", "183439.814000", "183439.817000", "183439.820000", "183439.823000", "183439.827000", "183439.830000", "183439.833000", "183439.836000", "183439.840000", "183439.858000", "183439.861000", "183439.864000", "183439.868000", "183439.871000", "183439.874000", "183519.773000", "183519.777000", "183519.780000", "183519.784000", "183519.787000", "183519.790000", "183519.794000", "183519.797000", "183519.800000", "183519.804000", "183519.807000", "183519.810000", "183519.813000", "183519.817000", "183519.820000", "183519.823000", "183519.827000", "183519.830000", "183519.833000", "183519.836000", "183519.840000", "183519.843000", "183519.846000", "183519.850000", "183519.853000", "183519.856000", "183519.860000", "183559.773000", "183559.777000", "183559.780000", "183559.784000", "183559.787000", "183559.791000", "183559.794000", "183559.797000", "183559.801000", "183559.804000", "183559.807000", "183559.811000", "183559.814000", "183559.817000", "183559.820000", "183559.824000", "183559.827000", "183559.830000", "183559.834000", "183559.837000", "183559.840000", "183559.843000", "183559.847000", "183559.850000", "183559.853000", "183559.857000", "183559.860000", "183639.773000", "183639.777000", "183639.780000", "183639.784000", "183639.787000", "183639.790000", "183639.794000", "183639.797000", "183639.800000", "183639.804000", "183639.807000", "183639.810000", "183639.814000", "183639.817000", "183639.820000", "183639.824000", "183639.827000", "183639.830000", "183639.833000", "183639.837000", "183639.840000", "183639.843000", "183639.847000", "183639.850000", "183639.853000", "183639.857000", "183639.860000", "183719.772000", "183719.776000", "183719.779000", "183719.783000", "183719.786000", "183719.789000", "183719.792000", "183719.796000", "183719.799000", "183719.820000", "183719.823000", "183719.826000", "183719.829000", "183719.833000", "183719.836000", "183719.839000", "183719.843000", "183719.846000", "183719.849000", "183719.852000", "183719.856000", "183719.859000", "183719.862000", "183719.866000", "183719.869000", "183719.872000", "183719.876000", "183759.773000", "183759.777000", "183759.780000", "183759.784000", "183759.787000", "183759.791000", "183759.794000", "183759.797000", "183759.801000", "183759.804000", "183759.808000", "183759.811000", "183759.814000", "183759.818000", "183759.821000", "183759.824000", "183759.828000", "183759.831000", "183759.834000", "183759.838000", "183759.841000", "183759.846000", "183759.849000", "183759.853000", "183759.856000", "183759.859000", "183811.817000", "183811.820000", "183811.824000", "183811.827000", "183811.831000", "183811.834000", "183811.839000", "183811.842000"],
      "InstanceCreationTime": ["182959.816000", "182959.820000", "182959.823000", "182959.826000", "182959.829000", "182959.833000", "182959.836000", "182959.839000", "182959.843000", "182959.846000", "182959.849000", "182959.852000", "182959.856000", "182959.859000", "182959.862000", "182959.869000", "182959.872000", "182959.875000", "182959.878000", "182959.882000", "182959.885000", "182959.888000", "182959.892000", "183019.772000", "183019.776000", "183019.779000", "183019.782000", "183019.786000", "183019.789000", "183019.792000", "183019.795000", "183019.799000", "183019.802000", "183019.805000", "183019.808000", "183019.812000", "183019.815000", "183019.818000", "183019.822000", "183019.825000", "183019.828000", "183019.832000", "183019.835000", "183039.773000", "183039.777000", "183039.780000", "183039.783000", "183039.786000", "183039.799000", "183039.802000", "183039.805000", "183039.809000", "183039.812000", "183039.816000", "183039.819000", "183039.823000", "183039.826000", "183039.829000", "183039.833000", "183039.836000", "183039.839000", "183039.843000", "183039.846000", "183059.773000", "183059.787000", "183059.790000", "183059.794000", "183059.797000", "183059.800000", "183059.803000", "183059.806000", "183059.810000", "183059.813000", "183059.816000", "183059.820000", "183059.823000", "183059.826000", "183059.830000", "183059.833000", "183059.836000", "183059.839000", "183059.843000", "183059.846000", "183139.773000", "183139.777000", "183139.780000", "183139.783000", "183139.787000", "183139.790000", "183139.793000", "183139.797000", "183139.800000", "183139.804000", "183139.807000", "183139.811000", "183139.814000", "183139.817000", "183139.821000", "183139.824000", "183139.828000", "183139.831000", "183139.834000", "183139.837000", "183139.841000", "183139.844000", "183139.847000", "183139.851000", "183139.854000", "183139.857000", "183139.860000", "183139.864000", "183139.867000", "183139.870000", "183139.874000", "183159.773000", "183159.777000", "183159.780000", "183159.784000", "183159.787000", "183159.790000", "183159.794000", "183159.797000", "183159.800000", "183159.804000", "183159.807000", "183159.810000", "183159.813000", "183159.817000", "183239.772000", "183239.776000", "183239.779000", "183239.783000", "183239.786000", "183239.789000", "183239.792000", "183239.796000", "183239.799000", "183239.803000", "183239.806000", "183239.809000", "183239.812000", "183239.816000", "183239.819000", "183239.823000", "183239.826000", "183239.829000", "183239.832000", "183239.836000", "183239.839000", "183239.842000", "183239.846000", "183239.849000", "183239.852000", "183239.856000", "183239.859000", "183319.773000", "183319.777000", "183319.780000", "183319.784000", "183319.787000", "183319.791000", "183319.794000", "183319.797000", "183319.800000", "183319.804000", "183319.807000", "183319.810000", "183319.814000", "183319.817000", "183319.820000", "183319.823000", "183319.827000", "183319.830000", "183319.833000", "183319.837000", "183319.840000", "183319.843000", "183319.846000", "183319.851000", "183319.855000", "183319.859000", "183359.773000", "183359.777000", "183359.780000", "183359.784000", "183359.787000", "183359.790000", "183359.794000", "183359.797000", "183359.800000", "183359.804000", "183359.807000", "183359.811000", "183359.814000", "183359.818000", "183359.821000", "183359.824000", "183359.828000", "183359.832000", "183359.835000", "183359.839000", "183359.842000", "183359.845000", "183359.849000", "183359.852000", "183359.855000", "183359.858000", "183359.862000", "183439.773000", "183439.777000", "183439.780000", "183439.784000", "183439.787000", "183439.790000", "183439.794000", "183439.797000", "183439.800000", "183439.804000", "183439.807000", "183439.810000", "183439.814000", "183439.817000", "183439.820000", "183439.823000", "183439.827000", "183439.830000", "183439.833000", "183439.836000", "183439.840000", "183439.858000", "183439.861000", "183439.864000", "183439.868000", "183439.871000", "183439.874000", "183519.773000", "183519.777000", "183519.780000", "183519.784000", "183519.787000", "183519.790000", "183519.794000", "183519.797000", "183519.800000", "183519.804000", "183519.807000", "183519.810000", "183519.813000", "183519.817000", "183519.820000", "183519.823000", "183519.827000", "183519.830000", "183519.833000", "183519.836000", "183519.840000", "183519.843000", "183519.846000", "183519.850000", "183519.853000", "183519.856000", "183519.860000", "183559.773000", "183559.777000", "183559.780000", "183559.784000", "183559.787000", "183559.791000", "183559.794000", "183559.797000", "183559.801000", "183559.804000", "183559.807000", "183559.811000", "183559.814000", "183559.817000", "183559.820000", "183559.824000", "183559.827000", "183559.830000", "183559.834000", "183559.837000", "183559.840000", "183559.843000", "183559.847000", "183559.850000", "183559.853000", "183559.857000", "183559.860000", "183639.773000", "183639.777000", "183639.780000", "183639.784000", "183639.787000", "183639.790000", "183639.794000", "183639.797000", "183639.800000", "183639.804000", "183639.807000", "183639.810000", "183639.814000", "183639.817000", "183639.820000", "183639.824000", "183639.827000", "183639.830000", "183639.833000", "183639.837000", "183639.840000", "183639.843000", "183639.847000", "183639.850000", "183639.853000", "183639.857000", "183639.860000", "183719.772000", "183719.776000", "183719.779000", "183719.783000", "183719.786000", "183719.789000", "183719.792000", "183719.796000", "183719.799000", "183719.820000", "183719.823000", "183719.826000", "183719.829000", "183719.833000", "183719.836000", "183719.839000", "183719.843000", "183719.846000", "183719.849000", "183719.852000", "183719.856000", "183719.859000", "183719.862000", "183719.866000", "183719.869000", "183719.872000", "183719.876000", "183759.773000", "183759.777000", "183759.780000", "183759.784000", "183759.787000", "183759.791000", "183759.794000", "183759.797000", "183759.801000", "183759.804000", "183759.808000", "183759.811000", "183759.814000", "183759.818000", "183759.821000", "183759.824000", "183759.828000", "183759.831000", "183759.834000", "183759.838000", "183759.841000", "183759.846000", "183759.849000", "183759.853000", "183759.856000", "183759.859000", "183811.817000", "183811.820000", "183811.824000", "183811.827000", "183811.831000", "183811.834000", "183811.839000", "183811.842000"],
      "InstanceNumber": [1, 2, 3, 4, 5, 6, 7, 8, 9, 10, 11, 12, 13, 14, 15, 16, 17, 18, 19, 20, 21, 22, 23, 24, 25, 26, 27, 28, 29, 30, 31, 32, 33, 34, 35, 36, 37, 38, 39, 40, 41, 42, 43, 44, 45, 46, 47, 48, 49, 50, 51, 52, 53, 54, 55, 56, 57, 58, 59, 60, 61, 62, 63, 64, 65, 66, 67, 68, 69, 70, 71, 72, 73, 74, 75, 76, 77, 78, 79, 80, 81, 82, 83, 84, 85, 86, 87, 88, 89, 90, 91, 92, 93, 94, 95, 96, 97, 98, 99, 100, 101, 102, 103, 104, 105, 106, 107, 108, 109, 110, 111, 112, 113, 114, 115, 116, 117, 118, 119, 120, 121, 122, 123, 124, 125, 126, 127, 128, 129, 130, 131, 132, 133, 134, 135, 136, 137, 138, 139, 140, 141, 142, 143, 144, 145, 146, 147, 148, 149, 150, 151, 152, 153, 154, 155, 156, 157, 158, 159, 160, 161, 162, 163, 164, 165, 166, 167, 168, 169, 170, 171, 172, 173, 174, 175, 176, 177, 178, 179, 180, 181, 182, 183, 184, 185, 186, 187, 188, 189, 190, 191, 192, 193, 194, 195, 196, 197, 198, 199, 200, 201, 202, 203, 204, 205, 206, 207, 208, 209, 210, 211, 212, 213, 214, 215, 216, 217, 218, 219, 220, 221, 222, 223, 224, 225, 226, 227, 228, 229, 230, 231, 232, 233, 234, 235, 236, 237, 238, 239, 240, 241, 242, 243, 244, 245, 246, 247, 248, 249, 250, 251, 252, 253, 254, 255, 256, 257, 258, 259, 260, 261, 262, 263, 264, 265, 266, 267, 268, 269, 270, 271, 272, 273, 274, 275, 276, 277, 278, 279, 280, 281, 282, 283, 284, 285, 286, 287, 288, 289, 290, 291, 292, 293, 294, 295, 296, 297, 298, 299, 300, 301, 302, 303, 304, 305, 306, 307, 308, 309, 310, 311, 312, 313, 314, 315, 316, 317, 318, 319, 320, 321, 322, 323, 324, 325, 326, 327, 328, 329, 330, 331, 332, 333, 334, 335, 336, 337, 338, 339, 340, 341, 342, 343, 344, 345, 346, 347, 348, 349, 350, 351, 352, 353, 354, 355, 356, 357, 358, 359, 360, 361, 362, 363, 364, 365, 366, 367, 368, 369, 370, 371, 372, 373, 374, 375, 376, 377],
