{
  "AcquisitionMatrixPE": 104,
  "AcquisitionNumber": 1,
  "AcquisitionTime": "19:34:54.415000",
  "BandwidthPerPixelPhaseEncode": 17.17,
  "BaseResolution": 104,
  "BodyPartExamined": "BRAIN",
  "CoilCombinationMethod": "Sum of Squares",
  "ConsistencyInfo": "N4_VE11C_LATEST_20160120",
  "ConversionSoftware": "dcm2niix",
  "ConversionSoftwareVersion": "v1.0.20220505",
  "DerivedVendorReportedEchoSpacing": 0.000560011,
  "DeviceSerialNumber": "167006",
  "DwellTime": 2.1e-06,
  "EchoTime": 0.037,
  "EchoTrainLength": 104,
  "EffectiveEchoSpacing": 0.000560011,
  "FlipAngle": 52,
  "HeudiconvVersion": "0.5.3.post811+g6206e14",
  "ImageComments": "Unaliased MB4/PE3/LB",
  "ImageOrientationPatientDICOM": [0.999863, -0.0144349, 0.00811844, 0.0164053, 0.930407, -0.366161],
  "ImageOrientationText": "Tra>Cor(-21.5)>Sag(0.1)",
  "ImageType": [
    "ORIGINAL",
    "PRIMARY",
    "M",
    "MB",
    "ND",
    "MOSAIC"
],
  "ImagingFrequency": 123.26,
  "InPlanePhaseEncodingDirectionDICOM": "COL",
  "InstitutionAddress": "Chemin Queen-Mary 4565,Montreal,District,CA,H3W 1W5",
  "InstitutionName": "IUGM",
  "InstitutionalDepartmentName": "Department",
  "MRAcquisitionType": "2D",
  "MagneticFieldStrength": 3,
  "Manufacturer": "Siemens",
  "ManufacturersModelName": "Prisma_fit",
  "MatrixCoilMode": "SENSE",
  "Modality": "MR",
  "MultibandAccelerationFactor": 4,
  "PartialFourier": 1,
  "PatientPosition": "HFS",
  "PercentPhaseFOV": 100,
  "PercentSampling": 100,
  "PhaseEncodingDirection": "j",
  "PhaseEncodingSteps": 104,
  "PhaseResolution": 1,
  "PixelBandwidth": 2290,
  "ProcedureStepDescription": "games^mario3",
  "ProtocolName": "func_task-mario3_run-07",
  "PulseSequenceDetails": "%CustomerSeq%\\cmrr_mbep2d_bold",
  "ReceiveCoilActiveElements": "HC1-7;NC1,2",
  "ReceiveCoilName": "HeadNeck_64",
  "ReconMatrixPE": 104,
  "RepetitionTime": 1.49,
  "SAR": 0.0967074,
  "ScanOptions": "FS",
  "ScanningSequence": "EP",
  "SequenceName": "epfid2d1_104",
  "SequenceVariant": "SK\\SS",
  "SeriesDescription": "func_task-mario3_run-07",
  "SeriesNumber": 28,
  "ShimSetting": [599, -7261, -8811, 450, 13, -363, -8, 32],
  "SliceThickness": 2,
  "SliceTiming": [0, 0.785, 0.0975, 0.8825, 0.195, 0.98, 0.295, 1.0775, 0.3925, 1.175, 0.49, 1.275, 0.5875, 1.3725, 0.685, 0, 0.785, 0.0975, 0.8825, 0.195, 0.98, 0.295, 1.0775, 0.3925, 1.175, 0.49, 1.275, 0.5875, 1.3725, 0.685, 0, 0.785, 0.0975, 0.8825, 0.195, 0.98, 0.295, 1.0775, 0.3925, 1.175, 0.49, 1.275, 0.5875, 1.3725, 0.685, 0, 0.785, 0.0975, 0.8825, 0.195, 0.98, 0.295, 1.0775, 0.3925, 1.175, 0.49, 1.275, 0.5875, 1.3725, 0.685],
  "SoftwareVersions": "syngo MR E11",
  "SpacingBetweenSlices": 2,
  "StationName": "MRC35049",
  "TaskName": "mario3",
  "TotalReadoutTime": 0.0576811,
  "TxRefAmp": 322.451,
  "WipMemBlock": "778b4e39-cd22-4e5a-9e71-81e42fd805f7||Sequence: R017 ve11c/master r/75a17815+; Jun 28 2022 16:32:11 by eja",
  "dcmmeta_affine": [
    [-1.9997256994247437, 0.03281054273247719, 0.0045358953066170216, 102.30154418945312],
    [0.028869876638054848, 1.8608139753341675, -0.7324873805046082, -69.79436492919922],
    [0.016236882656812668, 0.7323214411735535, 1.861032485961914, -63.09316635131836],
    [0.0, 0.0, 0.0, 1.0]
],
  "dcmmeta_reorient_transform": [
    [0.0, -1.0, 0.0, 103.0],
    [1.0, 0.0, 0.0, 0.0],
    [0.0, 0.0, 1.0, 0.0],
    [0.0, 0.0, 0.0, 1.0]
],
  "dcmmeta_shape": [104, 104, 60, 326],
  "dcmmeta_slice_dim": 2,
  "dcmmeta_version": 0.6,
  "global": {
    "const": {
      "AcquisitionMatrix": [104, 0, 0, 104],
      "AngioFlag": "N",
      "BitsAllocated": 16,
      "BitsStored": 16,
      "BodyPartExamined": "BRAIN",
      "Columns": 832,
      "EchoNumbers": 1,
      "EchoTime": 37.0,
      "EchoTrainLength": 104,
      "FlipAngle": 52.0,
      "HighBit": 15,
      "ImageOrientationPatient": [0.99986285233304, -0.0144349378815, 0.00811844152443, 0.01640527166881, 0.93040700226537, -0.3661607259074],
      "ImagePositionPatient": [-845.52422278047, -788.69713693136, 272.99072513179],
      "ImageType": [
        "ORIGINAL",
        "PRIMARY",
        "M",
        "MB",
        "ND",
        "MOSAIC"
],
      "ImagedNucleus": "1H",
      "ImagingFrequency": 123.26018,
      "InPlanePhaseEncodingDirection": "COL",
      "MRAcquisitionType": "2D",
      "MagneticFieldStrength": 3.0,
      "Manufacturer": "SIEMENS",
      "ManufacturerModelName": "Prisma_fit",
      "Modality": "MR",
      "NumberOfAverages": 1.0,
      "NumberOfPhaseEncodingSteps": 104,
      "PercentPhaseFieldOfView": 100.0,
      "PercentSampling": 100.0,
      "PerformedProcedureStepStartTime": "182341.927000",
      "PhotometricInterpretation": "MONOCHROME2",
      "PixelBandwidth": 2290.0,
      "PixelRepresentation": 0,
      "PixelSpacing": [2.0, 2.0],
      "ProtocolName": "func_task-mario3_run-07",
      "RepetitionTime": 1490.0,
      "Rows": 832,
      "SAR": 0.09670735822059,
      "SamplesPerPixel": 1,
      "ScanOptions": "FS",
      "ScanningSequence": "EP",
      "SequenceName": "epfid2d1_104",
      "SequenceVariant": [
        "SK",
        "SS"
],
      "SeriesDescription": "func_task-mario3_run-07",
      "SeriesNumber": 28,
      "SeriesTime": "193619.832000",
      "SliceLocation": -32.915453156998,
      "SliceThickness": 2.0,
      "SmallestImagePixelValue": 0,
      "SoftwareVersions": "syngo MR E11",
      "SpacingBetweenSlices": 2.0000000529304,
      "SpecificCharacterSet": "ISO_IR 100",
      "StudyID": "1",
      "StudyTime": "182341.858000",
      "TransmitCoilName": "Body",
      "VariableFlipAngleFlag": "N",
      "WindowCenterWidthExplanation": "Algo1",
      "dBdt": 0.0},
    "slices": {}
  },
  "time": {
    "samples": {
      "AcquisitionNumber": [1, 2, 3, 4, 5, 6, 7, 8, 9, 10, 11, 12, 13, 14, 15, 16, 17, 18, 19, 20, 21, 22, 23, 24, 25, 26, 27, 28, 29, 30, 31, 32, 33, 34, 35, 36, 37, 38, 39, 40, 41, 42, 43, 44, 45, 46, 47, 48, 49, 50, 51, 52, 53, 54, 55, 56, 57, 58, 59, 60, 61, 62, 63, 64, 65, 66, 67, 68, 69, 70, 71, 72, 73, 74, 75, 76, 77, 78, 79, 80, 81, 82, 83, 84, 85, 86, 87, 88, 89, 90, 91, 92, 93, 94, 95, 96, 97, 98, 99, 100, 101, 102, 103, 104, 105, 106, 107, 108, 109, 110, 111, 112, 113, 114, 115, 116, 117, 118, 119, 120, 121, 122, 123, 124, 125, 126, 127, 128, 129, 130, 131, 132, 133, 134, 135, 136, 137, 138, 139, 140, 141, 142, 143, 144, 145, 146, 147, 148, 149, 150, 151, 152, 153, 154, 155, 156, 157, 158, 159, 160, 161, 162, 163, 164, 165, 166, 167, 168, 169, 170, 171, 172, 173, 174, 175, 176, 177, 178, 179, 180, 181, 182, 183, 184, 185, 186, 187, 188, 189, 190, 191, 192, 193, 194, 195, 196, 197, 198, 199, 200, 201, 202, 203, 204, 205, 206, 207, 208, 209, 210, 211, 212, 213, 214, 215, 216, 217, 218, 219, 220, 221, 222, 223, 224, 225, 226, 227, 228, 229, 230, 231, 232, 233, 234, 235, 236, 237, 238, 239, 240, 241, 242, 243, 244, 245, 246, 247, 248, 249, 250, 251, 252, 253, 254, 255, 256, 257, 258, 259, 260, 261, 262, 263, 264, 265, 266, 267, 268, 269, 270, 271, 272, 273, 274, 275, 276, 277, 278, 279, 280, 281, 282, 283, 284, 285, 286, 287, 288, 289, 290, 291, 292, 293, 294, 295, 296, 297, 298, 299, 300, 301, 302, 303, 304, 305, 306, 307, 308, 309, 310, 311, 312, 313, 314, 315, 316, 317, 318, 319, 320, 321, 322, 323, 324, 325, 326],
      "AcquisitionTime": ["193454.415000", "193455.905000", "193457.395000", "193458.885000", "193500.375000", "193501.865000", "193503.355000", "193504.845000", "193506.335000", "193507.825000", "193509.315000", "193510.805000", "193512.295000", "193513.785000", "193515.275000", "193516.765000", "193518.255000", "193519.745000", "193521.235000", "193522.725000", "193524.215000", "193525.705000", "193527.195000", "193528.685000", "193530.175000", "193531.665000", "193533.155000", "193534.645000", "193536.135000", "193537.625000", "193539.115000", "193540.605000", "193542.095000", "193543.585000", "193545.075000", "193546.565000", "193548.055000", "193549.545000", "193551.035000", "193552.525000", "193554.015000", "193555.505000", "193556.995000", "193558.485000", "193559.975000", "193601.465000", "193602.955000", "193604.445000", "193605.935000", "193607.425000", "193608.915000", "193610.405000", "193611.895000", "193613.385000", "193614.875000", "193616.365000", "193617.855000", "193619.345000", "193620.835000", "193622.325000", "193623.815000", "193625.305000", "193626.795000", "193628.285000", "193629.775000", "193631.265000", "193632.755000", "193634.245000", "193635.735000", "193637.225000", "193638.715000", "193640.205000", "193641.695000", "193643.185000", "193644.675000", "193646.165000", "193647.655000", "193649.145000", "193650.635000", "193652.125000", "193653.615000", "193655.105000", "193656.595000", "193658.085000", "193659.575000", "193701.065000", "193702.555000", "193704.045000", "193705.535000", "193707.025000", "193708.515000", "193710.005000", "193711.495000", "193712.985000", "193714.475000", "193715.965000", "193717.455000", "193718.945000", "193720.435000", "193721.925000", "193723.415000", "193724.905000", "193726.395000", "193727.885000", "193729.375000", "193730.865000", "193732.355000", "193733.845000", "193735.335000", "193736.825000", "193738.315000", "193739.805000", "193741.295000", "193742.785000", "193744.275000", "193745.765000", "193747.255000", "193748.745000", "193750.235000", "193751.725000", "193753.215000", "193754.705000", "193756.195000", "193757.685000", "193759.175000", "193800.665000", "193802.155000", "193803.645000", "193805.135000", "193806.625000", "193808.115000", "193809.605000", "193811.095000", "193812.585000", "193814.075000", "193815.565000", "193817.055000", "193818.545000", "193820.035000", "193821.525000", "193823.015000", "193824.505000", "193825.995000", "193827.485000", "193828.975000", "193830.465000", "193831.955000", "193833.445000", "193834.935000", "193836.425000", "193837.915000", "193839.405000", "193840.895000", "193842.385000", "193843.875000", "193845.365000", "193846.855000", "193848.345000", "193849.835000", "193851.325000", "193852.815000", "193854.305000", "193855.795000", "193857.285000", "193858.775000", "193900.265000", "193901.755000", "193903.245000", "193904.735000", "193906.225000", "193907.715000", "193909.205000", "193910.695000", "193912.185000", "193913.675000", "193915.165000", "193916.655000", "193918.145000", "193919.635000", "193921.125000", "193922.615000", "193924.105000", "193925.595000", "193927.085000", "193928.575000", "193930.065000", "193931.555000", "193933.045000", "193934.535000", "193936.025000", "193937.515000", "193939.005000", "193940.495000", "193941.985000", "193943.475000", "193944.965000", "193946.455000", "193947.945000", "193949.435000", "193950.925000", "193952.415000", "193953.905000", "193955.395000", "193956.885000", "193958.375000", "193959.865000", "194001.355000", "194002.845000", "194004.335000", "194005.825000", "194007.315000", "194008.805000", "194010.295000", "194011.785000", "194013.275000", "194014.765000", "194016.255000", "194017.745000", "194019.235000", "194020.725000", "194022.215000", "194023.705000", "194025.195000", "194026.685000", "194028.175000", "194029.665000", "194031.155000", "194032.645000", "194034.135000", "194035.625000", "194037.115000", "194038.605000", "194040.095000", "194041.585000", "194043.075000", "194044.565000", "194046.055000", "194047.545000", "194049.035000", "194050.525000", "194052.015000", "194053.505000", "194054.995000", "194056.485000", "194057.975000", "194059.465000", "194100.955000", "194102.445000", "194103.935000", "194105.425000", "194106.915000", "194108.405000", "194109.895000", "194111.385000", "194112.875000", "194114.365000", "194115.855000", "194117.345000", "194118.835000", "194120.325000", "194121.815000", "194123.305000", "194124.795000", "194126.285000", "194127.775000", "194129.265000", "194130.755000", "194132.245000", "194133.735000", "194135.225000", "194136.715000", "194138.205000", "194139.695000", "194141.185000", "194142.675000", "194144.165000", "194145.655000", "194147.145000", "194148.635000", "194150.125000", "194151.615000", "194153.105000", "194154.595000", "194156.085000", "194157.575000", "194159.065000", "194200.555000", "194202.045000", "194203.535000", "194205.025000", "194206.515000", "194208.005000", "194209.495000", "194210.985000", "194212.475000", "194213.965000", "194215.455000", "194216.945000", "194218.435000", "194219.925000", "194221.415000", "194222.905000", "194224.395000", "194225.885000", "194227.375000", "194228.865000", "194230.355000", "194231.845000", "194233.335000", "194234.825000", "194236.315000", "194237.805000", "194239.295000", "194240.785000", "194242.275000", "194243.765000", "194245.255000", "194246.745000", "194248.235000", "194249.725000", "194251.215000", "194252.705000", "194254.195000", "194255.685000", "194257.175000", "194258.665000"],
      "ContentTime": ["193619.836000", "193619.840000", "193619.844000", "193619.848000", "193619.851000", "193619.855000", "193619.858000", "193619.862000", "193619.865000", "193619.868000", "193619.872000", "193619.875000", "193619.878000", "193619.882000", "193619.885000", "193619.888000", "193619.892000", "193619.895000", "193619.898000", "193619.902000", "193619.905000", "193619.908000", "193619.912000", "193619.930000", "193619.933000", "193619.937000", "193619.940000", "193619.943000", "193619.947000", "193619.950000", "193619.953000", "193619.957000", "193619.960000", "193619.963000", "193619.967000", "193639.773000", "193639.777000", "193639.780000", "193639.784000", "193639.787000", "193639.790000", "193639.794000", "193639.797000", "193639.800000", "193639.803000", "193639.807000", "193639.810000", "193639.813000", "193639.817000", "193639.820000", "193639.823000", "193639.827000", "193639.830000", "193639.833000", "193639.837000", "193659.773000", "193659.777000", "193659.780000", "193659.784000", "193659.787000", "193659.790000", "193659.793000", "193659.797000", "193659.800000", "193659.803000", "193659.824000", "193659.827000", "193659.831000", "193659.834000", "193659.837000", "193659.840000", "193659.844000", "193659.847000", "193659.850000", "193659.853000", "193719.773000", "193719.777000", "193719.780000", "193719.783000", "193719.787000", "193719.790000", "193719.793000", "193719.797000", "193719.800000", "193719.804000", "193719.807000", "193719.810000", "193719.814000", "193719.817000", "193719.821000", "193719.824000", "193719.827000", "193719.831000", "193719.834000", "193719.837000", "193719.840000", "193759.773000", "193759.777000", "193759.780000", "193759.784000", "193759.787000", "193759.791000", "193759.794000", "193759.798000", "193759.801000", "193759.804000", "193759.808000", "193759.811000", "193759.814000", "193759.818000", "193759.821000", "193759.824000", "193759.828000", "193759.831000", "193759.834000", "193759.837000", "193759.841000", "193759.844000", "193759.847000", "193759.851000", "193759.854000", "193759.857000", "193759.860000", "193759.864000", "193839.773000", "193839.777000", "193839.780000", "193839.784000", "193839.787000", "193839.790000", "193839.794000", "193839.797000", "193839.800000", "193839.804000", "193839.807000", "193839.810000", "193839.813000", "193839.817000", "193839.820000", "193839.823000", "193839.827000", "193839.830000", "193839.833000", "193839.837000", "193839.840000", "193839.843000", "193839.847000", "193839.850000", "193839.853000", "193839.856000", "193839.860000", "193919.774000", "193919.777000", "193919.781000", "193919.784000", "193919.788000", "193919.791000", "193919.795000", "193919.798000", "193919.801000", "193919.805000", "193919.808000", "193919.811000", "193919.815000", "193919.818000", "193919.821000", "193919.825000", "193919.828000", "193919.831000", "193919.834000", "193919.838000", "193919.841000", "193919.844000", "193919.847000", "193919.851000", "193919.854000", "193919.857000", "193919.861000", "193959.772000", "193959.776000", "193959.779000", "193959.783000", "193959.786000", "193959.790000", "193959.793000", "193959.796000", "193959.800000", "193959.803000", "193959.806000", "193959.810000", "193959.813000", "193959.816000", "193959.820000", "193959.823000", "193959.826000", "193959.830000", "193959.833000", "193959.836000", "193959.840000", "193959.843000", "193959.846000", "193959.850000", "193959.853000", "193959.856000", "194039.773000", "194039.777000", "194039.780000", "194039.784000", "194039.787000", "194039.790000", "194039.794000", "194039.797000", "194039.800000", "194039.804000", "194039.807000", "194039.810000", "194039.814000", "194039.817000", "194039.820000", "194039.824000", "194039.827000", "194039.830000", "194039.834000", "194039.837000", "194039.840000", "194039.844000", "194039.847000", "194039.850000", "194039.853000", "194039.857000", "194039.860000", "194119.773000", "194119.777000", "194119.780000", "194119.784000", "194119.787000", "194119.791000", "194119.794000", "194119.797000", "194119.800000", "194119.804000", "194119.820000", "194119.823000", "194119.827000", "194119.830000", "194119.833000", "194119.837000", "194119.840000", "194119.843000", "194119.847000", "194119.850000", "194119.853000", "194119.856000", "194119.860000", "194119.863000", "194119.866000", "194119.870000", "194119.873000", "194159.774000", "194159.777000", "194159.781000", "194159.784000", "194159.787000", "194159.791000", "194159.794000", "194159.797000", "194159.800000", "194159.804000", "194159.807000", "194159.810000", "194159.814000", "194159.817000", "194159.820000", "194159.824000", "194159.827000", "194159.830000", "194159.834000", "194159.837000", "194159.840000", "194159.843000", "194159.847000", "194159.850000", "194159.853000", "194159.857000", "194159.860000", "194239.773000", "194239.777000", "194239.780000", "194239.784000", "194239.787000", "194239.790000", "194239.794000", "194239.797000", "194239.800000", "194239.804000", "194239.807000", "194239.810000", "194239.814000", "194239.817000", "194239.820000", "194239.824000", "194239.827000", "194239.830000", "194239.834000", "194239.837000", "194239.840000", "194239.843000", "194239.847000", "194239.850000", "194239.853000", "194239.857000", "194239.860000", "194301.287000", "194301.291000", "194301.295000", "194301.298000", "194301.301000", "194301.304000", "194301.308000", "194301.311000", "194301.317000", "194301.320000", "194301.323000", "194301.327000", "194301.330000", "194301.333000"],
      "InstanceCreationTime": ["193619.836000", "193619.840000", "193619.844000", "193619.848000", "193619.851000", "193619.855000", "193619.858000", "193619.862000", "193619.865000", "193619.868000", "193619.872000", "193619.875000", "193619.878000", "193619.882000", "193619.885000", "193619.888000", "193619.892000", "193619.895000", "193619.898000", "193619.902000", "193619.905000", "193619.908000", "193619.912000", "193619.930000", "193619.933000", "193619.937000", "193619.940000", "193619.943000", "193619.947000", "193619.950000", "193619.953000", "193619.957000", "193619.960000", "193619.963000", "193619.967000", "193639.773000", "193639.777000", "193639.780000", "193639.784000", "193639.787000", "193639.790000", "193639.794000", "193639.797000", "193639.800000", "193639.803000", "193639.807000", "193639.810000", "193639.813000", "193639.817000", "193639.820000", "193639.823000", "193639.827000", "193639.830000", "193639.833000", "193639.837000", "193659.773000", "193659.777000", "193659.780000", "193659.784000", "193659.787000", "193659.790000", "193659.793000", "193659.797000", "193659.800000", "193659.803000", "193659.824000", "193659.827000", "193659.831000", "193659.834000", "193659.837000", "193659.840000", "193659.844000", "193659.847000", "193659.850000", "193659.853000", "193719.773000", "193719.777000", "193719.780000", "193719.783000", "193719.787000", "193719.790000", "193719.793000", "193719.797000", "193719.800000", "193719.804000", "193719.807000", "193719.810000", "193719.814000", "193719.817000", "193719.821000", "193719.824000", "193719.827000", "193719.831000", "193719.834000", "193719.837000", "193719.840000", "193759.773000", "193759.777000", "193759.780000", "193759.784000", "193759.787000", "193759.791000", "193759.794000", "193759.798000", "193759.801000", "193759.804000", "193759.808000", "193759.811000", "193759.814000", "193759.818000", "193759.821000", "193759.824000", "193759.828000", "193759.831000", "193759.834000", "193759.837000", "193759.841000", "193759.844000", "193759.847000", "193759.851000", "193759.854000", "193759.857000", "193759.860000", "193759.864000", "193839.773000", "193839.777000", "193839.780000", "193839.784000", "193839.787000", "193839.790000", "193839.794000", "193839.797000", "193839.800000", "193839.804000", "193839.807000", "193839.810000", "193839.813000", "193839.817000", "193839.820000", "193839.823000", "193839.827000", "193839.830000", "193839.833000", "193839.837000", "193839.840000", "193839.843000", "193839.847000", "193839.850000", "193839.853000", "193839.856000", "193839.860000", "193919.774000", "193919.777000", "193919.781000", "193919.784000", "193919.788000", "193919.791000", "193919.795000", "193919.798000", "193919.801000", "193919.805000", "193919.808000", "193919.811000", "193919.815000", "193919.818000", "193919.821000", "193919.825000", "193919.828000", "193919.831000", "193919.834000", "193919.838000", "193919.841000", "193919.844000", "193919.847000", "193919.851000", "193919.854000", "193919.857000", "193919.861000", "193959.772000", "193959.776000", "193959.779000", "193959.783000", "193959.786000", "193959.790000", "193959.793000", "193959.796000", "193959.800000", "193959.803000", "193959.806000", "193959.810000", "193959.813000", "193959.816000", "193959.820000", "193959.823000", "193959.826000", "193959.830000", "193959.833000", "193959.836000", "193959.840000", "193959.843000", "193959.846000", "193959.850000", "193959.853000", "193959.856000", "194039.773000", "194039.777000", "194039.780000", "194039.784000", "194039.787000", "194039.790000", "194039.794000", "194039.797000", "194039.800000", "194039.804000", "194039.807000", "194039.810000", "194039.814000", "194039.817000", "194039.820000", "194039.824000", "194039.827000", "194039.830000", "194039.834000", "194039.837000", "194039.840000", "194039.844000", "194039.847000", "194039.850000", "194039.853000", "194039.857000", "194039.860000", "194119.773000", "194119.777000", "194119.780000", "194119.784000", "194119.787000", "194119.791000", "194119.794000", "194119.797000", "194119.800000", "194119.804000", "194119.820000", "194119.823000", "194119.827000", "194119.830000", "194119.833000", "194119.837000", "194119.840000", "194119.843000", "194119.847000", "194119.850000", "194119.853000", "194119.856000", "194119.860000", "194119.863000", "194119.866000", "194119.870000", "194119.873000", "194159.774000", "194159.777000", "194159.781000", "194159.784000", "194159.787000", "194159.791000", "194159.794000", "194159.797000", "194159.800000", "194159.804000", "194159.807000", "194159.810000", "194159.814000", "194159.817000", "194159.820000", "194159.824000", "194159.827000", "194159.830000", "194159.834000", "194159.837000", "194159.840000", "194159.843000", "194159.847000", "194159.850000", "194159.853000", "194159.857000", "194159.860000", "194239.773000", "194239.777000", "194239.780000", "194239.784000", "194239.787000", "194239.790000", "194239.794000", "194239.797000", "194239.800000", "194239.804000", "194239.807000", "194239.810000", "194239.814000", "194239.817000", "194239.820000", "194239.824000", "194239.827000", "194239.830000", "194239.834000", "194239.837000", "194239.840000", "194239.843000", "194239.847000", "194239.850000", "194239.853000", "194239.857000", "194239.860000", "194301.287000", "194301.291000", "194301.295000", "194301.298000", "194301.301000", "194301.304000", "194301.308000", "194301.311000", "194301.317000", "194301.320000", "194301.323000", "194301.327000", "194301.330000", "194301.333000"],
      "InstanceNumber": [1, 2, 3, 4, 5, 6, 7, 8, 9, 10, 11, 12, 13, 14, 15, 16, 17, 18, 19, 20, 21, 22, 23, 24, 25, 26, 27, 28, 29, 30, 31, 32, 33, 34, 35, 36, 37, 38, 39, 40, 41, 42, 43, 44, 45, 46, 47, 48, 49, 50, 51, 52, 53, 54, 55, 56, 57, 58, 59, 60, 61, 62, 63, 64, 65, 66, 67, 68, 69, 70, 71, 72, 73, 74, 75, 76, 77, 78, 79, 80, 81, 82, 83, 84, 85, 86, 87, 88, 89, 90, 91, 92, 93, 94, 95, 96, 97, 98, 99, 100, 101, 102, 103, 104, 105, 106, 107, 108, 109, 110, 111, 112, 113, 114, 115, 116, 117, 118, 119, 120, 121, 122, 123, 124, 125, 126, 127, 128, 129, 130, 131, 132, 133, 134, 135, 136, 137, 138, 139, 140, 141, 142, 143, 144, 145, 146, 147, 148, 149, 150, 151, 152, 153, 154, 155, 156, 157, 158, 159, 160, 161, 162, 163, 164, 165, 166, 167, 168, 169, 170, 171, 172, 173, 174, 175, 176, 177, 178, 179, 180, 181, 182, 183, 184, 185, 186, 187, 188, 189, 190, 191, 192, 193, 194, 195, 196, 197, 198, 199, 200, 201, 202, 203, 204, 205, 206, 207, 208, 209, 210, 211, 212, 213, 214, 215, 216, 217, 218, 219, 220, 221, 222, 223, 224, 225, 226, 227, 228, 229, 230, 231, 232, 233, 234, 235, 236, 237, 238, 239, 240, 241, 242, 243, 244, 245, 246, 247, 248, 249, 250, 251, 252, 253, 254, 255, 256, 257, 258, 259, 260, 261, 262, 263, 264, 265, 266, 267, 268, 269, 270, 271, 272, 273, 274, 275, 276, 277, 278, 279, 280, 281, 282, 283, 284, 285, 286, 287, 288, 289, 290, 291, 292, 293, 294, 295, 296, 297, 298, 299, 300, 301, 302, 303, 304, 305, 306, 307, 308, 309, 310, 311, 312, 313, 314, 315, 316, 317, 318, 319, 320, 321, 322, 323, 324, 325, 326],
      "LargestImagePixelValue": [64558, 61469, 60484, 59996, 59827, 59771, 60481, 60338, 60128, 60130, 59914, 60099, 60462, 59175, 60031, 60129, 60023, 59525, 60104, 59738, 60449, 60715, 60683, 60182, 60309, 60637, 60105, 60863, 60286, 60115, 60583, 60912, 59567, 59722, 59869, 60325, 60210, 60103, 60891, 60135, 61004, 60245, 60762, 60751, 60603, 60270, 59901, 60666, 60709, 60287, 61229, 60569, 60093, 60932, 60462, 59790, 60672, 60145, 58622, 58879, 59538, 59490, 59494, 59328, 59692, 59282, 59193, 59612, 59451, 59661, 60777, 59572, 60216, 60208, 60573, 60450, 60659, 60177, 60700, 60573, 60305, 60268, 60746, 60084, 61045, 60397, 61226, 60276, 60334, 60013, 60334, 60603, 60663, 61252, 60968, 60651, 60785, 60931, 61142, 60693, 60753, 60569, 60668, 61521, 60248, 61049, 60979, 60424, 60567, 61087, 60559, 59929, 60968, 60660, 60310, 61247, 60612, 60833, 60614, 60372, 60546, 60009, 60247, 60157, 60316, 60366, 60080, 60778, 60521, 60397, 59781, 59957, 60283, 60149, 60571, 60093, 60041, 60048, 60321, 60151, 60133, 60100, 60009, 60065, 60340, 59523, 60060, 60575, 60233, 60290, 60209, 60025, 60332, 60026, 60547, 60328, 60103, 60523, 60319, 60600, 60534, 59914, 60100, 60177, 60675, 61846, 61094, 60239, 60934, 60217, 60553, 60691, 60139, 60335, 60540, 60662, 60281, 60546, 60388, 60544, 60295, 60265, 60335, 59672, 60435, 60442, 60144, 60864, 60581, 60846, 60514, 60741, 60356, 60611, 59991, 59896, 60091, 60067, 60264, 60085, 60159, 60000, 59831, 60800, 59819, 60312, 60465, 59919, 60417, 60409, 60119, 60680, 60009, 59962, 60322, 59986, 60364, 61062, 60384, 60540, 59820, 60848, 60467, 60530, 60421, 60605, 60547, 60344, 60536, 60376, 59870, 60294, 60123, 59299, 59615, 59429, 59457, 59168, 59034, 59724, 59462, 59539, 59043, 59008, 59833, 60099, 60087, 60926, 60296, 60862, 60378, 60488, 60014, 60358, 60163, 60775, 60468, 60192, 59962, 60277, 59964, 60586, 60660, 60350, 60335, 60151, 60684, 60642, 60922, 60742, 60639, 60806, 60857, 60917, 60909, 61715, 60921, 60909, 61055, 60409, 60728, 61099, 60855, 60854, 60602, 60740, 60913, 60478, 60993, 60035, 60406, 60469, 60311, 59891, 59926, 59960, 59713, 59561, 60019, 59807, 60588, 59180, 59618, 59486, 58730, 59613, 58563, 57969, 56365, 58318, 58279, 58672, 59063, 59483, 60328, 59680, 59591, 60161, 60049, 59950, 60630, 60312, 60675, 60566, 60502, 60870],
