{
  "AcquisitionMatrixPE": 104,
  "AcquisitionNumber": 1,
  "AcquisitionTime": "19:45:21.885000",
  "BandwidthPerPixelPhaseEncode": 17.17,
  "BaseResolution": 104,
  "BodyPartExamined": "BRAIN",
  "CoilCombinationMethod": "Sum of Squares",
  "ConsistencyInfo": "N4_VE11C_LATEST_20160120",
  "ConversionSoftware": "dcm2niix",
  "ConversionSoftwareVersion": "v1.0.20220505",
  "DerivedVendorReportedEchoSpacing": 0.000560011,
  "DeviceSerialNumber": "167006",
  "DwellTime": 2.1e-06,
  "EchoTime": 0.037,
  "EchoTrainLength": 104,
  "EffectiveEchoSpacing": 0.000560011,
  "FlipAngle": 52,
  "HeudiconvVersion": "0.5.3.post811+g6206e14",
  "ImageComments": "Unaliased MB4/PE3/LB",
  "ImageOrientationPatientDICOM": [0.999863, -0.0144349, 0.00811844, 0.0164053, 0.930407, -0.366161],
  "ImageOrientationText": "Tra>Cor(-21.5)>Sag(0.1)",
  "ImageType": [
    "ORIGINAL",
    "PRIMARY",
    "M",
    "MB",
    "ND",
    "MOSAIC"
],
  "ImagingFrequency": 123.26,
  "InPlanePhaseEncodingDirectionDICOM": "COL",
  "InstitutionAddress": "Chemin Queen-Mary 4565,Montreal,District,CA,H3W 1W5",
  "InstitutionName": "IUGM",
  "InstitutionalDepartmentName": "Department",
  "MRAcquisitionType": "2D",
  "MagneticFieldStrength": 3,
  "Manufacturer": "Siemens",
  "ManufacturersModelName": "Prisma_fit",
  "MatrixCoilMode": "SENSE",
  "Modality": "MR",
  "MultibandAccelerationFactor": 4,
  "PartialFourier": 1,
  "PatientPosition": "HFS",
  "PercentPhaseFOV": 100,
  "PercentSampling": 100,
  "PhaseEncodingDirection": "j",
  "PhaseEncodingSteps": 104,
  "PhaseResolution": 1,
  "PixelBandwidth": 2290,
  "ProcedureStepDescription": "games^mario3",
  "ProtocolName": "func_task-mario3_run-08",
  "PulseSequenceDetails": "%CustomerSeq%\\cmrr_mbep2d_bold",
  "ReceiveCoilActiveElements": "HC1-7;NC1,2",
  "ReceiveCoilName": "HeadNeck_64",
  "ReconMatrixPE": 104,
  "RepetitionTime": 1.49,
  "SAR": 0.0967074,
  "ScanOptions": "FS",
  "ScanningSequence": "EP",
  "SequenceName": "epfid2d1_104",
  "SequenceVariant": "SK\\SS",
  "SeriesDescription": "func_task-mario3_run-08",
  "SeriesNumber": 31,
  "ShimSetting": [599, -7261, -8811, 450, 13, -363, -8, 32],
  "SliceThickness": 2,
  "SliceTiming": [0, 0.7825, 0.0975, 0.88, 0.195, 0.98, 0.2925, 1.0775, 0.39, 1.175, 0.49, 1.2725, 0.5875, 1.37, 0.685, 0, 0.7825, 0.0975, 0.88, 0.195, 0.98, 0.2925, 1.0775, 0.39, 1.175, 0.49, 1.2725, 0.5875, 1.37, 0.685, 0, 0.7825, 0.0975, 0.88, 0.195, 0.98, 0.2925, 1.0775, 0.39, 1.175, 0.49, 1.2725, 0.5875, 1.37, 0.685, 0, 0.7825, 0.0975, 0.88, 0.195, 0.98, 0.2925, 1.0775, 0.39, 1.175, 0.49, 1.2725, 0.5875, 1.37, 0.685],
  "SoftwareVersions": "syngo MR E11",
  "SpacingBetweenSlices": 2,
  "StationName": "MRC35049",
  "TaskName": "mario3",
  "TotalReadoutTime": 0.0576811,
  "TxRefAmp": 322.451,
  "WipMemBlock": "0cfb78f7-fd37-4ed3-8283-11ea08dd0781||Sequence: R017 ve11c/master r/75a17815+; Jun 28 2022 16:32:11 by eja",
  "dcmmeta_affine": [
    [-1.9997256994247437, 0.03281054273247719, 0.0045358953066170216, 102.30154418945312],
    [0.028869876638054848, 1.8608139753341675, -0.7324873805046082, -69.79436492919922],
    [0.016236882656812668, 0.7323214411735535, 1.861032485961914, -63.09316635131836],
    [0.0, 0.0, 0.0, 1.0]
],
  "dcmmeta_reorient_transform": [
    [0.0, -1.0, 0.0, 103.0],
    [1.0, 0.0, 0.0, 0.0],
    [0.0, 0.0, 1.0, 0.0],
    [0.0, 0.0, 0.0, 1.0]
],
  "dcmmeta_shape": [104, 104, 60, 324],
  "dcmmeta_slice_dim": 2,
  "dcmmeta_version": 0.6,
  "global": {
    "const": {
      "AcquisitionMatrix": [104, 0, 0, 104],
      "AngioFlag": "N",
      "BitsAllocated": 16,
      "BitsStored": 16,
      "BodyPartExamined": "BRAIN",
      "Columns": 832,
      "EchoNumbers": 1,
      "EchoTime": 37.0,
      "EchoTrainLength": 104,
      "FlipAngle": 52.0,
      "HighBit": 15,
      "ImageOrientationPatient": [0.99986285233304, -0.0144349378815, 0.00811844152443, 0.01640527166881, 0.93040700226537, -0.3661607259074],
      "ImagePositionPatient": [-845.52422278047, -788.69713693136, 272.99072513179],
      "ImageType": [
        "ORIGINAL",
        "PRIMARY",
        "M",
        "MB",
        "ND",
        "MOSAIC"
],
      "ImagedNucleus": "1H",
      "ImagingFrequency": 123.26018,
      "InPlanePhaseEncodingDirection": "COL",
      "MRAcquisitionType": "2D",
      "MagneticFieldStrength": 3.0,
      "Manufacturer": "SIEMENS",
      "ManufacturerModelName": "Prisma_fit",
      "Modality": "MR",
      "NumberOfAverages": 1.0,
      "NumberOfPhaseEncodingSteps": 104,
      "PercentPhaseFieldOfView": 100.0,
      "PercentSampling": 100.0,
      "PerformedProcedureStepStartTime": "182341.927000",
      "PhotometricInterpretation": "MONOCHROME2",
      "PixelBandwidth": 2290.0,
      "PixelRepresentation": 0,
      "PixelSpacing": [2.0, 2.0],
      "ProtocolName": "func_task-mario3_run-08",
      "RepetitionTime": 1490.0,
      "Rows": 832,
      "SAR": 0.09670735822059,
      "SamplesPerPixel": 1,
      "ScanOptions": "FS",
      "ScanningSequence": "EP",
      "SequenceName": "epfid2d1_104",
      "SequenceVariant": [
        "SK",
        "SS"
],
      "SeriesDescription": "func_task-mario3_run-08",
      "SeriesNumber": 31,
      "SeriesTime": "194634.123000",
      "SliceLocation": -32.915453156998,
      "SliceThickness": 2.0,
      "SmallestImagePixelValue": 0,
      "SoftwareVersions": "syngo MR E11",
      "SpacingBetweenSlices": 2.0000000529304,
      "SpecificCharacterSet": "ISO_IR 100",
      "StudyID": "1",
      "StudyTime": "182341.858000",
      "TransmitCoilName": "Body",
      "VariableFlipAngleFlag": "N",
      "WindowCenterWidthExplanation": "Algo1",
      "dBdt": 0.0},
    "slices": {}
  },
  "time": {
    "samples": {
      "AcquisitionNumber": [1, 2, 3, 4, 5, 6, 7, 8, 9, 10, 11, 12, 13, 14, 15, 16, 17, 18, 19, 20, 21, 22, 23, 24, 25, 26, 27, 28, 29, 30, 31, 32, 33, 34, 35, 36, 37, 38, 39, 40, 41, 42, 43, 44, 45, 46, 47, 48, 49, 50, 51, 52, 53, 54, 55, 56, 57, 58, 59, 60, 61, 62, 63, 64, 65, 66, 67, 68, 69, 70, 71, 72, 73, 74, 75, 76, 77, 78, 79, 80, 81, 82, 83, 84, 85, 86, 87, 88, 89, 90, 91, 92, 93, 94, 95, 96, 97, 98, 99, 100, 101, 102, 103, 104, 105, 106, 107, 108, 109, 110, 111, 112, 113, 114, 115, 116, 117, 118, 119, 120, 121, 122, 123, 124, 125, 126, 127, 128, 129, 130, 131, 132, 133, 134, 135, 136, 137, 138, 139, 140, 141, 142, 143, 144, 145, 146, 147, 148, 149, 150, 151, 152, 153, 154, 155, 156, 157, 158, 159, 160, 161, 162, 163, 164, 165, 166, 167, 168, 169, 170, 171, 172, 173, 174, 175, 176, 177, 178, 179, 180, 181, 182, 183, 184, 185, 186, 187, 188, 189, 190, 191, 192, 193, 194, 195, 196, 197, 198, 199, 200, 201, 202, 203, 204, 205, 206, 207, 208, 209, 210, 211, 212, 213, 214, 215, 216, 217, 218, 219, 220, 221, 222, 223, 224, 225, 226, 227, 228, 229, 230, 231, 232, 233, 234, 235, 236, 237, 238, 239, 240, 241, 242, 243, 244, 245, 246, 247, 248, 249, 250, 251, 252, 253, 254, 255, 256, 257, 258, 259, 260, 261, 262, 263, 264, 265, 266, 267, 268, 269, 270, 271, 272, 273, 274, 275, 276, 277, 278, 279, 280, 281, 282, 283, 284, 285, 286, 287, 288, 289, 290, 291, 292, 293, 294, 295, 296, 297, 298, 299, 300, 301, 302, 303, 304, 305, 306, 307, 308, 309, 310, 311, 312, 313, 314, 315, 316, 317, 318, 319, 320, 321, 322, 323, 324],
      "AcquisitionTime": ["194521.885000", "194523.375000", "194524.865000", "194526.355000", "194527.845000", "194529.335000", "194530.825000", "194532.315000", "194533.805000", "194535.295000", "194536.785000", "194538.275000", "194539.765000", "194541.255000", "194542.745000", "194544.235000", "194545.725000", "194547.215000", "194548.705000", "194550.195000", "194551.685000", "194553.175000", "194554.665000", "194556.155000", "194557.645000", "194559.135000", "194600.625000", "194602.115000", "194603.605000", "194605.095000", "194606.585000", "194608.075000", "194609.565000", "194611.055000", "194612.545000", "194614.035000", "194615.525000", "194617.015000", "194618.505000", "194619.995000", "194621.485000", "194622.975000", "194624.465000", "194625.955000", "194627.445000", "194628.935000", "194630.425000", "194631.915000", "194633.405000", "194634.895000", "194636.385000", "194637.875000", "194639.365000", "194640.855000", "194642.345000", "194643.835000", "194645.325000", "194646.815000", "194648.305000", "194649.795000", "194651.285000", "194652.775000", "194654.265000", "194655.755000", "194657.245000", "194658.735000", "194700.225000", "194701.715000", "194703.205000", "194704.695000", "194706.185000", "194707.675000", "194709.165000", "194710.655000", "194712.145000", "194713.635000", "194715.125000", "194716.615000", "194718.105000", "194719.595000", "194721.085000", "194722.575000", "194724.065000", "194725.555000", "194727.045000", "194728.535000", "194730.025000", "194731.515000", "194733.005000", "194734.495000", "194735.985000", "194737.475000", "194738.965000", "194740.455000", "194741.945000", "194743.435000", "194744.925000", "194746.415000", "194747.905000", "194749.395000", "194750.885000", "194752.375000", "194753.865000", "194755.355000", "194756.845000", "194758.335000", "194759.825000", "194801.315000", "194802.805000", "194804.295000", "194805.785000", "194807.275000", "194808.765000", "194810.255000", "194811.745000", "194813.235000", "194814.725000", "194816.215000", "194817.705000", "194819.195000", "194820.685000", "194822.175000", "194823.665000", "194825.155000", "194826.645000", "194828.135000", "194829.625000", "194831.115000", "194832.605000", "194834.095000", "194835.585000", "194837.075000", "194838.565000", "194840.055000", "194841.545000", "194843.035000", "194844.525000", "194846.015000", "194847.505000", "194848.995000", "194850.485000", "194851.975000", "194853.465000", "194854.955000", "194856.445000", "194857.935000", "194859.425000", "194900.915000", "194902.405000", "194903.895000", "194905.385000", "194906.875000", "194908.365000", "194909.855000", "194911.345000", "194912.835000", "194914.325000", "194915.815000", "194917.305000", "194918.795000", "194920.285000", "194921.775000", "194923.265000", "194924.755000", "194926.245000", "194927.735000", "194929.225000", "194930.715000", "194932.205000", "194933.695000", "194935.185000", "194936.675000", "194938.165000", "194939.655000", "194941.145000", "194942.635000", "194944.125000", "194945.615000", "194947.105000", "194948.595000", "194950.085000", "194951.575000", "194953.065000", "194954.555000", "194956.045000", "194957.535000", "194959.025000", "195000.515000", "195002.005000", "195003.495000", "195004.985000", "195006.475000", "195007.965000", "195009.455000", "195010.945000", "195012.435000", "195013.925000", "195015.415000", "195016.905000", "195018.395000", "195019.885000", "195021.375000", "195022.865000", "195024.355000", "195025.845000", "195027.335000", "195028.825000", "195030.315000", "195031.805000", "195033.295000", "195034.785000", "195036.275000", "195037.765000", "195039.255000", "195040.745000", "195042.235000", "195043.725000", "195045.215000", "195046.705000", "195048.195000", "195049.685000", "195051.175000", "195052.665000", "195054.155000", "195055.645000", "195057.135000", "195058.625000", "195100.115000", "195101.605000", "195103.095000", "195104.585000", "195106.075000", "195107.565000", "195109.055000", "195110.545000", "195112.035000", "195113.525000", "195115.015000", "195116.505000", "195117.995000", "195119.485000", "195120.975000", "195122.465000", "195123.955000", "195125.445000", "195126.935000", "195128.425000", "195129.915000", "195131.405000", "195132.895000", "195134.385000", "195135.875000", "195137.365000", "195138.855000", "195140.345000", "195141.835000", "195143.325000", "195144.815000", "195146.305000", "195147.795000", "195149.285000", "195150.775000", "195152.265000", "195153.755000", "195155.245000", "195156.735000", "195158.225000", "195159.715000", "195201.205000", "195202.695000", "195204.185000", "195205.675000", "195207.165000", "195208.655000", "195210.145000", "195211.635000", "195213.125000", "195214.615000", "195216.105000", "195217.595000", "195219.085000", "195220.575000", "195222.065000", "195223.555000", "195225.045000", "195226.535000", "195228.025000", "195229.515000", "195231.005000", "195232.495000", "195233.985000", "195235.475000", "195236.965000", "195238.455000", "195239.945000", "195241.435000", "195242.925000", "195244.415000", "195245.905000", "195247.395000", "195248.885000", "195250.375000", "195251.865000", "195253.355000", "195254.845000", "195256.335000", "195257.825000", "195259.315000", "195300.805000", "195302.295000", "195303.785000", "195305.275000", "195306.765000", "195308.255000", "195309.745000", "195311.235000", "195312.725000", "195314.215000", "195315.705000", "195317.195000", "195318.685000", "195320.175000", "195321.665000", "195323.155000"],
      "ContentTime": ["194634.126000", "194634.130000", "194634.138000", "194634.141000", "194634.144000", "194634.147000", "194634.151000", "194634.154000", "194634.157000", "194634.160000", "194634.164000", "194634.167000", "194634.170000", "194634.173000", "194634.177000", "194634.180000", "194634.183000", "194634.187000", "194634.190000", "194634.193000", "194634.197000", "194634.200000", "194634.203000", "194654.077000", "194654.081000", "194654.084000", "194654.087000", "194654.091000", "194654.094000", "194654.097000", "194654.100000", "194654.104000", "194654.107000", "194654.110000", "194654.113000", "194654.117000", "194654.120000", "194654.123000", "194654.127000", "194654.130000", "194654.133000", "194654.136000", "194654.140000", "194714.077000", "194714.081000", "194714.084000", "194714.087000", "194714.091000", "194714.094000", "194714.097000", "194714.100000", "194714.104000", "194714.107000", "194714.110000", "194714.114000", "194714.117000", "194714.120000", "194714.123000", "194714.127000", "194714.130000", "194714.133000", "194714.136000", "194714.140000", "194734.077000", "194734.081000", "194734.084000", "194734.087000", "194734.091000", "194734.094000", "194734.097000", "194734.100000", "194734.104000", "194734.107000", "194734.110000", "194734.113000", "194734.117000", "194734.120000", "194734.123000", "194734.127000", "194734.130000", "194734.133000", "194734.136000", "194734.140000", "194814.078000", "194814.082000", "194814.085000", "194814.088000", "194814.092000", "194814.095000", "194814.098000", "194814.102000", "194814.105000", "194814.108000", "194814.111000", "194814.115000", "194814.118000", "194814.121000", "194814.134000", "194814.152000", "194814.156000", "194814.159000", "194814.162000", "194814.166000", "194814.169000", "194814.172000", "194814.176000", "194814.179000", "194814.182000", "194814.185000", "194814.189000", "194814.192000", "194814.195000", "194814.199000", "194814.202000", "194814.205000", "194854.077000", "194854.081000", "194854.084000", "194854.088000", "194854.091000", "194854.094000", "194854.098000", "194854.101000", "194854.104000", "194854.108000", "194854.111000", "194854.114000", "194854.118000", "194854.121000", "194854.124000", "194854.127000", "194854.131000", "194854.134000", "194854.137000", "194854.141000", "194854.144000", "194854.147000", "194854.151000", "194854.154000", "194854.157000", "194854.161000", "194934.077000", "194934.081000", "194934.084000", "194934.088000", "194934.091000", "194934.094000", "194934.098000", "194934.101000", "194934.104000", "194934.108000", "194934.111000", "194934.114000", "194934.117000", "194934.121000", "194934.124000", "194934.127000", "194934.139000", "194934.142000", "194934.145000", "194934.149000", "194934.152000", "194934.155000", "194934.158000", "194934.162000", "194934.165000", "194934.168000", "194934.171000", "195014.078000", "195014.082000", "195014.085000", "195014.089000", "195014.092000", "195014.095000", "195014.098000", "195014.102000", "195014.105000", "195014.108000", "195014.112000", "195014.115000", "195014.118000", "195014.122000", "195014.125000", "195014.128000", "195014.132000", "195014.135000", "195014.138000", "195014.141000", "195014.145000", "195014.148000", "195014.152000", "195014.155000", "195014.158000", "195014.161000", "195014.165000", "195054.077000", "195054.081000", "195054.084000", "195054.087000", "195054.091000", "195054.094000", "195054.097000", "195054.101000", "195054.104000", "195054.107000", "195054.111000", "195054.114000", "195054.117000", "195054.121000", "195054.124000", "195054.127000", "195054.130000", "195054.134000", "195054.137000", "195054.140000", "195054.143000", "195054.147000", "195054.150000", "195054.153000", "195054.157000", "195054.160000", "195054.163000", "195134.077000", "195134.081000", "195134.084000", "195134.087000", "195134.096000", "195134.099000", "195134.103000", "195134.106000", "195134.109000", "195134.112000", "195134.116000", "195134.119000", "195134.123000", "195134.126000", "195134.129000", "195134.132000", "195134.136000", "195134.139000", "195134.142000", "195134.146000", "195134.149000", "195134.152000", "195134.156000", "195134.159000", "195134.162000", "195134.166000", "195134.169000", "195154.077000", "195154.081000", "195154.084000", "195154.088000", "195154.091000", "195154.094000", "195154.098000", "195154.101000", "195154.104000", "195154.107000", "195154.111000", "195154.114000", "195154.117000", "195234.078000", "195234.082000", "195234.086000", "195234.089000", "195234.092000", "195234.096000", "195234.099000", "195234.103000", "195234.106000", "195234.110000", "195234.113000", "195234.118000", "195234.121000", "195234.125000", "195234.128000", "195234.131000", "195234.135000", "195234.138000", "195234.141000", "195234.145000", "195234.148000", "195234.151000", "195234.155000", "195234.158000", "195234.161000", "195234.165000", "195234.168000", "195314.077000", "195314.081000", "195314.084000", "195314.088000", "195314.091000", "195314.094000", "195314.097000", "195314.101000", "195314.104000", "195314.107000", "195314.111000", "195314.114000", "195314.117000", "195314.121000", "195314.124000", "195314.128000", "195314.131000", "195314.134000", "195314.138000", "195314.141000", "195314.144000", "195314.148000", "195314.151000", "195314.154000", "195314.158000", "195314.161000", "195314.164000", "195326.254000", "195326.258000", "195326.261000", "195326.264000", "195326.268000", "195326.271000", "195326.274000", "195326.278000"],
      "InstanceCreationTime": ["194634.126000", "194634.130000", "194634.138000", "194634.141000", "194634.144000", "194634.147000", "194634.151000", "194634.154000", "194634.157000", "194634.160000", "194634.164000", "194634.167000", "194634.170000", "194634.173000", "194634.177000", "194634.180000", "194634.183000", "194634.187000", "194634.190000", "194634.193000", "194634.197000", "194634.200000", "194634.203000", "194654.077000", "194654.081000", "194654.084000", "194654.087000", "194654.091000", "194654.094000", "194654.097000", "194654.100000", "194654.104000", "194654.107000", "194654.110000", "194654.113000", "194654.117000", "194654.120000", "194654.123000", "194654.127000", "194654.130000", "194654.133000", "194654.136000", "194654.140000", "194714.077000", "194714.081000", "194714.084000", "194714.087000", "194714.091000", "194714.094000", "194714.097000", "194714.100000", "194714.104000", "194714.107000", "194714.110000", "194714.114000", "194714.117000", "194714.120000", "194714.123000", "194714.127000", "194714.130000", "194714.133000", "194714.136000", "194714.140000", "194734.077000", "194734.081000", "194734.084000", "194734.087000", "194734.091000", "194734.094000", "194734.097000", "194734.100000", "194734.104000", "194734.107000", "194734.110000", "194734.113000", "194734.117000", "194734.120000", "194734.123000", "194734.127000", "194734.130000", "194734.133000", "194734.136000", "194734.140000", "194814.078000", "194814.082000", "194814.085000", "194814.088000", "194814.092000", "194814.095000", "194814.098000", "194814.102000", "194814.105000", "194814.108000", "194814.111000", "194814.115000", "194814.118000", "194814.121000", "194814.134000", "194814.152000", "194814.156000", "194814.159000", "194814.162000", "194814.166000", "194814.169000", "194814.172000", "194814.176000", "194814.179000", "194814.182000", "194814.185000", "194814.189000", "194814.192000", "194814.195000", "194814.199000", "194814.202000", "194814.205000", "194854.077000", "194854.081000", "194854.084000", "194854.088000", "194854.091000", "194854.094000", "194854.098000", "194854.101000", "194854.104000", "194854.108000", "194854.111000", "194854.114000", "194854.118000", "194854.121000", "194854.124000", "194854.127000", "194854.131000", "194854.134000", "194854.137000", "194854.141000", "194854.144000", "194854.147000", "194854.151000", "194854.154000", "194854.157000", "194854.161000", "194934.077000", "194934.081000", "194934.084000", "194934.088000", "194934.091000", "194934.094000", "194934.098000", "194934.101000", "194934.104000", "194934.108000", "194934.111000", "194934.114000", "194934.117000", "194934.121000", "194934.124000", "194934.127000", "194934.139000", "194934.142000", "194934.145000", "194934.149000", "194934.152000", "194934.155000", "194934.158000", "194934.162000", "194934.165000", "194934.168000", "194934.171000", "195014.078000", "195014.082000", "195014.085000", "195014.089000", "195014.092000", "195014.095000", "195014.098000", "195014.102000", "195014.105000", "195014.108000", "195014.112000", "195014.115000", "195014.118000", "195014.122000", "195014.125000", "195014.128000", "195014.132000", "195014.135000", "195014.138000", "195014.141000", "195014.145000", "195014.148000", "195014.152000", "195014.155000", "195014.158000", "195014.161000", "195014.165000", "195054.077000", "195054.081000", "195054.084000", "195054.087000", "195054.091000", "195054.094000", "195054.097000", "195054.101000", "195054.104000", "195054.107000", "195054.111000", "195054.114000", "195054.117000", "195054.121000", "195054.124000", "195054.127000", "195054.130000", "195054.134000", "195054.137000", "195054.140000", "195054.143000", "195054.147000", "195054.150000", "195054.153000", "195054.157000", "195054.160000", "195054.163000", "195134.077000", "195134.081000", "195134.084000", "195134.087000", "195134.096000", "195134.099000", "195134.103000", "195134.106000", "195134.109000", "195134.112000", "195134.116000", "195134.119000", "195134.123000", "195134.126000", "195134.129000", "195134.132000", "195134.136000", "195134.139000", "195134.142000", "195134.146000", "195134.149000", "195134.152000", "195134.156000", "195134.159000", "195134.162000", "195134.166000", "195134.169000", "195154.077000", "195154.081000", "195154.084000", "195154.088000", "195154.091000", "195154.094000", "195154.098000", "195154.101000", "195154.104000", "195154.107000", "195154.111000", "195154.114000", "195154.117000", "195234.078000", "195234.082000", "195234.086000", "195234.089000", "195234.092000", "195234.096000", "195234.099000", "195234.103000", "195234.106000", "195234.110000", "195234.113000", "195234.118000", "195234.121000", "195234.125000", "195234.128000", "195234.131000", "195234.135000", "195234.138000", "195234.141000", "195234.145000", "195234.148000", "195234.151000", "195234.155000", "195234.158000", "195234.161000", "195234.165000", "195234.168000", "195314.077000", "195314.081000", "195314.084000", "195314.088000", "195314.091000", "195314.094000", "195314.097000", "195314.101000", "195314.104000", "195314.107000", "195314.111000", "195314.114000", "195314.117000", "195314.121000", "195314.124000", "195314.128000", "195314.131000", "195314.134000", "195314.138000", "195314.141000", "195314.144000", "195314.148000", "195314.151000", "195314.154000", "195314.158000", "195314.161000", "195314.164000", "195326.254000", "195326.258000", "195326.261000", "195326.264000", "195326.268000", "195326.271000", "195326.274000", "195326.278000"],
      "InstanceNumber": [1, 2, 3, 4, 5, 6, 7, 8, 9, 10, 11, 12, 13, 14, 15, 16, 17, 18, 19, 20, 21, 22, 23, 24, 25, 26, 27, 28, 29, 30, 31, 32, 33, 34, 35, 36, 37, 38, 39, 40, 41, 42, 43, 44, 45, 46, 47, 48, 49, 50, 51, 52, 53, 54, 55, 56, 57, 58, 59, 60, 61, 62, 63, 64, 65, 66, 67, 68, 69, 70, 71, 72, 73, 74, 75, 76, 77, 78, 79, 80, 81, 82, 83, 84, 85, 86, 87, 88, 89, 90, 91, 92, 93, 94, 95, 96, 97, 98, 99, 100, 101, 102, 103, 104, 105, 106, 107, 108, 109, 110, 111, 112, 113, 114, 115, 116, 117, 118, 119, 120, 121, 122, 123, 124, 125, 126, 127, 128, 129, 130, 131, 132, 133, 134, 135, 136, 137, 138, 139, 140, 141, 142, 143, 144, 145, 146, 147, 148, 149, 150, 151, 152, 153, 154, 155, 156, 157, 158, 159, 160, 161, 162, 163, 164, 165, 166, 167, 168, 169, 170, 171, 172, 173, 174, 175, 176, 177, 178, 179, 180, 181, 182, 183, 184, 185, 186, 187, 188, 189, 190, 191, 192, 193, 194, 195, 196, 197, 198, 199, 200, 201, 202, 203, 204, 205, 206, 207, 208, 209, 210, 211, 212, 213, 214, 215, 216, 217, 218, 219, 220, 221, 222, 223, 224, 225, 226, 227, 228, 229, 230, 231, 232, 233, 234, 235, 236, 237, 238, 239, 240, 241, 242, 243, 244, 245, 246, 247, 248, 249, 250, 251, 252, 253, 254, 255, 256, 257, 258, 259, 260, 261, 262, 263, 264, 265, 266, 267, 268, 269, 270, 271, 272, 273, 274, 275, 276, 277, 278, 279, 280, 281, 282, 283, 284, 285, 286, 287, 288, 289, 290, 291, 292, 293, 294, 295, 296, 297, 298, 299, 300, 301, 302, 303, 304, 305, 306, 307, 308, 309, 310, 311, 312, 313, 314, 315, 316, 317, 318, 319, 320, 321, 322, 323, 324],
      "LargestImagePixelValue": [62909, 60920, 59805, 59808, 59620, 58898, 58813, 58774, 58505, 58086, 59143, 58367, 58372, 58356, 58586, 58784, 58542, 58592, 58791, 58802, 58785, 58663, 58650, 58480, 58130, 58601, 58518, 58273, 58242, 57730, 58384, 58253, 58063, 58511, 58034, 57603, 57226, 57119, 57955, 57608, 57573, 57123, 56659, 56521, 56056, 56105, 55885, 56083, 55600, 55332, 56012, 55293, 56170, 55192, 57156, 55875, 56129, 55155, 55271, 56191, 56058, 55959, 56204, 56528, 56609, 55953, 56051, 57096, 57629, 57522, 57843, 57293, 57613, 57500, 57973, 58047, 57709, 58611, 57673, 58009, 58207, 58098, 58347, 58752, 56647, 57326, 57338, 56987, 57713, 57059, 56652, 56833, 56486, 56753, 56848, 57201, 57419, 56870, 56725, 56886, 56895, 57716, 57130, 56612, 56415, 56362, 57197, 56283, 55727, 56418, 55837, 56711, 56284, 56959, 56615, 56336, 56409, 56891, 56224, 56417, 56407, 55981, 56036, 56221, 55914, 56251, 56060, 55553, 55521, 55287, 55456, 55841, 55212, 56039, 55497, 55175, 57017, 57421, 55958, 56015, 56240, 56037, 56285, 55823, 55476, 55659, 56037, 55687, 55894, 56037, 56207, 57305, 56594, 56191, 55979, 55674, 56718, 56559, 56187, 55686, 56001, 56749, 56803, 57165, 56601, 56172, 56129, 56423, 56173, 56779, 56968, 56772, 56633, 56752, 56810, 56863, 57036, 56592, 57425, 57656, 58077, 58278, 57187, 57078, 57335, 57238, 56904, 57757, 57372, 57443, 56851, 57023, 56961, 56662, 56701, 57066, 56373, 56456, 56920, 57119, 57315, 57358, 57406, 56231, 56156, 57151, 55944, 57511, 55959, 56190, 56233, 55713, 55331, 55139, 55442, 55148, 55210, 54682, 55549, 56703, 56082, 55867, 55803, 55643, 58753, 58284, 56092, 56385, 55811, 55866, 55411, 56635, 55810, 55665, 55786, 55499, 56145, 55916, 55710, 56104, 55902, 56872, 56833, 55859, 57230, 56668, 57016, 56452, 56797, 56375, 55863, 55441, 55377, 55931, 55528, 55789, 56003, 56440, 56133, 56824, 56211, 55468, 56728, 55375, 55609, 55434, 56440, 56338, 56802, 55906, 56275, 55923, 56016, 55260, 55660, 55582, 55224, 54977, 56050, 55310, 55424, 56449, 56012, 56508, 56454, 56326, 55423, 55571, 55891, 56015, 55641, 56157, 55960, 55306, 55892, 55880, 54651, 54815, 55229, 55458, 55700, 55203, 54750, 55237, 55164, 54966, 55684, 55173, 55506, 56313, 55837, 55166, 55402, 55642, 55190, 56453, 55682, 56308, 56773, 56726, 57083, 57199, 57058, 57687],
