{
  "AcquisitionMatrixPE": 104,
  "AcquisitionNumber": 1,
  "AcquisitionTime": "19:14:15.540000",
  "BandwidthPerPixelPhaseEncode": 17.17,
  "BaseResolution": 104,
  "BodyPartExamined": "BRAIN",
  "CoilCombinationMethod": "Sum of Squares",
  "ConsistencyInfo": "N4_VE11C_LATEST_20160120",
  "ConversionSoftware": "dcm2niix",
  "ConversionSoftwareVersion": "v1.0.20220505",
  "DerivedVendorReportedEchoSpacing": 0.000560011,
  "DeviceSerialNumber": "167006",
  "DwellTime": 2.1e-06,
  "EchoTime": 0.037,
  "EchoTrainLength": 104,
  "EffectiveEchoSpacing": 0.000560011,
  "FlipAngle": 52,
  "HeudiconvVersion": "0.5.3.post811+g6206e14",
  "ImageComments": "Unaliased MB4/PE3/LB",
  "ImageOrientationPatientDICOM": [0.999863, -0.0144349, 0.00811844, 0.0164053, 0.930407, -0.366161],
  "ImageOrientationText": "Tra>Cor(-21.5)>Sag(0.1)",
  "ImageType": [
    "ORIGINAL",
    "PRIMARY",
    "M",
    "MB",
    "ND",
    "MOSAIC"
],
  "ImagingFrequency": 123.26,
  "InPlanePhaseEncodingDirectionDICOM": "COL",
  "InstitutionAddress": "Chemin Queen-Mary 4565,Montreal,District,CA,H3W 1W5",
  "InstitutionName": "IUGM",
  "InstitutionalDepartmentName": "Department",
  "MRAcquisitionType": "2D",
  "MagneticFieldStrength": 3,
  "Manufacturer": "Siemens",
  "ManufacturersModelName": "Prisma_fit",
  "MatrixCoilMode": "SENSE",
  "Modality": "MR",
  "MultibandAccelerationFactor": 4,
  "PartialFourier": 1,
  "PatientPosition": "HFS",
  "PercentPhaseFOV": 100,
  "PercentSampling": 100,
  "PhaseEncodingDirection": "j",
  "PhaseEncodingSteps": 104,
  "PhaseResolution": 1,
  "PixelBandwidth": 2290,
  "ProcedureStepDescription": "games^mario3",
  "ProtocolName": "func_task-mario3_run-05",
  "PulseSequenceDetails": "%CustomerSeq%\\cmrr_mbep2d_bold",
  "ReceiveCoilActiveElements": "HC1-7;NC1,2",
  "ReceiveCoilName": "HeadNeck_64",
  "ReconMatrixPE": 104,
  "RepetitionTime": 1.49,
  "SAR": 0.0967074,
  "ScanOptions": "FS",
  "ScanningSequence": "EP",
  "SequenceName": "epfid2d1_104",
  "SequenceVariant": "SK\\SS",
  "SeriesDescription": "func_task-mario3_run-05",
  "SeriesNumber": 22,
  "ShimSetting": [599, -7261, -8811, 450, 13, -363, -8, 32],
  "SliceThickness": 2,
  "SliceTiming": [0, 0.785, 0.0975, 0.8825, 0.195, 0.98, 0.295, 1.0775, 0.3925, 1.175, 0.49, 1.2725, 0.5875, 1.3725, 0.685, 0, 0.785, 0.0975, 0.8825, 0.195, 0.98, 0.295, 1.0775, 0.3925, 1.175, 0.49, 1.2725, 0.5875, 1.3725, 0.685, 0, 0.785, 0.0975, 0.8825, 0.195, 0.98, 0.295, 1.0775, 0.3925, 1.175, 0.49, 1.2725, 0.5875, 1.3725, 0.685, 0, 0.785, 0.0975, 0.8825, 0.195, 0.98, 0.295, 1.0775, 0.3925, 1.175, 0.49, 1.2725, 0.5875, 1.3725, 0.685],
  "SoftwareVersions": "syngo MR E11",
  "SpacingBetweenSlices": 2,
  "StationName": "MRC35049",
  "TaskName": "mario3",
  "TotalReadoutTime": 0.0576811,
  "TxRefAmp": 322.451,
  "WipMemBlock": "a29f2b55-0d46-4763-bfaf-427a97eb2389||Sequence: R017 ve11c/master r/75a17815+; Jun 28 2022 16:32:11 by eja",
  "dcmmeta_affine": [
    [-1.9997256994247437, 0.03281054273247719, 0.0045358953066170216, 102.30154418945312],
    [0.028869876638054848, 1.8608139753341675, -0.7324873805046082, -69.79436492919922],
    [0.016236882656812668, 0.7323214411735535, 1.861032485961914, -63.09316635131836],
    [0.0, 0.0, 0.0, 1.0]
],
  "dcmmeta_reorient_transform": [
    [0.0, -1.0, 0.0, 103.0],
    [1.0, 0.0, 0.0, 0.0],
    [0.0, 0.0, 1.0, 0.0],
    [0.0, 0.0, 0.0, 1.0]
],
  "dcmmeta_shape": [104, 104, 60, 319],
  "dcmmeta_slice_dim": 2,
  "dcmmeta_version": 0.6,
  "global": {
    "const": {
      "AcquisitionMatrix": [104, 0, 0, 104],
      "AngioFlag": "N",
      "BitsAllocated": 16,
      "BitsStored": 16,
      "BodyPartExamined": "BRAIN",
      "Columns": 832,
      "EchoNumbers": 1,
      "EchoTime": 37.0,
      "EchoTrainLength": 104,
      "FlipAngle": 52.0,
      "HighBit": 15,
      "ImageOrientationPatient": [0.99986285233304, -0.0144349378815, 0.00811844152443, 0.01640527166881, 0.93040700226537, -0.3661607259074],
      "ImagePositionPatient": [-845.52422278047, -788.69713693136, 272.99072513179],
      "ImageType": [
        "ORIGINAL",
        "PRIMARY",
        "M",
        "MB",
        "ND",
        "MOSAIC"
],
      "ImagedNucleus": "1H",
      "ImagingFrequency": 123.26018,
      "InPlanePhaseEncodingDirection": "COL",
      "MRAcquisitionType": "2D",
      "MagneticFieldStrength": 3.0,
      "Manufacturer": "SIEMENS",
      "ManufacturerModelName": "Prisma_fit",
      "Modality": "MR",
      "NumberOfAverages": 1.0,
      "NumberOfPhaseEncodingSteps": 104,
      "PercentPhaseFieldOfView": 100.0,
      "PercentSampling": 100.0,
      "PerformedProcedureStepStartTime": "182341.927000",
      "PhotometricInterpretation": "MONOCHROME2",
      "PixelBandwidth": 2290.0,
      "PixelRepresentation": 0,
      "PixelSpacing": [2.0, 2.0],
      "ProtocolName": "func_task-mario3_run-05",
      "RepetitionTime": 1490.0,
      "Rows": 832,
      "SAR": 0.09670735822059,
      "SamplesPerPixel": 1,
      "ScanOptions": "FS",
      "ScanningSequence": "EP",
      "SequenceName": "epfid2d1_104",
      "SequenceVariant": [
        "SK",
        "SS"
],
      "SeriesDescription": "func_task-mario3_run-05",
      "SeriesNumber": 22,
      "SeriesTime": "191534.120000",
      "SliceLocation": -32.915453156998,
      "SliceThickness": 2.0,
      "SmallestImagePixelValue": 0,
      "SoftwareVersions": "syngo MR E11",
      "SpacingBetweenSlices": 2.0000000529304,
      "SpecificCharacterSet": "ISO_IR 100",
      "StudyID": "1",
      "StudyTime": "182341.858000",
      "TransmitCoilName": "Body",
      "VariableFlipAngleFlag": "N",
      "WindowCenterWidthExplanation": "Algo1",
      "dBdt": 0.0},
    "slices": {}
  },
  "time": {
    "samples": {
      "AcquisitionNumber": [1, 2, 3, 4, 5, 6, 7, 8, 9, 10, 11, 12, 13, 14, 15, 16, 17, 18, 19, 20, 21, 22, 23, 24, 25, 26, 27, 28, 29, 30, 31, 32, 33, 34, 35, 36, 37, 38, 39, 40, 41, 42, 43, 44, 45, 46, 47, 48, 49, 50, 51, 52, 53, 54, 55, 56, 57, 58, 59, 60, 61, 62, 63, 64, 65, 66, 67, 68, 69, 70, 71, 72, 73, 74, 75, 76, 77, 78, 79, 80, 81, 82, 83, 84, 85, 86, 87, 88, 89, 90, 91, 92, 93, 94, 95, 96, 97, 98, 99, 100, 101, 102, 103, 104, 105, 106, 107, 108, 109, 110, 111, 112, 113, 114, 115, 116, 117, 118, 119, 120, 121, 122, 123, 124, 125, 126, 127, 128, 129, 130, 131, 132, 133, 134, 135, 136, 137, 138, 139, 140, 141, 142, 143, 144, 145, 146, 147, 148, 149, 150, 151, 152, 153, 154, 155, 156, 157, 158, 159, 160, 161, 162, 163, 164, 165, 166, 167, 168, 169, 170, 171, 172, 173, 174, 175, 176, 177, 178, 179, 180, 181, 182, 183, 184, 185, 186, 187, 188, 189, 190, 191, 192, 193, 194, 195, 196, 197, 198, 199, 200, 201, 202, 203, 204, 205, 206, 207, 208, 209, 210, 211, 212, 213, 214, 215, 216, 217, 218, 219, 220, 221, 222, 223, 224, 225, 226, 227, 228, 229, 230, 231, 232, 233, 234, 235, 236, 237, 238, 239, 240, 241, 242, 243, 244, 245, 246, 247, 248, 249, 250, 251, 252, 253, 254, 255, 256, 257, 258, 259, 260, 261, 262, 263, 264, 265, 266, 267, 268, 269, 270, 271, 272, 273, 274, 275, 276, 277, 278, 279, 280, 281, 282, 283, 284, 285, 286, 287, 288, 289, 290, 291, 292, 293, 294, 295, 296, 297, 298, 299, 300, 301, 302, 303, 304, 305, 306, 307, 308, 309, 310, 311, 312, 313, 314, 315, 316, 317, 318, 319],
      "AcquisitionTime": ["191415.540000", "191417.030000", "191418.520000", "191420.010000", "191421.500000", "191422.990000", "191424.480000", "191425.970000", "191427.460000", "191428.950000", "191430.440000", "191431.930000", "191433.420000", "191434.910000", "191436.400000", "191437.890000", "191439.380000", "191440.870000", "191442.360000", "191443.850000", "191445.340000", "191446.830000", "191448.320000", "191449.810000", "191451.300000", "191452.790000", "191454.280000", "191455.770000", "191457.260000", "191458.750000", "191500.240000", "191501.730000", "191503.220000", "191504.710000", "191506.200000", "191507.690000", "191509.180000", "191510.670000", "191512.160000", "191513.650000", "191515.140000", "191516.630000", "191518.120000", "191519.610000", "191521.100000", "191522.590000", "191524.080000", "191525.570000", "191527.060000", "191528.550000", "191530.040000", "191531.530000", "191533.020000", "191534.510000", "191536.000000", "191537.490000", "191538.980000", "191540.470000", "191541.960000", "191543.450000", "191544.940000", "191546.430000", "191547.920000", "191549.410000", "191550.900000", "191552.390000", "191553.880000", "191555.370000", "191556.860000", "191558.350000", "191559.840000", "191601.330000", "191602.820000", "191604.310000", "191605.800000", "191607.290000", "191608.780000", "191610.270000", "191611.760000", "191613.250000", "191614.740000", "191616.230000", "191617.720000", "191619.210000", "191620.700000", "191622.190000", "191623.680000", "191625.170000", "191626.660000", "191628.150000", "191629.640000", "191631.130000", "191632.620000", "191634.110000", "191635.600000", "191637.090000", "191638.580000", "191640.070000", "191641.560000", "191643.050000", "191644.540000", "191646.030000", "191647.520000", "191649.010000", "191650.500000", "191651.990000", "191653.480000", "191654.970000", "191656.460000", "191657.950000", "191659.440000", "191700.930000", "191702.420000", "191703.910000", "191705.400000", "191706.890000", "191708.380000", "191709.870000", "191711.360000", "191712.850000", "191714.340000", "191715.830000", "191717.320000", "191718.810000", "191720.300000", "191721.790000", "191723.280000", "191724.770000", "191726.260000", "191727.750000", "191729.240000", "191730.730000", "191732.220000", "191733.710000", "191735.200000", "191736.690000", "191738.180000", "191739.670000", "191741.160000", "191742.650000", "191744.140000", "191745.630000", "191747.120000", "191748.610000", "191750.100000", "191751.590000", "191753.080000", "191754.570000", "191756.060000", "191757.550000", "191759.040000", "191800.530000", "191802.020000", "191803.510000", "191805.000000", "191806.490000", "191807.980000", "191809.470000", "191810.960000", "191812.450000", "191813.940000", "191815.430000", "191816.920000", "191818.410000", "191819.900000", "191821.390000", "191822.880000", "191824.370000", "191825.860000", "191827.350000", "191828.840000", "191830.330000", "191831.820000", "191833.310000", "191834.800000", "191836.290000", "191837.780000", "191839.270000", "191840.760000", "191842.250000", "191843.740000", "191845.230000", "191846.720000", "191848.210000", "191849.700000", "191851.190000", "191852.680000", "191854.170000", "191855.660000", "191857.150000", "191858.640000", "191900.130000", "191901.620000", "191903.110000", "191904.600000", "191906.090000", "191907.580000", "191909.070000", "191910.560000", "191912.050000", "191913.540000", "191915.030000", "191916.520000", "191918.010000", "191919.500000", "191920.990000", "191922.480000", "191923.970000", "191925.460000", "191926.950000", "191928.440000", "191929.930000", "191931.420000", "191932.910000", "191934.400000", "191935.890000", "191937.380000", "191938.870000", "191940.360000", "191941.850000", "191943.340000", "191944.830000", "191946.320000", "191947.810000", "191949.300000", "191950.790000", "191952.280000", "191953.770000", "191955.260000", "191956.750000", "191958.240000", "191959.730000", "192001.220000", "192002.710000", "192004.200000", "192005.690000", "192007.180000", "192008.670000", "192010.160000", "192011.650000", "192013.140000", "192014.630000", "192016.120000", "192017.610000", "192019.100000", "192020.590000", "192022.080000", "192023.570000", "192025.060000", "192026.550000", "192028.040000", "192029.530000", "192031.020000", "192032.510000", "192034.000000", "192035.490000", "192036.980000", "192038.470000", "192039.960000", "192041.450000", "192042.940000", "192044.430000", "192045.920000", "192047.410000", "192048.900000", "192050.390000", "192051.880000", "192053.370000", "192054.860000", "192056.350000", "192057.840000", "192059.330000", "192100.820000", "192102.310000", "192103.800000", "192105.290000", "192106.780000", "192108.270000", "192109.760000", "192111.250000", "192112.740000", "192114.230000", "192115.720000", "192117.210000", "192118.700000", "192120.190000", "192121.680000", "192123.170000", "192124.660000", "192126.150000", "192127.640000", "192129.130000", "192130.620000", "192132.110000", "192133.600000", "192135.090000", "192136.580000", "192138.070000", "192139.560000", "192141.050000", "192142.540000", "192144.030000", "192145.520000", "192147.010000", "192148.500000", "192149.990000", "192151.480000", "192152.970000", "192154.460000", "192155.950000", "192157.440000", "192158.930000", "192200.420000", "192201.910000", "192203.400000", "192204.890000", "192206.380000", "192207.870000", "192209.360000"],
      "ContentTime": ["191534.123000", "191534.126000", "191534.130000", "191534.133000", "191534.136000", "191534.140000", "191534.148000", "191534.151000", "191534.155000", "191534.158000", "191534.161000", "191534.164000", "191534.168000", "191534.171000", "191534.174000", "191534.177000", "191534.181000", "191534.184000", "191534.187000", "191534.191000", "191534.194000", "191534.197000", "191534.201000", "191534.204000", "191534.207000", "191534.210000", "191534.214000", "191534.217000", "191534.220000", "191554.078000", "191554.082000", "191554.085000", "191554.088000", "191554.091000", "191554.095000", "191554.107000", "191554.110000", "191554.113000", "191554.116000", "191554.120000", "191554.123000", "191554.127000", "191554.130000", "191554.133000", "191554.137000", "191554.140000", "191554.143000", "191554.146000", "191554.150000", "191614.077000", "191614.081000", "191614.084000", "191614.087000", "191614.091000", "191614.094000", "191614.097000", "191614.100000", "191614.104000", "191614.107000", "191614.110000", "191614.114000", "191614.117000", "191614.120000", "191614.123000", "191614.127000", "191614.130000", "191614.133000", "191614.137000", "191614.140000", "191634.077000", "191634.081000", "191634.084000", "191634.087000", "191634.091000", "191634.094000", "191634.097000", "191634.100000", "191634.104000", "191634.107000", "191634.123000", "191634.126000", "191634.129000", "191634.132000", "191634.136000", "191634.139000", "191634.142000", "191634.146000", "191634.149000", "191634.152000", "191714.077000", "191714.081000", "191714.084000", "191714.087000", "191714.091000", "191714.094000", "191714.097000", "191714.101000", "191714.104000", "191714.115000", "191714.118000", "191714.121000", "191714.124000", "191714.128000", "191714.131000", "191714.134000", "191714.137000", "191714.141000", "191714.144000", "191714.147000", "191714.151000", "191714.154000", "191714.157000", "191714.160000", "191714.164000", "191714.167000", "191714.170000", "191714.173000", "191714.177000", "191714.180000", "191754.078000", "191754.082000", "191754.085000", "191754.088000", "191754.092000", "191754.095000", "191754.098000", "191754.102000", "191754.105000", "191754.108000", "191754.111000", "191754.129000", "191754.133000", "191754.136000", "191754.139000", "191754.142000", "191754.146000", "191754.149000", "191754.153000", "191754.156000", "191754.159000", "191754.162000", "191754.166000", "191754.169000", "191754.172000", "191754.175000", "191754.179000", "191834.077000", "191834.081000", "191834.084000", "191834.088000", "191834.091000", "191834.094000", "191834.097000", "191834.101000", "191834.104000", "191834.108000", "191834.111000", "191834.115000", "191834.119000", "191834.124000", "191834.128000", "191834.132000", "191834.135000", "191834.139000", "191834.142000", "191834.145000", "191834.149000", "191834.152000", "191834.155000", "191834.158000", "191834.162000", "191834.165000", "191914.077000", "191914.081000", "191914.084000", "191914.088000", "191914.091000", "191914.095000", "191914.098000", "191914.101000", "191914.104000", "191914.108000", "191914.111000", "191914.114000", "191914.118000", "191914.121000", "191914.124000", "191914.127000", "191914.131000", "191914.134000", "191914.137000", "191914.141000", "191914.144000", "191914.147000", "191914.151000", "191914.154000", "191914.157000", "191914.160000", "191914.164000", "191954.077000", "191954.081000", "191954.084000", "191954.087000", "191954.091000", "191954.094000", "191954.097000", "191954.101000", "191954.104000", "191954.107000", "191954.111000", "191954.114000", "191954.117000", "191954.120000", "191954.124000", "191954.127000", "191954.130000", "191954.134000", "191954.137000", "191954.140000", "191954.143000", "191954.147000", "191954.150000", "191954.153000", "191954.157000", "191954.161000", "191954.164000", "192034.092000", "192034.096000", "192034.099000", "192034.102000", "192034.106000", "192034.109000", "192034.112000", "192034.115000", "192034.119000", "192034.122000", "192034.125000", "192034.129000", "192034.132000", "192034.135000", "192034.139000", "192034.142000", "192034.145000", "192034.149000", "192034.152000", "192034.155000", "192034.158000", "192034.162000", "192034.165000", "192034.168000", "192034.172000", "192034.175000", "192034.178000", "192114.077000", "192114.081000", "192114.084000", "192114.087000", "192114.091000", "192114.094000", "192114.097000", "192114.101000", "192114.104000", "192114.107000", "192114.112000", "192114.116000", "192114.119000", "192114.122000", "192114.126000", "192114.129000", "192114.132000", "192114.136000", "192114.139000", "192114.142000", "192114.146000", "192114.149000", "192114.152000", "192114.155000", "192114.159000", "192114.162000", "192114.165000", "192154.077000", "192154.081000", "192154.084000", "192154.088000", "192154.091000", "192154.094000", "192154.097000", "192154.101000", "192154.104000", "192154.107000", "192154.111000", "192154.114000", "192154.117000", "192154.121000", "192154.124000", "192154.127000", "192154.130000", "192154.134000", "192154.137000", "192154.140000", "192154.144000", "192154.147000", "192154.150000", "192154.153000", "192154.157000", "192154.160000", "192154.163000", "192213.043000", "192213.047000", "192213.050000", "192213.054000", "192213.057000", "192213.060000", "192213.064000", "192213.067000", "192213.070000", "192213.073000", "192213.077000", "192213.080000"],
      "InstanceCreationTime": ["191534.123000", "191534.126000", "191534.130000", "191534.133000", "191534.136000", "191534.140000", "191534.148000", "191534.151000", "191534.155000", "191534.158000", "191534.161000", "191534.164000", "191534.168000", "191534.171000", "191534.174000", "191534.177000", "191534.181000", "191534.184000", "191534.187000", "191534.191000", "191534.194000", "191534.197000", "191534.201000", "191534.204000", "191534.207000", "191534.210000", "191534.214000", "191534.217000", "191534.220000", "191554.078000", "191554.082000", "191554.085000", "191554.088000", "191554.091000", "191554.095000", "191554.107000", "191554.110000", "191554.113000", "191554.116000", "191554.120000", "191554.123000", "191554.127000", "191554.130000", "191554.133000", "191554.137000", "191554.140000", "191554.143000", "191554.146000", "191554.150000", "191614.077000", "191614.081000", "191614.084000", "191614.087000", "191614.091000", "191614.094000", "191614.097000", "191614.100000", "191614.104000", "191614.107000", "191614.110000", "191614.114000", "191614.117000", "191614.120000", "191614.123000", "191614.127000", "191614.130000", "191614.133000", "191614.137000", "191614.140000", "191634.077000", "191634.081000", "191634.084000", "191634.087000", "191634.091000", "191634.094000", "191634.097000", "191634.100000", "191634.104000", "191634.107000", "191634.123000", "191634.126000", "191634.129000", "191634.132000", "191634.136000", "191634.139000", "191634.142000", "191634.146000", "191634.149000", "191634.152000", "191714.077000", "191714.081000", "191714.084000", "191714.087000", "191714.091000", "191714.094000", "191714.097000", "191714.101000", "191714.104000", "191714.115000", "191714.118000", "191714.121000", "191714.124000", "191714.128000", "191714.131000", "191714.134000", "191714.137000", "191714.141000", "191714.144000", "191714.147000", "191714.151000", "191714.154000", "191714.157000", "191714.160000", "191714.164000", "191714.167000", "191714.170000", "191714.173000", "191714.177000", "191714.180000", "191754.078000", "191754.082000", "191754.085000", "191754.088000", "191754.092000", "191754.095000", "191754.098000", "191754.102000", "191754.105000", "191754.108000", "191754.111000", "191754.129000", "191754.133000", "191754.136000", "191754.139000", "191754.142000", "191754.146000", "191754.149000", "191754.153000", "191754.156000", "191754.159000", "191754.162000", "191754.166000", "191754.169000", "191754.172000", "191754.175000", "191754.179000", "191834.077000", "191834.081000", "191834.084000", "191834.088000", "191834.091000", "191834.094000", "191834.097000", "191834.101000", "191834.104000", "191834.108000", "191834.111000", "191834.115000", "191834.119000", "191834.124000", "191834.128000", "191834.132000", "191834.135000", "191834.139000", "191834.142000", "191834.145000", "191834.149000", "191834.152000", "191834.155000", "191834.158000", "191834.162000", "191834.165000", "191914.077000", "191914.081000", "191914.084000", "191914.088000", "191914.091000", "191914.095000", "191914.098000", "191914.101000", "191914.104000", "191914.108000", "191914.111000", "191914.114000", "191914.118000", "191914.121000", "191914.124000", "191914.127000", "191914.131000", "191914.134000", "191914.137000", "191914.141000", "191914.144000", "191914.147000", "191914.151000", "191914.154000", "191914.157000", "191914.160000", "191914.164000", "191954.077000", "191954.081000", "191954.084000", "191954.087000", "191954.091000", "191954.094000", "191954.097000", "191954.101000", "191954.104000", "191954.107000", "191954.111000", "191954.114000", "191954.117000", "191954.120000", "191954.124000", "191954.127000", "191954.130000", "191954.134000", "191954.137000", "191954.140000", "191954.143000", "191954.147000", "191954.150000", "191954.153000", "191954.157000", "191954.161000", "191954.164000", "192034.092000", "192034.096000", "192034.099000", "192034.102000", "192034.106000", "192034.109000", "192034.112000", "192034.115000", "192034.119000", "192034.122000", "192034.125000", "192034.129000", "192034.132000", "192034.135000", "192034.139000", "192034.142000", "192034.145000", "192034.149000", "192034.152000", "192034.155000", "192034.158000", "192034.162000", "192034.165000", "192034.168000", "192034.172000", "192034.175000", "192034.178000", "192114.077000", "192114.081000", "192114.084000", "192114.087000", "192114.091000", "192114.094000", "192114.097000", "192114.101000", "192114.104000", "192114.107000", "192114.112000", "192114.116000", "192114.119000", "192114.122000", "192114.126000", "192114.129000", "192114.132000", "192114.136000", "192114.139000", "192114.142000", "192114.146000", "192114.149000", "192114.152000", "192114.155000", "192114.159000", "192114.162000", "192114.165000", "192154.077000", "192154.081000", "192154.084000", "192154.088000", "192154.091000", "192154.094000", "192154.097000", "192154.101000", "192154.104000", "192154.107000", "192154.111000", "192154.114000", "192154.117000", "192154.121000", "192154.124000", "192154.127000", "192154.130000", "192154.134000", "192154.137000", "192154.140000", "192154.144000", "192154.147000", "192154.150000", "192154.153000", "192154.157000", "192154.160000", "192154.163000", "192213.043000", "192213.047000", "192213.050000", "192213.054000", "192213.057000", "192213.060000", "192213.064000", "192213.067000", "192213.070000", "192213.073000", "192213.077000", "192213.080000"],
      "InstanceNumber": [1, 2, 3, 4, 5, 6, 7, 8, 9, 10, 11, 12, 13, 14, 15, 16, 17, 18, 19, 20, 21, 22, 23, 24, 25, 26, 27, 28, 29, 30, 31, 32, 33, 34, 35, 36, 37, 38, 39, 40, 41, 42, 43, 44, 45, 46, 47, 48, 49, 50, 51, 52, 53, 54, 55, 56, 57, 58, 59, 60, 61, 62, 63, 64, 65, 66, 67, 68, 69, 70, 71, 72, 73, 74, 75, 76, 77, 78, 79, 80, 81, 82, 83, 84, 85, 86, 87, 88, 89, 90, 91, 92, 93, 94, 95, 96, 97, 98, 99, 100, 101, 102, 103, 104, 105, 106, 107, 108, 109, 110, 111, 112, 113, 114, 115, 116, 117, 118, 119, 120, 121, 122, 123, 124, 125, 126, 127, 128, 129, 130, 131, 132, 133, 134, 135, 136, 137, 138, 139, 140, 141, 142, 143, 144, 145, 146, 147, 148, 149, 150, 151, 152, 153, 154, 155, 156, 157, 158, 159, 160, 161, 162, 163, 164, 165, 166, 167, 168, 169, 170, 171, 172, 173, 174, 175, 176, 177, 178, 179, 180, 181, 182, 183, 184, 185, 186, 187, 188, 189, 190, 191, 192, 193, 194, 195, 196, 197, 198, 199, 200, 201, 202, 203, 204, 205, 206, 207, 208, 209, 210, 211, 212, 213, 214, 215, 216, 217, 218, 219, 220, 221, 222, 223, 224, 225, 226, 227, 228, 229, 230, 231, 232, 233, 234, 235, 236, 237, 238, 239, 240, 241, 242, 243, 244, 245, 246, 247, 248, 249, 250, 251, 252, 253, 254, 255, 256, 257, 258, 259, 260, 261, 262, 263, 264, 265, 266, 267, 268, 269, 270, 271, 272, 273, 274, 275, 276, 277, 278, 279, 280, 281, 282, 283, 284, 285, 286, 287, 288, 289, 290, 291, 292, 293, 294, 295, 296, 297, 298, 299, 300, 301, 302, 303, 304, 305, 306, 307, 308, 309, 310, 311, 312, 313, 314, 315, 316, 317, 318, 319],
      "LargestImagePixelValue": [62251, 60867, 59422, 59336, 58969, 59744, 59314, 58587, 58538, 58324, 58114, 58000, 58205, 58206, 57957, 57565, 57731, 57512, 57949, 57862, 57630, 57010, 57044, 57415, 56665, 56637, 56409, 56898, 56721, 56642, 57331, 57138, 56865, 57041, 56756, 56781, 56706, 56592, 56702, 57560, 56997, 57971, 57492, 57866, 57486, 56975, 56616, 56923, 57133, 57161, 57211, 57045, 57537, 56762, 56692, 57099, 56764, 57329, 57024, 57128, 57493, 58348, 57167, 58111, 57452, 57160, 57457, 57542, 58201, 57279, 57388, 57980, 57306, 57883, 57616, 57390, 56936, 57215, 57843, 57393, 57062, 56967, 57292, 56931, 57177, 57053, 57109, 56782, 57260, 56190, 55983, 56426, 55750, 56732, 56545, 56352, 56728, 56283, 56778, 56344, 56601, 56193, 56759, 56953, 56539, 57501, 57101, 56927, 56870, 56469, 57252, 56697, 56695, 56894, 55756, 56847, 57087, 56040, 56367, 55861, 56259, 56484, 56391, 56113, 56589, 56602, 56811, 57764, 56903, 57020, 57251, 57108, 56977, 57862, 57421, 57401, 57473, 57172, 56842, 57574, 57062, 56773, 56905, 57384, 56928, 56563, 56183, 56374, 56679, 56710, 56787, 56070, 57157, 56725, 56775, 56210, 56221, 56228, 56536, 56023, 56317, 56209, 56614, 56220, 56562, 56743, 57184, 56694, 56971, 56070, 55916, 56139, 56923, 56136, 57667, 57517, 56350, 56097, 58027, 59655, 57629, 57558, 58111, 58016, 56485, 57168, 56068, 56019, 56488, 56757, 57116, 56071, 56217, 55711, 55287, 56289, 56727, 59553, 57775, 56944, 55760, 56622, 55903, 56164, 55202, 54486, 55048, 54998, 55253, 55069, 55631, 54940, 55235, 55633, 55909, 55914, 55706, 55908, 55187, 55964, 55818, 55718, 55800, 56208, 55748, 56022, 56030, 55829, 56890, 56194, 56213, 56498, 55707, 55729, 56142, 56025, 55826, 56185, 55277, 55885, 55612, 55408, 55478, 56658, 56203, 55961, 56140, 56192, 56166, 55875, 55986, 56126, 56396, 56925, 56124, 55816, 55721, 56200, 56562, 56359, 55828, 55573, 55285, 55438, 56882, 55523, 55051, 55049, 55755, 55601, 54965, 55345, 54875, 54595, 54262, 53909, 53607, 54080, 55026, 54149, 53573, 53983, 54206, 53865, 53877, 54151, 54077, 55446, 54108, 54155, 53897, 53809, 53804, 54247, 54300, 54311, 54253, 54072, 54678, 54405, 54354, 54190, 54691, 54094, 54458, 55114, 54455, 54955, 55194, 55075, 54957, 54859, 54726, 55113, 54772, 55060, 54828, 54988, 55131],
