{
  "AcquisitionMatrixPE": 104,
  "AcquisitionNumber": 1,
  "AcquisitionTime": "19:35:31.477500",
  "BandwidthPerPixelPhaseEncode": 17.17,
  "BaseResolution": 104,
  "BodyPartExamined": "BRAIN",
  "CoilCombinationMethod": "Sum of Squares",
  "ConsistencyInfo": "N4_VE11C_LATEST_20160120",
  "ConversionSoftware": "dcm2niix",
  "ConversionSoftwareVersion": "v1.0.20220505",
  "DerivedVendorReportedEchoSpacing": 0.000560011,
  "DeviceSerialNumber": "167006",
  "DwellTime": 2.1e-06,
  "EchoTime": 0.037,
  "EchoTime1": 0.037,
  "EchoTime2": 0.001,
  "EchoTrainLength": 104,
  "EffectiveEchoSpacing": 0.000560011,
  "FlipAngle": 52,
  "HeudiconvVersion": "0.5.3.post811+g6206e14",
  "ImageComments": "Unaliased MB4/PE3/LB",
  "ImageOrientationPatientDICOM": [0.999757, 0.00248157, 0.021882, 0.00610732, 0.923415, -0.383756],
  "ImageOrientationText": "Tra>Cor(-22.6)>Sag(1.2)",
  "ImageType": [
    "ORIGINAL",
    "PRIMARY",
    "P",
    "MB",
    "ND",
    "MOSAIC",
    "PHASE"
],
  "ImagingFrequency": 123.259,
  "InPlanePhaseEncodingDirectionDICOM": "COL",
  "InstitutionAddress": "Chemin Queen-Mary 4565,Montreal,District,CA,H3W 1W5",
  "InstitutionName": "IUGM",
  "InstitutionalDepartmentName": "Department",
  "MRAcquisitionType": "2D",
  "MagneticFieldStrength": 3,
  "Manufacturer": "Siemens",
  "ManufacturersModelName": "Prisma_fit",
  "MatrixCoilMode": "SENSE",
  "Modality": "MR",
  "MultibandAccelerationFactor": 4,
  "PartialFourier": 1,
  "PatientPosition": "HFS",
  "PercentPhaseFOV": 100,
  "PercentSampling": 100,
  "PhaseEncodingDirection": "j",
  "PhaseEncodingSteps": 104,
  "PhaseResolution": 1,
  "PixelBandwidth": 2290,
  "ProcedureStepDescription": "games^mario3",
  "ProtocolName": "func_task-mario3_run-06",
  "PulseSequenceDetails": "%CustomerSeq%\\cmrr_mbep2d_bold",
  "ReceiveCoilActiveElements": "HC1-7;NC1,2",
  "ReceiveCoilName": "HeadNeck_64",
  "ReconMatrixPE": 104,
  "RepetitionTime": 1.49,
  "SAR": 0.0856788,
  "ScanOptions": "FS",
  "ScanningSequence": "EP",
  "SequenceName": "epfid2d1_104",
  "SequenceVariant": "SK\\SS",
  "SeriesDescription": "func_task-mario3_run-06",
  "SeriesNumber": 26,
  "ShimSetting": [587, -7295, -8810, 404, 24, -363, -45, 95],
  "SliceThickness": 2,
  "SliceTiming": [0, 0.785, 0.0975, 0.8825, 0.1975, 0.98, 0.295, 1.0775, 0.3925, 1.1775, 0.49, 1.275, 0.5875, 1.3725, 0.6875, 0, 0.785, 0.0975, 0.8825, 0.1975, 0.98, 0.295, 1.0775, 0.3925, 1.1775, 0.49, 1.275, 0.5875, 1.3725, 0.6875, 0, 0.785, 0.0975, 0.8825, 0.1975, 0.98, 0.295, 1.0775, 0.3925, 1.1775, 0.49, 1.275, 0.5875, 1.3725, 0.6875, 0, 0.785, 0.0975, 0.8825, 0.1975, 0.98, 0.295, 1.0775, 0.3925, 1.1775, 0.49, 1.275, 0.5875, 1.3725, 0.6875],
  "SoftwareVersions": "syngo MR E11",
  "SpacingBetweenSlices": 2,
  "StationName": "MRC35049",
  "TaskName": "mario3",
  "TotalReadoutTime": 0.0576811,
  "TxRefAmp": 309.502,
  "WipMemBlock": "3298d805-d2ed-43fe-9b61-713cbc939200||Sequence: R017 ve11c/master r/75a17815+; Jun 28 2022 16:32:11 by eja",
  "dcmmeta_affine": [
    [-1.9995149374008179, 0.012214635498821735, 0.04231701418757439, 103.10347747802734],
    [-0.00496314000338316, 1.8468290567398071, -0.7675923109054565, -67.98622131347656],
    [0.04376407712697983, 0.7675111293792725, 1.8463507890701294, -64.58615112304688],
    [0.0, 0.0, 0.0, 1.0]
],
  "dcmmeta_reorient_transform": [
    [0.0, -1.0, 0.0, 103.0],
    [1.0, 0.0, 0.0, 0.0],
    [0.0, 0.0, 1.0, 0.0],
    [0.0, 0.0, 0.0, 1.0]
],
  "dcmmeta_shape": [104, 104, 60, 452],
  "dcmmeta_slice_dim": 2,
  "dcmmeta_version": 0.6,
  "global": {
    "const": {
      "AcquisitionMatrix": [104, 0, 0, 104],
      "AngioFlag": "N",
      "BitsAllocated": 16,
      "BitsStored": 16,
      "BodyPartExamined": "BRAIN",
      "Columns": 832,
      "EchoNumbers": 1,
      "EchoTime": 37.0,
      "EchoTrainLength": 104,
      "FlipAngle": 52.0,
      "HighBit": 15,
      "ImageOrientationPatient": [0.99975747970292, 0.00248156988835, 0.02188203804397, 0.00610731767702, 0.92341450962169, -0.3837555785796],
      "ImagePositionPatient": [-836.63115835605, -796.28951169361, 277.91143686391],
      "ImageType": [
        "ORIGINAL",
        "PRIMARY",
        "P",
        "MB",
        "ND",
        "MOSAIC"
],
      "ImagedNucleus": "1H",
      "ImagingFrequency": 123.259129,
      "InPlanePhaseEncodingDirection": "COL",
      "LargestImagePixelValue": 4095,
      "MRAcquisitionType": "2D",
      "MagneticFieldStrength": 3.0,
      "Manufacturer": "SIEMENS",
      "ManufacturerModelName": "Prisma_fit",
      "Modality": "MR",
      "NumberOfAverages": 1.0,
      "NumberOfPhaseEncodingSteps": 104,
      "PercentPhaseFieldOfView": 100.0,
      "PercentSampling": 100.0,
      "PerformedProcedureStepStartTime": "183820.357000",
      "PhotometricInterpretation": "MONOCHROME2",
      "PixelBandwidth": 2290.0,
      "PixelRepresentation": 0,
      "PixelSpacing": [2.0, 2.0],
      "ProtocolName": "func_task-mario3_run-06",
      "RepetitionTime": 1490.0,
      "RescaleIntercept": -4096.0,
      "RescaleSlope": 2.0,
      "RescaleType": "US",
      "Rows": 832,
      "SAR": 0.08567879929513,
      "SamplesPerPixel": 1,
      "ScanOptions": "FS",
      "ScanningSequence": "EP",
      "SequenceName": "epfid2d1_104",
      "SequenceVariant": [
        "SK",
        "SS"
],
      "SeriesDescription": "func_task-mario3_run-06",
      "SeriesNumber": 26,
      "SeriesTime": "193652.680000",
      "SliceLocation": -31.349978674553,
      "SliceThickness": 2.0,
      "SmallestImagePixelValue": 0,
      "SoftwareVersions": "syngo MR E11",
      "SpacingBetweenSlices": 2.0000000078129,
      "SpecificCharacterSet": "ISO_IR 100",
      "StudyID": "1",
      "StudyTime": "183820.284000",
      "TransmitCoilName": "Body",
      "VariableFlipAngleFlag": "N",
      "WindowCenterWidthExplanation": "Algo1",
      "dBdt": 0.0},
    "slices": {}
  },
  "time": {
    "samples": {
      "AcquisitionNumber": [1, 2, 3, 4, 5, 6, 7, 8, 9, 10, 11, 12, 13, 14, 15, 16, 17, 18, 19, 20, 21, 22, 23, 24, 25, 26, 27, 28, 29, 30, 31, 32, 33, 34, 35, 36, 37, 38, 39, 40, 41, 42, 43, 44, 45, 46, 47, 48, 49, 50, 51, 52, 53, 54, 55, 56, 57, 58, 59, 60, 61, 62, 63, 64, 65, 66, 67, 68, 69, 70, 71, 72, 73, 74, 75, 76, 77, 78, 79, 80, 81, 82, 83, 84, 85, 86, 87, 88, 89, 90, 91, 92, 93, 94, 95, 96, 97, 98, 99, 100, 101, 102, 103, 104, 105, 106, 107, 108, 109, 110, 111, 112, 113, 114, 115, 116, 117, 118, 119, 120, 121, 122, 123, 124, 125, 126, 127, 128, 129, 130, 131, 132, 133, 134, 135, 136, 137, 138, 139, 140, 141, 142, 143, 144, 145, 146, 147, 148, 149, 150, 151, 152, 153, 154, 155, 156, 157, 158, 159, 160, 161, 162, 163, 164, 165, 166, 167, 168, 169, 170, 171, 172, 173, 174, 175, 176, 177, 178, 179, 180, 181, 182, 183, 184, 185, 186, 187, 188, 189, 190, 191, 192, 193, 194, 195, 196, 197, 198, 199, 200, 201, 202, 203, 204, 205, 206, 207, 208, 209, 210, 211, 212, 213, 214, 215, 216, 217, 218, 219, 220, 221, 222, 223, 224, 225, 226, 227, 228, 229, 230, 231, 232, 233, 234, 235, 236, 237, 238, 239, 240, 241, 242, 243, 244, 245, 246, 247, 248, 249, 250, 251, 252, 253, 254, 255, 256, 257, 258, 259, 260, 261, 262, 263, 264, 265, 266, 267, 268, 269, 270, 271, 272, 273, 274, 275, 276, 277, 278, 279, 280, 281, 282, 283, 284, 285, 286, 287, 288, 289, 290, 291, 292, 293, 294, 295, 296, 297, 298, 299, 300, 301, 302, 303, 304, 305, 306, 307, 308, 309, 310, 311, 312, 313, 314, 315, 316, 317, 318, 319, 320, 321, 322, 323, 324, 325, 326, 327, 328, 329, 330, 331, 332, 333, 334, 335, 336, 337, 338, 339, 340, 341, 342, 343, 344, 345, 346, 347, 348, 349, 350, 351, 352, 353, 354, 355, 356, 357, 358, 359, 360, 361, 362, 363, 364, 365, 366, 367, 368, 369, 370, 371, 372, 373, 374, 375, 376, 377, 378, 379, 380, 381, 382, 383, 384, 385, 386, 387, 388, 389, 390, 391, 392, 393, 394, 395, 396, 397, 398, 399, 400, 401, 402, 403, 404, 405, 406, 407, 408, 409, 410, 411, 412, 413, 414, 415, 416, 417, 418, 419, 420, 421, 422, 423, 424, 425, 426, 427, 428, 429, 430, 431, 432, 433, 434, 435, 436, 437, 438, 439, 440, 441, 442, 443, 444, 445, 446, 447, 448, 449, 450, 451, 452],
      "AcquisitionTime": ["193531.477500", "193532.967500", "193534.457500", "193535.947500", "193537.437500", "193538.927500", "193540.417500", "193541.907500", "193543.397500", "193544.887500", "193546.377500", "193547.867500", "193549.357500", "193550.847500", "193552.337500", "193553.827500", "193555.317500", "193556.807500", "193558.297500", "193559.787500", "193601.277500", "193602.767500", "193604.257500", "193605.747500", "193607.237500", "193608.727500", "193610.217500", "193611.707500", "193613.197500", "193614.687500", "193616.177500", "193617.667500", "193619.157500", "193620.647500", "193622.137500", "193623.627500", "193625.117500", "193626.607500", "193628.097500", "193629.587500", "193631.077500", "193632.567500", "193634.057500", "193635.547500", "193637.037500", "193638.527500", "193640.017500", "193641.507500", "193642.997500", "193644.487500", "193645.977500", "193647.467500", "193648.957500", "193650.447500", "193651.937500", "193653.427500", "193654.917500", "193656.407500", "193657.897500", "193659.387500", "193700.877500", "193702.367500", "193703.857500", "193705.347500", "193706.837500", "193708.327500", "193709.817500", "193711.307500", "193712.797500", "193714.287500", "193715.777500", "193717.267500", "193718.757500", "193720.247500", "193721.737500", "193723.227500", "193724.717500", "193726.207500", "193727.697500", "193729.187500", "193730.677500", "193732.167500", "193733.657500", "193735.147500", "193736.637500", "193738.127500", "193739.617500", "193741.107500", "193742.597500", "193744.087500", "193745.577500", "193747.067500", "193748.557500", "193750.047500", "193751.537500", "193753.027500", "193754.517500", "193756.007500", "193757.497500", "193758.987500", "193800.477500", "193801.967500", "193803.457500", "193804.947500", "193806.437500", "193807.927500", "193809.417500", "193810.907500", "193812.397500", "193813.887500", "193815.377500", "193816.867500", "193818.357500", "193819.847500", "193821.337500", "193822.827500", "193824.317500", "193825.807500", "193827.297500", "193828.787500", "193830.277500", "193831.767500", "193833.257500", "193834.747500", "193836.237500", "193837.727500", "193839.217500", "193840.707500", "193842.197500", "193843.687500", "193845.177500", "193846.667500", "193848.157500", "193849.647500", "193851.137500", "193852.627500", "193854.117500", "193855.607500", "193857.097500", "193858.587500", "193900.077500", "193901.567500", "193903.057500", "193904.547500", "193906.037500", "193907.527500", "193909.017500", "193910.507500", "193911.997500", "193913.487500", "193914.977500", "193916.467500", "193917.957500", "193919.447500", "193920.937500", "193922.427500", "193923.917500", "193925.407500", "193926.897500", "193928.387500", "193929.877500", "193931.367500", "193932.857500", "193934.347500", "193935.837500", "193937.327500", "193938.817500", "193940.307500", "193941.797500", "193943.287500", "193944.777500", "193946.267500", "193947.757500", "193949.247500", "193950.737500", "193952.227500", "193953.717500", "193955.207500", "193956.697500", "193958.187500", "193959.677500", "194001.167500", "194002.657500", "194004.147500", "194005.637500", "194007.127500", "194008.617500", "194010.107500", "194011.597500", "194013.087500", "194014.577500", "194016.067500", "194017.557500", "194019.047500", "194020.537500", "194022.027500", "194023.517500", "194025.007500", "194026.497500", "194027.987500", "194029.477500", "194030.967500", "194032.457500", "194033.947500", "194035.437500", "194036.927500", "194038.417500", "194039.907500", "194041.397500", "194042.887500", "194044.377500", "194045.867500", "194047.357500", "194048.847500", "194050.337500", "194051.827500", "194053.317500", "194054.807500", "194056.297500", "194057.787500", "194059.277500", "194100.767500", "194102.257500", "194103.747500", "194105.237500", "194106.727500", "194108.217500", "194109.707500", "194111.197500", "194112.687500", "194114.177500", "194115.667500", "194117.157500", "194118.647500", "194120.137500", "194121.627500", "194123.117500", "194124.607500", "194126.097500", "194127.587500", "194129.077500", "194130.567500", "194132.057500", "194133.547500", "194135.037500", "194136.527500", "194138.017500", "194139.507500", "194140.997500", "194142.487500", "194143.977500", "194145.467500", "194146.957500", "194148.447500", "194149.937500", "194151.427500", "194152.917500", "194154.407500", "194155.897500", "194157.387500", "194158.877500", "194200.367500", "194201.857500", "194203.347500", "194204.837500", "194206.327500", "194207.817500", "194209.307500", "194210.797500", "194212.287500", "194213.777500", "194215.267500", "194216.757500", "194218.247500", "194219.737500", "194221.227500", "194222.717500", "194224.207500", "194225.697500", "194227.187500", "194228.677500", "194230.167500", "194231.657500", "194233.147500", "194234.637500", "194236.127500", "194237.617500", "194239.107500", "194240.597500", "194242.087500", "194243.577500", "194245.067500", "194246.557500", "194248.047500", "194249.537500", "194251.027500", "194252.517500", "194254.007500", "194255.497500", "194256.987500", "194258.477500", "194259.967500", "194301.457500", "194302.947500", "194304.437500", "194305.927500", "194307.417500", "194308.907500", "194310.397500", "194311.887500", "194313.377500", "194314.867500", "194316.357500", "194317.847500", "194319.337500", "194320.827500", "194322.317500", "194323.807500", "194325.297500", "194326.787500", "194328.277500", "194329.767500", "194331.257500", "194332.747500", "194334.237500", "194335.727500", "194337.217500", "194338.707500", "194340.197500", "194341.687500", "194343.177500", "194344.667500", "194346.157500", "194347.647500", "194349.137500", "194350.627500", "194352.117500", "194353.607500", "194355.097500", "194356.587500", "194358.077500", "194359.567500", "194401.057500", "194402.547500", "194404.037500", "194405.527500", "194407.017500", "194408.507500", "194409.997500", "194411.487500", "194412.977500", "194414.467500", "194415.957500", "194417.447500", "194418.937500", "194420.427500", "194421.917500", "194423.407500", "194424.897500", "194426.387500", "194427.877500", "194429.367500", "194430.857500", "194432.347500", "194433.837500", "194435.327500", "194436.817500", "194438.307500", "194439.797500", "194441.287500", "194442.777500", "194444.267500", "194445.757500", "194447.247500", "194448.737500", "194450.227500", "194451.717500", "194453.207500", "194454.697500", "194456.187500", "194457.677500", "194459.167500", "194500.657500", "194502.147500", "194503.637500", "194505.127500", "194506.617500", "194508.107500", "194509.597500", "194511.087500", "194512.577500", "194514.067500", "194515.557500", "194517.047500", "194518.537500", "194520.027500", "194521.517500", "194523.007500", "194524.497500", "194525.987500", "194527.477500", "194528.967500", "194530.457500", "194531.947500", "194533.437500", "194534.927500", "194536.417500", "194537.907500", "194539.397500", "194540.887500", "194542.377500", "194543.867500", "194545.357500", "194546.847500", "194548.337500", "194549.827500", "194551.317500", "194552.807500", "194554.297500", "194555.787500", "194557.277500", "194558.767500", "194600.257500", "194601.747500", "194603.237500", "194604.727500", "194606.217500", "194607.707500", "194609.197500", "194610.687500", "194612.177500", "194613.667500", "194615.157500", "194616.647500", "194618.137500", "194619.627500", "194621.117500", "194622.607500", "194624.097500", "194625.587500", "194627.077500", "194628.567500", "194630.057500", "194631.547500", "194633.037500", "194634.527500", "194636.017500", "194637.507500", "194638.997500", "194640.487500", "194641.977500", "194643.467500"],
      "ContentTime": ["193652.682000", "193652.685000", "193652.688000", "193652.690000", "193652.693000", "193652.703000", "193652.706000", "193652.708000", "193652.711000", "193652.713000", "193652.716000", "193652.718000", "193652.721000", "193652.723000", "193652.726000", "193652.728000", "193652.731000", "193652.733000", "193652.736000", "193652.738000", "193652.741000", "193652.743000", "193652.746000", "193652.749000", "193652.751000", "193652.754000", "193652.756000", "193652.759000", "193652.761000", "193652.764000", "193652.766000", "193712.599000", "193712.602000", "193712.605000", "193712.607000", "193712.610000", "193712.612000", "193712.615000", "193712.617000", "193712.620000", "193712.623000", "193712.625000", "193712.628000", "193712.630000", "193712.641000", "193712.643000", "193712.646000", "193712.648000", "193712.651000", "193712.653000", "193712.656000", "193732.594000", "193732.596000", "193732.599000", "193732.601000", "193732.604000", "193732.607000", "193732.609000", "193732.612000", "193732.614000", "193732.617000", "193732.619000", "193732.622000", "193732.624000", "193732.627000", "193732.630000", "193732.632000", "193732.635000", "193732.637000", "193732.640000", "193732.642000", "193752.598000", "193752.601000", "193752.604000", "193752.606000", "193752.609000", "193752.611000", "193752.614000", "193752.616000", "193752.619000", "193752.622000", "193752.624000", "193752.627000", "193752.629000", "193752.632000", "193752.634000", "193752.637000", "193752.639000", "193752.642000", "193752.644000", "193752.647000", "193832.635000", "193832.638000", "193832.640000", "193832.643000", "193832.645000", "193832.648000", "193832.650000", "193832.653000", "193832.656000", "193832.658000", "193832.661000", "193832.663000", "193832.666000", "193832.668000", "193832.671000", "193832.673000", "193832.676000", "193832.679000", "193832.681000", "193832.684000", "193832.686000", "193832.689000", "193832.691000", "193832.695000", "193832.698000", "193832.700000", "193832.703000", "193832.705000", "193832.708000", "193912.642000", "193912.645000", "193912.647000", "193912.650000", "193912.653000", "193912.655000", "193912.658000", "193912.660000", "193912.663000", "193912.665000", "193912.668000", "193912.670000", "193912.673000", "193912.676000", "193912.678000", "193912.681000", "193912.683000", "193912.686000", "193912.688000", "193912.691000", "193912.693000", "193912.696000", "193912.699000", "193912.701000", "193912.704000", "193912.706000", "193912.709000", "193952.634000", "193952.636000", "193952.639000", "193952.642000", "193952.644000", "193952.647000", "193952.649000", "193952.652000", "193952.654000", "193952.657000", "193952.660000", "193952.662000", "193952.665000", "193952.667000", "193952.670000", "193952.672000", "193952.675000", "193952.677000", "193952.680000", "193952.682000", "193952.685000", "193952.687000", "193952.690000", "193952.693000", "193952.695000", "193952.698000", "193952.700000", "194032.613000", "194032.616000", "194032.618000", "194032.621000", "194032.623000", "194032.626000", "194032.628000", "194032.631000", "194032.634000", "194032.636000", "194032.639000", "194032.641000", "194032.644000", "194032.646000", "194032.649000", "194032.651000", "194032.654000", "194032.656000", "194032.659000", "194032.661000", "194032.664000", "194032.667000", "194032.669000", "194032.672000", "194032.674000", "194032.677000", "194032.679000", "194112.643000", "194112.646000", "194112.649000", "194112.651000", "194112.654000", "194112.656000", "194112.659000", "194112.662000", "194112.664000", "194112.667000", "194112.669000", "194112.672000", "194112.674000", "194112.677000", "194112.679000", "194112.682000", "194112.684000", "194112.687000", "194112.690000", "194112.692000", "194112.695000", "194112.697000", "194112.700000", "194112.702000", "194112.705000", "194112.708000", "194112.710000", "194152.617000", "194152.619000", "194152.622000", "194152.624000", "194152.627000", "194152.636000", "194152.638000", "194152.641000", "194152.643000", "194152.646000", "194152.648000", "194152.651000", "194152.653000", "194152.656000", "194152.658000", "194152.661000", "194152.664000", "194152.666000", "194152.669000", "194152.671000", "194152.674000", "194152.676000", "194152.679000", "194152.682000", "194152.684000", "194152.687000", "194232.630000", "194232.633000", "194232.635000", "194232.638000", "194232.641000", "194232.643000", "194232.646000", "194232.648000", "194232.651000", "194232.653000", "194232.656000", "194232.658000", "194232.661000", "194232.663000", "194232.666000", "194232.668000", "194232.671000", "194232.674000", "194232.676000", "194232.679000", "194232.681000", "194232.684000", "194232.686000", "194232.689000", "194232.692000", "194232.694000", "194232.697000", "194312.626000", "194312.629000", "194312.632000", "194312.634000", "194312.637000", "194312.639000", "194312.642000", "194312.645000", "194312.647000", "194312.650000", "194312.652000", "194312.655000", "194312.657000", "194312.660000", "194312.663000", "194312.665000", "194312.668000", "194312.670000", "194312.673000", "194312.675000", "194312.678000", "194312.680000", "194312.683000", "194312.685000", "194312.688000", "194312.690000", "194312.693000", "194352.634000", "194352.637000", "194352.640000", "194352.642000", "194352.645000", "194352.648000", "194352.650000", "194352.653000", "194352.655000", "194352.658000", "194352.660000", "194352.663000", "194352.666000", "194352.668000", "194352.671000", "194352.673000", "194352.676000", "194352.678000", "194352.681000", "194352.683000", "194352.686000", "194352.688000", "194352.691000", "194352.694000", "194352.696000", "194352.699000", "194352.701000", "194412.559000", "194412.562000", "194412.564000", "194412.567000", "194412.570000", "194412.572000", "194412.575000", "194412.577000", "194412.580000", "194412.583000", "194412.585000", "194412.588000", "194412.590000", "194453.030000", "194453.033000", "194453.036000", "194453.038000", "194453.041000", "194453.043000", "194453.046000", "194453.048000", "194453.051000", "194453.054000", "194453.056000", "194453.059000", "194453.061000", "194453.064000", "194453.066000", "194453.069000", "194453.072000", "194453.074000", "194453.077000", "194453.079000", "194453.082000", "194453.084000", "194453.087000", "194453.089000", "194453.092000", "194453.094000", "194453.097000", "194532.639000", "194532.642000", "194532.645000", "194532.647000", "194532.650000", "194532.652000", "194532.655000", "194532.657000", "194532.660000", "194532.662000", "194532.665000", "194532.667000", "194532.670000", "194532.672000", "194532.675000", "194532.678000", "194532.680000", "194532.683000", "194532.685000", "194532.688000", "194532.690000", "194532.693000", "194532.695000", "194532.698000", "194532.700000", "194532.703000", "194532.706000", "194612.624000", "194612.627000", "194612.630000", "194612.632000", "194612.635000", "194612.638000", "194612.640000", "194612.643000", "194612.645000", "194612.648000", "194612.650000", "194612.653000", "194612.655000", "194612.658000", "194612.661000", "194612.664000", "194612.667000", "194612.669000", "194612.672000", "194612.674000", "194612.677000", "194612.679000", "194612.682000", "194612.684000", "194612.687000", "194612.690000", "194612.692000", "194647.444000", "194647.447000", "194647.449000", "194647.452000", "194647.454000", "194647.457000", "194647.460000", "194647.462000", "194647.465000", "194647.468000", "194647.470000", "194647.473000", "194647.475000", "194647.478000", "194647.480000", "194647.483000", "194647.486000", "194647.488000", "194647.491000", "194647.493000", "194647.496000", "194647.498000", "194647.501000"],
