{
  "AcquisitionMatrixPE": 104,
  "AcquisitionNumber": 1,
  "AcquisitionTime": "19:26:6.755000",
  "BandwidthPerPixelPhaseEncode": 17.17,
  "BaseResolution": 104,
  "BodyPartExamined": "BRAIN",
  "CoilCombinationMethod": "Sum of Squares",
  "ConsistencyInfo": "N4_VE11C_LATEST_20160120",
  "ConversionSoftware": "dcm2niix",
  "ConversionSoftwareVersion": "v1.0.20220505",
  "DerivedVendorReportedEchoSpacing": 0.000560011,
  "DeviceSerialNumber": "167006",
  "DwellTime": 2.1e-06,
  "EchoTime": 0.037,
  "EchoTime1": 0.037,
  "EchoTime2": 0.001,
  "EchoTrainLength": 104,
  "EffectiveEchoSpacing": 0.000560011,
  "FlipAngle": 52,
  "HeudiconvVersion": "0.5.3.post811+g6206e14",
  "ImageComments": "Unaliased MB4/PE3/LB",
  "ImageOrientationPatientDICOM": [0.999757, 0.00248157, 0.021882, 0.00610732, 0.923415, -0.383756],
  "ImageOrientationText": "Tra>Cor(-22.6)>Sag(1.2)",
  "ImageType": [
    "ORIGINAL",
    "PRIMARY",
    "P",
    "MB",
    "ND",
    "MOSAIC",
    "PHASE"
],
  "ImagingFrequency": 123.259,
  "InPlanePhaseEncodingDirectionDICOM": "COL",
  "InstitutionAddress": "Chemin Queen-Mary 4565,Montreal,District,CA,H3W 1W5",
  "InstitutionName": "IUGM",
  "InstitutionalDepartmentName": "Department",
  "MRAcquisitionType": "2D",
  "MagneticFieldStrength": 3,
  "Manufacturer": "Siemens",
  "ManufacturersModelName": "Prisma_fit",
  "MatrixCoilMode": "SENSE",
  "Modality": "MR",
  "MultibandAccelerationFactor": 4,
  "PartialFourier": 1,
  "PatientPosition": "HFS",
  "PercentPhaseFOV": 100,
  "PercentSampling": 100,
  "PhaseEncodingDirection": "j",
  "PhaseEncodingSteps": 104,
  "PhaseResolution": 1,
  "PixelBandwidth": 2290,
  "ProcedureStepDescription": "games^mario3",
  "ProtocolName": "func_task-mario3_run-05",
  "PulseSequenceDetails": "%CustomerSeq%\\cmrr_mbep2d_bold",
  "ReceiveCoilActiveElements": "HC1-7;NC1,2",
  "ReceiveCoilName": "HeadNeck_64",
  "ReconMatrixPE": 104,
  "RepetitionTime": 1.49,
  "SAR": 0.0856788,
  "ScanOptions": "FS",
  "ScanningSequence": "EP",
  "SequenceName": "epfid2d1_104",
  "SequenceVariant": "SK\\SS",
  "SeriesDescription": "func_task-mario3_run-05",
  "SeriesNumber": 23,
  "ShimSetting": [587, -7295, -8810, 404, 24, -363, -45, 95],
  "SliceThickness": 2,
  "SliceTiming": [0, 0.7825, 0.0975, 0.8825, 0.195, 0.98, 0.2925, 1.0775, 0.3925, 1.175, 0.49, 1.2725, 0.5875, 1.3725, 0.685, 0, 0.7825, 0.0975, 0.8825, 0.195, 0.98, 0.2925, 1.0775, 0.3925, 1.175, 0.49, 1.2725, 0.5875, 1.3725, 0.685, 0, 0.7825, 0.0975, 0.8825, 0.195, 0.98, 0.2925, 1.0775, 0.3925, 1.175, 0.49, 1.2725, 0.5875, 1.3725, 0.685, 0, 0.7825, 0.0975, 0.8825, 0.195, 0.98, 0.2925, 1.0775, 0.3925, 1.175, 0.49, 1.2725, 0.5875, 1.3725, 0.685],
  "SoftwareVersions": "syngo MR E11",
  "SpacingBetweenSlices": 2,
  "StationName": "MRC35049",
  "TaskName": "mario3",
  "TotalReadoutTime": 0.0576811,
  "TxRefAmp": 309.502,
  "WipMemBlock": "2be07680-1e1e-4f81-9d31-3970b8437c8d||Sequence: R017 ve11c/master r/75a17815+; Jun 28 2022 16:32:11 by eja",
  "dcmmeta_affine": [
    [-1.9995149374008179, 0.012214635498821735, 0.04231701418757439, 103.10347747802734],
    [-0.00496314000338316, 1.8468290567398071, -0.7675923109054565, -67.98622131347656],
    [0.04376407712697983, 0.7675111293792725, 1.8463507890701294, -64.58615112304688],
    [0.0, 0.0, 0.0, 1.0]
],
  "dcmmeta_reorient_transform": [
    [0.0, -1.0, 0.0, 103.0],
    [1.0, 0.0, 0.0, 0.0],
    [0.0, 0.0, 1.0, 0.0],
    [0.0, 0.0, 0.0, 1.0]
],
  "dcmmeta_shape": [104, 104, 60, 342],
  "dcmmeta_slice_dim": 2,
  "dcmmeta_version": 0.6,
  "global": {
    "const": {
      "AcquisitionMatrix": [104, 0, 0, 104],
      "AngioFlag": "N",
      "BitsAllocated": 16,
      "BitsStored": 16,
      "BodyPartExamined": "BRAIN",
      "Columns": 832,
      "EchoNumbers": 1,
      "EchoTime": 37.0,
      "EchoTrainLength": 104,
      "FlipAngle": 52.0,
      "HighBit": 15,
      "ImageOrientationPatient": [0.99975747970292, 0.00248156988835, 0.02188203804397, 0.00610731767702, 0.92341450962169, -0.3837555785796],
      "ImagePositionPatient": [-836.63115835605, -796.28951169361, 277.91143686391],
      "ImageType": [
        "ORIGINAL",
        "PRIMARY",
        "P",
        "MB",
        "ND",
        "MOSAIC"
],
      "ImagedNucleus": "1H",
      "ImagingFrequency": 123.259132,
      "InPlanePhaseEncodingDirection": "COL",
      "LargestImagePixelValue": 4095,
      "MRAcquisitionType": "2D",
      "MagneticFieldStrength": 3.0,
      "Manufacturer": "SIEMENS",
      "ManufacturerModelName": "Prisma_fit",
      "Modality": "MR",
      "NumberOfAverages": 1.0,
      "NumberOfPhaseEncodingSteps": 104,
      "PercentPhaseFieldOfView": 100.0,
      "PercentSampling": 100.0,
      "PerformedProcedureStepStartTime": "183820.357000",
      "PhotometricInterpretation": "MONOCHROME2",
      "PixelBandwidth": 2290.0,
      "PixelRepresentation": 0,
      "PixelSpacing": [2.0, 2.0],
      "ProtocolName": "func_task-mario3_run-05",
      "RepetitionTime": 1490.0,
      "RescaleIntercept": -4096.0,
      "RescaleSlope": 2.0,
      "RescaleType": "US",
      "Rows": 832,
      "SAR": 0.08567879929513,
      "SamplesPerPixel": 1,
      "ScanOptions": "FS",
      "ScanningSequence": "EP",
      "SequenceName": "epfid2d1_104",
      "SequenceVariant": [
        "SK",
        "SS"
],
      "SeriesDescription": "func_task-mario3_run-05",
      "SeriesNumber": 23,
      "SeriesTime": "192714.551000",
      "SliceLocation": -31.349978674553,
      "SliceThickness": 2.0,
      "SmallestImagePixelValue": 0,
      "SoftwareVersions": "syngo MR E11",
      "SpacingBetweenSlices": 2.0000000078129,
      "SpecificCharacterSet": "ISO_IR 100",
      "StudyID": "1",
      "StudyTime": "183820.284000",
      "TransmitCoilName": "Body",
      "VariableFlipAngleFlag": "N",
      "WindowCenterWidthExplanation": "Algo1",
      "dBdt": 0.0},
    "slices": {}
  },
  "time": {
    "samples": {
      "AcquisitionNumber": [1, 2, 3, 4, 5, 6, 7, 8, 9, 10, 11, 12, 13, 14, 15, 16, 17, 18, 19, 20, 21, 22, 23, 24, 25, 26, 27, 28, 29, 30, 31, 32, 33, 34, 35, 36, 37, 38, 39, 40, 41, 42, 43, 44, 45, 46, 47, 48, 49, 50, 51, 52, 53, 54, 55, 56, 57, 58, 59, 60, 61, 62, 63, 64, 65, 66, 67, 68, 69, 70, 71, 72, 73, 74, 75, 76, 77, 78, 79, 80, 81, 82, 83, 84, 85, 86, 87, 88, 89, 90, 91, 92, 93, 94, 95, 96, 97, 98, 99, 100, 101, 102, 103, 104, 105, 106, 107, 108, 109, 110, 111, 112, 113, 114, 115, 116, 117, 118, 119, 120, 121, 122, 123, 124, 125, 126, 127, 128, 129, 130, 131, 132, 133, 134, 135, 136, 137, 138, 139, 140, 141, 142, 143, 144, 145, 146, 147, 148, 149, 150, 151, 152, 153, 154, 155, 156, 157, 158, 159, 160, 161, 162, 163, 164, 165, 166, 167, 168, 169, 170, 171, 172, 173, 174, 175, 176, 177, 178, 179, 180, 181, 182, 183, 184, 185, 186, 187, 188, 189, 190, 191, 192, 193, 194, 195, 196, 197, 198, 199, 200, 201, 202, 203, 204, 205, 206, 207, 208, 209, 210, 211, 212, 213, 214, 215, 216, 217, 218, 219, 220, 221, 222, 223, 224, 225, 226, 227, 228, 229, 230, 231, 232, 233, 234, 235, 236, 237, 238, 239, 240, 241, 242, 243, 244, 245, 246, 247, 248, 249, 250, 251, 252, 253, 254, 255, 256, 257, 258, 259, 260, 261, 262, 263, 264, 265, 266, 267, 268, 269, 270, 271, 272, 273, 274, 275, 276, 277, 278, 279, 280, 281, 282, 283, 284, 285, 286, 287, 288, 289, 290, 291, 292, 293, 294, 295, 296, 297, 298, 299, 300, 301, 302, 303, 304, 305, 306, 307, 308, 309, 310, 311, 312, 313, 314, 315, 316, 317, 318, 319, 320, 321, 322, 323, 324, 325, 326, 327, 328, 329, 330, 331, 332, 333, 334, 335, 336, 337, 338, 339, 340, 341, 342],
      "AcquisitionTime": ["192606.755000", "192608.245000", "192609.735000", "192611.225000", "192612.715000", "192614.205000", "192615.695000", "192617.185000", "192618.675000", "192620.165000", "192621.655000", "192623.145000", "192624.635000", "192626.125000", "192627.615000", "192629.105000", "192630.595000", "192632.085000", "192633.575000", "192635.065000", "192636.555000", "192638.045000", "192639.535000", "192641.025000", "192642.515000", "192644.005000", "192645.495000", "192646.985000", "192648.475000", "192649.965000", "192651.455000", "192652.945000", "192654.435000", "192655.925000", "192657.415000", "192658.905000", "192700.395000", "192701.885000", "192703.375000", "192704.865000", "192706.355000", "192707.845000", "192709.335000", "192710.825000", "192712.315000", "192713.805000", "192715.295000", "192716.785000", "192718.275000", "192719.765000", "192721.255000", "192722.745000", "192724.235000", "192725.725000", "192727.215000", "192728.705000", "192730.195000", "192731.685000", "192733.175000", "192734.665000", "192736.155000", "192737.645000", "192739.135000", "192740.625000", "192742.115000", "192743.605000", "192745.095000", "192746.585000", "192748.075000", "192749.565000", "192751.055000", "192752.545000", "192754.035000", "192755.525000", "192757.015000", "192758.505000", "192759.995000", "192801.485000", "192802.975000", "192804.465000", "192805.955000", "192807.445000", "192808.935000", "192810.425000", "192811.915000", "192813.405000", "192814.895000", "192816.385000", "192817.875000", "192819.365000", "192820.855000", "192822.345000", "192823.835000", "192825.325000", "192826.815000", "192828.305000", "192829.795000", "192831.285000", "192832.775000", "192834.265000", "192835.755000", "192837.245000", "192838.735000", "192840.225000", "192841.715000", "192843.205000", "192844.695000", "192846.185000", "192847.675000", "192849.165000", "192850.655000", "192852.145000", "192853.635000", "192855.125000", "192856.615000", "192858.105000", "192859.595000", "192901.085000", "192902.575000", "192904.065000", "192905.555000", "192907.045000", "192908.535000", "192910.025000", "192911.515000", "192913.005000", "192914.495000", "192915.985000", "192917.475000", "192918.965000", "192920.455000", "192921.945000", "192923.435000", "192924.925000", "192926.415000", "192927.905000", "192929.395000", "192930.885000", "192932.375000", "192933.865000", "192935.355000", "192936.845000", "192938.335000", "192939.825000", "192941.315000", "192942.805000", "192944.295000", "192945.785000", "192947.275000", "192948.765000", "192950.255000", "192951.745000", "192953.235000", "192954.725000", "192956.215000", "192957.705000", "192959.195000", "193000.685000", "193002.175000", "193003.665000", "193005.155000", "193006.645000", "193008.135000", "193009.625000", "193011.115000", "193012.605000", "193014.095000", "193015.585000", "193017.075000", "193018.565000", "193020.055000", "193021.545000", "193023.035000", "193024.525000", "193026.015000", "193027.505000", "193028.995000", "193030.485000", "193031.975000", "193033.465000", "193034.955000", "193036.445000", "193037.935000", "193039.425000", "193040.915000", "193042.405000", "193043.895000", "193045.385000", "193046.875000", "193048.365000", "193049.855000", "193051.345000", "193052.835000", "193054.325000", "193055.815000", "193057.305000", "193058.795000", "193100.285000", "193101.775000", "193103.265000", "193104.755000", "193106.245000", "193107.735000", "193109.225000", "193110.715000", "193112.205000", "193113.695000", "193115.185000", "193116.675000", "193118.165000", "193119.655000", "193121.145000", "193122.635000", "193124.125000", "193125.615000", "193127.105000", "193128.595000", "193130.085000", "193131.575000", "193133.065000", "193134.555000", "193136.045000", "193137.535000", "193139.025000", "193140.515000", "193142.005000", "193143.495000", "193144.985000", "193146.475000", "193147.965000", "193149.455000", "193150.945000", "193152.435000", "193153.925000", "193155.415000", "193156.905000", "193158.395000", "193159.885000", "193201.375000", "193202.865000", "193204.355000", "193205.845000", "193207.335000", "193208.825000", "193210.315000", "193211.805000", "193213.295000", "193214.785000", "193216.275000", "193217.765000", "193219.255000", "193220.745000", "193222.235000", "193223.725000", "193225.215000", "193226.705000", "193228.195000", "193229.685000", "193231.175000", "193232.665000", "193234.155000", "193235.645000", "193237.135000", "193238.625000", "193240.115000", "193241.605000", "193243.095000", "193244.585000", "193246.075000", "193247.565000", "193249.055000", "193250.545000", "193252.035000", "193253.525000", "193255.015000", "193256.505000", "193257.995000", "193259.485000", "193300.975000", "193302.465000", "193303.955000", "193305.445000", "193306.935000", "193308.425000", "193309.915000", "193311.405000", "193312.895000", "193314.385000", "193315.875000", "193317.365000", "193318.855000", "193320.345000", "193321.835000", "193323.325000", "193324.815000", "193326.305000", "193327.795000", "193329.285000", "193330.775000", "193332.265000", "193333.755000", "193335.245000", "193336.735000", "193338.225000", "193339.715000", "193341.205000", "193342.695000", "193344.185000", "193345.675000", "193347.165000", "193348.655000", "193350.145000", "193351.635000", "193353.125000", "193354.615000", "193356.105000", "193357.595000", "193359.085000", "193400.575000", "193402.065000", "193403.555000", "193405.045000", "193406.535000", "193408.025000", "193409.515000", "193411.005000", "193412.495000", "193413.985000", "193415.475000", "193416.965000", "193418.455000", "193419.945000", "193421.435000", "193422.925000", "193424.415000", "193425.905000", "193427.395000", "193428.885000", "193430.375000", "193431.865000", "193433.355000", "193434.845000"],
      "ContentTime": ["192714.553000", "192714.556000", "192714.558000", "192714.561000", "192714.563000", "192714.568000", "192714.571000", "192714.574000", "192714.576000", "192714.579000", "192714.581000", "192714.584000", "192714.586000", "192714.589000", "192714.591000", "192714.594000", "192714.596000", "192714.599000", "192714.601000", "192734.533000", "192734.536000", "192734.542000", "192734.545000", "192734.547000", "192734.550000", "192734.552000", "192734.555000", "192734.558000", "192734.560000", "192734.563000", "192734.565000", "192734.568000", "192734.570000", "192734.573000", "192734.575000", "192734.578000", "192734.580000", "192734.583000", "192734.585000", "192734.588000", "192754.538000", "192754.541000", "192754.543000", "192754.546000", "192754.548000", "192754.551000", "192754.553000", "192754.556000", "192754.558000", "192754.561000", "192754.564000", "192754.566000", "192754.569000", "192754.571000", "192754.574000", "192754.576000", "192754.579000", "192754.582000", "192754.584000", "192754.586000", "192814.538000", "192814.541000", "192814.543000", "192814.546000", "192814.548000", "192814.551000", "192814.553000", "192814.556000", "192814.558000", "192814.561000", "192814.564000", "192814.566000", "192814.569000", "192814.571000", "192814.574000", "192814.576000", "192814.579000", "192814.581000", "192814.584000", "192814.587000", "192854.581000", "192854.583000", "192854.586000", "192854.588000", "192854.591000", "192854.594000", "192854.597000", "192854.599000", "192854.602000", "192854.604000", "192854.607000", "192854.610000", "192854.612000", "192854.615000", "192854.617000", "192854.620000", "192854.622000", "192854.625000", "192854.627000", "192854.630000", "192854.632000", "192854.635000", "192854.638000", "192854.640000", "192854.643000", "192854.645000", "192854.648000", "192854.650000", "192854.653000", "192854.655000", "192854.658000", "192854.661000", "192934.599000", "192934.602000", "192934.610000", "192934.612000", "192934.615000", "192934.617000", "192934.620000", "192934.622000", "192934.625000", "192934.628000", "192934.630000", "192934.633000", "192934.635000", "192934.638000", "192934.640000", "192934.643000", "192934.645000", "192934.648000", "192934.651000", "192934.653000", "192934.656000", "192934.658000", "192934.661000", "192934.663000", "192934.666000", "192934.668000", "193014.554000", "193014.557000", "193014.560000", "193014.562000", "193014.565000", "193014.567000", "193014.570000", "193014.573000", "193014.575000", "193014.578000", "193014.580000", "193014.583000", "193014.585000", "193014.588000", "193014.591000", "193014.593000", "193014.596000", "193014.598000", "193014.601000", "193014.604000", "193014.606000", "193014.609000", "193014.612000", "193014.615000", "193014.617000", "193014.620000", "193014.623000", "193054.551000", "193054.554000", "193054.557000", "193054.559000", "193054.562000", "193054.564000", "193054.567000", "193054.570000", "193054.572000", "193054.575000", "193054.577000", "193054.580000", "193054.582000", "193054.585000", "193054.587000", "193054.590000", "193054.593000", "193054.595000", "193054.598000", "193054.600000", "193054.603000", "193054.605000", "193054.608000", "193054.610000", "193054.613000", "193054.615000", "193054.618000", "193134.565000", "193134.567000", "193134.570000", "193134.573000", "193134.575000", "193134.578000", "193134.580000", "193134.583000", "193134.586000", "193134.588000", "193134.591000", "193134.593000", "193134.596000", "193134.598000", "193134.601000", "193134.603000", "193134.606000", "193134.608000", "193134.611000", "193134.614000", "193134.616000", "193134.619000", "193134.621000", "193134.624000", "193134.626000", "193134.629000", "193134.632000", "193214.561000", "193214.564000", "193214.566000", "193214.569000", "193214.571000", "193214.574000", "193214.577000", "193214.579000", "193214.582000", "193214.584000", "193214.587000", "193214.589000", "193214.592000", "193214.594000", "193214.597000", "193214.599000", "193214.602000", "193214.605000", "193214.607000", "193214.610000", "193214.612000", "193214.615000", "193214.617000", "193214.620000", "193214.623000", "193214.625000", "193214.628000", "193254.570000", "193254.573000", "193254.575000", "193254.578000", "193254.580000", "193254.583000", "193254.585000", "193254.588000", "193254.590000", "193254.593000", "193254.596000", "193254.599000", "193254.601000", "193254.604000", "193254.606000", "193254.609000", "193254.611000", "193254.614000", "193254.617000", "193254.619000", "193254.622000", "193254.624000", "193254.627000", "193254.629000", "193254.632000", "193254.634000", "193254.637000", "193334.983000", "193334.985000", "193334.988000", "193334.991000", "193334.993000", "193334.996000", "193334.998000", "193335.002000", "193335.005000", "193335.007000", "193335.010000", "193335.012000", "193335.015000", "193335.017000", "193335.020000", "193335.022000", "193335.025000", "193335.028000", "193335.030000", "193335.033000", "193335.035000", "193335.038000", "193335.040000", "193335.043000", "193335.046000", "193335.048000", "193335.051000", "193414.557000", "193414.560000", "193414.562000", "193414.565000", "193414.567000", "193414.570000", "193414.573000", "193414.575000", "193414.578000", "193414.580000", "193414.583000", "193414.586000", "193414.588000", "193414.591000", "193414.593000", "193414.596000", "193414.598000", "193414.601000", "193414.603000", "193414.606000", "193414.608000", "193414.611000", "193414.613000", "193414.616000", "193414.619000", "193414.621000", "193437.985000", "193437.988000", "193437.990000", "193437.992000", "193437.995000", "193437.998000", "193438.000000", "193438.003000", "193438.005000", "193438.008000", "193438.011000", "193438.013000", "193438.015000", "193438.018000", "193438.021000", "193438.023000"],
      "InstanceCreationTime": ["192714.553000", "192714.556000", "192714.558000", "192714.561000", "192714.563000", "192714.568000", "192714.571000", "192714.574000", "192714.576000", "192714.579000", "192714.581000", "192714.584000", "192714.586000", "192714.589000", "192714.591000", "192714.594000", "192714.596000", "192714.599000", "192714.601000", "192734.533000", "192734.536000", "192734.542000", "192734.545000", "192734.547000", "192734.550000", "192734.552000", "192734.555000", "192734.558000", "192734.560000", "192734.563000", "192734.565000", "192734.568000", "192734.570000", "192734.573000", "192734.575000", "192734.578000", "192734.580000", "192734.583000", "192734.585000", "192734.588000", "192754.538000", "192754.541000", "192754.543000", "192754.546000", "192754.548000", "192754.551000", "192754.553000", "192754.556000", "192754.558000", "192754.561000", "192754.564000", "192754.566000", "192754.569000", "192754.571000", "192754.574000", "192754.576000", "192754.579000", "192754.582000", "192754.584000", "192754.586000", "192814.538000", "192814.541000", "192814.543000", "192814.546000", "192814.548000", "192814.551000", "192814.553000", "192814.556000", "192814.558000", "192814.561000", "192814.564000", "192814.566000", "192814.569000", "192814.571000", "192814.574000", "192814.576000", "192814.579000", "192814.581000", "192814.584000", "192814.587000", "192854.581000", "192854.583000", "192854.586000", "192854.588000", "192854.591000", "192854.594000", "192854.597000", "192854.599000", "192854.602000", "192854.604000", "192854.607000", "192854.610000", "192854.612000", "192854.615000", "192854.617000", "192854.620000", "192854.622000", "192854.625000", "192854.627000", "192854.630000", "192854.632000", "192854.635000", "192854.638000", "192854.640000", "192854.643000", "192854.645000", "192854.648000", "192854.650000", "192854.653000", "192854.655000", "192854.658000", "192854.661000", "192934.599000", "192934.602000", "192934.610000", "192934.612000", "192934.615000", "192934.617000", "192934.620000", "192934.622000", "192934.625000", "192934.628000", "192934.630000", "192934.633000", "192934.635000", "192934.638000", "192934.640000", "192934.643000", "192934.645000", "192934.648000", "192934.651000", "192934.653000", "192934.656000", "192934.658000", "192934.661000", "192934.663000", "192934.666000", "192934.668000", "193014.554000", "193014.557000", "193014.560000", "193014.562000", "193014.565000", "193014.567000", "193014.570000", "193014.573000", "193014.575000", "193014.578000", "193014.580000", "193014.583000", "193014.585000", "193014.588000", "193014.591000", "193014.593000", "193014.596000", "193014.598000", "193014.601000", "193014.604000", "193014.606000", "193014.609000", "193014.612000", "193014.615000", "193014.617000", "193014.620000", "193014.623000", "193054.551000", "193054.554000", "193054.557000", "193054.559000", "193054.562000", "193054.564000", "193054.567000", "193054.570000", "193054.572000", "193054.575000", "193054.577000", "193054.580000", "193054.582000", "193054.585000", "193054.587000", "193054.590000", "193054.593000", "193054.595000", "193054.598000", "193054.600000", "193054.603000", "193054.605000", "193054.608000", "193054.610000", "193054.613000", "193054.615000", "193054.618000", "193134.565000", "193134.567000", "193134.570000", "193134.573000", "193134.575000", "193134.578000", "193134.580000", "193134.583000", "193134.586000", "193134.588000", "193134.591000", "193134.593000", "193134.596000", "193134.598000", "193134.601000", "193134.603000", "193134.606000", "193134.608000", "193134.611000", "193134.614000", "193134.616000", "193134.619000", "193134.621000", "193134.624000", "193134.626000", "193134.629000", "193134.632000", "193214.561000", "193214.564000", "193214.566000", "193214.569000", "193214.571000", "193214.574000", "193214.577000", "193214.579000", "193214.582000", "193214.584000", "193214.587000", "193214.589000", "193214.592000", "193214.594000", "193214.597000", "193214.599000", "193214.602000", "193214.605000", "193214.607000", "193214.610000", "193214.612000", "193214.615000", "193214.617000", "193214.620000", "193214.623000", "193214.625000", "193214.628000", "193254.570000", "193254.573000", "193254.575000", "193254.578000", "193254.580000", "193254.583000", "193254.585000", "193254.588000", "193254.590000", "193254.593000", "193254.596000", "193254.599000", "193254.601000", "193254.604000", "193254.606000", "193254.609000", "193254.611000", "193254.614000", "193254.617000", "193254.619000", "193254.622000", "193254.624000", "193254.627000", "193254.629000", "193254.632000", "193254.634000", "193254.637000", "193334.983000", "193334.985000", "193334.988000", "193334.991000", "193334.993000", "193334.996000", "193334.998000", "193335.002000", "193335.005000", "193335.007000", "193335.010000", "193335.012000", "193335.015000", "193335.017000", "193335.020000", "193335.022000", "193335.025000", "193335.028000", "193335.030000", "193335.033000", "193335.035000", "193335.038000", "193335.040000", "193335.043000", "193335.046000", "193335.048000", "193335.051000", "193414.557000", "193414.560000", "193414.562000", "193414.565000", "193414.567000", "193414.570000", "193414.573000", "193414.575000", "193414.578000", "193414.580000", "193414.583000", "193414.586000", "193414.588000", "193414.591000", "193414.593000", "193414.596000", "193414.598000", "193414.601000", "193414.603000", "193414.606000", "193414.608000", "193414.611000", "193414.613000", "193414.616000", "193414.619000", "193414.621000", "193437.985000", "193437.988000", "193437.990000", "193437.992000", "193437.995000", "193437.998000", "193438.000000", "193438.003000", "193438.005000", "193438.008000", "193438.011000", "193438.013000", "193438.015000", "193438.018000", "193438.021000", "193438.023000"],
      "InstanceNumber": [1, 2, 3, 4, 5, 6, 7, 8, 9, 10, 11, 12, 13, 14, 15, 16, 17, 18, 19, 20, 21, 22, 23, 24, 25, 26, 27, 28, 29, 30, 31, 32, 33, 34, 35, 36, 37, 38, 39, 40, 41, 42, 43, 44, 45, 46, 47, 48, 49, 50, 51, 52, 53, 54, 55, 56, 57, 58, 59, 60, 61, 62, 63, 64, 65, 66, 67, 68, 69, 70, 71, 72, 73, 74, 75, 76, 77, 78, 79, 80, 81, 82, 83, 84, 85, 86, 87, 88, 89, 90, 91, 92, 93, 94, 95, 96, 97, 98, 99, 100, 101, 102, 103, 104, 105, 106, 107, 108, 109, 110, 111, 112, 113, 114, 115, 116, 117, 118, 119, 120, 121, 122, 123, 124, 125, 126, 127, 128, 129, 130, 131, 132, 133, 134, 135, 136, 137, 138, 139, 140, 141, 142, 143, 144, 145, 146, 147, 148, 149, 150, 151, 152, 153, 154, 155, 156, 157, 158, 159, 160, 161, 162, 163, 164, 165, 166, 167, 168, 169, 170, 171, 172, 173, 174, 175, 176, 177, 178, 179, 180, 181, 182, 183, 184, 185, 186, 187, 188, 189, 190, 191, 192, 193, 194, 195, 196, 197, 198, 199, 200, 201, 202, 203, 204, 205, 206, 207, 208, 209, 210, 211, 212, 213, 214, 215, 216, 217, 218, 219, 220, 221, 222, 223, 224, 225, 226, 227, 228, 229, 230, 231, 232, 233, 234, 235, 236, 237, 238, 239, 240, 241, 242, 243, 244, 245, 246, 247, 248, 249, 250, 251, 252, 253, 254, 255, 256, 257, 258, 259, 260, 261, 262, 263, 264, 265, 266, 267, 268, 269, 270, 271, 272, 273, 274, 275, 276, 277, 278, 279, 280, 281, 282, 283, 284, 285, 286, 287, 288, 289, 290, 291, 292, 293, 294, 295, 296, 297, 298, 299, 300, 301, 302, 303, 304, 305, 306, 307, 308, 309, 310, 311, 312, 313, 314, 315, 316, 317, 318, 319, 320, 321, 322, 323, 324, 325, 326, 327, 328, 329, 330, 331, 332, 333, 334, 335, 336, 337, 338, 339, 340, 341, 342],
      "WindowCenter": [4916.0, 4924.0, 4922.0, 4912.0, 4920.0, 4920.0, 4928.0, 4918.0, 4922.0, 4926.0, 4918.0, 4922.0, 4920.0, 4890.0, 4920.0, 4914.0, 4920.0, 4920.0, 4926.0, 4920.0, 4920.0, 4886.0, 4920.0, 4882.0, 4916.0, 4920.0, 4922.0, 4926.0, 4926.0, 4922.0, 4896.0, 4920.0, 4886.0, 4918.0, 4916.0, 4926.0, 4922.0, 4924.0, 4920.0, 4924.0, 4918.0, 4922.0, 4888.0, 4920.0, 4918.0, 4916.0, 4922.0, 4922.0, 4924.0, 4924.0, 4922.0, 4922.0, 4914.0, 4916.0, 4894.0, 4888.0, 4912.0, 4892.0, 4892.0, 4892.0, 4894.0, 4924.0, 4928.0, 4924.0, 4922.0, 4918.0, 4914.0, 4916.0, 4916.0, 4888.0, 4920.0, 4892.0, 4918.0, 4916.0, 4916.0, 4920.0, 4892.0, 4920.0, 4922.0, 4918.0, 4924.0, 4916.0, 4922.0, 4922.0, 4918.0, 4918.0, 4916.0, 4892.0, 4894.0, 4892.0, 4896.0, 4916.0, 4916.0, 4886.0, 4918.0, 4918.0, 4920.0, 4926.0, 4918.0, 4922.0, 4918.0, 4918.0, 4888.0, 4888.0, 4912.0, 4894.0, 4916.0, 4920.0, 4916.0, 4922.0, 4914.0, 4918.0, 4914.0, 4894.0, 4916.0, 4888.0, 4920.0, 4914.0, 4920.0, 4920.0, 4920.0, 4920.0, 4918.0, 4892.0, 4882.0, 4880.0, 4892.0, 4920.0, 4918.0, 4920.0, 4922.0, 4920.0, 4918.0, 4888.0, 4888.0, 4888.0, 4886.0, 4892.0, 4912.0, 4922.0, 4918.0, 4922.0, 4912.0, 4888.0, 4914.0, 4918.0, 4918.0, 4916.0, 4916.0, 4922.0, 4914.0, 4920.0, 4890.0, 4916.0, 4914.0, 4918.0, 4918.0, 4888.0, 4892.0, 4892.0, 4918.0, 4918.0, 4912.0, 4918.0, 4916.0, 4890.0, 4886.0, 4884.0, 4882.0, 4888.0, 4916.0, 4892.0, 4916.0, 4922.0, 4848.0, 4890.0, 4922.0, 4926.0, 4928.0, 4926.0, 4922.0, 4920.0, 4918.0, 4890.0, 4890.0, 4858.0, 4892.0, 4888.0, 4914.0, 4924.0, 4916.0, 4920.0, 4922.0, 4922.0, 4918.0, 4890.0, 4916.0, 4894.0, 4916.0, 4916.0, 4924.0, 4920.0, 4924.0, 4920.0, 4918.0, 4892.0, 4888.0, 4916.0, 4888.0, 4890.0, 4920.0, 4920.0, 4922.0, 4926.0, 4920.0, 4916.0, 4922.0, 4892.0, 4890.0, 4894.0, 4890.0, 4924.0, 4926.0, 4918.0, 4920.0, 4918.0, 4918.0, 4918.0, 4918.0, 4924.0, 4920.0, 4922.0, 4918.0, 4918.0, 4918.0, 4856.0, 4888.0, 4880.0, 4896.0, 4924.0, 4924.0, 4926.0, 4926.0, 4922.0, 4918.0, 4916.0, 4914.0, 4886.0, 4888.0, 4886.0, 4914.0, 4892.0, 4920.0, 4922.0, 4924.0, 4926.0, 4926.0, 4922.0, 4916.0, 4920.0, 4892.0, 4888.0, 4890.0, 4918.0, 4920.0, 4918.0, 4922.0, 4886.0, 4924.0, 4926.0, 4918.0, 4916.0, 4924.0, 4916.0, 4914.0, 4918.0, 4918.0, 4924.0, 4920.0, 4924.0, 4918.0, 4890.0, 4890.0, 4882.0, 4884.0, 4892.0, 4924.0, 4924.0, 4924.0, 4924.0, 4920.0, 4920.0, 4894.0, 4886.0, 4888.0, 4882.0, 4852.0, 4854.0, 4886.0, 4922.0, 4922.0, 4926.0, 4924.0, 4892.0, 4894.0, 4888.0, 4886.0, 4896.0, 4918.0, 4914.0, 4922.0, 4928.0, 4922.0, 4924.0, 4922.0, 4846.0, 4854.0, 4886.0, 4916.0, 4922.0, 4922.0, 4926.0, 4892.0, 4922.0, 4892.0, 4922.0, 4922.0, 4920.0, 4920.0, 4922.0, 4922.0, 4892.0, 4820.0, 4918.0, 4932.0, 4910.0, 4936.0, 4934.0, 4928.0, 4888.0, 4844.0, 4814.0],
