{
  "AcquisitionMatrixPE": 104,
  "AcquisitionNumber": 1,
  "AcquisitionTime": "19:26:6.755000",
  "BandwidthPerPixelPhaseEncode": 17.17,
  "BaseResolution": 104,
  "BodyPartExamined": "BRAIN",
  "CoilCombinationMethod": "Sum of Squares",
  "ConsistencyInfo": "N4_VE11C_LATEST_20160120",
  "ConversionSoftware": "dcm2niix",
  "ConversionSoftwareVersion": "v1.0.20220505",
  "DerivedVendorReportedEchoSpacing": 0.000560011,
  "DeviceSerialNumber": "167006",
  "DwellTime": 2.1e-06,
  "EchoTime": 0.037,
  "EchoTrainLength": 104,
  "EffectiveEchoSpacing": 0.000560011,
  "FlipAngle": 52,
  "HeudiconvVersion": "0.5.3.post811+g6206e14",
  "ImageComments": "Unaliased MB4/PE3/LB",
  "ImageOrientationPatientDICOM": [0.999757, 0.00248157, 0.021882, 0.00610732, 0.923415, -0.383756],
  "ImageOrientationText": "Tra>Cor(-22.6)>Sag(1.2)",
  "ImageType": [
    "ORIGINAL",
    "PRIMARY",
    "M",
    "MB",
    "ND",
    "MOSAIC"
],
  "ImagingFrequency": 123.259,
  "InPlanePhaseEncodingDirectionDICOM": "COL",
  "InstitutionAddress": "Chemin Queen-Mary 4565,Montreal,District,CA,H3W 1W5",
  "InstitutionName": "IUGM",
  "InstitutionalDepartmentName": "Department",
  "MRAcquisitionType": "2D",
  "MagneticFieldStrength": 3,
  "Manufacturer": "Siemens",
  "ManufacturersModelName": "Prisma_fit",
  "MatrixCoilMode": "SENSE",
  "Modality": "MR",
  "MultibandAccelerationFactor": 4,
  "PartialFourier": 1,
  "PatientPosition": "HFS",
  "PercentPhaseFOV": 100,
  "PercentSampling": 100,
  "PhaseEncodingDirection": "j",
  "PhaseEncodingSteps": 104,
  "PhaseResolution": 1,
  "PixelBandwidth": 2290,
  "ProcedureStepDescription": "games^mario3",
  "ProtocolName": "func_task-mario3_run-05",
  "PulseSequenceDetails": "%CustomerSeq%\\cmrr_mbep2d_bold",
  "ReceiveCoilActiveElements": "HC1-7;NC1,2",
  "ReceiveCoilName": "HeadNeck_64",
  "ReconMatrixPE": 104,
  "RepetitionTime": 1.49,
  "SAR": 0.0856788,
  "ScanOptions": "FS",
  "ScanningSequence": "EP",
  "SequenceName": "epfid2d1_104",
  "SequenceVariant": "SK\\SS",
  "SeriesDescription": "func_task-mario3_run-05",
  "SeriesNumber": 22,
  "ShimSetting": [587, -7295, -8810, 404, 24, -363, -45, 95],
  "SliceThickness": 2,
  "SliceTiming": [0, 0.7825, 0.0975, 0.8825, 0.195, 0.98, 0.2925, 1.0775, 0.3925, 1.175, 0.49, 1.2725, 0.5875, 1.3725, 0.685, 0, 0.7825, 0.0975, 0.8825, 0.195, 0.98, 0.2925, 1.0775, 0.3925, 1.175, 0.49, 1.2725, 0.5875, 1.3725, 0.685, 0, 0.7825, 0.0975, 0.8825, 0.195, 0.98, 0.2925, 1.0775, 0.3925, 1.175, 0.49, 1.2725, 0.5875, 1.3725, 0.685, 0, 0.7825, 0.0975, 0.8825, 0.195, 0.98, 0.2925, 1.0775, 0.3925, 1.175, 0.49, 1.2725, 0.5875, 1.3725, 0.685],
  "SoftwareVersions": "syngo MR E11",
  "SpacingBetweenSlices": 2,
  "StationName": "MRC35049",
  "TaskName": "mario3",
  "TotalReadoutTime": 0.0576811,
  "TxRefAmp": 309.502,
  "WipMemBlock": "2be07680-1e1e-4f81-9d31-3970b8437c8d||Sequence: R017 ve11c/master r/75a17815+; Jun 28 2022 16:32:11 by eja",
  "dcmmeta_affine": [
    [-1.9995149374008179, 0.012214635498821735, 0.04231701418757439, 103.10347747802734],
    [-0.00496314000338316, 1.8468290567398071, -0.7675923109054565, -67.98622131347656],
    [0.04376407712697983, 0.7675111293792725, 1.8463507890701294, -64.58615112304688],
    [0.0, 0.0, 0.0, 1.0]
],
  "dcmmeta_reorient_transform": [
    [0.0, -1.0, 0.0, 103.0],
    [1.0, 0.0, 0.0, 0.0],
    [0.0, 0.0, 1.0, 0.0],
    [0.0, 0.0, 0.0, 1.0]
],
  "dcmmeta_shape": [104, 104, 60, 342],
  "dcmmeta_slice_dim": 2,
  "dcmmeta_version": 0.6,
  "global": {
    "const": {
      "AcquisitionMatrix": [104, 0, 0, 104],
      "AngioFlag": "N",
      "BitsAllocated": 16,
      "BitsStored": 16,
      "BodyPartExamined": "BRAIN",
      "Columns": 832,
      "EchoNumbers": 1,
      "EchoTime": 37.0,
      "EchoTrainLength": 104,
      "FlipAngle": 52.0,
      "HighBit": 15,
      "ImageOrientationPatient": [0.99975747970292, 0.00248156988835, 0.02188203804397, 0.00610731767702, 0.92341450962169, -0.3837555785796],
      "ImagePositionPatient": [-836.63115835605, -796.28951169361, 277.91143686391],
      "ImageType": [
        "ORIGINAL",
        "PRIMARY",
        "M",
        "MB",
        "ND",
        "MOSAIC"
],
      "ImagedNucleus": "1H",
      "ImagingFrequency": 123.259132,
      "InPlanePhaseEncodingDirection": "COL",
      "MRAcquisitionType": "2D",
      "MagneticFieldStrength": 3.0,
      "Manufacturer": "SIEMENS",
      "ManufacturerModelName": "Prisma_fit",
      "Modality": "MR",
      "NumberOfAverages": 1.0,
      "NumberOfPhaseEncodingSteps": 104,
      "PercentPhaseFieldOfView": 100.0,
      "PercentSampling": 100.0,
      "PerformedProcedureStepStartTime": "183820.357000",
      "PhotometricInterpretation": "MONOCHROME2",
      "PixelBandwidth": 2290.0,
      "PixelRepresentation": 0,
      "PixelSpacing": [2.0, 2.0],
      "ProtocolName": "func_task-mario3_run-05",
      "RepetitionTime": 1490.0,
      "Rows": 832,
      "SAR": 0.08567879929513,
      "SamplesPerPixel": 1,
      "ScanOptions": "FS",
      "ScanningSequence": "EP",
      "SequenceName": "epfid2d1_104",
      "SequenceVariant": [
        "SK",
        "SS"
],
      "SeriesDescription": "func_task-mario3_run-05",
      "SeriesNumber": 22,
      "SeriesTime": "192714.441000",
      "SliceLocation": -31.349978674553,
      "SliceThickness": 2.0,
      "SmallestImagePixelValue": 0,
      "SoftwareVersions": "syngo MR E11",
      "SpacingBetweenSlices": 2.0000000078129,
      "SpecificCharacterSet": "ISO_IR 100",
      "StudyID": "1",
      "StudyTime": "183820.284000",
      "TransmitCoilName": "Body",
      "VariableFlipAngleFlag": "N",
      "WindowCenterWidthExplanation": "Algo1",
      "dBdt": 0.0},
    "slices": {}
  },
  "time": {
    "samples": {
      "AcquisitionNumber": [1, 2, 3, 4, 5, 6, 7, 8, 9, 10, 11, 12, 13, 14, 15, 16, 17, 18, 19, 20, 21, 22, 23, 24, 25, 26, 27, 28, 29, 30, 31, 32, 33, 34, 35, 36, 37, 38, 39, 40, 41, 42, 43, 44, 45, 46, 47, 48, 49, 50, 51, 52, 53, 54, 55, 56, 57, 58, 59, 60, 61, 62, 63, 64, 65, 66, 67, 68, 69, 70, 71, 72, 73, 74, 75, 76, 77, 78, 79, 80, 81, 82, 83, 84, 85, 86, 87, 88, 89, 90, 91, 92, 93, 94, 95, 96, 97, 98, 99, 100, 101, 102, 103, 104, 105, 106, 107, 108, 109, 110, 111, 112, 113, 114, 115, 116, 117, 118, 119, 120, 121, 122, 123, 124, 125, 126, 127, 128, 129, 130, 131, 132, 133, 134, 135, 136, 137, 138, 139, 140, 141, 142, 143, 144, 145, 146, 147, 148, 149, 150, 151, 152, 153, 154, 155, 156, 157, 158, 159, 160, 161, 162, 163, 164, 165, 166, 167, 168, 169, 170, 171, 172, 173, 174, 175, 176, 177, 178, 179, 180, 181, 182, 183, 184, 185, 186, 187, 188, 189, 190, 191, 192, 193, 194, 195, 196, 197, 198, 199, 200, 201, 202, 203, 204, 205, 206, 207, 208, 209, 210, 211, 212, 213, 214, 215, 216, 217, 218, 219, 220, 221, 222, 223, 224, 225, 226, 227, 228, 229, 230, 231, 232, 233, 234, 235, 236, 237, 238, 239, 240, 241, 242, 243, 244, 245, 246, 247, 248, 249, 250, 251, 252, 253, 254, 255, 256, 257, 258, 259, 260, 261, 262, 263, 264, 265, 266, 267, 268, 269, 270, 271, 272, 273, 274, 275, 276, 277, 278, 279, 280, 281, 282, 283, 284, 285, 286, 287, 288, 289, 290, 291, 292, 293, 294, 295, 296, 297, 298, 299, 300, 301, 302, 303, 304, 305, 306, 307, 308, 309, 310, 311, 312, 313, 314, 315, 316, 317, 318, 319, 320, 321, 322, 323, 324, 325, 326, 327, 328, 329, 330, 331, 332, 333, 334, 335, 336, 337, 338, 339, 340, 341, 342],
      "AcquisitionTime": ["192606.755000", "192608.245000", "192609.735000", "192611.225000", "192612.715000", "192614.205000", "192615.695000", "192617.185000", "192618.675000", "192620.165000", "192621.655000", "192623.145000", "192624.635000", "192626.125000", "192627.615000", "192629.105000", "192630.595000", "192632.085000", "192633.575000", "192635.065000", "192636.555000", "192638.045000", "192639.535000", "192641.025000", "192642.515000", "192644.005000", "192645.495000", "192646.985000", "192648.475000", "192649.965000", "192651.455000", "192652.945000", "192654.435000", "192655.925000", "192657.415000", "192658.905000", "192700.395000", "192701.885000", "192703.375000", "192704.865000", "192706.355000", "192707.845000", "192709.335000", "192710.825000", "192712.315000", "192713.805000", "192715.295000", "192716.785000", "192718.275000", "192719.765000", "192721.255000", "192722.745000", "192724.235000", "192725.725000", "192727.215000", "192728.705000", "192730.195000", "192731.685000", "192733.175000", "192734.665000", "192736.155000", "192737.645000", "192739.135000", "192740.625000", "192742.115000", "192743.605000", "192745.095000", "192746.585000", "192748.075000", "192749.565000", "192751.055000", "192752.545000", "192754.035000", "192755.525000", "192757.015000", "192758.505000", "192759.995000", "192801.485000", "192802.975000", "192804.465000", "192805.955000", "192807.445000", "192808.935000", "192810.425000", "192811.915000", "192813.405000", "192814.895000", "192816.385000", "192817.875000", "192819.365000", "192820.855000", "192822.345000", "192823.835000", "192825.325000", "192826.815000", "192828.305000", "192829.795000", "192831.285000", "192832.775000", "192834.265000", "192835.755000", "192837.245000", "192838.735000", "192840.225000", "192841.715000", "192843.205000", "192844.695000", "192846.185000", "192847.675000", "192849.165000", "192850.655000", "192852.145000", "192853.635000", "192855.125000", "192856.615000", "192858.105000", "192859.595000", "192901.085000", "192902.575000", "192904.065000", "192905.555000", "192907.045000", "192908.535000", "192910.025000", "192911.515000", "192913.005000", "192914.495000", "192915.985000", "192917.475000", "192918.965000", "192920.455000", "192921.945000", "192923.435000", "192924.925000", "192926.415000", "192927.905000", "192929.395000", "192930.885000", "192932.375000", "192933.865000", "192935.355000", "192936.845000", "192938.335000", "192939.825000", "192941.315000", "192942.805000", "192944.295000", "192945.785000", "192947.275000", "192948.765000", "192950.255000", "192951.745000", "192953.235000", "192954.725000", "192956.215000", "192957.705000", "192959.195000", "193000.685000", "193002.175000", "193003.665000", "193005.155000", "193006.645000", "193008.135000", "193009.625000", "193011.115000", "193012.605000", "193014.095000", "193015.585000", "193017.075000", "193018.565000", "193020.055000", "193021.545000", "193023.035000", "193024.525000", "193026.015000", "193027.505000", "193028.995000", "193030.485000", "193031.975000", "193033.465000", "193034.955000", "193036.445000", "193037.935000", "193039.425000", "193040.915000", "193042.405000", "193043.895000", "193045.385000", "193046.875000", "193048.365000", "193049.855000", "193051.345000", "193052.835000", "193054.325000", "193055.815000", "193057.305000", "193058.795000", "193100.285000", "193101.775000", "193103.265000", "193104.755000", "193106.245000", "193107.735000", "193109.225000", "193110.715000", "193112.205000", "193113.695000", "193115.185000", "193116.675000", "193118.165000", "193119.655000", "193121.145000", "193122.635000", "193124.125000", "193125.615000", "193127.105000", "193128.595000", "193130.085000", "193131.575000", "193133.065000", "193134.555000", "193136.045000", "193137.535000", "193139.025000", "193140.515000", "193142.005000", "193143.495000", "193144.985000", "193146.475000", "193147.965000", "193149.455000", "193150.945000", "193152.435000", "193153.925000", "193155.415000", "193156.905000", "193158.395000", "193159.885000", "193201.375000", "193202.865000", "193204.355000", "193205.845000", "193207.335000", "193208.825000", "193210.315000", "193211.805000", "193213.295000", "193214.785000", "193216.275000", "193217.765000", "193219.255000", "193220.745000", "193222.235000", "193223.725000", "193225.215000", "193226.705000", "193228.195000", "193229.685000", "193231.175000", "193232.665000", "193234.155000", "193235.645000", "193237.135000", "193238.625000", "193240.115000", "193241.605000", "193243.095000", "193244.585000", "193246.075000", "193247.565000", "193249.055000", "193250.545000", "193252.035000", "193253.525000", "193255.015000", "193256.505000", "193257.995000", "193259.485000", "193300.975000", "193302.465000", "193303.955000", "193305.445000", "193306.935000", "193308.425000", "193309.915000", "193311.405000", "193312.895000", "193314.385000", "193315.875000", "193317.365000", "193318.855000", "193320.345000", "193321.835000", "193323.325000", "193324.815000", "193326.305000", "193327.795000", "193329.285000", "193330.775000", "193332.265000", "193333.755000", "193335.245000", "193336.735000", "193338.225000", "193339.715000", "193341.205000", "193342.695000", "193344.185000", "193345.675000", "193347.165000", "193348.655000", "193350.145000", "193351.635000", "193353.125000", "193354.615000", "193356.105000", "193357.595000", "193359.085000", "193400.575000", "193402.065000", "193403.555000", "193405.045000", "193406.535000", "193408.025000", "193409.515000", "193411.005000", "193412.495000", "193413.985000", "193415.475000", "193416.965000", "193418.455000", "193419.945000", "193421.435000", "193422.925000", "193424.415000", "193425.905000", "193427.395000", "193428.885000", "193430.375000", "193431.865000", "193433.355000", "193434.845000"],
      "ContentTime": ["192714.444000", "192714.447000", "192714.451000", "192714.454000", "192714.458000", "192714.461000", "192714.464000", "192714.467000", "192714.471000", "192714.474000", "192714.477000", "192714.488000", "192714.491000", "192714.495000", "192714.498000", "192714.502000", "192714.505000", "192714.508000", "192714.511000", "192734.410000", "192734.414000", "192734.417000", "192734.420000", "192734.423000", "192734.427000", "192734.430000", "192734.433000", "192734.437000", "192734.440000", "192734.443000", "192734.447000", "192734.450000", "192734.453000", "192734.456000", "192734.460000", "192734.463000", "192734.466000", "192734.470000", "192734.473000", "192734.476000", "192754.410000", "192754.414000", "192754.417000", "192754.421000", "192754.424000", "192754.428000", "192754.432000", "192754.435000", "192754.439000", "192754.442000", "192754.445000", "192754.449000", "192754.452000", "192754.455000", "192754.458000", "192754.462000", "192754.465000", "192754.468000", "192754.472000", "192754.475000", "192814.410000", "192814.414000", "192814.417000", "192814.421000", "192814.424000", "192814.427000", "192814.431000", "192814.434000", "192814.437000", "192814.441000", "192814.444000", "192814.447000", "192814.451000", "192814.454000", "192814.458000", "192814.461000", "192814.464000", "192814.468000", "192814.471000", "192814.474000", "192854.410000", "192854.414000", "192854.417000", "192854.421000", "192854.424000", "192854.428000", "192854.431000", "192854.434000", "192854.438000", "192854.441000", "192854.444000", "192854.448000", "192854.451000", "192854.454000", "192854.458000", "192854.461000", "192854.464000", "192854.468000", "192854.487000", "192854.490000", "192854.501000", "192854.504000", "192854.508000", "192854.511000", "192854.514000", "192854.518000", "192854.521000", "192854.525000", "192854.528000", "192854.532000", "192854.535000", "192854.538000", "192934.410000", "192934.452000", "192934.455000", "192934.459000", "192934.462000", "192934.466000", "192934.469000", "192934.472000", "192934.476000", "192934.479000", "192934.483000", "192934.486000", "192934.489000", "192934.493000", "192934.496000", "192934.499000", "192934.502000", "192934.506000", "192934.509000", "192934.513000", "192934.516000", "192934.519000", "192934.523000", "192934.526000", "192934.529000", "192934.542000", "192934.545000", "193014.410000", "193014.414000", "193014.417000", "193014.420000", "193014.424000", "193014.427000", "193014.431000", "193014.434000", "193014.437000", "193014.441000", "193014.444000", "193014.448000", "193014.451000", "193014.454000", "193014.458000", "193014.461000", "193014.464000", "193014.468000", "193014.471000", "193014.474000", "193014.478000", "193014.489000", "193014.493000", "193014.496000", "193014.499000", "193014.503000", "193054.410000", "193054.414000", "193054.417000", "193054.421000", "193054.424000", "193054.428000", "193054.431000", "193054.434000", "193054.438000", "193054.441000", "193054.444000", "193054.448000", "193054.451000", "193054.454000", "193054.458000", "193054.461000", "193054.465000", "193054.468000", "193054.471000", "193054.475000", "193054.478000", "193054.481000", "193054.485000", "193054.488000", "193054.491000", "193054.495000", "193054.498000", "193134.410000", "193134.414000", "193134.432000", "193134.435000", "193134.439000", "193134.442000", "193134.445000", "193134.449000", "193134.452000", "193134.455000", "193134.459000", "193134.462000", "193134.465000", "193134.469000", "193134.472000", "193134.476000", "193134.479000", "193134.482000", "193134.486000", "193134.489000", "193134.492000", "193134.496000", "193134.499000", "193134.502000", "193134.506000", "193134.509000", "193134.513000", "193214.410000", "193214.414000", "193214.417000", "193214.421000", "193214.424000", "193214.428000", "193214.431000", "193214.434000", "193214.438000", "193214.441000", "193214.444000", "193214.448000", "193214.451000", "193214.454000", "193214.458000", "193214.461000", "193214.465000", "193214.468000", "193214.471000", "193214.475000", "193214.478000", "193214.481000", "193214.485000", "193214.488000", "193214.491000", "193214.495000", "193214.498000", "193254.410000", "193254.414000", "193254.418000", "193254.421000", "193254.425000", "193254.428000", "193254.431000", "193254.435000", "193254.438000", "193254.442000", "193254.445000", "193254.448000", "193254.452000", "193254.455000", "193254.458000", "193254.462000", "193254.465000", "193254.469000", "193254.472000", "193254.475000", "193254.478000", "193254.482000", "193254.485000", "193254.489000", "193254.492000", "193254.496000", "193254.499000", "193334.410000", "193334.414000", "193334.417000", "193334.421000", "193334.424000", "193334.428000", "193334.431000", "193334.434000", "193334.438000", "193334.441000", "193334.444000", "193334.448000", "193334.451000", "193334.455000", "193334.468000", "193334.471000", "193334.475000", "193334.478000", "193334.481000", "193334.485000", "193334.488000", "193334.491000", "193334.495000", "193334.498000", "193334.501000", "193334.505000", "193334.508000", "193414.410000", "193414.414000", "193414.418000", "193414.421000", "193414.424000", "193414.428000", "193414.431000", "193414.435000", "193414.438000", "193414.442000", "193414.445000", "193414.448000", "193414.451000", "193414.455000", "193414.458000", "193414.462000", "193414.465000", "193414.468000", "193414.472000", "193414.475000", "193414.478000", "193414.482000", "193414.485000", "193414.489000", "193414.492000", "193414.496000", "193437.864000", "193437.870000", "193437.877000", "193437.881000", "193437.885000", "193437.888000", "193437.892000", "193437.895000", "193437.898000", "193437.902000", "193437.905000", "193437.916000", "193437.919000", "193437.923000", "193437.926000", "193437.929000"],
      "InstanceCreationTime": ["192714.444000", "192714.447000", "192714.451000", "192714.454000", "192714.458000", "192714.461000", "192714.464000", "192714.467000", "192714.471000", "192714.474000", "192714.477000", "192714.488000", "192714.491000", "192714.495000", "192714.498000", "192714.502000", "192714.505000", "192714.508000", "192714.511000", "192734.410000", "192734.414000", "192734.417000", "192734.420000", "192734.423000", "192734.427000", "192734.430000", "192734.433000", "192734.437000", "192734.440000", "192734.443000", "192734.447000", "192734.450000", "192734.453000", "192734.456000", "192734.460000", "192734.463000", "192734.466000", "192734.470000", "192734.473000", "192734.476000", "192754.410000", "192754.414000", "192754.417000", "192754.421000", "192754.424000", "192754.428000", "192754.432000", "192754.435000", "192754.439000", "192754.442000", "192754.445000", "192754.449000", "192754.452000", "192754.455000", "192754.458000", "192754.462000", "192754.465000", "192754.468000", "192754.472000", "192754.475000", "192814.410000", "192814.414000", "192814.417000", "192814.421000", "192814.424000", "192814.427000", "192814.431000", "192814.434000", "192814.437000", "192814.441000", "192814.444000", "192814.447000", "192814.451000", "192814.454000", "192814.458000", "192814.461000", "192814.464000", "192814.468000", "192814.471000", "192814.474000", "192854.410000", "192854.414000", "192854.417000", "192854.421000", "192854.424000", "192854.428000", "192854.431000", "192854.434000", "192854.438000", "192854.441000", "192854.444000", "192854.448000", "192854.451000", "192854.454000", "192854.458000", "192854.461000", "192854.464000", "192854.468000", "192854.487000", "192854.490000", "192854.501000", "192854.504000", "192854.508000", "192854.511000", "192854.514000", "192854.518000", "192854.521000", "192854.525000", "192854.528000", "192854.532000", "192854.535000", "192854.538000", "192934.410000", "192934.452000", "192934.455000", "192934.459000", "192934.462000", "192934.466000", "192934.469000", "192934.472000", "192934.476000", "192934.479000", "192934.483000", "192934.486000", "192934.489000", "192934.493000", "192934.496000", "192934.499000", "192934.502000", "192934.506000", "192934.509000", "192934.513000", "192934.516000", "192934.519000", "192934.523000", "192934.526000", "192934.529000", "192934.542000", "192934.545000", "193014.410000", "193014.414000", "193014.417000", "193014.420000", "193014.424000", "193014.427000", "193014.431000", "193014.434000", "193014.437000", "193014.441000", "193014.444000", "193014.448000", "193014.451000", "193014.454000", "193014.458000", "193014.461000", "193014.464000", "193014.468000", "193014.471000", "193014.474000", "193014.478000", "193014.489000", "193014.493000", "193014.496000", "193014.499000", "193014.503000", "193054.410000", "193054.414000", "193054.417000", "193054.421000", "193054.424000", "193054.428000", "193054.431000", "193054.434000", "193054.438000", "193054.441000", "193054.444000", "193054.448000", "193054.451000", "193054.454000", "193054.458000", "193054.461000", "193054.465000", "193054.468000", "193054.471000", "193054.475000", "193054.478000", "193054.481000", "193054.485000", "193054.488000", "193054.491000", "193054.495000", "193054.498000", "193134.410000", "193134.414000", "193134.432000", "193134.435000", "193134.439000", "193134.442000", "193134.445000", "193134.449000", "193134.452000", "193134.455000", "193134.459000", "193134.462000", "193134.465000", "193134.469000", "193134.472000", "193134.476000", "193134.479000", "193134.482000", "193134.486000", "193134.489000", "193134.492000", "193134.496000", "193134.499000", "193134.502000", "193134.506000", "193134.509000", "193134.513000", "193214.410000", "193214.414000", "193214.417000", "193214.421000", "193214.424000", "193214.428000", "193214.431000", "193214.434000", "193214.438000", "193214.441000", "193214.444000", "193214.448000", "193214.451000", "193214.454000", "193214.458000", "193214.461000", "193214.465000", "193214.468000", "193214.471000", "193214.475000", "193214.478000", "193214.481000", "193214.485000", "193214.488000", "193214.491000", "193214.495000", "193214.498000", "193254.410000", "193254.414000", "193254.418000", "193254.421000", "193254.425000", "193254.428000", "193254.431000", "193254.435000", "193254.438000", "193254.442000", "193254.445000", "193254.448000", "193254.452000", "193254.455000", "193254.458000", "193254.462000", "193254.465000", "193254.469000", "193254.472000", "193254.475000", "193254.478000", "193254.482000", "193254.485000", "193254.489000", "193254.492000", "193254.496000", "193254.499000", "193334.410000", "193334.414000", "193334.417000", "193334.421000", "193334.424000", "193334.428000", "193334.431000", "193334.434000", "193334.438000", "193334.441000", "193334.444000", "193334.448000", "193334.451000", "193334.455000", "193334.468000", "193334.471000", "193334.475000", "193334.478000", "193334.481000", "193334.485000", "193334.488000", "193334.491000", "193334.495000", "193334.498000", "193334.501000", "193334.505000", "193334.508000", "193414.410000", "193414.414000", "193414.418000", "193414.421000", "193414.424000", "193414.428000", "193414.431000", "193414.435000", "193414.438000", "193414.442000", "193414.445000", "193414.448000", "193414.451000", "193414.455000", "193414.458000", "193414.462000", "193414.465000", "193414.468000", "193414.472000", "193414.475000", "193414.478000", "193414.482000", "193414.485000", "193414.489000", "193414.492000", "193414.496000", "193437.864000", "193437.870000", "193437.877000", "193437.881000", "193437.885000", "193437.888000", "193437.892000", "193437.895000", "193437.898000", "193437.902000", "193437.905000", "193437.916000", "193437.919000", "193437.923000", "193437.926000", "193437.929000"],
      "InstanceNumber": [1, 2, 3, 4, 5, 6, 7, 8, 9, 10, 11, 12, 13, 14, 15, 16, 17, 18, 19, 20, 21, 22, 23, 24, 25, 26, 27, 28, 29, 30, 31, 32, 33, 34, 35, 36, 37, 38, 39, 40, 41, 42, 43, 44, 45, 46, 47, 48, 49, 50, 51, 52, 53, 54, 55, 56, 57, 58, 59, 60, 61, 62, 63, 64, 65, 66, 67, 68, 69, 70, 71, 72, 73, 74, 75, 76, 77, 78, 79, 80, 81, 82, 83, 84, 85, 86, 87, 88, 89, 90, 91, 92, 93, 94, 95, 96, 97, 98, 99, 100, 101, 102, 103, 104, 105, 106, 107, 108, 109, 110, 111, 112, 113, 114, 115, 116, 117, 118, 119, 120, 121, 122, 123, 124, 125, 126, 127, 128, 129, 130, 131, 132, 133, 134, 135, 136, 137, 138, 139, 140, 141, 142, 143, 144, 145, 146, 147, 148, 149, 150, 151, 152, 153, 154, 155, 156, 157, 158, 159, 160, 161, 162, 163, 164, 165, 166, 167, 168, 169, 170, 171, 172, 173, 174, 175, 176, 177, 178, 179, 180, 181, 182, 183, 184, 185, 186, 187, 188, 189, 190, 191, 192, 193, 194, 195, 196, 197, 198, 199, 200, 201, 202, 203, 204, 205, 206, 207, 208, 209, 210, 211, 212, 213, 214, 215, 216, 217, 218, 219, 220, 221, 222, 223, 224, 225, 226, 227, 228, 229, 230, 231, 232, 233, 234, 235, 236, 237, 238, 239, 240, 241, 242, 243, 244, 245, 246, 247, 248, 249, 250, 251, 252, 253, 254, 255, 256, 257, 258, 259, 260, 261, 262, 263, 264, 265, 266, 267, 268, 269, 270, 271, 272, 273, 274, 275, 276, 277, 278, 279, 280, 281, 282, 283, 284, 285, 286, 287, 288, 289, 290, 291, 292, 293, 294, 295, 296, 297, 298, 299, 300, 301, 302, 303, 304, 305, 306, 307, 308, 309, 310, 311, 312, 313, 314, 315, 316, 317, 318, 319, 320, 321, 322, 323, 324, 325, 326, 327, 328, 329, 330, 331, 332, 333, 334, 335, 336, 337, 338, 339, 340, 341, 342],
      "LargestImagePixelValue": [61505, 59879, 57660, 58464, 57487, 58089, 57051, 57532, 56932, 56613, 56422, 56935, 57022, 57098, 56821, 56737, 56591, 56578, 56531, 56463, 56050, 56656, 56302, 56578, 56647, 55963, 56023, 56079, 56248, 56109, 56474, 55820, 55699, 55513, 55332, 55686, 55888, 55444, 56044, 55660, 55467, 55588, 55467, 55381, 55427, 54221, 54174, 54208, 53545, 53420, 53578, 53840, 54668, 55971, 54109, 56114, 55729, 54996, 53515, 55842, 55942, 54902, 54117, 53995, 54964, 54518, 52223, 55105, 54250, 55176, 54624, 55789, 55418, 54517, 55334, 54726, 54320, 55233, 53752, 54783, 55282, 54932, 54408, 54981, 54681, 54679, 54635, 54929, 55231, 55664, 55588, 55466, 55778, 55146, 56259, 55122, 55402, 55685, 54782, 55920, 54808, 55803, 54551, 56509, 55824, 56270, 55527, 56613, 55627, 55731, 55583, 56017, 55461, 56341, 55580, 56228, 55877, 55578, 56938, 55695, 56226, 55489, 55290, 55675, 55144, 55039, 57575, 57557, 57305, 57260, 57552, 57230, 56446, 57129, 57129, 56872, 57598, 57754, 56781, 57431, 56745, 57691, 56873, 56838, 56555, 57426, 56753, 56620, 56925, 56551, 56788, 56931, 56261, 56905, 56671, 56686, 56466, 56512, 57390, 56702, 56723, 56207, 56422, 56611, 56619, 56965, 56499, 57328, 57514, 57194, 57259, 55414, 56897, 56591, 55313, 56353, 56404, 56982, 57316, 57034, 57199, 56932, 57609, 57438, 57513, 57015, 59032, 57772, 59173, 58438, 56998, 58387, 57561, 57337, 57689, 56557, 57386, 57540, 57203, 57422, 57696, 57568, 57386, 57866, 57778, 57375, 57314, 58046, 57779, 57755, 57671, 57042, 57196, 57208, 56879, 56856, 56743, 57259, 56901, 57816, 56828, 56816, 57041, 56587, 56761, 56248, 57361, 57154, 56576, 57507, 57064, 57336, 57369, 56872, 57774, 56514, 57825, 57152, 58278, 57514, 57563, 56903, 56778, 57753, 56654, 56885, 57059, 56555, 56766, 57108, 56746, 56807, 56971, 56917, 56072, 55633, 56214, 56182, 56980, 56709, 56650, 56155, 56314, 56121, 56366, 56275, 56654, 57637, 57737, 57256, 56910, 56982, 56865, 57348, 57190, 57584, 57190, 57574, 57416, 57704, 58369, 57523, 57115, 55330, 56184, 55869, 55807, 56343, 56807, 56562, 56134, 56018, 56022, 55821, 56918, 56639, 56945, 57144, 55812, 56931, 56848, 56759, 56561, 56389, 56859, 56367, 55920, 57020, 56628, 56738, 57734, 54957, 54343, 55352, 55781, 55304, 57104, 57407, 56671, 56947, 56525, 56463, 56508, 56279, 56251, 56896, 55716, 56830, 56375, 56846, 56619, 57114, 56718, 58451, 56366, 55311, 56560, 56506, 54874, 53962, 55910, 56355],
