{
  "AcquisitionMatrixPE": 104,
  "AcquisitionNumber": 1,
  "AcquisitionTime": "19:05:25.662500",
  "BandwidthPerPixelPhaseEncode": 17.17,
  "BaseResolution": 104,
  "BodyPartExamined": "BRAIN",
  "CoilCombinationMethod": "Sum of Squares",
  "ConsistencyInfo": "N4_VE11C_LATEST_20160120",
  "ConversionSoftware": "dcm2niix",
  "ConversionSoftwareVersion": "v1.0.20220505",
  "DerivedVendorReportedEchoSpacing": 0.000560011,
  "DeviceSerialNumber": "167006",
  "DwellTime": 2.1e-06,
  "EchoTime": 0.037,
  "EchoTrainLength": 104,
  "EffectiveEchoSpacing": 0.000560011,
  "FlipAngle": 52,
  "HeudiconvVersion": "0.5.3.post811+g6206e14",
  "ImageComments": "Unaliased MB4/PE3/LB",
  "ImageOrientationPatientDICOM": [0.999757, 0.00248157, 0.021882, 0.00610732, 0.923415, -0.383756],
  "ImageOrientationText": "Tra>Cor(-22.6)>Sag(1.2)",
  "ImageType": [
    "ORIGINAL",
    "PRIMARY",
    "M",
    "MB",
    "ND",
    "MOSAIC"
],
  "ImagingFrequency": 123.259,
  "InPlanePhaseEncodingDirectionDICOM": "COL",
  "InstitutionAddress": "Chemin Queen-Mary 4565,Montreal,District,CA,H3W 1W5",
  "InstitutionName": "IUGM",
  "InstitutionalDepartmentName": "Department",
  "MRAcquisitionType": "2D",
  "MagneticFieldStrength": 3,
  "Manufacturer": "Siemens",
  "ManufacturersModelName": "Prisma_fit",
  "MatrixCoilMode": "SENSE",
  "Modality": "MR",
  "MultibandAccelerationFactor": 4,
  "PartialFourier": 1,
  "PatientPosition": "HFS",
  "PercentPhaseFOV": 100,
  "PercentSampling": 100,
  "PhaseEncodingDirection": "j",
  "PhaseEncodingSteps": 104,
  "PhaseResolution": 1,
  "PixelBandwidth": 2290,
  "ProcedureStepDescription": "games^mario3",
  "ProtocolName": "func_task-mario3_run-03",
  "PulseSequenceDetails": "%CustomerSeq%\\cmrr_mbep2d_bold",
  "ReceiveCoilActiveElements": "HC1-7;NC1,2",
  "ReceiveCoilName": "HeadNeck_64",
  "ReconMatrixPE": 104,
  "RepetitionTime": 1.49,
  "SAR": 0.0856788,
  "ScanOptions": "FS",
  "ScanningSequence": "EP",
  "SequenceName": "epfid2d1_104",
  "SequenceVariant": "SK\\SS",
  "SeriesDescription": "func_task-mario3_run-03",
  "SeriesNumber": 16,
  "ShimSetting": [587, -7295, -8810, 404, 24, -363, -45, 95],
  "SliceThickness": 2,
  "SliceTiming": [0, 0.7825, 0.0975, 0.8825, 0.195, 0.98, 0.2925, 1.0775, 0.3925, 1.175, 0.49, 1.2725, 0.5875, 1.3725, 0.685, 0, 0.7825, 0.0975, 0.8825, 0.195, 0.98, 0.2925, 1.0775, 0.3925, 1.175, 0.49, 1.2725, 0.5875, 1.3725, 0.685, 0, 0.7825, 0.0975, 0.8825, 0.195, 0.98, 0.2925, 1.0775, 0.3925, 1.175, 0.49, 1.2725, 0.5875, 1.3725, 0.685, 0, 0.7825, 0.0975, 0.8825, 0.195, 0.98, 0.2925, 1.0775, 0.3925, 1.175, 0.49, 1.2725, 0.5875, 1.3725, 0.685],
  "SoftwareVersions": "syngo MR E11",
  "SpacingBetweenSlices": 2,
  "StationName": "MRC35049",
  "TaskName": "mario3",
  "TotalReadoutTime": 0.0576811,
  "TxRefAmp": 309.502,
  "WipMemBlock": "75c25f3a-bfa5-4b17-9bcb-c1ef1c44bf1b||Sequence: R017 ve11c/master r/75a17815+; Jun 28 2022 16:32:11 by eja",
  "dcmmeta_affine": [
    [-1.9995149374008179, 0.012214635498821735, 0.04231701418757439, 103.10347747802734],
    [-0.00496314000338316, 1.8468290567398071, -0.7675923109054565, -67.98622131347656],
    [0.04376407712697983, 0.7675111293792725, 1.8463507890701294, -64.58615112304688],
    [0.0, 0.0, 0.0, 1.0]
],
  "dcmmeta_reorient_transform": [
    [0.0, -1.0, 0.0, 103.0],
    [1.0, 0.0, 0.0, 0.0],
    [0.0, 0.0, 1.0, 0.0],
    [0.0, 0.0, 0.0, 1.0]
],
  "dcmmeta_shape": [104, 104, 60, 310],
  "dcmmeta_slice_dim": 2,
  "dcmmeta_version": 0.6,
  "global": {
    "const": {
      "AcquisitionMatrix": [104, 0, 0, 104],
      "AngioFlag": "N",
      "BitsAllocated": 16,
      "BitsStored": 16,
      "BodyPartExamined": "BRAIN",
      "Columns": 832,
      "EchoNumbers": 1,
      "EchoTime": 37.0,
      "EchoTrainLength": 104,
      "FlipAngle": 52.0,
      "HighBit": 15,
      "ImageOrientationPatient": [0.99975747970292, 0.00248156988835, 0.02188203804397, 0.00610731767702, 0.92341450962169, -0.3837555785796],
      "ImagePositionPatient": [-836.63115835605, -796.28951169361, 277.91143686391],
      "ImageType": [
        "ORIGINAL",
        "PRIMARY",
        "M",
        "MB",
        "ND",
        "MOSAIC"
],
      "ImagedNucleus": "1H",
      "ImagingFrequency": 123.259133,
      "InPlanePhaseEncodingDirection": "COL",
      "MRAcquisitionType": "2D",
      "MagneticFieldStrength": 3.0,
      "Manufacturer": "SIEMENS",
      "ManufacturerModelName": "Prisma_fit",
      "Modality": "MR",
      "NumberOfAverages": 1.0,
      "NumberOfPhaseEncodingSteps": 104,
      "PercentPhaseFieldOfView": 100.0,
      "PercentSampling": 100.0,
      "PerformedProcedureStepStartTime": "183820.357000",
      "PhotometricInterpretation": "MONOCHROME2",
      "PixelBandwidth": 2290.0,
      "PixelRepresentation": 0,
      "PixelSpacing": [2.0, 2.0],
      "ProtocolName": "func_task-mario3_run-03",
      "RepetitionTime": 1490.0,
      "Rows": 832,
      "SAR": 0.08567879929513,
      "SamplesPerPixel": 1,
      "ScanOptions": "FS",
      "ScanningSequence": "EP",
      "SequenceName": "epfid2d1_104",
      "SequenceVariant": [
        "SK",
        "SS"
],
      "SeriesDescription": "func_task-mario3_run-03",
      "SeriesNumber": 16,
      "SeriesTime": "190632.518000",
      "SliceLocation": -31.349978674553,
      "SliceThickness": 2.0,
      "SmallestImagePixelValue": 0,
      "SoftwareVersions": "syngo MR E11",
      "SpacingBetweenSlices": 2.0000000078129,
      "SpecificCharacterSet": "ISO_IR 100",
      "StudyID": "1",
      "StudyTime": "183820.284000",
      "TransmitCoilName": "Body",
      "VariableFlipAngleFlag": "N",
      "WindowCenterWidthExplanation": "Algo1",
      "dBdt": 0.0},
    "slices": {}
  },
  "time": {
    "samples": {
      "AcquisitionNumber": [1, 2, 3, 4, 5, 6, 7, 8, 9, 10, 11, 12, 13, 14, 15, 16, 17, 18, 19, 20, 21, 22, 23, 24, 25, 26, 27, 28, 29, 30, 31, 32, 33, 34, 35, 36, 37, 38, 39, 40, 41, 42, 43, 44, 45, 46, 47, 48, 49, 50, 51, 52, 53, 54, 55, 56, 57, 58, 59, 60, 61, 62, 63, 64, 65, 66, 67, 68, 69, 70, 71, 72, 73, 74, 75, 76, 77, 78, 79, 80, 81, 82, 83, 84, 85, 86, 87, 88, 89, 90, 91, 92, 93, 94, 95, 96, 97, 98, 99, 100, 101, 102, 103, 104, 105, 106, 107, 108, 109, 110, 111, 112, 113, 114, 115, 116, 117, 118, 119, 120, 121, 122, 123, 124, 125, 126, 127, 128, 129, 130, 131, 132, 133, 134, 135, 136, 137, 138, 139, 140, 141, 142, 143, 144, 145, 146, 147, 148, 149, 150, 151, 152, 153, 154, 155, 156, 157, 158, 159, 160, 161, 162, 163, 164, 165, 166, 167, 168, 169, 170, 171, 172, 173, 174, 175, 176, 177, 178, 179, 180, 181, 182, 183, 184, 185, 186, 187, 188, 189, 190, 191, 192, 193, 194, 195, 196, 197, 198, 199, 200, 201, 202, 203, 204, 205, 206, 207, 208, 209, 210, 211, 212, 213, 214, 215, 216, 217, 218, 219, 220, 221, 222, 223, 224, 225, 226, 227, 228, 229, 230, 231, 232, 233, 234, 235, 236, 237, 238, 239, 240, 241, 242, 243, 244, 245, 246, 247, 248, 249, 250, 251, 252, 253, 254, 255, 256, 257, 258, 259, 260, 261, 262, 263, 264, 265, 266, 267, 268, 269, 270, 271, 272, 273, 274, 275, 276, 277, 278, 279, 280, 281, 282, 283, 284, 285, 286, 287, 288, 289, 290, 291, 292, 293, 294, 295, 296, 297, 298, 299, 300, 301, 302, 303, 304, 305, 306, 307, 308, 309, 310],
      "AcquisitionTime": ["190525.662500", "190527.152500", "190528.642500", "190530.132500", "190531.622500", "190533.112500", "190534.602500", "190536.092500", "190537.582500", "190539.072500", "190540.562500", "190542.052500", "190543.542500", "190545.032500", "190546.522500", "190548.012500", "190549.502500", "190550.992500", "190552.482500", "190553.972500", "190555.462500", "190556.952500", "190558.442500", "190559.932500", "190601.422500", "190602.912500", "190604.402500", "190605.892500", "190607.382500", "190608.872500", "190610.362500", "190611.852500", "190613.342500", "190614.832500", "190616.322500", "190617.812500", "190619.302500", "190620.792500", "190622.282500", "190623.772500", "190625.262500", "190626.752500", "190628.242500", "190629.732500", "190631.222500", "190632.712500", "190634.202500", "190635.692500", "190637.182500", "190638.672500", "190640.162500", "190641.652500", "190643.142500", "190644.632500", "190646.122500", "190647.612500", "190649.102500", "190650.592500", "190652.082500", "190653.572500", "190655.062500", "190656.552500", "190658.042500", "190659.532500", "190701.022500", "190702.512500", "190704.002500", "190705.492500", "190706.982500", "190708.472500", "190709.962500", "190711.452500", "190712.942500", "190714.432500", "190715.922500", "190717.412500", "190718.902500", "190720.392500", "190721.882500", "190723.372500", "190724.862500", "190726.352500", "190727.842500", "190729.332500", "190730.822500", "190732.312500", "190733.802500", "190735.292500", "190736.782500", "190738.272500", "190739.762500", "190741.252500", "190742.742500", "190744.232500", "190745.722500", "190747.212500", "190748.702500", "190750.192500", "190751.682500", "190753.172500", "190754.662500", "190756.152500", "190757.642500", "190759.132500", "190800.622500", "190802.112500", "190803.602500", "190805.092500", "190806.582500", "190808.072500", "190809.562500", "190811.052500", "190812.542500", "190814.032500", "190815.522500", "190817.012500", "190818.502500", "190819.992500", "190821.482500", "190822.972500", "190824.462500", "190825.952500", "190827.442500", "190828.932500", "190830.422500", "190831.912500", "190833.402500", "190834.892500", "190836.382500", "190837.872500", "190839.362500", "190840.852500", "190842.342500", "190843.832500", "190845.322500", "190846.812500", "190848.302500", "190849.792500", "190851.282500", "190852.772500", "190854.262500", "190855.752500", "190857.242500", "190858.732500", "190900.222500", "190901.712500", "190903.202500", "190904.692500", "190906.182500", "190907.672500", "190909.162500", "190910.652500", "190912.142500", "190913.632500", "190915.122500", "190916.612500", "190918.102500", "190919.592500", "190921.082500", "190922.572500", "190924.062500", "190925.552500", "190927.042500", "190928.532500", "190930.022500", "190931.512500", "190933.002500", "190934.492500", "190935.982500", "190937.472500", "190938.962500", "190940.452500", "190941.942500", "190943.432500", "190944.922500", "190946.412500", "190947.902500", "190949.392500", "190950.882500", "190952.372500", "190953.862500", "190955.352500", "190956.842500", "190958.332500", "190959.822500", "191001.312500", "191002.802500", "191004.292500", "191005.782500", "191007.272500", "191008.762500", "191010.252500", "191011.742500", "191013.232500", "191014.722500", "191016.212500", "191017.702500", "191019.192500", "191020.682500", "191022.172500", "191023.662500", "191025.152500", "191026.642500", "191028.132500", "191029.622500", "191031.112500", "191032.602500", "191034.092500", "191035.582500", "191037.072500", "191038.562500", "191040.052500", "191041.542500", "191043.032500", "191044.522500", "191046.012500", "191047.502500", "191048.992500", "191050.482500", "191051.972500", "191053.462500", "191054.952500", "191056.442500", "191057.932500", "191059.422500", "191100.912500", "191102.402500", "191103.892500", "191105.382500", "191106.872500", "191108.362500", "191109.852500", "191111.342500", "191112.832500", "191114.322500", "191115.812500", "191117.302500", "191118.792500", "191120.282500", "191121.772500", "191123.262500", "191124.752500", "191126.242500", "191127.732500", "191129.222500", "191130.712500", "191132.202500", "191133.692500", "191135.182500", "191136.672500", "191138.162500", "191139.652500", "191141.142500", "191142.632500", "191144.122500", "191145.612500", "191147.102500", "191148.592500", "191150.082500", "191151.572500", "191153.062500", "191154.552500", "191156.042500", "191157.532500", "191159.022500", "191200.512500", "191202.002500", "191203.492500", "191204.982500", "191206.472500", "191207.962500", "191209.452500", "191210.942500", "191212.432500", "191213.922500", "191215.412500", "191216.902500", "191218.392500", "191219.882500", "191221.372500", "191222.862500", "191224.352500", "191225.842500", "191227.332500", "191228.822500", "191230.312500", "191231.802500", "191233.292500", "191234.782500", "191236.272500", "191237.762500", "191239.252500", "191240.742500", "191242.232500", "191243.722500", "191245.212500", "191246.702500", "191248.192500", "191249.682500", "191251.172500", "191252.662500", "191254.152500", "191255.642500", "191257.132500", "191258.622500", "191300.112500", "191301.602500", "191303.092500", "191304.582500", "191306.072500"],
      "ContentTime": ["190632.521000", "190632.525000", "190632.528000", "190632.532000", "190632.535000", "190632.538000", "190632.549000", "190632.553000", "190632.556000", "190632.566000", "190632.570000", "190632.573000", "190632.576000", "190632.580000", "190632.583000", "190632.587000", "190632.590000", "190652.483000", "190652.487000", "190652.490000", "190652.494000", "190652.497000", "190652.500000", "190652.504000", "190652.507000", "190652.510000", "190652.513000", "190652.517000", "190652.520000", "190652.523000", "190652.527000", "190652.530000", "190652.533000", "190652.537000", "190652.540000", "190652.543000", "190652.547000", "190712.483000", "190712.487000", "190712.490000", "190712.494000", "190712.497000", "190712.500000", "190712.504000", "190712.507000", "190712.510000", "190712.514000", "190712.517000", "190712.520000", "190712.524000", "190712.527000", "190712.530000", "190712.534000", "190712.544000", "190712.547000", "190712.556000", "190712.559000", "190732.484000", "190732.488000", "190732.492000", "190732.495000", "190732.498000", "190732.502000", "190732.505000", "190732.508000", "190732.512000", "190732.515000", "190732.518000", "190732.522000", "190732.525000", "190732.528000", "190732.532000", "190732.535000", "190732.538000", "190732.542000", "190732.545000", "190732.548000", "190752.484000", "190752.488000", "190752.491000", "190752.495000", "190752.498000", "190752.509000", "190752.513000", "190752.516000", "190752.519000", "190752.522000", "190752.526000", "190752.529000", "190752.532000", "190752.536000", "190752.539000", "190752.542000", "190752.546000", "190752.549000", "190752.552000", "190752.556000", "190832.483000", "190832.487000", "190832.490000", "190832.494000", "190832.497000", "190832.500000", "190832.512000", "190832.515000", "190832.518000", "190832.522000", "190832.525000", "190832.528000", "190832.532000", "190832.535000", "190832.539000", "190832.542000", "190832.545000", "190832.549000", "190832.557000", "190832.560000", "190832.564000", "190832.567000", "190832.571000", "190832.574000", "190832.577000", "190832.581000", "190832.584000", "190912.483000", "190912.487000", "190912.490000", "190912.494000", "190912.497000", "190912.500000", "190912.504000", "190912.507000", "190912.511000", "190912.514000", "190912.517000", "190912.520000", "190912.524000", "190912.527000", "190912.531000", "190912.534000", "190912.537000", "190912.541000", "190912.544000", "190912.547000", "190912.551000", "190912.554000", "190912.557000", "190912.560000", "190912.564000", "190912.567000", "190912.570000", "190952.484000", "190952.488000", "190952.491000", "190952.495000", "190952.498000", "190952.502000", "190952.505000", "190952.508000", "190952.512000", "190952.515000", "190952.519000", "190952.522000", "190952.525000", "190952.529000", "190952.532000", "190952.535000", "190952.539000", "190952.542000", "190952.545000", "190952.549000", "190952.552000", "190952.555000", "190952.559000", "190952.562000", "190952.565000", "190952.569000", "190952.572000", "191032.484000", "191032.488000", "191032.491000", "191032.495000", "191032.498000", "191032.502000", "191032.505000", "191032.508000", "191032.512000", "191032.515000", "191032.518000", "191032.522000", "191032.525000", "191032.528000", "191032.532000", "191032.535000", "191032.538000", "191032.542000", "191032.545000", "191032.548000", "191032.552000", "191032.555000", "191032.558000", "191032.562000", "191032.565000", "191032.581000", "191032.584000", "191112.483000", "191112.487000", "191112.490000", "191112.494000", "191112.497000", "191112.500000", "191112.504000", "191112.507000", "191112.510000", "191112.514000", "191112.517000", "191112.520000", "191112.524000", "191112.527000", "191112.530000", "191112.534000", "191112.537000", "191112.540000", "191112.544000", "191112.547000", "191112.550000", "191112.554000", "191112.557000", "191112.560000", "191112.564000", "191112.567000", "191112.571000", "191152.483000", "191152.487000", "191152.490000", "191152.494000", "191152.497000", "191152.501000", "191152.504000", "191152.507000", "191152.511000", "191152.514000", "191152.517000", "191152.521000", "191152.524000", "191152.529000", "191152.532000", "191152.536000", "191152.539000", "191152.542000", "191152.546000", "191152.549000", "191152.552000", "191152.556000", "191152.559000", "191152.562000", "191152.566000", "191152.569000", "191232.484000", "191232.488000", "191232.491000", "191232.495000", "191232.498000", "191232.502000", "191232.505000", "191232.508000", "191232.512000", "191232.515000", "191232.519000", "191232.522000", "191232.525000", "191232.529000", "191232.532000", "191232.535000", "191232.539000", "191232.542000", "191232.546000", "191232.549000", "191232.553000", "191232.556000", "191232.559000", "191232.563000", "191232.566000", "191232.569000", "191232.573000", "191309.075000", "191309.079000", "191309.082000", "191309.086000", "191309.089000", "191309.093000", "191309.096000", "191309.111000", "191309.115000", "191309.118000", "191309.122000", "191309.125000", "191309.128000", "191309.131000", "191309.135000", "191309.138000", "191309.141000", "191309.145000", "191309.148000", "191309.151000", "191309.155000", "191309.158000", "191309.162000", "191309.165000", "191309.168000"],
      "InstanceCreationTime": ["190632.521000", "190632.525000", "190632.528000", "190632.532000", "190632.535000", "190632.538000", "190632.549000", "190632.553000", "190632.556000", "190632.566000", "190632.570000", "190632.573000", "190632.576000", "190632.580000", "190632.583000", "190632.587000", "190632.590000", "190652.483000", "190652.487000", "190652.490000", "190652.494000", "190652.497000", "190652.500000", "190652.504000", "190652.507000", "190652.510000", "190652.513000", "190652.517000", "190652.520000", "190652.523000", "190652.527000", "190652.530000", "190652.533000", "190652.537000", "190652.540000", "190652.543000", "190652.547000", "190712.483000", "190712.487000", "190712.490000", "190712.494000", "190712.497000", "190712.500000", "190712.504000", "190712.507000", "190712.510000", "190712.514000", "190712.517000", "190712.520000", "190712.524000", "190712.527000", "190712.530000", "190712.534000", "190712.544000", "190712.547000", "190712.556000", "190712.559000", "190732.484000", "190732.488000", "190732.492000", "190732.495000", "190732.498000", "190732.502000", "190732.505000", "190732.508000", "190732.512000", "190732.515000", "190732.518000", "190732.522000", "190732.525000", "190732.528000", "190732.532000", "190732.535000", "190732.538000", "190732.542000", "190732.545000", "190732.548000", "190752.484000", "190752.488000", "190752.491000", "190752.495000", "190752.498000", "190752.509000", "190752.513000", "190752.516000", "190752.519000", "190752.522000", "190752.526000", "190752.529000", "190752.532000", "190752.536000", "190752.539000", "190752.542000", "190752.546000", "190752.549000", "190752.552000", "190752.556000", "190832.483000", "190832.487000", "190832.490000", "190832.494000", "190832.497000", "190832.500000", "190832.512000", "190832.515000", "190832.518000", "190832.522000", "190832.525000", "190832.528000", "190832.532000", "190832.535000", "190832.539000", "190832.542000", "190832.545000", "190832.549000", "190832.557000", "190832.560000", "190832.564000", "190832.567000", "190832.571000", "190832.574000", "190832.577000", "190832.581000", "190832.584000", "190912.483000", "190912.487000", "190912.490000", "190912.494000", "190912.497000", "190912.500000", "190912.504000", "190912.507000", "190912.511000", "190912.514000", "190912.517000", "190912.520000", "190912.524000", "190912.527000", "190912.531000", "190912.534000", "190912.537000", "190912.541000", "190912.544000", "190912.547000", "190912.551000", "190912.554000", "190912.557000", "190912.560000", "190912.564000", "190912.567000", "190912.570000", "190952.484000", "190952.488000", "190952.491000", "190952.495000", "190952.498000", "190952.502000", "190952.505000", "190952.508000", "190952.512000", "190952.515000", "190952.519000", "190952.522000", "190952.525000", "190952.529000", "190952.532000", "190952.535000", "190952.539000", "190952.542000", "190952.545000", "190952.549000", "190952.552000", "190952.555000", "190952.559000", "190952.562000", "190952.565000", "190952.569000", "190952.572000", "191032.484000", "191032.488000", "191032.491000", "191032.495000", "191032.498000", "191032.502000", "191032.505000", "191032.508000", "191032.512000", "191032.515000", "191032.518000", "191032.522000", "191032.525000", "191032.528000", "191032.532000", "191032.535000", "191032.538000", "191032.542000", "191032.545000", "191032.548000", "191032.552000", "191032.555000", "191032.558000", "191032.562000", "191032.565000", "191032.581000", "191032.584000", "191112.483000", "191112.487000", "191112.490000", "191112.494000", "191112.497000", "191112.500000", "191112.504000", "191112.507000", "191112.510000", "191112.514000", "191112.517000", "191112.520000", "191112.524000", "191112.527000", "191112.530000", "191112.534000", "191112.537000", "191112.540000", "191112.544000", "191112.547000", "191112.550000", "191112.554000", "191112.557000", "191112.560000", "191112.564000", "191112.567000", "191112.571000", "191152.483000", "191152.487000", "191152.490000", "191152.494000", "191152.497000", "191152.501000", "191152.504000", "191152.507000", "191152.511000", "191152.514000", "191152.517000", "191152.521000", "191152.524000", "191152.529000", "191152.532000", "191152.536000", "191152.539000", "191152.542000", "191152.546000", "191152.549000", "191152.552000", "191152.556000", "191152.559000", "191152.562000", "191152.566000", "191152.569000", "191232.484000", "191232.488000", "191232.491000", "191232.495000", "191232.498000", "191232.502000", "191232.505000", "191232.508000", "191232.512000", "191232.515000", "191232.519000", "191232.522000", "191232.525000", "191232.529000", "191232.532000", "191232.535000", "191232.539000", "191232.542000", "191232.546000", "191232.549000", "191232.553000", "191232.556000", "191232.559000", "191232.563000", "191232.566000", "191232.569000", "191232.573000", "191309.075000", "191309.079000", "191309.082000", "191309.086000", "191309.089000", "191309.093000", "191309.096000", "191309.111000", "191309.115000", "191309.118000", "191309.122000", "191309.125000", "191309.128000", "191309.131000", "191309.135000", "191309.138000", "191309.141000", "191309.145000", "191309.148000", "191309.151000", "191309.155000", "191309.158000", "191309.162000", "191309.165000", "191309.168000"],
      "InstanceNumber": [1, 2, 3, 4, 5, 6, 7, 8, 9, 10, 11, 12, 13, 14, 15, 16, 17, 18, 19, 20, 21, 22, 23, 24, 25, 26, 27, 28, 29, 30, 31, 32, 33, 34, 35, 36, 37, 38, 39, 40, 41, 42, 43, 44, 45, 46, 47, 48, 49, 50, 51, 52, 53, 54, 55, 56, 57, 58, 59, 60, 61, 62, 63, 64, 65, 66, 67, 68, 69, 70, 71, 72, 73, 74, 75, 76, 77, 78, 79, 80, 81, 82, 83, 84, 85, 86, 87, 88, 89, 90, 91, 92, 93, 94, 95, 96, 97, 98, 99, 100, 101, 102, 103, 104, 105, 106, 107, 108, 109, 110, 111, 112, 113, 114, 115, 116, 117, 118, 119, 120, 121, 122, 123, 124, 125, 126, 127, 128, 129, 130, 131, 132, 133, 134, 135, 136, 137, 138, 139, 140, 141, 142, 143, 144, 145, 146, 147, 148, 149, 150, 151, 152, 153, 154, 155, 156, 157, 158, 159, 160, 161, 162, 163, 164, 165, 166, 167, 168, 169, 170, 171, 172, 173, 174, 175, 176, 177, 178, 179, 180, 181, 182, 183, 184, 185, 186, 187, 188, 189, 190, 191, 192, 193, 194, 195, 196, 197, 198, 199, 200, 201, 202, 203, 204, 205, 206, 207, 208, 209, 210, 211, 212, 213, 214, 215, 216, 217, 218, 219, 220, 221, 222, 223, 224, 225, 226, 227, 228, 229, 230, 231, 232, 233, 234, 235, 236, 237, 238, 239, 240, 241, 242, 243, 244, 245, 246, 247, 248, 249, 250, 251, 252, 253, 254, 255, 256, 257, 258, 259, 260, 261, 262, 263, 264, 265, 266, 267, 268, 269, 270, 271, 272, 273, 274, 275, 276, 277, 278, 279, 280, 281, 282, 283, 284, 285, 286, 287, 288, 289, 290, 291, 292, 293, 294, 295, 296, 297, 298, 299, 300, 301, 302, 303, 304, 305, 306, 307, 308, 309, 310],
      "LargestImagePixelValue": [59869, 58417, 56961, 56642, 56254, 56730, 56231, 56796, 56361, 56186, 55998, 56362, 55933, 56782, 56107, 56014, 56195, 55959, 56755, 56933, 56881, 57239, 56764, 57071, 56943, 56974, 57131, 57047, 57611, 57201, 56997, 56301, 56700, 56594, 56335, 55972, 55421, 55140, 54798, 54765, 55261, 55833, 55574, 55838, 55726, 56241, 55977, 55908, 56211, 57376, 56038, 56410, 56944, 57259, 57893, 57140, 57450, 56925, 57558, 56747, 57592, 58403, 57865, 57391, 57047, 57426, 56702, 56569, 56203, 55923, 56334, 56388, 56880, 56468, 56831, 57213, 56953, 56262, 56943, 57183, 56818, 56872, 56778, 56251, 56810, 57146, 56227, 55114, 56231, 56030, 56801, 56422, 57116, 57096, 56640, 57020, 57149, 56648, 56735, 56174, 56019, 56227, 55802, 56472, 55796, 55823, 55988, 55768, 55675, 55096, 55330, 55888, 56273, 58022, 56737, 55272, 55133, 55346, 54948, 54441, 55321, 54549, 56262, 56126, 55977, 56404, 56527, 55323, 55606, 55147, 55319, 54353, 54790, 55511, 54652, 55276, 55061, 55729, 55689, 54965, 55811, 56663, 55816, 55690, 56044, 55710, 56289, 55787, 56051, 55846, 54602, 55827, 54883, 55773, 55977, 55278, 55694, 55872, 55502, 55332, 55653, 55442, 56022, 55264, 54846, 55630, 54649, 55290, 55494, 54432, 53421, 53731, 58062, 52046, 54478, 54074, 53883, 55047, 55746, 54451, 54464, 55224, 55124, 53392, 54081, 54672, 53131, 53209, 54131, 54887, 53920, 56530, 55306, 55237, 55023, 54612, 55374, 54807, 54395, 54085, 54406, 55461, 55599, 53847, 56918, 55917, 56823, 56719, 55790, 55998, 55731, 56004, 57331, 57028, 57365, 56603, 55711, 57253, 54834, 55952, 56231, 57949, 57981, 58007, 57321, 57780, 57062, 57135, 57714, 56941, 58181, 57953, 55925, 56681, 55937, 54844, 56073, 56225, 57126, 55012, 59118, 56917, 56292, 56708, 54680, 53309, 54728, 56671, 54117, 54674, 55050, 54811, 55714, 55423, 55402, 55415, 54021, 53525, 54775, 53869, 54185, 53565, 53737, 52809, 53175, 53317, 53051, 53228, 53399, 53596, 53384, 52595, 52799, 53074, 52726, 52999, 52598, 53182, 53065, 53522, 52626, 53210, 54652, 53840, 54104, 53654, 54918, 54513, 57638, 55820, 53980, 54743, 53394, 52965, 52772, 52977, 53122, 53037, 53810, 54614, 53301, 54905, 53586, 53787, 53687, 53488, 53615, 54594, 53703, 54499],
      "WindowCenter": [10659.0, 10607.0, 10575.0, 10575.0, 10557.0, 10559.0, 10554.0, 10547.0, 10559.0, 10574.0, 10594.0, 10610.0, 10625.0, 10624.0, 10620.0, 10618.0, 10610.0, 10612.0, 10621.0, 10613.0, 10605.0, 10611.0, 10599.0, 10599.0, 10588.0, 10588.0, 10593.0, 10583.0, 10583.0, 10577.0, 10577.0, 10576.0, 10584.0, 10584.0, 10585.0, 10561.0, 10581.0, 10571.0, 10572.0, 10565.0, 10564.0, 10558.0, 10547.0, 10544.0, 10537.0, 10538.0, 10555.0, 10573.0, 10580.0, 10600.0, 10581.0, 10590.0, 10594.0, 10601.0, 10608.0, 10573.0, 10607.0, 10603.0, 10607.0, 10596.0, 10605.0, 10623.0, 10611.0, 10600.0, 10622.0, 10609.0, 10587.0, 10591.0, 10587.0, 10585.0, 10588.0, 10593.0, 10600.0, 10584.0, 10589.0, 10605.0, 10599.0, 10578.0, 10589.0, 10599.0, 10582.0, 10590.0, 10558.0, 10568.0, 10583.0, 10592.0, 10553.0, 10578.0, 10587.0, 10586.0, 10575.0, 10558.0, 10556.0, 10566.0, 10575.0, 10581.0, 10605.0, 10604.0, 10601.0, 10612.0, 10624.0, 10612.0, 10617.0, 10611.0, 10597.0, 10588.0, 10596.0, 10596.0, 10608.0, 10602.0, 10600.0, 10587.0, 10607.0, 10549.0, 10529.0, 10492.0, 10481.0, 10502.0, 10489.0, 10510.0, 10502.0, 10511.0, 10536.0, 10540.0, 10549.0, 10557.0, 10559.0, 10574.0, 10560.0, 10575.0, 10590.0, 10610.0, 10618.0, 10631.0, 10610.0, 10615.0, 10592.0, 10592.0, 10526.0, 10574.0, 10574.0, 10576.0, 10575.0, 10560.0, 10576.0, 10530.0, 10564.0, 10564.0, 10578.0, 10596.0, 10585.0, 10621.0, 10599.0, 10606.0, 10604.0, 10600.0, 10597.0, 10603.0, 10598.0, 10599.0, 10615.0, 10599.0, 10629.0, 10601.0, 10604.0, 10600.0, 10577.0, 10583.0, 10602.0, 10584.0, 10607.0, 10645.0, 10535.0, 10360.0, 10574.0, 10542.0, 10516.0, 10535.0, 10533.0, 10552.0, 10576.0, 10559.0, 10572.0, 10536.0, 10567.0, 10535.0, 10521.0, 10519.0, 10520.0, 10507.0, 10451.0, 10497.0, 10461.0, 10502.0, 10484.0, 10520.0, 10587.0, 10576.0, 10552.0, 10576.0, 10619.0, 10634.0, 10633.0, 10603.0, 10660.0, 10596.0, 10609.0, 10580.0, 10607.0, 10604.0, 10582.0, 10590.0, 10562.0, 10581.0, 10597.0, 10574.0, 10577.0, 10596.0, 10565.0, 10583.0, 10599.0, 10606.0, 10646.0, 10636.0, 10607.0, 10585.0, 10552.0, 10542.0, 10564.0, 10561.0, 10571.0, 10560.0, 10606.0, 10603.0, 10589.0, 10576.0, 10599.0, 10582.0, 10609.0, 10559.0, 10589.0, 10588.0, 10567.0, 10563.0, 10584.0, 10524.0, 10546.0, 10588.0, 10509.0, 10570.0, 10587.0, 10547.0, 10540.0, 10568.0, 10563.0, 10565.0, 10562.0, 10559.0, 10517.0, 10527.0, 10518.0, 10527.0, 10572.0, 10520.0, 10564.0, 10561.0, 10542.0, 10547.0, 10547.0, 10555.0, 10545.0, 10516.0, 10547.0, 10538.0, 10546.0, 10563.0, 10560.0, 10569.0, 10562.0, 10557.0, 10525.0, 10522.0, 10532.0, 10535.0, 10551.0, 10571.0, 10571.0, 10548.0, 10533.0, 10503.0, 10460.0, 10458.0, 10463.0, 10499.0, 10517.0, 10502.0, 10465.0, 10451.0, 10454.0, 10485.0, 10496.0, 10526.0, 10530.0, 10532.0, 10545.0, 10539.0, 10547.0, 10563.0, 10561.0, 10574.0],
