{
  "AcquisitionMatrixPE": 104,
  "AcquisitionNumber": 1,
  "AcquisitionTime": "18:41:57.910000",
  "BandwidthPerPixelPhaseEncode": 17.17,
  "BaseResolution": 104,
  "BodyPartExamined": "BRAIN",
  "CoilCombinationMethod": "Sum of Squares",
  "ConsistencyInfo": "N4_VE11C_LATEST_20160120",
  "ConversionSoftware": "dcm2niix",
  "ConversionSoftwareVersion": "v1.0.20220505",
  "DerivedVendorReportedEchoSpacing": 0.000560011,
  "DeviceSerialNumber": "167006",
  "DwellTime": 2.1e-06,
  "EchoTime": 0.037,
  "EchoTime1": 0.037,
  "EchoTime2": 0.001,
  "EchoTrainLength": 104,
  "EffectiveEchoSpacing": 0.000560011,
  "FlipAngle": 52,
  "HeudiconvVersion": "0.5.3.post811+g6206e14",
  "ImageComments": "Unaliased MB4/PE3/LB",
  "ImageOrientationPatientDICOM": [0.999757, 0.00248157, 0.021882, 0.00610732, 0.923415, -0.383756],
  "ImageOrientationText": "Tra>Cor(-22.6)>Sag(1.2)",
  "ImageType": [
    "ORIGINAL",
    "PRIMARY",
    "P",
    "MB",
    "ND",
    "MOSAIC",
    "PHASE"
],
  "ImagingFrequency": 123.259,
  "InPlanePhaseEncodingDirectionDICOM": "COL",
  "InstitutionAddress": "Chemin Queen-Mary 4565,Montreal,District,CA,H3W 1W5",
  "InstitutionName": "IUGM",
  "InstitutionalDepartmentName": "Department",
  "MRAcquisitionType": "2D",
  "MagneticFieldStrength": 3,
  "Manufacturer": "Siemens",
  "ManufacturersModelName": "Prisma_fit",
  "MatrixCoilMode": "SENSE",
  "Modality": "MR",
  "MultibandAccelerationFactor": 4,
  "PartialFourier": 1,
  "PatientPosition": "HFS",
  "PercentPhaseFOV": 100,
  "PercentSampling": 100,
  "PhaseEncodingDirection": "j",
  "PhaseEncodingSteps": 104,
  "PhaseResolution": 1,
  "PixelBandwidth": 2290,
  "ProcedureStepDescription": "games^mario3",
  "ProtocolName": "func_task-mario3_run-01",
  "PulseSequenceDetails": "%CustomerSeq%\\cmrr_mbep2d_bold",
  "ReceiveCoilActiveElements": "HC1-7;NC1,2",
  "ReceiveCoilName": "HeadNeck_64",
  "ReconMatrixPE": 104,
  "RepetitionTime": 1.49,
  "SAR": 0.0856788,
  "ScanOptions": "FS",
  "ScanningSequence": "EP",
  "SequenceName": "epfid2d1_104",
  "SequenceVariant": "SK\\SS",
  "SeriesDescription": "func_task-mario3_run-01",
  "SeriesNumber": 11,
  "ShimSetting": [587, -7295, -8810, 404, 24, -363, -45, 95],
  "SliceThickness": 2,
  "SliceTiming": [0, 0.7825, 0.0975, 0.8825, 0.195, 0.98, 0.295, 1.0775, 0.3925, 1.175, 0.49, 1.2725, 0.5875, 1.3725, 0.685, 0, 0.7825, 0.0975, 0.8825, 0.195, 0.98, 0.295, 1.0775, 0.3925, 1.175, 0.49, 1.2725, 0.5875, 1.3725, 0.685, 0, 0.7825, 0.0975, 0.8825, 0.195, 0.98, 0.295, 1.0775, 0.3925, 1.175, 0.49, 1.2725, 0.5875, 1.3725, 0.685, 0, 0.7825, 0.0975, 0.8825, 0.195, 0.98, 0.295, 1.0775, 0.3925, 1.175, 0.49, 1.2725, 0.5875, 1.3725, 0.685],
  "SoftwareVersions": "syngo MR E11",
  "SpacingBetweenSlices": 2,
  "StationName": "MRC35049",
  "TaskName": "mario3",
  "TotalReadoutTime": 0.0576811,
  "TxRefAmp": 309.502,
  "WipMemBlock": "1c2a2605-b6b1-4218-96c3-a17cd57bd3a4||Sequence: R017 ve11c/master r/75a17815+; Jun 28 2022 16:32:11 by eja",
  "dcmmeta_affine": [
    [-1.9995149374008179, 0.012214635498821735, 0.04231701418757439, 103.10347747802734],
    [-0.00496314000338316, 1.8468290567398071, -0.7675923109054565, -67.98622131347656],
    [0.04376407712697983, 0.7675111293792725, 1.8463507890701294, -64.58615112304688],
    [0.0, 0.0, 0.0, 1.0]
],
  "dcmmeta_reorient_transform": [
    [0.0, -1.0, 0.0, 103.0],
    [1.0, 0.0, 0.0, 0.0],
    [0.0, 0.0, 1.0, 0.0],
    [0.0, 0.0, 0.0, 1.0]
],
  "dcmmeta_shape": [104, 104, 60, 346],
  "dcmmeta_slice_dim": 2,
  "dcmmeta_version": 0.6,
  "global": {
    "const": {
      "AcquisitionMatrix": [104, 0, 0, 104],
      "AngioFlag": "N",
      "BitsAllocated": 16,
      "BitsStored": 16,
      "BodyPartExamined": "BRAIN",
      "Columns": 832,
      "EchoNumbers": 1,
      "EchoTime": 37.0,
      "EchoTrainLength": 104,
      "FlipAngle": 52.0,
      "HighBit": 15,
      "ImageOrientationPatient": [0.99975747970292, 0.00248156988835, 0.02188203804397, 0.00610731767702, 0.92341450962169, -0.3837555785796],
      "ImagePositionPatient": [-836.63115835605, -796.28951169361, 277.91143686391],
      "ImageType": [
        "ORIGINAL",
        "PRIMARY",
        "P",
        "MB",
        "ND",
        "MOSAIC"
],
      "ImagedNucleus": "1H",
      "ImagingFrequency": 123.259129,
      "InPlanePhaseEncodingDirection": "COL",
      "LargestImagePixelValue": 4095,
      "MRAcquisitionType": "2D",
      "MagneticFieldStrength": 3.0,
      "Manufacturer": "SIEMENS",
      "ManufacturerModelName": "Prisma_fit",
      "Modality": "MR",
      "NumberOfAverages": 1.0,
      "NumberOfPhaseEncodingSteps": 104,
      "PercentPhaseFieldOfView": 100.0,
      "PercentSampling": 100.0,
      "PerformedProcedureStepStartTime": "183820.357000",
      "PhotometricInterpretation": "MONOCHROME2",
      "PixelBandwidth": 2290.0,
      "PixelRepresentation": 0,
      "PixelSpacing": [2.0, 2.0],
      "ProtocolName": "func_task-mario3_run-01",
      "RepetitionTime": 1490.0,
      "RescaleIntercept": -4096.0,
      "RescaleSlope": 2.0,
      "RescaleType": "US",
      "Rows": 832,
      "SAR": 0.08567879929513,
      "SamplesPerPixel": 1,
      "ScanOptions": "FS",
      "ScanningSequence": "EP",
      "SequenceName": "epfid2d1_104",
      "SequenceVariant": [
        "SK",
        "SS"
],
      "SeriesDescription": "func_task-mario3_run-01",
      "SeriesNumber": 11,
      "SeriesTime": "184308.269000",
      "SliceLocation": -31.349978674553,
      "SliceThickness": 2.0,
      "SmallestImagePixelValue": 0,
      "SoftwareVersions": "syngo MR E11",
      "SpacingBetweenSlices": 2.0000000078129,
      "SpecificCharacterSet": "ISO_IR 100",
      "StudyID": "1",
      "StudyTime": "183820.284000",
      "TransmitCoilName": "Body",
      "VariableFlipAngleFlag": "N",
      "WindowCenterWidthExplanation": "Algo1",
      "dBdt": 0.0},
    "slices": {}
  },
  "time": {
    "samples": {
      "AcquisitionNumber": [1, 2, 3, 4, 5, 6, 7, 8, 9, 10, 11, 12, 13, 14, 15, 16, 17, 18, 19, 20, 21, 22, 23, 24, 25, 26, 27, 28, 29, 30, 31, 32, 33, 34, 35, 36, 37, 38, 39, 40, 41, 42, 43, 44, 45, 46, 47, 48, 49, 50, 51, 52, 53, 54, 55, 56, 57, 58, 59, 60, 61, 62, 63, 64, 65, 66, 67, 68, 69, 70, 71, 72, 73, 74, 75, 76, 77, 78, 79, 80, 81, 82, 83, 84, 85, 86, 87, 88, 89, 90, 91, 92, 93, 94, 95, 96, 97, 98, 99, 100, 101, 102, 103, 104, 105, 106, 107, 108, 109, 110, 111, 112, 113, 114, 115, 116, 117, 118, 119, 120, 121, 122, 123, 124, 125, 126, 127, 128, 129, 130, 131, 132, 133, 134, 135, 136, 137, 138, 139, 140, 141, 142, 143, 144, 145, 146, 147, 148, 149, 150, 151, 152, 153, 154, 155, 156, 157, 158, 159, 160, 161, 162, 163, 164, 165, 166, 167, 168, 169, 170, 171, 172, 173, 174, 175, 176, 177, 178, 179, 180, 181, 182, 183, 184, 185, 186, 187, 188, 189, 190, 191, 192, 193, 194, 195, 196, 197, 198, 199, 200, 201, 202, 203, 204, 205, 206, 207, 208, 209, 210, 211, 212, 213, 214, 215, 216, 217, 218, 219, 220, 221, 222, 223, 224, 225, 226, 227, 228, 229, 230, 231, 232, 233, 234, 235, 236, 237, 238, 239, 240, 241, 242, 243, 244, 245, 246, 247, 248, 249, 250, 251, 252, 253, 254, 255, 256, 257, 258, 259, 260, 261, 262, 263, 264, 265, 266, 267, 268, 269, 270, 271, 272, 273, 274, 275, 276, 277, 278, 279, 280, 281, 282, 283, 284, 285, 286, 287, 288, 289, 290, 291, 292, 293, 294, 295, 296, 297, 298, 299, 300, 301, 302, 303, 304, 305, 306, 307, 308, 309, 310, 311, 312, 313, 314, 315, 316, 317, 318, 319, 320, 321, 322, 323, 324, 325, 326, 327, 328, 329, 330, 331, 332, 333, 334, 335, 336, 337, 338, 339, 340, 341, 342, 343, 344, 345, 346],
      "AcquisitionTime": ["184157.910000", "184159.400000", "184200.890000", "184202.380000", "184203.870000", "184205.360000", "184206.850000", "184208.340000", "184209.830000", "184211.320000", "184212.810000", "184214.300000", "184215.790000", "184217.280000", "184218.770000", "184220.260000", "184221.750000", "184223.240000", "184224.730000", "184226.220000", "184227.710000", "184229.200000", "184230.690000", "184232.180000", "184233.670000", "184235.160000", "184236.650000", "184238.140000", "184239.630000", "184241.120000", "184242.610000", "184244.100000", "184245.590000", "184247.080000", "184248.570000", "184250.060000", "184251.550000", "184253.040000", "184254.530000", "184256.020000", "184257.510000", "184259.000000", "184300.490000", "184301.980000", "184303.470000", "184304.960000", "184306.450000", "184307.940000", "184309.430000", "184310.920000", "184312.410000", "184313.900000", "184315.390000", "184316.880000", "184318.370000", "184319.860000", "184321.350000", "184322.840000", "184324.330000", "184325.820000", "184327.310000", "184328.800000", "184330.290000", "184331.780000", "184333.270000", "184334.760000", "184336.250000", "184337.740000", "184339.230000", "184340.720000", "184342.210000", "184343.700000", "184345.190000", "184346.680000", "184348.170000", "184349.660000", "184351.150000", "184352.640000", "184354.130000", "184355.620000", "184357.110000", "184358.600000", "184400.090000", "184401.580000", "184403.070000", "184404.560000", "184406.050000", "184407.540000", "184409.030000", "184410.520000", "184412.010000", "184413.500000", "184414.990000", "184416.480000", "184417.970000", "184419.460000", "184420.950000", "184422.440000", "184423.930000", "184425.420000", "184426.910000", "184428.400000", "184429.890000", "184431.380000", "184432.870000", "184434.360000", "184435.850000", "184437.340000", "184438.830000", "184440.320000", "184441.810000", "184443.300000", "184444.790000", "184446.280000", "184447.770000", "184449.260000", "184450.750000", "184452.240000", "184453.730000", "184455.220000", "184456.710000", "184458.200000", "184459.690000", "184501.180000", "184502.670000", "184504.160000", "184505.650000", "184507.140000", "184508.630000", "184510.120000", "184511.610000", "184513.100000", "184514.590000", "184516.080000", "184517.570000", "184519.060000", "184520.550000", "184522.040000", "184523.530000", "184525.020000", "184526.510000", "184528.000000", "184529.490000", "184530.980000", "184532.470000", "184533.960000", "184535.450000", "184536.940000", "184538.430000", "184539.920000", "184541.410000", "184542.900000", "184544.390000", "184545.880000", "184547.370000", "184548.860000", "184550.350000", "184551.840000", "184553.330000", "184554.820000", "184556.310000", "184557.800000", "184559.290000", "184600.780000", "184602.270000", "184603.760000", "184605.250000", "184606.740000", "184608.230000", "184609.720000", "184611.210000", "184612.700000", "184614.190000", "184615.680000", "184617.170000", "184618.660000", "184620.150000", "184621.640000", "184623.130000", "184624.620000", "184626.110000", "184627.600000", "184629.090000", "184630.580000", "184632.070000", "184633.560000", "184635.050000", "184636.540000", "184638.030000", "184639.520000", "184641.010000", "184642.500000", "184643.990000", "184645.480000", "184646.970000", "184648.460000", "184649.950000", "184651.440000", "184652.930000", "184654.420000", "184655.910000", "184657.400000", "184658.890000", "184700.380000", "184701.870000", "184703.360000", "184704.850000", "184706.340000", "184707.830000", "184709.320000", "184710.810000", "184712.300000", "184713.790000", "184715.280000", "184716.770000", "184718.260000", "184719.750000", "184721.240000", "184722.730000", "184724.220000", "184725.710000", "184727.200000", "184728.690000", "184730.180000", "184731.670000", "184733.160000", "184734.650000", "184736.140000", "184737.630000", "184739.120000", "184740.610000", "184742.100000", "184743.590000", "184745.080000", "184746.570000", "184748.060000", "184749.550000", "184751.040000", "184752.530000", "184754.020000", "184755.510000", "184757.000000", "184758.490000", "184759.980000", "184801.470000", "184802.960000", "184804.450000", "184805.940000", "184807.430000", "184808.920000", "184810.410000", "184811.900000", "184813.390000", "184814.880000", "184816.370000", "184817.860000", "184819.350000", "184820.840000", "184822.330000", "184823.820000", "184825.310000", "184826.800000", "184828.290000", "184829.780000", "184831.270000", "184832.760000", "184834.250000", "184835.740000", "184837.230000", "184838.720000", "184840.210000", "184841.700000", "184843.190000", "184844.680000", "184846.170000", "184847.660000", "184849.150000", "184850.640000", "184852.130000", "184853.620000", "184855.110000", "184856.600000", "184858.090000", "184859.580000", "184901.070000", "184902.560000", "184904.050000", "184905.540000", "184907.030000", "184908.520000", "184910.010000", "184911.500000", "184912.990000", "184914.480000", "184915.970000", "184917.460000", "184918.950000", "184920.440000", "184921.930000", "184923.420000", "184924.910000", "184926.400000", "184927.890000", "184929.380000", "184930.870000", "184932.360000", "184933.850000", "184935.340000", "184936.830000", "184938.320000", "184939.810000", "184941.300000", "184942.790000", "184944.280000", "184945.770000", "184947.260000", "184948.750000", "184950.240000", "184951.730000", "184953.220000", "184954.710000", "184956.200000", "184957.690000", "184959.180000", "185000.670000", "185002.160000", "185003.650000", "185005.140000", "185006.630000", "185008.120000", "185009.610000", "185011.100000", "185012.590000", "185014.080000", "185015.570000", "185017.060000", "185018.550000", "185020.040000", "185021.530000", "185023.020000", "185024.510000", "185026.000000", "185027.490000", "185028.980000", "185030.470000", "185031.960000"],
      "ContentTime": ["184308.272000", "184308.274000", "184308.277000", "184308.280000", "184308.282000", "184308.284000", "184308.287000", "184308.290000", "184308.306000", "184308.309000", "184308.311000", "184308.314000", "184308.316000", "184308.319000", "184308.321000", "184308.324000", "184308.327000", "184308.329000", "184308.332000", "184308.343000", "184308.346000", "184308.348000", "184328.206000", "184328.209000", "184328.212000", "184328.214000", "184328.229000", "184328.232000", "184328.234000", "184328.237000", "184328.239000", "184328.242000", "184328.244000", "184328.247000", "184328.249000", "184328.252000", "184328.254000", "184328.257000", "184328.260000", "184328.262000", "184328.265000", "184328.267000", "184348.280000", "184348.283000", "184348.285000", "184348.288000", "184348.291000", "184348.293000", "184348.296000", "184348.298000", "184348.301000", "184348.303000", "184348.306000", "184348.308000", "184348.311000", "184348.313000", "184348.316000", "184348.318000", "184348.321000", "184348.323000", "184348.326000", "184348.329000", "184408.211000", "184408.213000", "184408.216000", "184408.219000", "184408.221000", "184408.224000", "184408.226000", "184408.229000", "184408.231000", "184408.234000", "184408.236000", "184408.239000", "184408.241000", "184408.245000", "184408.248000", "184408.250000", "184408.253000", "184408.255000", "184408.258000", "184408.261000", "184408.263000", "184448.910000", "184448.913000", "184448.924000", "184448.926000", "184448.929000", "184448.932000", "184448.934000", "184448.937000", "184448.939000", "184448.942000", "184448.944000", "184448.947000", "184448.949000", "184448.952000", "184448.954000", "184448.957000", "184448.959000", "184448.962000", "184448.964000", "184448.967000", "184448.969000", "184448.972000", "184448.974000", "184448.977000", "184448.980000", "184448.982000", "184448.985000", "184448.987000", "184448.990000", "184448.992000", "184528.245000", "184528.247000", "184528.250000", "184528.253000", "184528.255000", "184528.258000", "184528.260000", "184528.263000", "184528.265000", "184528.268000", "184528.271000", "184528.273000", "184528.276000", "184528.278000", "184528.281000", "184528.283000", "184528.286000", "184528.288000", "184528.291000", "184528.294000", "184528.296000", "184528.298000", "184528.301000", "184528.304000", "184528.306000", "184528.309000", "184528.311000", "184608.275000", "184608.278000", "184608.281000", "184608.283000", "184608.286000", "184608.289000", "184608.291000", "184608.294000", "184608.296000", "184608.299000", "184608.301000", "184608.304000", "184608.306000", "184608.309000", "184608.311000", "184608.314000", "184608.316000", "184608.319000", "184608.331000", "184608.334000", "184608.336000", "184608.339000", "184608.342000", "184608.344000", "184608.347000", "184608.349000", "184608.352000", "184648.272000", "184648.275000", "184648.277000", "184648.280000", "184648.282000", "184648.285000", "184648.287000", "184648.290000", "184648.293000", "184648.295000", "184648.298000", "184648.300000", "184648.303000", "184648.305000", "184648.308000", "184648.311000", "184648.313000", "184648.316000", "184648.318000", "184648.321000", "184648.323000", "184648.326000", "184648.328000", "184648.331000", "184648.333000", "184648.336000", "184648.338000", "184728.253000", "184728.255000", "184728.258000", "184728.261000", "184728.264000", "184728.267000", "184728.269000", "184728.272000", "184728.274000", "184728.277000", "184728.280000", "184728.282000", "184728.285000", "184728.287000", "184728.290000", "184728.292000", "184728.295000", "184728.298000", "184728.300000", "184728.303000", "184728.305000", "184728.308000", "184728.311000", "184728.313000", "184728.316000", "184728.318000", "184728.321000", "184808.255000", "184808.259000", "184808.262000", "184808.288000", "184808.292000", "184808.295000", "184808.297000", "184808.300000", "184808.303000", "184808.305000", "184808.308000", "184808.310000", "184808.313000", "184808.315000", "184808.318000", "184808.320000", "184808.323000", "184808.326000", "184808.328000", "184808.331000", "184808.333000", "184808.336000", "184808.338000", "184808.341000", "184808.343000", "184808.346000", "184848.251000", "184848.254000", "184848.256000", "184848.260000", "184848.262000", "184848.265000", "184848.267000", "184848.270000", "184848.273000", "184848.276000", "184848.278000", "184848.281000", "184848.283000", "184848.286000", "184848.289000", "184848.291000", "184848.294000", "184848.296000", "184848.299000", "184848.302000", "184848.304000", "184848.307000", "184848.309000", "184848.312000", "184848.314000", "184848.317000", "184848.319000", "184928.266000", "184928.269000", "184928.272000", "184928.274000", "184928.277000", "184928.280000", "184928.282000", "184928.285000", "184928.287000", "184928.290000", "184928.292000", "184928.295000", "184928.297000", "184928.300000", "184928.303000", "184928.305000", "184928.307000", "184928.310000", "184928.313000", "184928.315000", "184928.318000", "184928.320000", "184928.323000", "184928.325000", "184928.328000", "184928.331000", "184928.333000", "185008.246000", "185008.249000", "185008.251000", "185008.254000", "185008.256000", "185008.259000", "185008.262000", "185008.264000", "185008.267000", "185008.269000", "185008.272000", "185008.275000", "185008.277000", "185008.280000", "185008.282000", "185008.285000", "185008.287000", "185008.290000", "185008.292000", "185008.295000", "185008.297000", "185008.300000", "185008.302000", "185008.305000", "185008.308000", "185008.310000", "185008.313000", "185034.911000", "185034.914000", "185034.916000", "185034.919000", "185034.921000", "185034.924000", "185034.927000", "185034.929000", "185034.932000", "185034.934000", "185034.937000", "185034.940000", "185034.942000", "185034.945000", "185034.948000", "185034.950000", "185034.953000", "185034.955000"],
      "InstanceCreationTime": ["184308.272000", "184308.274000", "184308.277000", "184308.280000", "184308.282000", "184308.284000", "184308.287000", "184308.290000", "184308.306000", "184308.309000", "184308.311000", "184308.314000", "184308.316000", "184308.319000", "184308.321000", "184308.324000", "184308.327000", "184308.329000", "184308.332000", "184308.343000", "184308.346000", "184308.348000", "184328.206000", "184328.209000", "184328.212000", "184328.214000", "184328.229000", "184328.232000", "184328.234000", "184328.237000", "184328.239000", "184328.242000", "184328.244000", "184328.247000", "184328.249000", "184328.252000", "184328.254000", "184328.257000", "184328.260000", "184328.262000", "184328.265000", "184328.267000", "184348.280000", "184348.283000", "184348.285000", "184348.288000", "184348.291000", "184348.293000", "184348.296000", "184348.298000", "184348.301000", "184348.303000", "184348.306000", "184348.308000", "184348.311000", "184348.313000", "184348.316000", "184348.318000", "184348.321000", "184348.323000", "184348.326000", "184348.329000", "184408.211000", "184408.213000", "184408.216000", "184408.219000", "184408.221000", "184408.224000", "184408.226000", "184408.229000", "184408.231000", "184408.234000", "184408.236000", "184408.239000", "184408.241000", "184408.245000", "184408.248000", "184408.250000", "184408.253000", "184408.255000", "184408.258000", "184408.261000", "184408.263000", "184448.910000", "184448.913000", "184448.924000", "184448.926000", "184448.929000", "184448.932000", "184448.934000", "184448.937000", "184448.939000", "184448.942000", "184448.944000", "184448.947000", "184448.949000", "184448.952000", "184448.954000", "184448.957000", "184448.959000", "184448.962000", "184448.964000", "184448.967000", "184448.969000", "184448.972000", "184448.974000", "184448.977000", "184448.980000", "184448.982000", "184448.985000", "184448.987000", "184448.990000", "184448.992000", "184528.245000", "184528.247000", "184528.250000", "184528.253000", "184528.255000", "184528.258000", "184528.260000", "184528.263000", "184528.265000", "184528.268000", "184528.271000", "184528.273000", "184528.276000", "184528.278000", "184528.281000", "184528.283000", "184528.286000", "184528.288000", "184528.291000", "184528.294000", "184528.296000", "184528.298000", "184528.301000", "184528.304000", "184528.306000", "184528.309000", "184528.311000", "184608.275000", "184608.278000", "184608.281000", "184608.283000", "184608.286000", "184608.289000", "184608.291000", "184608.294000", "184608.296000", "184608.299000", "184608.301000", "184608.304000", "184608.306000", "184608.309000", "184608.311000", "184608.314000", "184608.316000", "184608.319000", "184608.331000", "184608.334000", "184608.336000", "184608.339000", "184608.342000", "184608.344000", "184608.347000", "184608.349000", "184608.352000", "184648.272000", "184648.275000", "184648.277000", "184648.280000", "184648.282000", "184648.285000", "184648.287000", "184648.290000", "184648.293000", "184648.295000", "184648.298000", "184648.300000", "184648.303000", "184648.305000", "184648.308000", "184648.311000", "184648.313000", "184648.316000", "184648.318000", "184648.321000", "184648.323000", "184648.326000", "184648.328000", "184648.331000", "184648.333000", "184648.336000", "184648.338000", "184728.253000", "184728.255000", "184728.258000", "184728.261000", "184728.264000", "184728.267000", "184728.269000", "184728.272000", "184728.274000", "184728.277000", "184728.280000", "184728.282000", "184728.285000", "184728.287000", "184728.290000", "184728.292000", "184728.295000", "184728.298000", "184728.300000", "184728.303000", "184728.305000", "184728.308000", "184728.311000", "184728.313000", "184728.316000", "184728.318000", "184728.321000", "184808.255000", "184808.259000", "184808.262000", "184808.288000", "184808.292000", "184808.295000", "184808.297000", "184808.300000", "184808.303000", "184808.305000", "184808.308000", "184808.310000", "184808.313000", "184808.315000", "184808.318000", "184808.320000", "184808.323000", "184808.326000", "184808.328000", "184808.331000", "184808.333000", "184808.336000", "184808.338000", "184808.341000", "184808.343000", "184808.346000", "184848.251000", "184848.254000", "184848.256000", "184848.260000", "184848.262000", "184848.265000", "184848.267000", "184848.270000", "184848.273000", "184848.276000", "184848.278000", "184848.281000", "184848.283000", "184848.286000", "184848.289000", "184848.291000", "184848.294000", "184848.296000", "184848.299000", "184848.302000", "184848.304000", "184848.307000", "184848.309000", "184848.312000", "184848.314000", "184848.317000", "184848.319000", "184928.266000", "184928.269000", "184928.272000", "184928.274000", "184928.277000", "184928.280000", "184928.282000", "184928.285000", "184928.287000", "184928.290000", "184928.292000", "184928.295000", "184928.297000", "184928.300000", "184928.303000", "184928.305000", "184928.307000", "184928.310000", "184928.313000", "184928.315000", "184928.318000", "184928.320000", "184928.323000", "184928.325000", "184928.328000", "184928.331000", "184928.333000", "185008.246000", "185008.249000", "185008.251000", "185008.254000", "185008.256000", "185008.259000", "185008.262000", "185008.264000", "185008.267000", "185008.269000", "185008.272000", "185008.275000", "185008.277000", "185008.280000", "185008.282000", "185008.285000", "185008.287000", "185008.290000", "185008.292000", "185008.295000", "185008.297000", "185008.300000", "185008.302000", "185008.305000", "185008.308000", "185008.310000", "185008.313000", "185034.911000", "185034.914000", "185034.916000", "185034.919000", "185034.921000", "185034.924000", "185034.927000", "185034.929000", "185034.932000", "185034.934000", "185034.937000", "185034.940000", "185034.942000", "185034.945000", "185034.948000", "185034.950000", "185034.953000", "185034.955000"],
      "InstanceNumber": [1, 2, 3, 4, 5, 6, 7, 8, 9, 10, 11, 12, 13, 14, 15, 16, 17, 18, 19, 20, 21, 22, 23, 24, 25, 26, 27, 28, 29, 30, 31, 32, 33, 34, 35, 36, 37, 38, 39, 40, 41, 42, 43, 44, 45, 46, 47, 48, 49, 50, 51, 52, 53, 54, 55, 56, 57, 58, 59, 60, 61, 62, 63, 64, 65, 66, 67, 68, 69, 70, 71, 72, 73, 74, 75, 76, 77, 78, 79, 80, 81, 82, 83, 84, 85, 86, 87, 88, 89, 90, 91, 92, 93, 94, 95, 96, 97, 98, 99, 100, 101, 102, 103, 104, 105, 106, 107, 108, 109, 110, 111, 112, 113, 114, 115, 116, 117, 118, 119, 120, 121, 122, 123, 124, 125, 126, 127, 128, 129, 130, 131, 132, 133, 134, 135, 136, 137, 138, 139, 140, 141, 142, 143, 144, 145, 146, 147, 148, 149, 150, 151, 152, 153, 154, 155, 156, 157, 158, 159, 160, 161, 162, 163, 164, 165, 166, 167, 168, 169, 170, 171, 172, 173, 174, 175, 176, 177, 178, 179, 180, 181, 182, 183, 184, 185, 186, 187, 188, 189, 190, 191, 192, 193, 194, 195, 196, 197, 198, 199, 200, 201, 202, 203, 204, 205, 206, 207, 208, 209, 210, 211, 212, 213, 214, 215, 216, 217, 218, 219, 220, 221, 222, 223, 224, 225, 226, 227, 228, 229, 230, 231, 232, 233, 234, 235, 236, 237, 238, 239, 240, 241, 242, 243, 244, 245, 246, 247, 248, 249, 250, 251, 252, 253, 254, 255, 256, 257, 258, 259, 260, 261, 262, 263, 264, 265, 266, 267, 268, 269, 270, 271, 272, 273, 274, 275, 276, 277, 278, 279, 280, 281, 282, 283, 284, 285, 286, 287, 288, 289, 290, 291, 292, 293, 294, 295, 296, 297, 298, 299, 300, 301, 302, 303, 304, 305, 306, 307, 308, 309, 310, 311, 312, 313, 314, 315, 316, 317, 318, 319, 320, 321, 322, 323, 324, 325, 326, 327, 328, 329, 330, 331, 332, 333, 334, 335, 336, 337, 338, 339, 340, 341, 342, 343, 344, 345, 346],
      "WindowCenter": [4812.0, 4810.0, 4814.0, 4816.0, 4812.0, 4814.0, 4814.0, 4842.0, 4810.0, 4816.0, 4784.0, 4812.0, 4808.0, 4814.0, 4786.0, 4814.0, 4822.0, 4782.0, 4816.0, 4788.0, 4810.0, 4816.0, 4786.0, 4820.0, 4786.0, 4818.0, 4786.0, 4816.0, 4810.0, 4786.0, 4812.0, 4778.0, 4810.0, 4784.0, 4814.0, 4784.0, 4812.0, 4810.0, 4810.0, 4784.0, 4784.0, 4810.0, 4806.0, 4786.0, 4780.0, 4812.0, 4782.0, 4814.0, 4784.0, 4812.0, 4814.0, 4788.0, 4816.0, 4786.0, 4810.0, 4786.0, 4782.0, 4784.0, 4782.0, 4810.0, 4780.0, 4808.0, 4782.0, 4814.0, 4780.0, 4814.0, 4780.0, 4812.0, 4782.0, 4810.0, 4784.0, 4784.0, 4780.0, 4786.0, 4786.0, 4812.0, 4784.0, 4812.0, 4784.0, 4786.0, 4786.0, 4808.0, 4786.0, 4782.0, 4812.0, 4782.0, 4812.0, 4784.0, 4790.0, 4780.0, 4810.0, 4754.0, 4784.0, 4788.0, 4788.0, 4810.0, 4786.0, 4810.0, 4780.0, 4810.0, 4778.0, 4788.0, 4754.0, 4786.0, 4786.0, 4786.0, 4810.0, 4786.0, 4812.0, 4786.0, 4810.0, 4782.0, 4812.0, 4776.0, 4786.0, 4782.0, 4780.0, 4786.0, 4778.0, 4810.0, 4778.0, 4810.0, 4782.0, 4808.0, 4784.0, 4786.0, 4786.0, 4780.0, 4784.0, 4754.0, 4784.0, 4844.0, 4784.0, 4784.0, 4808.0, 4778.0, 4784.0, 4788.0, 4810.0, 4814.0, 4788.0, 4812.0, 4782.0, 4778.0, 4784.0, 4754.0, 4780.0, 4756.0, 4788.0, 4784.0, 4816.0, 4812.0, 4786.0, 4784.0, 4756.0, 4808.0, 4776.0, 4812.0, 4782.0, 4786.0, 4778.0, 4782.0, 4782.0, 4786.0, 4786.0, 4784.0, 4814.0, 4786.0, 4786.0, 4780.0, 4782.0, 4756.0, 4788.0, 4754.0, 4788.0, 4780.0, 4812.0, 4780.0, 4814.0, 4780.0, 4816.0, 4784.0, 4778.0, 4780.0, 4816.0, 4808.0, 4776.0, 4786.0, 4808.0, 4786.0, 4812.0, 4780.0, 4812.0, 4782.0, 4782.0, 4788.0, 4788.0, 4786.0, 4784.0, 4784.0, 4782.0, 4786.0, 4780.0, 4778.0, 4784.0, 4784.0, 4810.0, 4816.0, 4786.0, 4818.0, 4780.0, 4810.0, 4776.0, 4754.0, 4782.0, 4780.0, 4788.0, 4786.0, 4784.0, 4818.0, 4810.0, 4788.0, 4814.0, 4786.0, 4812.0, 4786.0, 4782.0, 4782.0, 4782.0, 4780.0, 4812.0, 4788.0, 4808.0, 4756.0, 4788.0, 4782.0, 4786.0, 4808.0, 4778.0, 4788.0, 4778.0, 4784.0, 4782.0, 4786.0, 4754.0, 4782.0, 4812.0, 4814.0, 4808.0, 4788.0, 4810.0, 4782.0, 4808.0, 4782.0, 4780.0, 4780.0, 4776.0, 4786.0, 4782.0, 4810.0, 4778.0, 4808.0, 4780.0, 4816.0, 4778.0, 4790.0, 4784.0, 4778.0, 4754.0, 4756.0, 4754.0, 4820.0, 4788.0, 4852.0, 4786.0, 4786.0, 4784.0, 4754.0, 4756.0, 4780.0, 4818.0, 4850.0, 4848.0, 4786.0, 4816.0, 4786.0, 4780.0, 4788.0, 4776.0, 4810.0, 4782.0, 4812.0, 4786.0, 4814.0, 4812.0, 4818.0, 4786.0, 4788.0, 4780.0, 4788.0, 4780.0, 4810.0, 4782.0, 4784.0, 4816.0, 4810.0, 4818.0, 4782.0, 4810.0, 4786.0, 4782.0, 4812.0, 4788.0, 4782.0, 4812.0, 4778.0, 4784.0, 4810.0, 4786.0, 4812.0, 4814.0, 4780.0, 4816.0, 4782.0, 4818.0, 4810.0, 4808.0, 4816.0, 4780.0, 4812.0, 4786.0, 4814.0, 4778.0, 4844.0, 4812.0, 4844.0, 4814.0, 4808.0, 4786.0, 4780.0, 4784.0, 4778.0, 4790.0, 4812.0, 4812.0, 4780.0],
