{
  "AcquisitionMatrixPE": 104,
  "AcquisitionNumber": 1,
  "AcquisitionTime": "18:54:20.972500",
  "BandwidthPerPixelPhaseEncode": 17.17,
  "BaseResolution": 104,
  "BodyPartExamined": "BRAIN",
  "CoilCombinationMethod": "Sum of Squares",
  "ConsistencyInfo": "N4_VE11C_LATEST_20160120",
  "ConversionSoftware": "dcm2niix",
  "ConversionSoftwareVersion": "v1.0.20220505",
  "DerivedVendorReportedEchoSpacing": 0.000560011,
  "DeviceSerialNumber": "167006",
  "DwellTime": 2.1e-06,
  "EchoTime": 0.037,
  "EchoTime1": 0.037,
  "EchoTime2": 0.001,
  "EchoTrainLength": 104,
  "EffectiveEchoSpacing": 0.000560011,
  "FlipAngle": 52,
  "HeudiconvVersion": "0.5.3.post811+g6206e14",
  "ImageComments": "Unaliased MB4/PE3/LB",
  "ImageOrientationPatientDICOM": [0.999757, 0.00248157, 0.021882, 0.00610732, 0.923415, -0.383756],
  "ImageOrientationText": "Tra>Cor(-22.6)>Sag(1.2)",
  "ImageType": [
    "ORIGINAL",
    "PRIMARY",
    "P",
    "MB",
    "ND",
    "MOSAIC",
    "PHASE"
],
  "ImagingFrequency": 123.259,
  "InPlanePhaseEncodingDirectionDICOM": "COL",
  "InstitutionAddress": "Chemin Queen-Mary 4565,Montreal,District,CA,H3W 1W5",
  "InstitutionName": "IUGM",
  "InstitutionalDepartmentName": "Department",
  "MRAcquisitionType": "2D",
  "MagneticFieldStrength": 3,
  "Manufacturer": "Siemens",
  "ManufacturersModelName": "Prisma_fit",
  "MatrixCoilMode": "SENSE",
  "Modality": "MR",
  "MultibandAccelerationFactor": 4,
  "PartialFourier": 1,
  "PatientPosition": "HFS",
  "PercentPhaseFOV": 100,
  "PercentSampling": 100,
  "PhaseEncodingDirection": "j",
  "PhaseEncodingSteps": 104,
  "PhaseResolution": 1,
  "PixelBandwidth": 2290,
  "ProcedureStepDescription": "games^mario3",
  "ProtocolName": "func_task-mario3_run-02",
  "PulseSequenceDetails": "%CustomerSeq%\\cmrr_mbep2d_bold",
  "ReceiveCoilActiveElements": "HC1-7;NC1,2",
  "ReceiveCoilName": "HeadNeck_64",
  "ReconMatrixPE": 104,
  "RepetitionTime": 1.49,
  "SAR": 0.0856788,
  "ScanOptions": "FS",
  "ScanningSequence": "EP",
  "SequenceName": "epfid2d1_104",
  "SequenceVariant": "SK\\SS",
  "SeriesDescription": "func_task-mario3_run-02",
  "SeriesNumber": 14,
  "ShimSetting": [587, -7295, -8810, 404, 24, -363, -45, 95],
  "SliceThickness": 2,
  "SliceTiming": [0, 0.785, 0.1, 0.8825, 0.1975, 0.98, 0.295, 1.08, 0.3925, 1.1775, 0.49, 1.275, 0.59, 1.3725, 0.6875, 0, 0.785, 0.1, 0.8825, 0.1975, 0.98, 0.295, 1.08, 0.3925, 1.1775, 0.49, 1.275, 0.59, 1.3725, 0.6875, 0, 0.785, 0.1, 0.8825, 0.1975, 0.98, 0.295, 1.08, 0.3925, 1.1775, 0.49, 1.275, 0.59, 1.3725, 0.6875, 0, 0.785, 0.1, 0.8825, 0.1975, 0.98, 0.295, 1.08, 0.3925, 1.1775, 0.49, 1.275, 0.59, 1.3725, 0.6875],
  "SoftwareVersions": "syngo MR E11",
  "SpacingBetweenSlices": 2,
  "StationName": "MRC35049",
  "TaskName": "mario3",
  "TotalReadoutTime": 0.0576811,
  "TxRefAmp": 309.502,
  "WipMemBlock": "0dc31c9f-d2c5-4aa3-9137-7f83ba856201||Sequence: R017 ve11c/master r/75a17815+; Jun 28 2022 16:32:11 by eja",
  "dcmmeta_affine": [
    [-1.9995149374008179, 0.012214635498821735, 0.04231701418757439, 103.10347747802734],
    [-0.00496314000338316, 1.8468290567398071, -0.7675923109054565, -67.98622131347656],
    [0.04376407712697983, 0.7675111293792725, 1.8463507890701294, -64.58615112304688],
    [0.0, 0.0, 0.0, 1.0]
],
  "dcmmeta_reorient_transform": [
    [0.0, -1.0, 0.0, 103.0],
    [1.0, 0.0, 0.0, 0.0],
    [0.0, 0.0, 1.0, 0.0],
    [0.0, 0.0, 0.0, 1.0]
],
  "dcmmeta_shape": [104, 104, 60, 356],
  "dcmmeta_slice_dim": 2,
  "dcmmeta_version": 0.6,
  "global": {
    "const": {
      "AcquisitionMatrix": [104, 0, 0, 104],
      "AngioFlag": "N",
      "BitsAllocated": 16,
      "BitsStored": 16,
      "BodyPartExamined": "BRAIN",
      "Columns": 832,
      "EchoNumbers": 1,
      "EchoTime": 37.0,
      "EchoTrainLength": 104,
      "FlipAngle": 52.0,
      "HighBit": 15,
      "ImageOrientationPatient": [0.99975747970292, 0.00248156988835, 0.02188203804397, 0.00610731767702, 0.92341450962169, -0.3837555785796],
      "ImagePositionPatient": [-836.63115835605, -796.28951169361, 277.91143686391],
      "ImageType": [
        "ORIGINAL",
        "PRIMARY",
        "P",
        "MB",
        "ND",
        "MOSAIC"
],
      "ImagedNucleus": "1H",
      "ImagingFrequency": 123.259132,
      "InPlanePhaseEncodingDirection": "COL",
      "LargestImagePixelValue": 4095,
      "MRAcquisitionType": "2D",
      "MagneticFieldStrength": 3.0,
      "Manufacturer": "SIEMENS",
      "ManufacturerModelName": "Prisma_fit",
      "Modality": "MR",
      "NumberOfAverages": 1.0,
      "NumberOfPhaseEncodingSteps": 104,
      "PercentPhaseFieldOfView": 100.0,
      "PercentSampling": 100.0,
      "PerformedProcedureStepStartTime": "183820.357000",
      "PhotometricInterpretation": "MONOCHROME2",
      "PixelBandwidth": 2290.0,
      "PixelRepresentation": 0,
      "PixelSpacing": [2.0, 2.0],
      "ProtocolName": "func_task-mario3_run-02",
      "RepetitionTime": 1490.0,
      "RescaleIntercept": -4096.0,
      "RescaleSlope": 2.0,
      "RescaleType": "US",
      "Rows": 832,
      "SAR": 0.08567879929513,
      "SamplesPerPixel": 1,
      "ScanOptions": "FS",
      "ScanningSequence": "EP",
      "SequenceName": "epfid2d1_104",
      "SequenceVariant": [
        "SK",
        "SS"
],
      "SeriesDescription": "func_task-mario3_run-02",
      "SeriesNumber": 14,
      "SeriesTime": "185514.493000",
      "SliceLocation": -31.349978674553,
      "SliceThickness": 2.0,
      "SmallestImagePixelValue": 0,
      "SoftwareVersions": "syngo MR E11",
      "SpacingBetweenSlices": 2.0000000078129,
      "SpecificCharacterSet": "ISO_IR 100",
      "StudyID": "1",
      "StudyTime": "183820.284000",
      "TransmitCoilName": "Body",
      "VariableFlipAngleFlag": "N",
      "WindowCenterWidthExplanation": "Algo1",
      "dBdt": 0.0},
    "slices": {}
  },
  "time": {
    "samples": {
      "AcquisitionNumber": [1, 2, 3, 4, 5, 6, 7, 8, 9, 10, 11, 12, 13, 14, 15, 16, 17, 18, 19, 20, 21, 22, 23, 24, 25, 26, 27, 28, 29, 30, 31, 32, 33, 34, 35, 36, 37, 38, 39, 40, 41, 42, 43, 44, 45, 46, 47, 48, 49, 50, 51, 52, 53, 54, 55, 56, 57, 58, 59, 60, 61, 62, 63, 64, 65, 66, 67, 68, 69, 70, 71, 72, 73, 74, 75, 76, 77, 78, 79, 80, 81, 82, 83, 84, 85, 86, 87, 88, 89, 90, 91, 92, 93, 94, 95, 96, 97, 98, 99, 100, 101, 102, 103, 104, 105, 106, 107, 108, 109, 110, 111, 112, 113, 114, 115, 116, 117, 118, 119, 120, 121, 122, 123, 124, 125, 126, 127, 128, 129, 130, 131, 132, 133, 134, 135, 136, 137, 138, 139, 140, 141, 142, 143, 144, 145, 146, 147, 148, 149, 150, 151, 152, 153, 154, 155, 156, 157, 158, 159, 160, 161, 162, 163, 164, 165, 166, 167, 168, 169, 170, 171, 172, 173, 174, 175, 176, 177, 178, 179, 180, 181, 182, 183, 184, 185, 186, 187, 188, 189, 190, 191, 192, 193, 194, 195, 196, 197, 198, 199, 200, 201, 202, 203, 204, 205, 206, 207, 208, 209, 210, 211, 212, 213, 214, 215, 216, 217, 218, 219, 220, 221, 222, 223, 224, 225, 226, 227, 228, 229, 230, 231, 232, 233, 234, 235, 236, 237, 238, 239, 240, 241, 242, 243, 244, 245, 246, 247, 248, 249, 250, 251, 252, 253, 254, 255, 256, 257, 258, 259, 260, 261, 262, 263, 264, 265, 266, 267, 268, 269, 270, 271, 272, 273, 274, 275, 276, 277, 278, 279, 280, 281, 282, 283, 284, 285, 286, 287, 288, 289, 290, 291, 292, 293, 294, 295, 296, 297, 298, 299, 300, 301, 302, 303, 304, 305, 306, 307, 308, 309, 310, 311, 312, 313, 314, 315, 316, 317, 318, 319, 320, 321, 322, 323, 324, 325, 326, 327, 328, 329, 330, 331, 332, 333, 334, 335, 336, 337, 338, 339, 340, 341, 342, 343, 344, 345, 346, 347, 348, 349, 350, 351, 352, 353, 354, 355, 356],
      "AcquisitionTime": ["185420.972500", "185422.462500", "185423.952500", "185425.442500", "185426.932500", "185428.422500", "185429.912500", "185431.402500", "185432.892500", "185434.382500", "185435.872500", "185437.362500", "185438.852500", "185440.342500", "185441.832500", "185443.322500", "185444.812500", "185446.302500", "185447.792500", "185449.282500", "185450.772500", "185452.262500", "185453.752500", "185455.242500", "185456.732500", "185458.222500", "185459.712500", "185501.202500", "185502.692500", "185504.182500", "185505.672500", "185507.162500", "185508.652500", "185510.142500", "185511.632500", "185513.122500", "185514.612500", "185516.102500", "185517.592500", "185519.082500", "185520.572500", "185522.062500", "185523.552500", "185525.042500", "185526.532500", "185528.022500", "185529.512500", "185531.002500", "185532.492500", "185533.982500", "185535.472500", "185536.962500", "185538.452500", "185539.942500", "185541.432500", "185542.922500", "185544.412500", "185545.902500", "185547.392500", "185548.882500", "185550.372500", "185551.862500", "185553.352500", "185554.842500", "185556.332500", "185557.822500", "185559.312500", "185600.802500", "185602.292500", "185603.782500", "185605.272500", "185606.762500", "185608.252500", "185609.742500", "185611.232500", "185612.722500", "185614.212500", "185615.702500", "185617.192500", "185618.682500", "185620.172500", "185621.662500", "185623.152500", "185624.642500", "185626.132500", "185627.622500", "185629.112500", "185630.602500", "185632.092500", "185633.582500", "185635.072500", "185636.562500", "185638.052500", "185639.542500", "185641.032500", "185642.522500", "185644.012500", "185645.502500", "185646.992500", "185648.482500", "185649.972500", "185651.462500", "185652.952500", "185654.442500", "185655.932500", "185657.422500", "185658.912500", "185700.402500", "185701.892500", "185703.382500", "185704.872500", "185706.362500", "185707.852500", "185709.342500", "185710.832500", "185712.322500", "185713.812500", "185715.302500", "185716.792500", "185718.282500", "185719.772500", "185721.262500", "185722.752500", "185724.242500", "185725.732500", "185727.222500", "185728.712500", "185730.202500", "185731.692500", "185733.182500", "185734.672500", "185736.162500", "185737.652500", "185739.142500", "185740.632500", "185742.122500", "185743.612500", "185745.102500", "185746.592500", "185748.082500", "185749.572500", "185751.062500", "185752.552500", "185754.042500", "185755.532500", "185757.022500", "185758.512500", "185800.002500", "185801.492500", "185802.982500", "185804.472500", "185805.962500", "185807.452500", "185808.942500", "185810.432500", "185811.922500", "185813.412500", "185814.902500", "185816.392500", "185817.882500", "185819.372500", "185820.862500", "185822.352500", "185823.842500", "185825.332500", "185826.822500", "185828.312500", "185829.802500", "185831.292500", "185832.782500", "185834.272500", "185835.762500", "185837.252500", "185838.742500", "185840.232500", "185841.722500", "185843.212500", "185844.702500", "185846.192500", "185847.682500", "185849.172500", "185850.662500", "185852.152500", "185853.642500", "185855.132500", "185856.622500", "185858.112500", "185859.602500", "185901.092500", "185902.582500", "185904.072500", "185905.562500", "185907.052500", "185908.542500", "185910.032500", "185911.522500", "185913.012500", "185914.502500", "185915.992500", "185917.482500", "185918.972500", "185920.462500", "185921.952500", "185923.442500", "185924.932500", "185926.422500", "185927.912500", "185929.402500", "185930.892500", "185932.382500", "185933.872500", "185935.362500", "185936.852500", "185938.342500", "185939.832500", "185941.322500", "185942.812500", "185944.302500", "185945.792500", "185947.282500", "185948.772500", "185950.262500", "185951.752500", "185953.242500", "185954.732500", "185956.222500", "185957.712500", "185959.202500", "190000.692500", "190002.182500", "190003.672500", "190005.162500", "190006.652500", "190008.142500", "190009.632500", "190011.122500", "190012.612500", "190014.102500", "190015.592500", "190017.082500", "190018.572500", "190020.062500", "190021.552500", "190023.042500", "190024.532500", "190026.022500", "190027.512500", "190029.002500", "190030.492500", "190031.982500", "190033.472500", "190034.962500", "190036.452500", "190037.942500", "190039.432500", "190040.922500", "190042.412500", "190043.902500", "190045.392500", "190046.882500", "190048.372500", "190049.862500", "190051.352500", "190052.842500", "190054.332500", "190055.822500", "190057.312500", "190058.802500", "190100.292500", "190101.782500", "190103.272500", "190104.762500", "190106.252500", "190107.742500", "190109.232500", "190110.722500", "190112.212500", "190113.702500", "190115.192500", "190116.682500", "190118.172500", "190119.662500", "190121.152500", "190122.642500", "190124.132500", "190125.622500", "190127.112500", "190128.602500", "190130.092500", "190131.582500", "190133.072500", "190134.562500", "190136.052500", "190137.542500", "190139.032500", "190140.522500", "190142.012500", "190143.502500", "190144.992500", "190146.482500", "190147.972500", "190149.462500", "190150.952500", "190152.442500", "190153.932500", "190155.422500", "190156.912500", "190158.402500", "190159.892500", "190201.382500", "190202.872500", "190204.362500", "190205.852500", "190207.342500", "190208.832500", "190210.322500", "190211.812500", "190213.302500", "190214.792500", "190216.282500", "190217.772500", "190219.262500", "190220.752500", "190222.242500", "190223.732500", "190225.222500", "190226.712500", "190228.202500", "190229.692500", "190231.182500", "190232.672500", "190234.162500", "190235.652500", "190237.142500", "190238.632500", "190240.122500", "190241.612500", "190243.102500", "190244.592500", "190246.082500", "190247.572500", "190249.062500", "190250.552500", "190252.042500", "190253.532500", "190255.022500", "190256.512500", "190258.002500", "190259.492500", "190300.982500", "190302.472500", "190303.962500", "190305.452500", "190306.942500", "190308.432500", "190309.922500"],
      "ContentTime": ["185514.495000", "185514.501000", "185514.503000", "185514.506000", "185534.574000", "185534.577000", "185534.580000", "185534.582000", "185534.585000", "185534.587000", "185534.590000", "185534.592000", "185534.595000", "185534.597000", "185534.600000", "185534.603000", "185534.605000", "185534.607000", "185534.610000", "185534.613000", "185534.615000", "185534.618000", "185534.620000", "185534.623000", "185554.533000", "185554.536000", "185554.539000", "185554.541000", "185554.544000", "185554.556000", "185554.558000", "185554.560000", "185554.563000", "185554.566000", "185554.568000", "185554.571000", "185554.573000", "185554.576000", "185554.578000", "185554.581000", "185554.583000", "185554.586000", "185554.589000", "185554.591000", "185554.594000", "185614.527000", "185614.530000", "185614.532000", "185614.535000", "185614.538000", "185614.540000", "185614.543000", "185614.545000", "185614.548000", "185614.551000", "185614.553000", "185614.556000", "185614.558000", "185614.561000", "185614.563000", "185614.566000", "185614.568000", "185614.571000", "185614.574000", "185614.576000", "185634.520000", "185634.527000", "185634.529000", "185634.532000", "185634.534000", "185634.537000", "185634.539000", "185634.542000", "185634.545000", "185634.547000", "185634.550000", "185634.552000", "185634.555000", "185634.557000", "185634.560000", "185634.562000", "185634.565000", "185634.567000", "185634.570000", "185634.572000", "185714.581000", "185714.583000", "185714.586000", "185714.589000", "185714.591000", "185714.594000", "185714.596000", "185714.599000", "185714.601000", "185714.604000", "185714.607000", "185714.609000", "185714.613000", "185714.616000", "185714.620000", "185714.623000", "185714.626000", "185714.628000", "185714.631000", "185714.634000", "185714.638000", "185714.664000", "185714.667000", "185714.670000", "185714.672000", "185714.675000", "185714.677000", "185714.680000", "185714.682000", "185714.685000", "185754.543000", "185754.546000", "185754.548000", "185754.551000", "185754.553000", "185754.556000", "185754.559000", "185754.561000", "185754.564000", "185754.566000", "185754.569000", "185754.571000", "185754.574000", "185754.576000", "185754.579000", "185754.581000", "185754.584000", "185754.586000", "185754.597000", "185754.599000", "185754.602000", "185754.604000", "185754.607000", "185754.609000", "185754.612000", "185754.614000", "185754.617000", "185834.552000", "185834.555000", "185834.557000", "185834.564000", "185834.566000", "185834.569000", "185834.572000", "185834.574000", "185834.577000", "185834.579000", "185834.582000", "185834.584000", "185834.587000", "185834.589000", "185834.592000", "185834.595000", "185834.597000", "185834.600000", "185834.602000", "185834.605000", "185834.607000", "185834.610000", "185834.612000", "185834.615000", "185834.617000", "185834.620000", "185834.622000", "185914.553000", "185914.556000", "185914.558000", "185914.561000", "185914.563000", "185914.566000", "185914.569000", "185914.571000", "185914.574000", "185914.577000", "185914.579000", "185914.582000", "185914.584000", "185914.587000", "185914.589000", "185914.592000", "185914.594000", "185914.597000", "185914.600000", "185914.602000", "185914.605000", "185914.607000", "185914.610000", "185914.612000", "185914.615000", "185914.617000", "185914.620000", "185954.673000", "185954.676000", "185954.678000", "185954.681000", "185954.684000", "185954.686000", "185954.689000", "185954.691000", "185954.694000", "185954.696000", "185954.699000", "185954.702000", "185954.704000", "185954.707000", "185954.709000", "185954.712000", "185954.714000", "185954.717000", "185954.719000", "185954.728000", "185954.731000", "185954.733000", "185954.736000", "185954.739000", "185954.741000", "185954.744000", "185954.746000", "190034.551000", "190034.554000", "190034.556000", "190034.559000", "190034.561000", "190034.564000", "190034.566000", "190034.569000", "190034.571000", "190034.574000", "190034.576000", "190034.579000", "190034.581000", "190034.584000", "190034.587000", "190034.589000", "190034.592000", "190034.595000", "190034.597000", "190034.600000", "190034.602000", "190034.605000", "190034.607000", "190034.610000", "190034.612000", "190034.615000", "190034.618000", "190114.542000", "190114.544000", "190114.547000", "190114.549000", "190114.552000", "190114.554000", "190114.557000", "190114.560000", "190114.562000", "190114.565000", "190114.567000", "190114.570000", "190114.572000", "190114.575000", "190114.578000", "190114.580000", "190114.583000", "190114.585000", "190114.588000", "190114.590000", "190114.593000", "190114.596000", "190114.598000", "190114.601000", "190114.603000", "190114.606000", "190154.548000", "190154.551000", "190154.553000", "190154.556000", "190154.558000", "190154.561000", "190154.563000", "190154.566000", "190154.569000", "190154.571000", "190154.574000", "190154.576000", "190154.579000", "190154.581000", "190154.584000", "190154.586000", "190154.589000", "190154.592000", "190154.594000", "190154.597000", "190154.599000", "190154.602000", "190154.605000", "190154.608000", "190154.611000", "190154.613000", "190154.616000", "190234.563000", "190234.566000", "190234.568000", "190234.571000", "190234.573000", "190234.576000", "190234.578000", "190234.581000", "190234.583000", "190234.586000", "190234.588000", "190234.591000", "190234.593000", "190234.596000", "190234.599000", "190234.601000", "190234.604000", "190234.606000", "190234.609000", "190234.611000", "190234.614000", "190234.617000", "190234.619000", "190234.622000", "190234.624000", "190234.627000", "190234.629000", "190313.203000", "190313.205000", "190313.208000", "190313.211000", "190313.213000", "190313.216000", "190313.218000", "190313.221000", "190313.224000", "190313.226000", "190313.229000", "190313.231000", "190313.234000", "190313.236000", "190313.239000", "190313.242000", "190313.244000", "190313.247000", "190313.249000", "190313.252000", "190313.255000", "190313.257000", "190313.260000", "190313.262000", "190313.265000", "190313.267000"],
      "InstanceCreationTime": ["185514.495000", "185514.501000", "185514.503000", "185514.506000", "185534.574000", "185534.577000", "185534.580000", "185534.582000", "185534.585000", "185534.587000", "185534.590000", "185534.592000", "185534.595000", "185534.597000", "185534.600000", "185534.603000", "185534.605000", "185534.607000", "185534.610000", "185534.613000", "185534.615000", "185534.618000", "185534.620000", "185534.623000", "185554.533000", "185554.536000", "185554.539000", "185554.541000", "185554.544000", "185554.556000", "185554.558000", "185554.560000", "185554.563000", "185554.566000", "185554.568000", "185554.571000", "185554.573000", "185554.576000", "185554.578000", "185554.581000", "185554.583000", "185554.586000", "185554.589000", "185554.591000", "185554.594000", "185614.527000", "185614.530000", "185614.532000", "185614.535000", "185614.538000", "185614.540000", "185614.543000", "185614.545000", "185614.548000", "185614.551000", "185614.553000", "185614.556000", "185614.558000", "185614.561000", "185614.563000", "185614.566000", "185614.568000", "185614.571000", "185614.574000", "185614.576000", "185634.520000", "185634.527000", "185634.529000", "185634.532000", "185634.534000", "185634.537000", "185634.539000", "185634.542000", "185634.545000", "185634.547000", "185634.550000", "185634.552000", "185634.555000", "185634.557000", "185634.560000", "185634.562000", "185634.565000", "185634.567000", "185634.570000", "185634.572000", "185714.581000", "185714.583000", "185714.586000", "185714.589000", "185714.591000", "185714.594000", "185714.596000", "185714.599000", "185714.601000", "185714.604000", "185714.607000", "185714.609000", "185714.613000", "185714.616000", "185714.620000", "185714.623000", "185714.626000", "185714.628000", "185714.631000", "185714.634000", "185714.638000", "185714.664000", "185714.667000", "185714.670000", "185714.672000", "185714.675000", "185714.677000", "185714.680000", "185714.682000", "185714.685000", "185754.543000", "185754.546000", "185754.548000", "185754.551000", "185754.553000", "185754.556000", "185754.559000", "185754.561000", "185754.564000", "185754.566000", "185754.569000", "185754.571000", "185754.574000", "185754.576000", "185754.579000", "185754.581000", "185754.584000", "185754.586000", "185754.597000", "185754.599000", "185754.602000", "185754.604000", "185754.607000", "185754.609000", "185754.612000", "185754.614000", "185754.617000", "185834.552000", "185834.555000", "185834.557000", "185834.564000", "185834.566000", "185834.569000", "185834.572000", "185834.574000", "185834.577000", "185834.579000", "185834.582000", "185834.584000", "185834.587000", "185834.589000", "185834.592000", "185834.595000", "185834.597000", "185834.600000", "185834.602000", "185834.605000", "185834.607000", "185834.610000", "185834.612000", "185834.615000", "185834.617000", "185834.620000", "185834.622000", "185914.553000", "185914.556000", "185914.558000", "185914.561000", "185914.563000", "185914.566000", "185914.569000", "185914.571000", "185914.574000", "185914.577000", "185914.579000", "185914.582000", "185914.584000", "185914.587000", "185914.589000", "185914.592000", "185914.594000", "185914.597000", "185914.600000", "185914.602000", "185914.605000", "185914.607000", "185914.610000", "185914.612000", "185914.615000", "185914.617000", "185914.620000", "185954.673000", "185954.676000", "185954.678000", "185954.681000", "185954.684000", "185954.686000", "185954.689000", "185954.691000", "185954.694000", "185954.696000", "185954.699000", "185954.702000", "185954.704000", "185954.707000", "185954.709000", "185954.712000", "185954.714000", "185954.717000", "185954.719000", "185954.728000", "185954.731000", "185954.733000", "185954.736000", "185954.739000", "185954.741000", "185954.744000", "185954.746000", "190034.551000", "190034.554000", "190034.556000", "190034.559000", "190034.561000", "190034.564000", "190034.566000", "190034.569000", "190034.571000", "190034.574000", "190034.576000", "190034.579000", "190034.581000", "190034.584000", "190034.587000", "190034.589000", "190034.592000", "190034.595000", "190034.597000", "190034.600000", "190034.602000", "190034.605000", "190034.607000", "190034.610000", "190034.612000", "190034.615000", "190034.618000", "190114.542000", "190114.544000", "190114.547000", "190114.549000", "190114.552000", "190114.554000", "190114.557000", "190114.560000", "190114.562000", "190114.565000", "190114.567000", "190114.570000", "190114.572000", "190114.575000", "190114.578000", "190114.580000", "190114.583000", "190114.585000", "190114.588000", "190114.590000", "190114.593000", "190114.596000", "190114.598000", "190114.601000", "190114.603000", "190114.606000", "190154.548000", "190154.551000", "190154.553000", "190154.556000", "190154.558000", "190154.561000", "190154.563000", "190154.566000", "190154.569000", "190154.571000", "190154.574000", "190154.576000", "190154.579000", "190154.581000", "190154.584000", "190154.586000", "190154.589000", "190154.592000", "190154.594000", "190154.597000", "190154.599000", "190154.602000", "190154.605000", "190154.608000", "190154.611000", "190154.613000", "190154.616000", "190234.563000", "190234.566000", "190234.568000", "190234.571000", "190234.573000", "190234.576000", "190234.578000", "190234.581000", "190234.583000", "190234.586000", "190234.588000", "190234.591000", "190234.593000", "190234.596000", "190234.599000", "190234.601000", "190234.604000", "190234.606000", "190234.609000", "190234.611000", "190234.614000", "190234.617000", "190234.619000", "190234.622000", "190234.624000", "190234.627000", "190234.629000", "190313.203000", "190313.205000", "190313.208000", "190313.211000", "190313.213000", "190313.216000", "190313.218000", "190313.221000", "190313.224000", "190313.226000", "190313.229000", "190313.231000", "190313.234000", "190313.236000", "190313.239000", "190313.242000", "190313.244000", "190313.247000", "190313.249000", "190313.252000", "190313.255000", "190313.257000", "190313.260000", "190313.262000", "190313.265000", "190313.267000"],
      "InstanceNumber": [1, 2, 3, 4, 5, 6, 7, 8, 9, 10, 11, 12, 13, 14, 15, 16, 17, 18, 19, 20, 21, 22, 23, 24, 25, 26, 27, 28, 29, 30, 31, 32, 33, 34, 35, 36, 37, 38, 39, 40, 41, 42, 43, 44, 45, 46, 47, 48, 49, 50, 51, 52, 53, 54, 55, 56, 57, 58, 59, 60, 61, 62, 63, 64, 65, 66, 67, 68, 69, 70, 71, 72, 73, 74, 75, 76, 77, 78, 79, 80, 81, 82, 83, 84, 85, 86, 87, 88, 89, 90, 91, 92, 93, 94, 95, 96, 97, 98, 99, 100, 101, 102, 103, 104, 105, 106, 107, 108, 109, 110, 111, 112, 113, 114, 115, 116, 117, 118, 119, 120, 121, 122, 123, 124, 125, 126, 127, 128, 129, 130, 131, 132, 133, 134, 135, 136, 137, 138, 139, 140, 141, 142, 143, 144, 145, 146, 147, 148, 149, 150, 151, 152, 153, 154, 155, 156, 157, 158, 159, 160, 161, 162, 163, 164, 165, 166, 167, 168, 169, 170, 171, 172, 173, 174, 175, 176, 177, 178, 179, 180, 181, 182, 183, 184, 185, 186, 187, 188, 189, 190, 191, 192, 193, 194, 195, 196, 197, 198, 199, 200, 201, 202, 203, 204, 205, 206, 207, 208, 209, 210, 211, 212, 213, 214, 215, 216, 217, 218, 219, 220, 221, 222, 223, 224, 225, 226, 227, 228, 229, 230, 231, 232, 233, 234, 235, 236, 237, 238, 239, 240, 241, 242, 243, 244, 245, 246, 247, 248, 249, 250, 251, 252, 253, 254, 255, 256, 257, 258, 259, 260, 261, 262, 263, 264, 265, 266, 267, 268, 269, 270, 271, 272, 273, 274, 275, 276, 277, 278, 279, 280, 281, 282, 283, 284, 285, 286, 287, 288, 289, 290, 291, 292, 293, 294, 295, 296, 297, 298, 299, 300, 301, 302, 303, 304, 305, 306, 307, 308, 309, 310, 311, 312, 313, 314, 315, 316, 317, 318, 319, 320, 321, 322, 323, 324, 325, 326, 327, 328, 329, 330, 331, 332, 333, 334, 335, 336, 337, 338, 339, 340, 341, 342, 343, 344, 345, 346, 347, 348, 349, 350, 351, 352, 353, 354, 355, 356],
