{
  "AcquisitionMatrixPE": 104,
  "AcquisitionNumber": 1,
  "AcquisitionTime": "18:41:57.910000",
  "BandwidthPerPixelPhaseEncode": 17.17,
  "BaseResolution": 104,
  "BodyPartExamined": "BRAIN",
  "CoilCombinationMethod": "Sum of Squares",
  "ConsistencyInfo": "N4_VE11C_LATEST_20160120",
  "ConversionSoftware": "dcm2niix",
  "ConversionSoftwareVersion": "v1.0.20220505",
  "DerivedVendorReportedEchoSpacing": 0.000560011,
  "DeviceSerialNumber": "167006",
  "DwellTime": 2.1e-06,
  "EchoTime": 0.037,
  "EchoTrainLength": 104,
  "EffectiveEchoSpacing": 0.000560011,
  "FlipAngle": 52,
  "HeudiconvVersion": "0.5.3.post811+g6206e14",
  "ImageComments": "Unaliased MB4/PE3/LB",
  "ImageOrientationPatientDICOM": [0.999757, 0.00248157, 0.021882, 0.00610732, 0.923415, -0.383756],
  "ImageOrientationText": "Tra>Cor(-22.6)>Sag(1.2)",
  "ImageType": [
    "ORIGINAL",
    "PRIMARY",
    "M",
    "MB",
    "ND",
    "MOSAIC"
],
  "ImagingFrequency": 123.259,
  "InPlanePhaseEncodingDirectionDICOM": "COL",
  "InstitutionAddress": "Chemin Queen-Mary 4565,Montreal,District,CA,H3W 1W5",
  "InstitutionName": "IUGM",
  "InstitutionalDepartmentName": "Department",
  "MRAcquisitionType": "2D",
  "MagneticFieldStrength": 3,
  "Manufacturer": "Siemens",
  "ManufacturersModelName": "Prisma_fit",
  "MatrixCoilMode": "SENSE",
  "Modality": "MR",
  "MultibandAccelerationFactor": 4,
  "PartialFourier": 1,
  "PatientPosition": "HFS",
  "PercentPhaseFOV": 100,
  "PercentSampling": 100,
  "PhaseEncodingDirection": "j",
  "PhaseEncodingSteps": 104,
  "PhaseResolution": 1,
  "PixelBandwidth": 2290,
  "ProcedureStepDescription": "games^mario3",
  "ProtocolName": "func_task-mario3_run-01",
  "PulseSequenceDetails": "%CustomerSeq%\\cmrr_mbep2d_bold",
  "ReceiveCoilActiveElements": "HC1-7;NC1,2",
  "ReceiveCoilName": "HeadNeck_64",
  "ReconMatrixPE": 104,
  "RepetitionTime": 1.49,
  "SAR": 0.0856788,
  "ScanOptions": "FS",
  "ScanningSequence": "EP",
  "SequenceName": "epfid2d1_104",
  "SequenceVariant": "SK\\SS",
  "SeriesDescription": "func_task-mario3_run-01",
  "SeriesNumber": 10,
  "ShimSetting": [587, -7295, -8810, 404, 24, -363, -45, 95],
  "SliceThickness": 2,
  "SliceTiming": [0, 0.7825, 0.0975, 0.8825, 0.195, 0.98, 0.295, 1.0775, 0.3925, 1.175, 0.49, 1.2725, 0.5875, 1.3725, 0.685, 0, 0.7825, 0.0975, 0.8825, 0.195, 0.98, 0.295, 1.0775, 0.3925, 1.175, 0.49, 1.2725, 0.5875, 1.3725, 0.685, 0, 0.7825, 0.0975, 0.8825, 0.195, 0.98, 0.295, 1.0775, 0.3925, 1.175, 0.49, 1.2725, 0.5875, 1.3725, 0.685, 0, 0.7825, 0.0975, 0.8825, 0.195, 0.98, 0.295, 1.0775, 0.3925, 1.175, 0.49, 1.2725, 0.5875, 1.3725, 0.685],
  "SoftwareVersions": "syngo MR E11",
  "SpacingBetweenSlices": 2,
  "StationName": "MRC35049",
  "TaskName": "mario3",
  "TotalReadoutTime": 0.0576811,
  "TxRefAmp": 309.502,
  "WipMemBlock": "1c2a2605-b6b1-4218-96c3-a17cd57bd3a4||Sequence: R017 ve11c/master r/75a17815+; Jun 28 2022 16:32:11 by eja",
  "dcmmeta_affine": [
    [-1.9995149374008179, 0.012214635498821735, 0.04231701418757439, 103.10347747802734],
    [-0.00496314000338316, 1.8468290567398071, -0.7675923109054565, -67.98622131347656],
    [0.04376407712697983, 0.7675111293792725, 1.8463507890701294, -64.58615112304688],
    [0.0, 0.0, 0.0, 1.0]
],
  "dcmmeta_reorient_transform": [
    [0.0, -1.0, 0.0, 103.0],
    [1.0, 0.0, 0.0, 0.0],
    [0.0, 0.0, 1.0, 0.0],
    [0.0, 0.0, 0.0, 1.0]
],
  "dcmmeta_shape": [104, 104, 60, 346],
  "dcmmeta_slice_dim": 2,
  "dcmmeta_version": 0.6,
  "global": {
    "const": {
      "AcquisitionMatrix": [104, 0, 0, 104],
      "AngioFlag": "N",
      "BitsAllocated": 16,
      "BitsStored": 16,
      "BodyPartExamined": "BRAIN",
      "Columns": 832,
      "EchoNumbers": 1,
      "EchoTime": 37.0,
      "EchoTrainLength": 104,
      "FlipAngle": 52.0,
      "HighBit": 15,
      "ImageOrientationPatient": [0.99975747970292, 0.00248156988835, 0.02188203804397, 0.00610731767702, 0.92341450962169, -0.3837555785796],
      "ImagePositionPatient": [-836.63115835605, -796.28951169361, 277.91143686391],
      "ImageType": [
        "ORIGINAL",
        "PRIMARY",
        "M",
        "MB",
        "ND",
        "MOSAIC"
],
      "ImagedNucleus": "1H",
      "ImagingFrequency": 123.259129,
      "InPlanePhaseEncodingDirection": "COL",
      "MRAcquisitionType": "2D",
      "MagneticFieldStrength": 3.0,
      "Manufacturer": "SIEMENS",
      "ManufacturerModelName": "Prisma_fit",
      "Modality": "MR",
      "NumberOfAverages": 1.0,
      "NumberOfPhaseEncodingSteps": 104,
      "PercentPhaseFieldOfView": 100.0,
      "PercentSampling": 100.0,
      "PerformedProcedureStepStartTime": "183820.357000",
      "PhotometricInterpretation": "MONOCHROME2",
      "PixelBandwidth": 2290.0,
      "PixelRepresentation": 0,
      "PixelSpacing": [2.0, 2.0],
      "ProtocolName": "func_task-mario3_run-01",
      "RepetitionTime": 1490.0,
      "Rows": 832,
      "SAR": 0.08567879929513,
      "SamplesPerPixel": 1,
      "ScanOptions": "FS",
      "ScanningSequence": "EP",
      "SequenceName": "epfid2d1_104",
      "SequenceVariant": [
        "SK",
        "SS"
],
      "SeriesDescription": "func_task-mario3_run-01",
      "SeriesNumber": 10,
      "SeriesTime": "184308.141000",
      "SliceLocation": -31.349978674553,
      "SliceThickness": 2.0,
      "SmallestImagePixelValue": 0,
      "SoftwareVersions": "syngo MR E11",
      "SpacingBetweenSlices": 2.0000000078129,
      "SpecificCharacterSet": "ISO_IR 100",
      "StudyID": "1",
      "StudyTime": "183820.284000",
      "TransmitCoilName": "Body",
      "VariableFlipAngleFlag": "N",
      "WindowCenterWidthExplanation": "Algo1",
      "dBdt": 0.0},
    "slices": {}
  },
  "time": {
    "samples": {
      "AcquisitionNumber": [1, 2, 3, 4, 5, 6, 7, 8, 9, 10, 11, 12, 13, 14, 15, 16, 17, 18, 19, 20, 21, 22, 23, 24, 25, 26, 27, 28, 29, 30, 31, 32, 33, 34, 35, 36, 37, 38, 39, 40, 41, 42, 43, 44, 45, 46, 47, 48, 49, 50, 51, 52, 53, 54, 55, 56, 57, 58, 59, 60, 61, 62, 63, 64, 65, 66, 67, 68, 69, 70, 71, 72, 73, 74, 75, 76, 77, 78, 79, 80, 81, 82, 83, 84, 85, 86, 87, 88, 89, 90, 91, 92, 93, 94, 95, 96, 97, 98, 99, 100, 101, 102, 103, 104, 105, 106, 107, 108, 109, 110, 111, 112, 113, 114, 115, 116, 117, 118, 119, 120, 121, 122, 123, 124, 125, 126, 127, 128, 129, 130, 131, 132, 133, 134, 135, 136, 137, 138, 139, 140, 141, 142, 143, 144, 145, 146, 147, 148, 149, 150, 151, 152, 153, 154, 155, 156, 157, 158, 159, 160, 161, 162, 163, 164, 165, 166, 167, 168, 169, 170, 171, 172, 173, 174, 175, 176, 177, 178, 179, 180, 181, 182, 183, 184, 185, 186, 187, 188, 189, 190, 191, 192, 193, 194, 195, 196, 197, 198, 199, 200, 201, 202, 203, 204, 205, 206, 207, 208, 209, 210, 211, 212, 213, 214, 215, 216, 217, 218, 219, 220, 221, 222, 223, 224, 225, 226, 227, 228, 229, 230, 231, 232, 233, 234, 235, 236, 237, 238, 239, 240, 241, 242, 243, 244, 245, 246, 247, 248, 249, 250, 251, 252, 253, 254, 255, 256, 257, 258, 259, 260, 261, 262, 263, 264, 265, 266, 267, 268, 269, 270, 271, 272, 273, 274, 275, 276, 277, 278, 279, 280, 281, 282, 283, 284, 285, 286, 287, 288, 289, 290, 291, 292, 293, 294, 295, 296, 297, 298, 299, 300, 301, 302, 303, 304, 305, 306, 307, 308, 309, 310, 311, 312, 313, 314, 315, 316, 317, 318, 319, 320, 321, 322, 323, 324, 325, 326, 327, 328, 329, 330, 331, 332, 333, 334, 335, 336, 337, 338, 339, 340, 341, 342, 343, 344, 345, 346],
      "AcquisitionTime": ["184157.910000", "184159.400000", "184200.890000", "184202.380000", "184203.870000", "184205.360000", "184206.850000", "184208.340000", "184209.830000", "184211.320000", "184212.810000", "184214.300000", "184215.790000", "184217.280000", "184218.770000", "184220.260000", "184221.750000", "184223.240000", "184224.730000", "184226.220000", "184227.710000", "184229.200000", "184230.690000", "184232.180000", "184233.670000", "184235.160000", "184236.650000", "184238.140000", "184239.630000", "184241.120000", "184242.610000", "184244.100000", "184245.590000", "184247.080000", "184248.570000", "184250.060000", "184251.550000", "184253.040000", "184254.530000", "184256.020000", "184257.510000", "184259.000000", "184300.490000", "184301.980000", "184303.470000", "184304.960000", "184306.450000", "184307.940000", "184309.430000", "184310.920000", "184312.410000", "184313.900000", "184315.390000", "184316.880000", "184318.370000", "184319.860000", "184321.350000", "184322.840000", "184324.330000", "184325.820000", "184327.310000", "184328.800000", "184330.290000", "184331.780000", "184333.270000", "184334.760000", "184336.250000", "184337.740000", "184339.230000", "184340.720000", "184342.210000", "184343.700000", "184345.190000", "184346.680000", "184348.170000", "184349.660000", "184351.150000", "184352.640000", "184354.130000", "184355.620000", "184357.110000", "184358.600000", "184400.090000", "184401.580000", "184403.070000", "184404.560000", "184406.050000", "184407.540000", "184409.030000", "184410.520000", "184412.010000", "184413.500000", "184414.990000", "184416.480000", "184417.970000", "184419.460000", "184420.950000", "184422.440000", "184423.930000", "184425.420000", "184426.910000", "184428.400000", "184429.890000", "184431.380000", "184432.870000", "184434.360000", "184435.850000", "184437.340000", "184438.830000", "184440.320000", "184441.810000", "184443.300000", "184444.790000", "184446.280000", "184447.770000", "184449.260000", "184450.750000", "184452.240000", "184453.730000", "184455.220000", "184456.710000", "184458.200000", "184459.690000", "184501.180000", "184502.670000", "184504.160000", "184505.650000", "184507.140000", "184508.630000", "184510.120000", "184511.610000", "184513.100000", "184514.590000", "184516.080000", "184517.570000", "184519.060000", "184520.550000", "184522.040000", "184523.530000", "184525.020000", "184526.510000", "184528.000000", "184529.490000", "184530.980000", "184532.470000", "184533.960000", "184535.450000", "184536.940000", "184538.430000", "184539.920000", "184541.410000", "184542.900000", "184544.390000", "184545.880000", "184547.370000", "184548.860000", "184550.350000", "184551.840000", "184553.330000", "184554.820000", "184556.310000", "184557.800000", "184559.290000", "184600.780000", "184602.270000", "184603.760000", "184605.250000", "184606.740000", "184608.230000", "184609.720000", "184611.210000", "184612.700000", "184614.190000", "184615.680000", "184617.170000", "184618.660000", "184620.150000", "184621.640000", "184623.130000", "184624.620000", "184626.110000", "184627.600000", "184629.090000", "184630.580000", "184632.070000", "184633.560000", "184635.050000", "184636.540000", "184638.030000", "184639.520000", "184641.010000", "184642.500000", "184643.990000", "184645.480000", "184646.970000", "184648.460000", "184649.950000", "184651.440000", "184652.930000", "184654.420000", "184655.910000", "184657.400000", "184658.890000", "184700.380000", "184701.870000", "184703.360000", "184704.850000", "184706.340000", "184707.830000", "184709.320000", "184710.810000", "184712.300000", "184713.790000", "184715.280000", "184716.770000", "184718.260000", "184719.750000", "184721.240000", "184722.730000", "184724.220000", "184725.710000", "184727.200000", "184728.690000", "184730.180000", "184731.670000", "184733.160000", "184734.650000", "184736.140000", "184737.630000", "184739.120000", "184740.610000", "184742.100000", "184743.590000", "184745.080000", "184746.570000", "184748.060000", "184749.550000", "184751.040000", "184752.530000", "184754.020000", "184755.510000", "184757.000000", "184758.490000", "184759.980000", "184801.470000", "184802.960000", "184804.450000", "184805.940000", "184807.430000", "184808.920000", "184810.410000", "184811.900000", "184813.390000", "184814.880000", "184816.370000", "184817.860000", "184819.350000", "184820.840000", "184822.330000", "184823.820000", "184825.310000", "184826.800000", "184828.290000", "184829.780000", "184831.270000", "184832.760000", "184834.250000", "184835.740000", "184837.230000", "184838.720000", "184840.210000", "184841.700000", "184843.190000", "184844.680000", "184846.170000", "184847.660000", "184849.150000", "184850.640000", "184852.130000", "184853.620000", "184855.110000", "184856.600000", "184858.090000", "184859.580000", "184901.070000", "184902.560000", "184904.050000", "184905.540000", "184907.030000", "184908.520000", "184910.010000", "184911.500000", "184912.990000", "184914.480000", "184915.970000", "184917.460000", "184918.950000", "184920.440000", "184921.930000", "184923.420000", "184924.910000", "184926.400000", "184927.890000", "184929.380000", "184930.870000", "184932.360000", "184933.850000", "184935.340000", "184936.830000", "184938.320000", "184939.810000", "184941.300000", "184942.790000", "184944.280000", "184945.770000", "184947.260000", "184948.750000", "184950.240000", "184951.730000", "184953.220000", "184954.710000", "184956.200000", "184957.690000", "184959.180000", "185000.670000", "185002.160000", "185003.650000", "185005.140000", "185006.630000", "185008.120000", "185009.610000", "185011.100000", "185012.590000", "185014.080000", "185015.570000", "185017.060000", "185018.550000", "185020.040000", "185021.530000", "185023.020000", "185024.510000", "185026.000000", "185027.490000", "185028.980000", "185030.470000", "185031.960000"],
      "ContentTime": ["184308.145000", "184308.148000", "184308.152000", "184308.155000", "184308.159000", "184308.162000", "184308.166000", "184308.170000", "184308.173000", "184308.177000", "184308.180000", "184308.183000", "184308.187000", "184308.195000", "184308.199000", "184308.202000", "184308.205000", "184308.209000", "184308.226000", "184308.229000", "184308.232000", "184308.235000", "184328.107000", "184328.111000", "184328.114000", "184328.117000", "184328.121000", "184328.124000", "184328.127000", "184328.131000", "184328.134000", "184328.137000", "184328.141000", "184328.144000", "184328.147000", "184328.150000", "184328.154000", "184328.157000", "184328.160000", "184328.164000", "184328.167000", "184328.170000", "184348.107000", "184348.159000", "184348.163000", "184348.166000", "184348.169000", "184348.173000", "184348.176000", "184348.179000", "184348.183000", "184348.186000", "184348.189000", "184348.192000", "184348.196000", "184348.199000", "184348.202000", "184348.206000", "184348.209000", "184348.212000", "184348.224000", "184348.227000", "184348.231000", "184408.106000", "184408.110000", "184408.113000", "184408.117000", "184408.120000", "184408.123000", "184408.126000", "184408.130000", "184408.133000", "184408.137000", "184408.140000", "184408.143000", "184408.147000", "184408.150000", "184408.153000", "184408.156000", "184408.160000", "184408.163000", "184408.166000", "184408.170000", "184448.107000", "184448.111000", "184448.114000", "184448.118000", "184448.121000", "184448.124000", "184448.128000", "184448.131000", "184448.134000", "184448.138000", "184448.141000", "184448.144000", "184448.148000", "184448.151000", "184448.154000", "184448.158000", "184448.161000", "184448.164000", "184448.168000", "184448.171000", "184448.187000", "184448.190000", "184448.193000", "184448.197000", "184448.200000", "184448.203000", "184448.207000", "184448.210000", "184448.214000", "184448.217000", "184528.107000", "184528.111000", "184528.114000", "184528.118000", "184528.121000", "184528.124000", "184528.128000", "184528.131000", "184528.134000", "184528.137000", "184528.141000", "184528.144000", "184528.147000", "184528.151000", "184528.154000", "184528.157000", "184528.161000", "184528.164000", "184528.167000", "184528.171000", "184528.174000", "184528.177000", "184528.181000", "184528.184000", "184528.187000", "184528.191000", "184528.194000", "184608.107000", "184608.111000", "184608.115000", "184608.118000", "184608.121000", "184608.125000", "184608.128000", "184608.131000", "184608.135000", "184608.138000", "184608.141000", "184608.145000", "184608.148000", "184608.151000", "184608.154000", "184608.158000", "184608.161000", "184608.165000", "184608.168000", "184608.171000", "184608.175000", "184608.178000", "184608.181000", "184608.184000", "184608.188000", "184608.191000", "184608.194000", "184648.106000", "184648.110000", "184648.113000", "184648.117000", "184648.120000", "184648.123000", "184648.127000", "184648.130000", "184648.133000", "184648.137000", "184648.140000", "184648.143000", "184648.147000", "184648.150000", "184648.153000", "184648.157000", "184648.167000", "184648.170000", "184648.174000", "184648.177000", "184648.180000", "184648.184000", "184648.187000", "184648.191000", "184648.194000", "184648.197000", "184648.201000", "184728.114000", "184728.118000", "184728.121000", "184728.124000", "184728.128000", "184728.131000", "184728.134000", "184728.138000", "184728.141000", "184728.145000", "184728.148000", "184728.151000", "184728.154000", "184728.158000", "184728.161000", "184728.164000", "184728.168000", "184728.171000", "184728.175000", "184728.178000", "184728.181000", "184728.185000", "184728.188000", "184728.191000", "184728.195000", "184728.198000", "184728.201000", "184808.107000", "184808.111000", "184808.114000", "184808.118000", "184808.121000", "184808.124000", "184808.128000", "184808.132000", "184808.136000", "184808.139000", "184808.142000", "184808.146000", "184808.149000", "184808.152000", "184808.156000", "184808.159000", "184808.163000", "184808.166000", "184808.169000", "184808.173000", "184808.176000", "184808.179000", "184808.183000", "184808.186000", "184808.190000", "184808.193000", "184848.106000", "184848.110000", "184848.113000", "184848.117000", "184848.120000", "184848.123000", "184848.127000", "184848.130000", "184848.133000", "184848.137000", "184848.140000", "184848.143000", "184848.147000", "184848.150000", "184848.153000", "184848.157000", "184848.160000", "184848.163000", "184848.167000", "184848.170000", "184848.173000", "184848.177000", "184848.180000", "184848.183000", "184848.187000", "184848.190000", "184848.193000", "184928.107000", "184928.111000", "184928.114000", "184928.118000", "184928.121000", "184928.124000", "184928.128000", "184928.131000", "184928.135000", "184928.138000", "184928.141000", "184928.144000", "184928.148000", "184928.165000", "184928.169000", "184928.172000", "184928.176000", "184928.179000", "184928.182000", "184928.185000", "184928.189000", "184928.192000", "184928.196000", "184928.199000", "184928.203000", "184928.206000", "184928.210000", "185008.107000", "185008.111000", "185008.114000", "185008.118000", "185008.121000", "185008.124000", "185008.128000", "185008.131000", "185008.134000", "185008.138000", "185008.141000", "185008.151000", "185008.154000", "185008.157000", "185008.161000", "185008.164000", "185008.167000", "185008.171000", "185008.174000", "185008.178000", "185008.181000", "185008.185000", "185008.188000", "185008.191000", "185008.195000", "185008.198000", "185008.202000", "185034.806000", "185034.809000", "185034.813000", "185034.816000", "185034.819000", "185034.823000", "185034.826000", "185034.829000", "185034.833000", "185034.836000", "185034.840000", "185034.843000", "185034.846000", "185034.850000", "185034.853000", "185034.856000", "185034.859000", "185034.863000"],
      "InstanceCreationTime": ["184308.145000", "184308.148000", "184308.152000", "184308.155000", "184308.159000", "184308.162000", "184308.166000", "184308.170000", "184308.173000", "184308.177000", "184308.180000", "184308.183000", "184308.187000", "184308.195000", "184308.199000", "184308.202000", "184308.205000", "184308.209000", "184308.226000", "184308.229000", "184308.232000", "184308.235000", "184328.107000", "184328.111000", "184328.114000", "184328.117000", "184328.121000", "184328.124000", "184328.127000", "184328.131000", "184328.134000", "184328.137000", "184328.141000", "184328.144000", "184328.147000", "184328.150000", "184328.154000", "184328.157000", "184328.160000", "184328.164000", "184328.167000", "184328.170000", "184348.107000", "184348.159000", "184348.163000", "184348.166000", "184348.169000", "184348.173000", "184348.176000", "184348.179000", "184348.183000", "184348.186000", "184348.189000", "184348.192000", "184348.196000", "184348.199000", "184348.202000", "184348.206000", "184348.209000", "184348.212000", "184348.224000", "184348.227000", "184348.231000", "184408.106000", "184408.110000", "184408.113000", "184408.117000", "184408.120000", "184408.123000", "184408.126000", "184408.130000", "184408.133000", "184408.137000", "184408.140000", "184408.143000", "184408.147000", "184408.150000", "184408.153000", "184408.156000", "184408.160000", "184408.163000", "184408.166000", "184408.170000", "184448.107000", "184448.111000", "184448.114000", "184448.118000", "184448.121000", "184448.124000", "184448.128000", "184448.131000", "184448.134000", "184448.138000", "184448.141000", "184448.144000", "184448.148000", "184448.151000", "184448.154000", "184448.158000", "184448.161000", "184448.164000", "184448.168000", "184448.171000", "184448.187000", "184448.190000", "184448.193000", "184448.197000", "184448.200000", "184448.203000", "184448.207000", "184448.210000", "184448.214000", "184448.217000", "184528.107000", "184528.111000", "184528.114000", "184528.118000", "184528.121000", "184528.124000", "184528.128000", "184528.131000", "184528.134000", "184528.137000", "184528.141000", "184528.144000", "184528.147000", "184528.151000", "184528.154000", "184528.157000", "184528.161000", "184528.164000", "184528.167000", "184528.171000", "184528.174000", "184528.177000", "184528.181000", "184528.184000", "184528.187000", "184528.191000", "184528.194000", "184608.107000", "184608.111000", "184608.115000", "184608.118000", "184608.121000", "184608.125000", "184608.128000", "184608.131000", "184608.135000", "184608.138000", "184608.141000", "184608.145000", "184608.148000", "184608.151000", "184608.154000", "184608.158000", "184608.161000", "184608.165000", "184608.168000", "184608.171000", "184608.175000", "184608.178000", "184608.181000", "184608.184000", "184608.188000", "184608.191000", "184608.194000", "184648.106000", "184648.110000", "184648.113000", "184648.117000", "184648.120000", "184648.123000", "184648.127000", "184648.130000", "184648.133000", "184648.137000", "184648.140000", "184648.143000", "184648.147000", "184648.150000", "184648.153000", "184648.157000", "184648.167000", "184648.170000", "184648.174000", "184648.177000", "184648.180000", "184648.184000", "184648.187000", "184648.191000", "184648.194000", "184648.197000", "184648.201000", "184728.114000", "184728.118000", "184728.121000", "184728.124000", "184728.128000", "184728.131000", "184728.134000", "184728.138000", "184728.141000", "184728.145000", "184728.148000", "184728.151000", "184728.154000", "184728.158000", "184728.161000", "184728.164000", "184728.168000", "184728.171000", "184728.175000", "184728.178000", "184728.181000", "184728.185000", "184728.188000", "184728.191000", "184728.195000", "184728.198000", "184728.201000", "184808.107000", "184808.111000", "184808.114000", "184808.118000", "184808.121000", "184808.124000", "184808.128000", "184808.132000", "184808.136000", "184808.139000", "184808.142000", "184808.146000", "184808.149000", "184808.152000", "184808.156000", "184808.159000", "184808.163000", "184808.166000", "184808.169000", "184808.173000", "184808.176000", "184808.179000", "184808.183000", "184808.186000", "184808.190000", "184808.193000", "184848.106000", "184848.110000", "184848.113000", "184848.117000", "184848.120000", "184848.123000", "184848.127000", "184848.130000", "184848.133000", "184848.137000", "184848.140000", "184848.143000", "184848.147000", "184848.150000", "184848.153000", "184848.157000", "184848.160000", "184848.163000", "184848.167000", "184848.170000", "184848.173000", "184848.177000", "184848.180000", "184848.183000", "184848.187000", "184848.190000", "184848.193000", "184928.107000", "184928.111000", "184928.114000", "184928.118000", "184928.121000", "184928.124000", "184928.128000", "184928.131000", "184928.135000", "184928.138000", "184928.141000", "184928.144000", "184928.148000", "184928.165000", "184928.169000", "184928.172000", "184928.176000", "184928.179000", "184928.182000", "184928.185000", "184928.189000", "184928.192000", "184928.196000", "184928.199000", "184928.203000", "184928.206000", "184928.210000", "185008.107000", "185008.111000", "185008.114000", "185008.118000", "185008.121000", "185008.124000", "185008.128000", "185008.131000", "185008.134000", "185008.138000", "185008.141000", "185008.151000", "185008.154000", "185008.157000", "185008.161000", "185008.164000", "185008.167000", "185008.171000", "185008.174000", "185008.178000", "185008.181000", "185008.185000", "185008.188000", "185008.191000", "185008.195000", "185008.198000", "185008.202000", "185034.806000", "185034.809000", "185034.813000", "185034.816000", "185034.819000", "185034.823000", "185034.826000", "185034.829000", "185034.833000", "185034.836000", "185034.840000", "185034.843000", "185034.846000", "185034.850000", "185034.853000", "185034.856000", "185034.859000", "185034.863000"],
      "InstanceNumber": [1, 2, 3, 4, 5, 6, 7, 8, 9, 10, 11, 12, 13, 14, 15, 16, 17, 18, 19, 20, 21, 22, 23, 24, 25, 26, 27, 28, 29, 30, 31, 32, 33, 34, 35, 36, 37, 38, 39, 40, 41, 42, 43, 44, 45, 46, 47, 48, 49, 50, 51, 52, 53, 54, 55, 56, 57, 58, 59, 60, 61, 62, 63, 64, 65, 66, 67, 68, 69, 70, 71, 72, 73, 74, 75, 76, 77, 78, 79, 80, 81, 82, 83, 84, 85, 86, 87, 88, 89, 90, 91, 92, 93, 94, 95, 96, 97, 98, 99, 100, 101, 102, 103, 104, 105, 106, 107, 108, 109, 110, 111, 112, 113, 114, 115, 116, 117, 118, 119, 120, 121, 122, 123, 124, 125, 126, 127, 128, 129, 130, 131, 132, 133, 134, 135, 136, 137, 138, 139, 140, 141, 142, 143, 144, 145, 146, 147, 148, 149, 150, 151, 152, 153, 154, 155, 156, 157, 158, 159, 160, 161, 162, 163, 164, 165, 166, 167, 168, 169, 170, 171, 172, 173, 174, 175, 176, 177, 178, 179, 180, 181, 182, 183, 184, 185, 186, 187, 188, 189, 190, 191, 192, 193, 194, 195, 196, 197, 198, 199, 200, 201, 202, 203, 204, 205, 206, 207, 208, 209, 210, 211, 212, 213, 214, 215, 216, 217, 218, 219, 220, 221, 222, 223, 224, 225, 226, 227, 228, 229, 230, 231, 232, 233, 234, 235, 236, 237, 238, 239, 240, 241, 242, 243, 244, 245, 246, 247, 248, 249, 250, 251, 252, 253, 254, 255, 256, 257, 258, 259, 260, 261, 262, 263, 264, 265, 266, 267, 268, 269, 270, 271, 272, 273, 274, 275, 276, 277, 278, 279, 280, 281, 282, 283, 284, 285, 286, 287, 288, 289, 290, 291, 292, 293, 294, 295, 296, 297, 298, 299, 300, 301, 302, 303, 304, 305, 306, 307, 308, 309, 310, 311, 312, 313, 314, 315, 316, 317, 318, 319, 320, 321, 322, 323, 324, 325, 326, 327, 328, 329, 330, 331, 332, 333, 334, 335, 336, 337, 338, 339, 340, 341, 342, 343, 344, 345, 346],
      "LargestImagePixelValue": [61539, 59371, 58229, 57945, 57228, 56941, 56748, 57055, 56500, 56536, 56705, 57334, 57034, 57104, 57290, 56890, 57498, 57178, 57702, 58001, 57730, 57773, 58188, 57471, 58141, 57818, 58080, 58212, 57767, 58019, 57953, 58076, 57447, 57926, 58279, 58620, 58114, 58388, 58163, 58274, 58556, 58291, 58607, 57915, 58464, 58405, 58772, 58366, 58777, 57825, 58248, 58824, 58475, 58632, 58882, 58619, 58456, 58432, 58829, 58219, 58415, 58290, 58594, 58619, 58415, 58233, 58349, 58553, 58734, 58596, 59090, 59036, 58121, 56633, 57341, 57429, 57786, 57850, 58187, 58369, 58131, 57103, 56788, 56921, 57273, 57311, 57767, 57931, 58158, 57856, 58128, 57988, 57404, 57474, 56982, 57437, 58012, 57831, 57867, 57625, 58326, 57887, 57634, 58049, 57649, 57948, 57756, 57802, 57795, 57741, 57914, 58005, 57490, 57640, 56807, 57666, 57268, 57602, 57318, 57515, 58014, 57303, 57879, 57479, 57820, 57367, 57427, 57219, 57078, 56917, 56526, 57095, 57711, 57346, 57101, 57505, 57114, 57450, 56736, 56652, 57286, 57010, 57036, 56880, 57225, 57505, 56931, 56821, 56266, 56447, 56251, 56956, 56939, 57248, 57497, 56634, 57009, 56849, 56909, 56687, 56540, 56370, 56789, 56613, 56395, 57233, 56694, 57074, 56706, 57143, 56158, 56829, 56866, 56914, 56029, 57090, 56478, 56668, 56395, 56508, 55860, 56066, 55967, 54930, 54931, 54650, 54238, 54290, 54165, 54333, 54137, 54834, 55162, 54632, 54302, 54004, 53699, 53430, 54218, 53385, 54480, 53989, 55062, 54178, 55521, 54537, 54789, 54568, 53850, 54658, 54311, 55205, 55041, 55763, 55511, 54889, 55960, 56545, 55418, 54764, 55516, 55422, 54688, 55119, 55157, 54099, 55406, 54421, 56044, 55043, 55750, 54900, 54972, 54328, 55132, 55384, 54922, 55692, 54731, 54482, 55581, 55513, 55242, 55416, 54783, 54223, 54768, 55603, 55699, 54951, 56351, 54995, 57433, 55172, 55794, 55510, 55021, 56070, 55449, 54611, 55990, 55130, 55203, 55689, 53909, 56039, 54113, 55214, 54656, 55331, 55118, 55299, 54276, 54546, 55554, 53225, 54471, 56037, 54171, 56401, 53359, 54287, 54391, 54716, 53846, 54440, 54967, 53931, 54819, 53773, 54245, 53718, 54912, 53456, 53615, 53607, 53356, 54355, 53038, 52281, 53162, 52967, 53396, 53843, 53435, 53928, 53648, 53605, 53137, 53584, 53399, 53098, 53127, 53710, 52658, 53663, 53237, 53987, 54511, 54160, 53511, 52204, 53055, 52055, 52608, 53245, 52315, 53096, 52088, 53162, 52722, 53059, 52586, 53951, 52506, 52516, 52436, 51856, 52083, 52794, 52002, 53237, 52403, 53032, 52845, 52881],
