{
  "AcquisitionMatrixPE": 104,
  "AcquisitionNumber": 1,
  "AcquisitionTime": "18:54:20.972500",
  "BandwidthPerPixelPhaseEncode": 17.17,
  "BaseResolution": 104,
  "BodyPartExamined": "BRAIN",
  "CoilCombinationMethod": "Sum of Squares",
  "ConsistencyInfo": "N4_VE11C_LATEST_20160120",
  "ConversionSoftware": "dcm2niix",
  "ConversionSoftwareVersion": "v1.0.20220505",
  "DerivedVendorReportedEchoSpacing": 0.000560011,
  "DeviceSerialNumber": "167006",
  "DwellTime": 2.1e-06,
  "EchoTime": 0.037,
  "EchoTrainLength": 104,
  "EffectiveEchoSpacing": 0.000560011,
  "FlipAngle": 52,
  "HeudiconvVersion": "0.5.3.post811+g6206e14",
  "ImageComments": "Unaliased MB4/PE3/LB",
  "ImageOrientationPatientDICOM": [0.999757, 0.00248157, 0.021882, 0.00610732, 0.923415, -0.383756],
  "ImageOrientationText": "Tra>Cor(-22.6)>Sag(1.2)",
  "ImageType": [
    "ORIGINAL",
    "PRIMARY",
    "M",
    "MB",
    "ND",
    "MOSAIC"
],
  "ImagingFrequency": 123.259,
  "InPlanePhaseEncodingDirectionDICOM": "COL",
  "InstitutionAddress": "Chemin Queen-Mary 4565,Montreal,District,CA,H3W 1W5",
  "InstitutionName": "IUGM",
  "InstitutionalDepartmentName": "Department",
  "MRAcquisitionType": "2D",
  "MagneticFieldStrength": 3,
  "Manufacturer": "Siemens",
  "ManufacturersModelName": "Prisma_fit",
  "MatrixCoilMode": "SENSE",
  "Modality": "MR",
  "MultibandAccelerationFactor": 4,
  "PartialFourier": 1,
  "PatientPosition": "HFS",
  "PercentPhaseFOV": 100,
  "PercentSampling": 100,
  "PhaseEncodingDirection": "j",
  "PhaseEncodingSteps": 104,
  "PhaseResolution": 1,
  "PixelBandwidth": 2290,
  "ProcedureStepDescription": "games^mario3",
  "ProtocolName": "func_task-mario3_run-02",
  "PulseSequenceDetails": "%CustomerSeq%\\cmrr_mbep2d_bold",
  "ReceiveCoilActiveElements": "HC1-7;NC1,2",
  "ReceiveCoilName": "HeadNeck_64",
  "ReconMatrixPE": 104,
  "RepetitionTime": 1.49,
  "SAR": 0.0856788,
  "ScanOptions": "FS",
  "ScanningSequence": "EP",
  "SequenceName": "epfid2d1_104",
  "SequenceVariant": "SK\\SS",
  "SeriesDescription": "func_task-mario3_run-02",
  "SeriesNumber": 13,
  "ShimSetting": [587, -7295, -8810, 404, 24, -363, -45, 95],
  "SliceThickness": 2,
  "SliceTiming": [0, 0.785, 0.1, 0.8825, 0.1975, 0.98, 0.295, 1.08, 0.3925, 1.1775, 0.49, 1.275, 0.59, 1.3725, 0.6875, 0, 0.785, 0.1, 0.8825, 0.1975, 0.98, 0.295, 1.08, 0.3925, 1.1775, 0.49, 1.275, 0.59, 1.3725, 0.6875, 0, 0.785, 0.1, 0.8825, 0.1975, 0.98, 0.295, 1.08, 0.3925, 1.1775, 0.49, 1.275, 0.59, 1.3725, 0.6875, 0, 0.785, 0.1, 0.8825, 0.1975, 0.98, 0.295, 1.08, 0.3925, 1.1775, 0.49, 1.275, 0.59, 1.3725, 0.6875],
  "SoftwareVersions": "syngo MR E11",
  "SpacingBetweenSlices": 2,
  "StationName": "MRC35049",
  "TaskName": "mario3",
  "TotalReadoutTime": 0.0576811,
  "TxRefAmp": 309.502,
  "WipMemBlock": "0dc31c9f-d2c5-4aa3-9137-7f83ba856201||Sequence: R017 ve11c/master r/75a17815+; Jun 28 2022 16:32:11 by eja",
  "dcmmeta_affine": [
    [-1.9995149374008179, 0.012214635498821735, 0.04231701418757439, 103.10347747802734],
    [-0.00496314000338316, 1.8468290567398071, -0.7675923109054565, -67.98622131347656],
    [0.04376407712697983, 0.7675111293792725, 1.8463507890701294, -64.58615112304688],
    [0.0, 0.0, 0.0, 1.0]
],
  "dcmmeta_reorient_transform": [
    [0.0, -1.0, 0.0, 103.0],
    [1.0, 0.0, 0.0, 0.0],
    [0.0, 0.0, 1.0, 0.0],
    [0.0, 0.0, 0.0, 1.0]
],
  "dcmmeta_shape": [104, 104, 60, 356],
  "dcmmeta_slice_dim": 2,
  "dcmmeta_version": 0.6,
  "global": {
    "const": {
      "AcquisitionMatrix": [104, 0, 0, 104],
      "AngioFlag": "N",
      "BitsAllocated": 16,
      "BitsStored": 16,
      "BodyPartExamined": "BRAIN",
      "Columns": 832,
      "EchoNumbers": 1,
      "EchoTime": 37.0,
      "EchoTrainLength": 104,
      "FlipAngle": 52.0,
      "HighBit": 15,
      "ImageOrientationPatient": [0.99975747970292, 0.00248156988835, 0.02188203804397, 0.00610731767702, 0.92341450962169, -0.3837555785796],
      "ImagePositionPatient": [-836.63115835605, -796.28951169361, 277.91143686391],
      "ImageType": [
        "ORIGINAL",
        "PRIMARY",
        "M",
        "MB",
        "ND",
        "MOSAIC"
],
      "ImagedNucleus": "1H",
      "ImagingFrequency": 123.259132,
      "InPlanePhaseEncodingDirection": "COL",
      "MRAcquisitionType": "2D",
      "MagneticFieldStrength": 3.0,
      "Manufacturer": "SIEMENS",
      "ManufacturerModelName": "Prisma_fit",
      "Modality": "MR",
      "NumberOfAverages": 1.0,
      "NumberOfPhaseEncodingSteps": 104,
      "PercentPhaseFieldOfView": 100.0,
      "PercentSampling": 100.0,
      "PerformedProcedureStepStartTime": "183820.357000",
      "PhotometricInterpretation": "MONOCHROME2",
      "PixelBandwidth": 2290.0,
      "PixelRepresentation": 0,
      "PixelSpacing": [2.0, 2.0],
      "ProtocolName": "func_task-mario3_run-02",
      "RepetitionTime": 1490.0,
      "Rows": 832,
      "SAR": 0.08567879929513,
      "SamplesPerPixel": 1,
      "ScanOptions": "FS",
      "ScanningSequence": "EP",
      "SequenceName": "epfid2d1_104",
      "SequenceVariant": [
        "SK",
        "SS"
],
      "SeriesDescription": "func_task-mario3_run-02",
      "SeriesNumber": 13,
      "SeriesTime": "185514.442000",
      "SliceLocation": -31.349978674553,
      "SliceThickness": 2.0,
      "SmallestImagePixelValue": 0,
      "SoftwareVersions": "syngo MR E11",
      "SpacingBetweenSlices": 2.0000000078129,
      "SpecificCharacterSet": "ISO_IR 100",
      "StudyID": "1",
      "StudyTime": "183820.284000",
      "TransmitCoilName": "Body",
      "VariableFlipAngleFlag": "N",
      "WindowCenterWidthExplanation": "Algo1",
      "dBdt": 0.0},
    "slices": {}
  },
  "time": {
    "samples": {
      "AcquisitionNumber": [1, 2, 3, 4, 5, 6, 7, 8, 9, 10, 11, 12, 13, 14, 15, 16, 17, 18, 19, 20, 21, 22, 23, 24, 25, 26, 27, 28, 29, 30, 31, 32, 33, 34, 35, 36, 37, 38, 39, 40, 41, 42, 43, 44, 45, 46, 47, 48, 49, 50, 51, 52, 53, 54, 55, 56, 57, 58, 59, 60, 61, 62, 63, 64, 65, 66, 67, 68, 69, 70, 71, 72, 73, 74, 75, 76, 77, 78, 79, 80, 81, 82, 83, 84, 85, 86, 87, 88, 89, 90, 91, 92, 93, 94, 95, 96, 97, 98, 99, 100, 101, 102, 103, 104, 105, 106, 107, 108, 109, 110, 111, 112, 113, 114, 115, 116, 117, 118, 119, 120, 121, 122, 123, 124, 125, 126, 127, 128, 129, 130, 131, 132, 133, 134, 135, 136, 137, 138, 139, 140, 141, 142, 143, 144, 145, 146, 147, 148, 149, 150, 151, 152, 153, 154, 155, 156, 157, 158, 159, 160, 161, 162, 163, 164, 165, 166, 167, 168, 169, 170, 171, 172, 173, 174, 175, 176, 177, 178, 179, 180, 181, 182, 183, 184, 185, 186, 187, 188, 189, 190, 191, 192, 193, 194, 195, 196, 197, 198, 199, 200, 201, 202, 203, 204, 205, 206, 207, 208, 209, 210, 211, 212, 213, 214, 215, 216, 217, 218, 219, 220, 221, 222, 223, 224, 225, 226, 227, 228, 229, 230, 231, 232, 233, 234, 235, 236, 237, 238, 239, 240, 241, 242, 243, 244, 245, 246, 247, 248, 249, 250, 251, 252, 253, 254, 255, 256, 257, 258, 259, 260, 261, 262, 263, 264, 265, 266, 267, 268, 269, 270, 271, 272, 273, 274, 275, 276, 277, 278, 279, 280, 281, 282, 283, 284, 285, 286, 287, 288, 289, 290, 291, 292, 293, 294, 295, 296, 297, 298, 299, 300, 301, 302, 303, 304, 305, 306, 307, 308, 309, 310, 311, 312, 313, 314, 315, 316, 317, 318, 319, 320, 321, 322, 323, 324, 325, 326, 327, 328, 329, 330, 331, 332, 333, 334, 335, 336, 337, 338, 339, 340, 341, 342, 343, 344, 345, 346, 347, 348, 349, 350, 351, 352, 353, 354, 355, 356],
      "AcquisitionTime": ["185420.972500", "185422.462500", "185423.952500", "185425.442500", "185426.932500", "185428.422500", "185429.912500", "185431.402500", "185432.892500", "185434.382500", "185435.872500", "185437.362500", "185438.852500", "185440.342500", "185441.832500", "185443.322500", "185444.812500", "185446.302500", "185447.792500", "185449.282500", "185450.772500", "185452.262500", "185453.752500", "185455.242500", "185456.732500", "185458.222500", "185459.712500", "185501.202500", "185502.692500", "185504.182500", "185505.672500", "185507.162500", "185508.652500", "185510.142500", "185511.632500", "185513.122500", "185514.612500", "185516.102500", "185517.592500", "185519.082500", "185520.572500", "185522.062500", "185523.552500", "185525.042500", "185526.532500", "185528.022500", "185529.512500", "185531.002500", "185532.492500", "185533.982500", "185535.472500", "185536.962500", "185538.452500", "185539.942500", "185541.432500", "185542.922500", "185544.412500", "185545.902500", "185547.392500", "185548.882500", "185550.372500", "185551.862500", "185553.352500", "185554.842500", "185556.332500", "185557.822500", "185559.312500", "185600.802500", "185602.292500", "185603.782500", "185605.272500", "185606.762500", "185608.252500", "185609.742500", "185611.232500", "185612.722500", "185614.212500", "185615.702500", "185617.192500", "185618.682500", "185620.172500", "185621.662500", "185623.152500", "185624.642500", "185626.132500", "185627.622500", "185629.112500", "185630.602500", "185632.092500", "185633.582500", "185635.072500", "185636.562500", "185638.052500", "185639.542500", "185641.032500", "185642.522500", "185644.012500", "185645.502500", "185646.992500", "185648.482500", "185649.972500", "185651.462500", "185652.952500", "185654.442500", "185655.932500", "185657.422500", "185658.912500", "185700.402500", "185701.892500", "185703.382500", "185704.872500", "185706.362500", "185707.852500", "185709.342500", "185710.832500", "185712.322500", "185713.812500", "185715.302500", "185716.792500", "185718.282500", "185719.772500", "185721.262500", "185722.752500", "185724.242500", "185725.732500", "185727.222500", "185728.712500", "185730.202500", "185731.692500", "185733.182500", "185734.672500", "185736.162500", "185737.652500", "185739.142500", "185740.632500", "185742.122500", "185743.612500", "185745.102500", "185746.592500", "185748.082500", "185749.572500", "185751.062500", "185752.552500", "185754.042500", "185755.532500", "185757.022500", "185758.512500", "185800.002500", "185801.492500", "185802.982500", "185804.472500", "185805.962500", "185807.452500", "185808.942500", "185810.432500", "185811.922500", "185813.412500", "185814.902500", "185816.392500", "185817.882500", "185819.372500", "185820.862500", "185822.352500", "185823.842500", "185825.332500", "185826.822500", "185828.312500", "185829.802500", "185831.292500", "185832.782500", "185834.272500", "185835.762500", "185837.252500", "185838.742500", "185840.232500", "185841.722500", "185843.212500", "185844.702500", "185846.192500", "185847.682500", "185849.172500", "185850.662500", "185852.152500", "185853.642500", "185855.132500", "185856.622500", "185858.112500", "185859.602500", "185901.092500", "185902.582500", "185904.072500", "185905.562500", "185907.052500", "185908.542500", "185910.032500", "185911.522500", "185913.012500", "185914.502500", "185915.992500", "185917.482500", "185918.972500", "185920.462500", "185921.952500", "185923.442500", "185924.932500", "185926.422500", "185927.912500", "185929.402500", "185930.892500", "185932.382500", "185933.872500", "185935.362500", "185936.852500", "185938.342500", "185939.832500", "185941.322500", "185942.812500", "185944.302500", "185945.792500", "185947.282500", "185948.772500", "185950.262500", "185951.752500", "185953.242500", "185954.732500", "185956.222500", "185957.712500", "185959.202500", "190000.692500", "190002.182500", "190003.672500", "190005.162500", "190006.652500", "190008.142500", "190009.632500", "190011.122500", "190012.612500", "190014.102500", "190015.592500", "190017.082500", "190018.572500", "190020.062500", "190021.552500", "190023.042500", "190024.532500", "190026.022500", "190027.512500", "190029.002500", "190030.492500", "190031.982500", "190033.472500", "190034.962500", "190036.452500", "190037.942500", "190039.432500", "190040.922500", "190042.412500", "190043.902500", "190045.392500", "190046.882500", "190048.372500", "190049.862500", "190051.352500", "190052.842500", "190054.332500", "190055.822500", "190057.312500", "190058.802500", "190100.292500", "190101.782500", "190103.272500", "190104.762500", "190106.252500", "190107.742500", "190109.232500", "190110.722500", "190112.212500", "190113.702500", "190115.192500", "190116.682500", "190118.172500", "190119.662500", "190121.152500", "190122.642500", "190124.132500", "190125.622500", "190127.112500", "190128.602500", "190130.092500", "190131.582500", "190133.072500", "190134.562500", "190136.052500", "190137.542500", "190139.032500", "190140.522500", "190142.012500", "190143.502500", "190144.992500", "190146.482500", "190147.972500", "190149.462500", "190150.952500", "190152.442500", "190153.932500", "190155.422500", "190156.912500", "190158.402500", "190159.892500", "190201.382500", "190202.872500", "190204.362500", "190205.852500", "190207.342500", "190208.832500", "190210.322500", "190211.812500", "190213.302500", "190214.792500", "190216.282500", "190217.772500", "190219.262500", "190220.752500", "190222.242500", "190223.732500", "190225.222500", "190226.712500", "190228.202500", "190229.692500", "190231.182500", "190232.672500", "190234.162500", "190235.652500", "190237.142500", "190238.632500", "190240.122500", "190241.612500", "190243.102500", "190244.592500", "190246.082500", "190247.572500", "190249.062500", "190250.552500", "190252.042500", "190253.532500", "190255.022500", "190256.512500", "190258.002500", "190259.492500", "190300.982500", "190302.472500", "190303.962500", "190305.452500", "190306.942500", "190308.432500", "190309.922500"],
      "ContentTime": ["185514.445000", "185514.449000", "185514.468000", "185514.471000", "185534.411000", "185534.431000", "185534.435000", "185534.438000", "185534.441000", "185534.445000", "185534.448000", "185534.451000", "185534.455000", "185534.458000", "185534.461000", "185534.469000", "185534.472000", "185534.476000", "185534.479000", "185534.483000", "185534.486000", "185534.490000", "185534.493000", "185534.496000", "185554.410000", "185554.414000", "185554.417000", "185554.420000", "185554.424000", "185554.427000", "185554.431000", "185554.434000", "185554.437000", "185554.441000", "185554.444000", "185554.448000", "185554.451000", "185554.463000", "185554.466000", "185554.469000", "185554.473000", "185554.476000", "185554.479000", "185554.483000", "185554.486000", "185614.410000", "185614.414000", "185614.417000", "185614.420000", "185614.424000", "185614.427000", "185614.430000", "185614.434000", "185614.437000", "185614.440000", "185614.443000", "185614.447000", "185614.450000", "185614.454000", "185614.457000", "185614.461000", "185614.464000", "185614.468000", "185614.471000", "185614.483000", "185634.410000", "185634.414000", "185634.417000", "185634.420000", "185634.424000", "185634.427000", "185634.430000", "185634.434000", "185634.437000", "185634.440000", "185634.444000", "185634.447000", "185634.450000", "185634.454000", "185634.457000", "185634.460000", "185634.464000", "185634.467000", "185634.471000", "185634.474000", "185714.410000", "185714.414000", "185714.417000", "185714.420000", "185714.424000", "185714.427000", "185714.430000", "185714.434000", "185714.437000", "185714.441000", "185714.444000", "185714.447000", "185714.451000", "185714.465000", "185714.468000", "185714.472000", "185714.475000", "185714.478000", "185714.482000", "185714.485000", "185714.489000", "185714.493000", "185714.496000", "185714.499000", "185714.503000", "185714.506000", "185714.509000", "185714.513000", "185714.516000", "185714.519000", "185754.411000", "185754.415000", "185754.418000", "185754.422000", "185754.425000", "185754.428000", "185754.432000", "185754.435000", "185754.438000", "185754.442000", "185754.445000", "185754.448000", "185754.452000", "185754.455000", "185754.458000", "185754.461000", "185754.465000", "185754.468000", "185754.471000", "185754.475000", "185754.478000", "185754.482000", "185754.485000", "185754.489000", "185754.492000", "185754.496000", "185754.499000", "185834.410000", "185834.414000", "185834.417000", "185834.420000", "185834.424000", "185834.427000", "185834.431000", "185834.434000", "185834.437000", "185834.441000", "185834.444000", "185834.447000", "185834.451000", "185834.454000", "185834.457000", "185834.461000", "185834.464000", "185834.467000", "185834.471000", "185834.474000", "185834.477000", "185834.481000", "185834.484000", "185834.487000", "185834.491000", "185834.494000", "185834.497000", "185914.410000", "185914.414000", "185914.417000", "185914.421000", "185914.424000", "185914.428000", "185914.431000", "185914.434000", "185914.438000", "185914.441000", "185914.445000", "185914.448000", "185914.451000", "185914.466000", "185914.469000", "185914.473000", "185914.476000", "185914.479000", "185914.483000", "185914.486000", "185914.489000", "185914.493000", "185914.496000", "185914.499000", "185914.503000", "185914.506000", "185914.509000", "185954.410000", "185954.414000", "185954.417000", "185954.421000", "185954.424000", "185954.427000", "185954.431000", "185954.434000", "185954.437000", "185954.441000", "185954.444000", "185954.448000", "185954.451000", "185954.454000", "185954.458000", "185954.461000", "185954.465000", "185954.468000", "185954.472000", "185954.475000", "185954.478000", "185954.482000", "185954.485000", "185954.489000", "185954.492000", "185954.495000", "185954.499000", "190034.410000", "190034.414000", "190034.417000", "190034.420000", "190034.424000", "190034.427000", "190034.431000", "190034.434000", "190034.437000", "190034.441000", "190034.444000", "190034.447000", "190034.451000", "190034.454000", "190034.458000", "190034.461000", "190034.464000", "190034.468000", "190034.471000", "190034.474000", "190034.478000", "190034.481000", "190034.485000", "190034.488000", "190034.491000", "190034.495000", "190034.498000", "190114.410000", "190114.414000", "190114.417000", "190114.421000", "190114.424000", "190114.427000", "190114.431000", "190114.435000", "190114.438000", "190114.441000", "190114.445000", "190114.448000", "190114.451000", "190114.455000", "190114.458000", "190114.461000", "190114.464000", "190114.468000", "190114.471000", "190114.475000", "190114.478000", "190114.481000", "190114.485000", "190114.488000", "190114.491000", "190114.495000", "190154.410000", "190154.414000", "190154.417000", "190154.421000", "190154.424000", "190154.427000", "190154.431000", "190154.434000", "190154.438000", "190154.441000", "190154.444000", "190154.448000", "190154.451000", "190154.454000", "190154.458000", "190154.461000", "190154.464000", "190154.468000", "190154.471000", "190154.475000", "190154.478000", "190154.481000", "190154.485000", "190154.488000", "190154.491000", "190154.495000", "190154.498000", "190234.411000", "190234.415000", "190234.418000", "190234.422000", "190234.425000", "190234.428000", "190234.432000", "190234.435000", "190234.439000", "190234.442000", "190234.445000", "190234.448000", "190234.452000", "190234.455000", "190234.459000", "190234.462000", "190234.465000", "190234.469000", "190234.472000", "190234.475000", "190234.479000", "190234.482000", "190234.485000", "190234.488000", "190234.492000", "190234.495000", "190234.499000", "190313.032000", "190313.036000", "190313.040000", "190313.043000", "190313.046000", "190313.050000", "190313.053000", "190313.056000", "190313.060000", "190313.063000", "190313.067000", "190313.070000", "190313.073000", "190313.076000", "190313.080000", "190313.083000", "190313.087000", "190313.090000", "190313.093000", "190313.097000", "190313.100000", "190313.103000", "190313.107000", "190313.110000", "190313.114000", "190313.117000"],
      "InstanceCreationTime": ["185514.445000", "185514.449000", "185514.468000", "185514.471000", "185534.411000", "185534.431000", "185534.435000", "185534.438000", "185534.441000", "185534.445000", "185534.448000", "185534.451000", "185534.455000", "185534.458000", "185534.461000", "185534.469000", "185534.472000", "185534.476000", "185534.479000", "185534.483000", "185534.486000", "185534.490000", "185534.493000", "185534.496000", "185554.410000", "185554.414000", "185554.417000", "185554.420000", "185554.424000", "185554.427000", "185554.431000", "185554.434000", "185554.437000", "185554.441000", "185554.444000", "185554.448000", "185554.451000", "185554.463000", "185554.466000", "185554.469000", "185554.473000", "185554.476000", "185554.479000", "185554.483000", "185554.486000", "185614.410000", "185614.414000", "185614.417000", "185614.420000", "185614.424000", "185614.427000", "185614.430000", "185614.434000", "185614.437000", "185614.440000", "185614.443000", "185614.447000", "185614.450000", "185614.454000", "185614.457000", "185614.461000", "185614.464000", "185614.468000", "185614.471000", "185614.483000", "185634.410000", "185634.414000", "185634.417000", "185634.420000", "185634.424000", "185634.427000", "185634.430000", "185634.434000", "185634.437000", "185634.440000", "185634.444000", "185634.447000", "185634.450000", "185634.454000", "185634.457000", "185634.460000", "185634.464000", "185634.467000", "185634.471000", "185634.474000", "185714.410000", "185714.414000", "185714.417000", "185714.420000", "185714.424000", "185714.427000", "185714.430000", "185714.434000", "185714.437000", "185714.441000", "185714.444000", "185714.447000", "185714.451000", "185714.465000", "185714.468000", "185714.472000", "185714.475000", "185714.478000", "185714.482000", "185714.485000", "185714.489000", "185714.493000", "185714.496000", "185714.499000", "185714.503000", "185714.506000", "185714.509000", "185714.513000", "185714.516000", "185714.519000", "185754.411000", "185754.415000", "185754.418000", "185754.422000", "185754.425000", "185754.428000", "185754.432000", "185754.435000", "185754.438000", "185754.442000", "185754.445000", "185754.448000", "185754.452000", "185754.455000", "185754.458000", "185754.461000", "185754.465000", "185754.468000", "185754.471000", "185754.475000", "185754.478000", "185754.482000", "185754.485000", "185754.489000", "185754.492000", "185754.496000", "185754.499000", "185834.410000", "185834.414000", "185834.417000", "185834.420000", "185834.424000", "185834.427000", "185834.431000", "185834.434000", "185834.437000", "185834.441000", "185834.444000", "185834.447000", "185834.451000", "185834.454000", "185834.457000", "185834.461000", "185834.464000", "185834.467000", "185834.471000", "185834.474000", "185834.477000", "185834.481000", "185834.484000", "185834.487000", "185834.491000", "185834.494000", "185834.497000", "185914.410000", "185914.414000", "185914.417000", "185914.421000", "185914.424000", "185914.428000", "185914.431000", "185914.434000", "185914.438000", "185914.441000", "185914.445000", "185914.448000", "185914.451000", "185914.466000", "185914.469000", "185914.473000", "185914.476000", "185914.479000", "185914.483000", "185914.486000", "185914.489000", "185914.493000", "185914.496000", "185914.499000", "185914.503000", "185914.506000", "185914.509000", "185954.410000", "185954.414000", "185954.417000", "185954.421000", "185954.424000", "185954.427000", "185954.431000", "185954.434000", "185954.437000", "185954.441000", "185954.444000", "185954.448000", "185954.451000", "185954.454000", "185954.458000", "185954.461000", "185954.465000", "185954.468000", "185954.472000", "185954.475000", "185954.478000", "185954.482000", "185954.485000", "185954.489000", "185954.492000", "185954.495000", "185954.499000", "190034.410000", "190034.414000", "190034.417000", "190034.420000", "190034.424000", "190034.427000", "190034.431000", "190034.434000", "190034.437000", "190034.441000", "190034.444000", "190034.447000", "190034.451000", "190034.454000", "190034.458000", "190034.461000", "190034.464000", "190034.468000", "190034.471000", "190034.474000", "190034.478000", "190034.481000", "190034.485000", "190034.488000", "190034.491000", "190034.495000", "190034.498000", "190114.410000", "190114.414000", "190114.417000", "190114.421000", "190114.424000", "190114.427000", "190114.431000", "190114.435000", "190114.438000", "190114.441000", "190114.445000", "190114.448000", "190114.451000", "190114.455000", "190114.458000", "190114.461000", "190114.464000", "190114.468000", "190114.471000", "190114.475000", "190114.478000", "190114.481000", "190114.485000", "190114.488000", "190114.491000", "190114.495000", "190154.410000", "190154.414000", "190154.417000", "190154.421000", "190154.424000", "190154.427000", "190154.431000", "190154.434000", "190154.438000", "190154.441000", "190154.444000", "190154.448000", "190154.451000", "190154.454000", "190154.458000", "190154.461000", "190154.464000", "190154.468000", "190154.471000", "190154.475000", "190154.478000", "190154.481000", "190154.485000", "190154.488000", "190154.491000", "190154.495000", "190154.498000", "190234.411000", "190234.415000", "190234.418000", "190234.422000", "190234.425000", "190234.428000", "190234.432000", "190234.435000", "190234.439000", "190234.442000", "190234.445000", "190234.448000", "190234.452000", "190234.455000", "190234.459000", "190234.462000", "190234.465000", "190234.469000", "190234.472000", "190234.475000", "190234.479000", "190234.482000", "190234.485000", "190234.488000", "190234.492000", "190234.495000", "190234.499000", "190313.032000", "190313.036000", "190313.040000", "190313.043000", "190313.046000", "190313.050000", "190313.053000", "190313.056000", "190313.060000", "190313.063000", "190313.067000", "190313.070000", "190313.073000", "190313.076000", "190313.080000", "190313.083000", "190313.087000", "190313.090000", "190313.093000", "190313.097000", "190313.100000", "190313.103000", "190313.107000", "190313.110000", "190313.114000", "190313.117000"],
      "InstanceNumber": [1, 2, 3, 4, 5, 6, 7, 8, 9, 10, 11, 12, 13, 14, 15, 16, 17, 18, 19, 20, 21, 22, 23, 24, 25, 26, 27, 28, 29, 30, 31, 32, 33, 34, 35, 36, 37, 38, 39, 40, 41, 42, 43, 44, 45, 46, 47, 48, 49, 50, 51, 52, 53, 54, 55, 56, 57, 58, 59, 60, 61, 62, 63, 64, 65, 66, 67, 68, 69, 70, 71, 72, 73, 74, 75, 76, 77, 78, 79, 80, 81, 82, 83, 84, 85, 86, 87, 88, 89, 90, 91, 92, 93, 94, 95, 96, 97, 98, 99, 100, 101, 102, 103, 104, 105, 106, 107, 108, 109, 110, 111, 112, 113, 114, 115, 116, 117, 118, 119, 120, 121, 122, 123, 124, 125, 126, 127, 128, 129, 130, 131, 132, 133, 134, 135, 136, 137, 138, 139, 140, 141, 142, 143, 144, 145, 146, 147, 148, 149, 150, 151, 152, 153, 154, 155, 156, 157, 158, 159, 160, 161, 162, 163, 164, 165, 166, 167, 168, 169, 170, 171, 172, 173, 174, 175, 176, 177, 178, 179, 180, 181, 182, 183, 184, 185, 186, 187, 188, 189, 190, 191, 192, 193, 194, 195, 196, 197, 198, 199, 200, 201, 202, 203, 204, 205, 206, 207, 208, 209, 210, 211, 212, 213, 214, 215, 216, 217, 218, 219, 220, 221, 222, 223, 224, 225, 226, 227, 228, 229, 230, 231, 232, 233, 234, 235, 236, 237, 238, 239, 240, 241, 242, 243, 244, 245, 246, 247, 248, 249, 250, 251, 252, 253, 254, 255, 256, 257, 258, 259, 260, 261, 262, 263, 264, 265, 266, 267, 268, 269, 270, 271, 272, 273, 274, 275, 276, 277, 278, 279, 280, 281, 282, 283, 284, 285, 286, 287, 288, 289, 290, 291, 292, 293, 294, 295, 296, 297, 298, 299, 300, 301, 302, 303, 304, 305, 306, 307, 308, 309, 310, 311, 312, 313, 314, 315, 316, 317, 318, 319, 320, 321, 322, 323, 324, 325, 326, 327, 328, 329, 330, 331, 332, 333, 334, 335, 336, 337, 338, 339, 340, 341, 342, 343, 344, 345, 346, 347, 348, 349, 350, 351, 352, 353, 354, 355, 356],
      "LargestImagePixelValue": [57386, 55086, 54883, 54400, 54019, 54059, 53515, 53358, 54272, 54082, 53622, 53859, 54164, 53644, 53612, 53518, 53496, 53807, 53695, 53761, 53626, 53659, 54384, 53987, 53702, 53730, 54214, 54296, 55139, 54249, 54548, 54633, 55448, 55029, 54721, 55083, 54729, 54692, 54822, 54595, 54815, 55248, 56358, 56022, 56295, 55988, 56761, 56418, 56663, 57069, 56735, 56670, 57138, 56424, 56676, 57548, 56960, 57193, 56477, 57119, 56453, 56775, 57146, 56248, 57016, 56846, 57173, 57182, 57462, 57133, 57143, 56706, 57715, 56900, 57158, 57230, 57308, 57634, 57330, 57614, 57648, 58101, 58021, 58654, 58037, 58389, 58072, 58371, 58655, 57990, 58211, 58155, 57791, 58527, 58444, 57814, 58004, 57898, 57078, 57233, 57339, 57487, 57908, 58160, 58591, 57751, 57967, 57390, 58055, 58444, 57950, 59134, 57799, 58507, 58796, 58497, 58835, 57840, 58274, 57955, 58265, 58143, 58189, 58089, 58539, 58643, 58444, 58714, 58428, 58638, 58536, 58044, 57943, 57980, 57708, 57685, 57522, 57538, 57696, 57925, 57504, 57816, 57381, 57070, 57674, 57584, 58063, 58061, 59557, 57154, 57148, 57356, 57182, 58079, 57857, 57164, 59359, 57789, 57914, 59038, 58094, 58484, 58115, 58532, 58453, 58623, 58250, 58073, 58145, 58195, 57655, 57494, 57458, 57411, 57279, 58252, 57486, 57089, 57814, 57547, 58151, 59230, 57053, 57856, 56920, 57975, 57740, 57222, 58245, 57375, 57876, 57636, 57251, 57369, 57067, 57346, 57909, 57387, 57930, 57496, 58189, 57626, 57627, 58188, 57381, 57791, 57838, 57939, 57872, 58098, 57277, 58170, 58494, 57746, 58081, 57560, 57867, 57812, 57637, 57617, 57113, 57632, 59587, 57194, 57672, 58382, 58590, 57807, 57641, 57240, 57663, 57639, 57532, 56412, 57720, 56953, 57139, 57158, 57133, 57497, 57032, 57551, 57743, 57244, 57353, 57309, 57677, 56855, 57358, 56808, 57293, 57137, 57475, 58077, 58103, 57996, 57933, 58436, 58473, 58375, 58163, 57998, 58016, 58545, 58740, 58905, 58747, 58249, 58023, 58229, 58027, 58020, 58424, 58075, 58754, 58725, 58290, 58664, 59647, 58553, 58877, 59062, 58986, 58916, 58667, 59600, 58776, 58803, 58428, 58796, 58770, 58406, 58410, 58379, 57969, 58196, 58188, 58156, 58813, 58556, 57818, 58253, 57979, 58801, 58052, 59433, 58996, 58640, 59006, 58942, 59130, 59586, 59748, 59578, 59560, 59135, 59518, 59206, 59258, 58988, 59009, 59377, 58776, 59181, 58522, 59181, 58847, 58919, 59658, 59082, 59116, 58781, 58567, 58728, 58659, 58603, 58156, 58528, 58472, 58308, 58444, 58443, 57967, 58034, 58174, 57761, 57872, 57892, 58308, 58115, 58024, 57964, 58358, 57852, 58275, 58286],
