{
  "AcquisitionMatrixPE": 104,
  "AcquisitionNumber": 1,
  "AcquisitionTime": "19:47:55.775000",
  "BandwidthPerPixelPhaseEncode": 17.17,
  "BaseResolution": 104,
  "BodyPartExamined": "BRAIN",
  "CoilCombinationMethod": "Sum of Squares",
  "ConsistencyInfo": "N4_VE11C_LATEST_20160120",
  "ConversionSoftware": "dcm2niix",
  "ConversionSoftwareVersion": "v1.0.20220505",
  "DerivedVendorReportedEchoSpacing": 0.000560011,
  "DeviceSerialNumber": "167006",
  "DwellTime": 2.1e-06,
  "EchoTime": 0.037,
  "EchoTime1": 0.037,
  "EchoTime2": 0.001,
  "EchoTrainLength": 104,
  "EffectiveEchoSpacing": 0.000560011,
  "FlipAngle": 52,
  "HeudiconvVersion": "0.5.3.post811+g6206e14",
  "ImageComments": "Unaliased MB4/PE3/LB",
  "ImageOrientationPatientDICOM": [0.999757, 0.00248157, 0.021882, 0.00610732, 0.923415, -0.383756],
  "ImageOrientationText": "Tra>Cor(-22.6)>Sag(1.2)",
  "ImageType": [
    "ORIGINAL",
    "PRIMARY",
    "P",
    "MB",
    "ND",
    "MOSAIC",
    "PHASE"
],
  "ImagingFrequency": 123.259,
  "InPlanePhaseEncodingDirectionDICOM": "COL",
  "InstitutionAddress": "Chemin Queen-Mary 4565,Montreal,District,CA,H3W 1W5",
  "InstitutionName": "IUGM",
  "InstitutionalDepartmentName": "Department",
  "MRAcquisitionType": "2D",
  "MagneticFieldStrength": 3,
  "Manufacturer": "Siemens",
  "ManufacturersModelName": "Prisma_fit",
  "MatrixCoilMode": "SENSE",
  "Modality": "MR",
  "MultibandAccelerationFactor": 4,
  "PartialFourier": 1,
  "PatientPosition": "HFS",
  "PercentPhaseFOV": 100,
  "PercentSampling": 100,
  "PhaseEncodingDirection": "j",
  "PhaseEncodingSteps": 104,
  "PhaseResolution": 1,
  "PixelBandwidth": 2290,
  "ProcedureStepDescription": "games^mario3",
  "ProtocolName": "func_task-mario3_run-07",
  "PulseSequenceDetails": "%CustomerSeq%\\cmrr_mbep2d_bold",
  "ReceiveCoilActiveElements": "HC1-7;NC1,2",
  "ReceiveCoilName": "HeadNeck_64",
  "ReconMatrixPE": 104,
  "RepetitionTime": 1.49,
  "SAR": 0.0856788,
  "ScanOptions": "FS",
  "ScanningSequence": "EP",
  "SequenceName": "epfid2d1_104",
  "SequenceVariant": "SK\\SS",
  "SeriesDescription": "func_task-mario3_run-07",
  "SeriesNumber": 29,
  "ShimSetting": [587, -7295, -8810, 404, 24, -363, -45, 95],
  "SliceThickness": 2,
  "SliceTiming": [0, 0.785, 0.0975, 0.8825, 0.195, 0.98, 0.295, 1.0775, 0.3925, 1.175, 0.49, 1.2725, 0.5875, 1.3725, 0.685, 0, 0.785, 0.0975, 0.8825, 0.195, 0.98, 0.295, 1.0775, 0.3925, 1.175, 0.49, 1.2725, 0.5875, 1.3725, 0.685, 0, 0.785, 0.0975, 0.8825, 0.195, 0.98, 0.295, 1.0775, 0.3925, 1.175, 0.49, 1.2725, 0.5875, 1.3725, 0.685, 0, 0.785, 0.0975, 0.8825, 0.195, 0.98, 0.295, 1.0775, 0.3925, 1.175, 0.49, 1.2725, 0.5875, 1.3725, 0.685],
  "SoftwareVersions": "syngo MR E11",
  "SpacingBetweenSlices": 2,
  "StationName": "MRC35049",
  "TaskName": "mario3",
  "TotalReadoutTime": 0.0576811,
  "TxRefAmp": 309.502,
  "WipMemBlock": "2ca43df3-ae03-4dcb-a2e1-e1cf016a480f||Sequence: R017 ve11c/master r/75a17815+; Jun 28 2022 16:32:11 by eja",
  "dcmmeta_affine": [
    [-1.9995149374008179, 0.012214635498821735, 0.04231701418757439, 103.10347747802734],
    [-0.00496314000338316, 1.8468290567398071, -0.7675923109054565, -67.98622131347656],
    [0.04376407712697983, 0.7675111293792725, 1.8463507890701294, -64.58615112304688],
    [0.0, 0.0, 0.0, 1.0]
],
  "dcmmeta_reorient_transform": [
    [0.0, -1.0, 0.0, 103.0],
    [1.0, 0.0, 0.0, 0.0],
    [0.0, 0.0, 1.0, 0.0],
    [0.0, 0.0, 0.0, 1.0]
],
  "dcmmeta_shape": [104, 104, 60, 331],
  "dcmmeta_slice_dim": 2,
  "dcmmeta_version": 0.6,
  "global": {
    "const": {
      "AcquisitionMatrix": [104, 0, 0, 104],
      "AngioFlag": "N",
      "BitsAllocated": 16,
      "BitsStored": 16,
      "BodyPartExamined": "BRAIN",
      "Columns": 832,
      "EchoNumbers": 1,
      "EchoTime": 37.0,
      "EchoTrainLength": 104,
      "FlipAngle": 52.0,
      "HighBit": 15,
      "ImageOrientationPatient": [0.99975747970292, 0.00248156988835, 0.02188203804397, 0.00610731767702, 0.92341450962169, -0.3837555785796],
      "ImagePositionPatient": [-836.63115835605, -796.28951169361, 277.91143686391],
      "ImageType": [
        "ORIGINAL",
        "PRIMARY",
        "P",
        "MB",
        "ND",
        "MOSAIC"
],
      "ImagedNucleus": "1H",
      "ImagingFrequency": 123.25913,
      "InPlanePhaseEncodingDirection": "COL",
      "LargestImagePixelValue": 4095,
      "MRAcquisitionType": "2D",
      "MagneticFieldStrength": 3.0,
      "Manufacturer": "SIEMENS",
      "ManufacturerModelName": "Prisma_fit",
      "Modality": "MR",
      "NumberOfAverages": 1.0,
      "NumberOfPhaseEncodingSteps": 104,
      "PercentPhaseFieldOfView": 100.0,
      "PercentSampling": 100.0,
      "PerformedProcedureStepStartTime": "183820.357000",
      "PhotometricInterpretation": "MONOCHROME2",
      "PixelBandwidth": 2290.0,
      "PixelRepresentation": 0,
      "PixelSpacing": [2.0, 2.0],
      "ProtocolName": "func_task-mario3_run-07",
      "RepetitionTime": 1490.0,
      "RescaleIntercept": -4096.0,
      "RescaleSlope": 2.0,
      "RescaleType": "US",
      "Rows": 832,
      "SAR": 0.08567879929513,
      "SamplesPerPixel": 1,
      "ScanOptions": "FS",
      "ScanningSequence": "EP",
      "SequenceName": "epfid2d1_104",
      "SequenceVariant": [
        "SK",
        "SS"
],
      "SeriesDescription": "func_task-mario3_run-07",
      "SeriesNumber": 29,
      "SeriesTime": "194908.291000",
      "SliceLocation": -31.349978674553,
      "SliceThickness": 2.0,
      "SmallestImagePixelValue": 0,
      "SoftwareVersions": "syngo MR E11",
      "SpacingBetweenSlices": 2.0000000078129,
      "SpecificCharacterSet": "ISO_IR 100",
      "StudyID": "1",
      "StudyTime": "183820.284000",
      "TransmitCoilName": "Body",
      "VariableFlipAngleFlag": "N",
      "WindowCenterWidthExplanation": "Algo1",
      "dBdt": 0.0},
    "slices": {}
  },
  "time": {
    "samples": {
      "AcquisitionNumber": [1, 2, 3, 4, 5, 6, 7, 8, 9, 10, 11, 12, 13, 14, 15, 16, 17, 18, 19, 20, 21, 22, 23, 24, 25, 26, 27, 28, 29, 30, 31, 32, 33, 34, 35, 36, 37, 38, 39, 40, 41, 42, 43, 44, 45, 46, 47, 48, 49, 50, 51, 52, 53, 54, 55, 56, 57, 58, 59, 60, 61, 62, 63, 64, 65, 66, 67, 68, 69, 70, 71, 72, 73, 74, 75, 76, 77, 78, 79, 80, 81, 82, 83, 84, 85, 86, 87, 88, 89, 90, 91, 92, 93, 94, 95, 96, 97, 98, 99, 100, 101, 102, 103, 104, 105, 106, 107, 108, 109, 110, 111, 112, 113, 114, 115, 116, 117, 118, 119, 120, 121, 122, 123, 124, 125, 126, 127, 128, 129, 130, 131, 132, 133, 134, 135, 136, 137, 138, 139, 140, 141, 142, 143, 144, 145, 146, 147, 148, 149, 150, 151, 152, 153, 154, 155, 156, 157, 158, 159, 160, 161, 162, 163, 164, 165, 166, 167, 168, 169, 170, 171, 172, 173, 174, 175, 176, 177, 178, 179, 180, 181, 182, 183, 184, 185, 186, 187, 188, 189, 190, 191, 192, 193, 194, 195, 196, 197, 198, 199, 200, 201, 202, 203, 204, 205, 206, 207, 208, 209, 210, 211, 212, 213, 214, 215, 216, 217, 218, 219, 220, 221, 222, 223, 224, 225, 226, 227, 228, 229, 230, 231, 232, 233, 234, 235, 236, 237, 238, 239, 240, 241, 242, 243, 244, 245, 246, 247, 248, 249, 250, 251, 252, 253, 254, 255, 256, 257, 258, 259, 260, 261, 262, 263, 264, 265, 266, 267, 268, 269, 270, 271, 272, 273, 274, 275, 276, 277, 278, 279, 280, 281, 282, 283, 284, 285, 286, 287, 288, 289, 290, 291, 292, 293, 294, 295, 296, 297, 298, 299, 300, 301, 302, 303, 304, 305, 306, 307, 308, 309, 310, 311, 312, 313, 314, 315, 316, 317, 318, 319, 320, 321, 322, 323, 324, 325, 326, 327, 328, 329, 330, 331],
      "AcquisitionTime": ["194755.775000", "194757.265000", "194758.755000", "194800.245000", "194801.735000", "194803.225000", "194804.715000", "194806.205000", "194807.695000", "194809.185000", "194810.675000", "194812.165000", "194813.655000", "194815.145000", "194816.635000", "194818.125000", "194819.615000", "194821.105000", "194822.595000", "194824.085000", "194825.575000", "194827.065000", "194828.555000", "194830.045000", "194831.535000", "194833.025000", "194834.515000", "194836.005000", "194837.495000", "194838.985000", "194840.475000", "194841.965000", "194843.455000", "194844.945000", "194846.435000", "194847.925000", "194849.415000", "194850.905000", "194852.395000", "194853.885000", "194855.375000", "194856.865000", "194858.355000", "194859.845000", "194901.335000", "194902.825000", "194904.315000", "194905.805000", "194907.295000", "194908.785000", "194910.275000", "194911.765000", "194913.255000", "194914.745000", "194916.235000", "194917.725000", "194919.215000", "194920.705000", "194922.195000", "194923.685000", "194925.175000", "194926.665000", "194928.155000", "194929.645000", "194931.135000", "194932.625000", "194934.115000", "194935.605000", "194937.095000", "194938.585000", "194940.075000", "194941.565000", "194943.055000", "194944.545000", "194946.035000", "194947.525000", "194949.015000", "194950.505000", "194951.995000", "194953.485000", "194954.975000", "194956.465000", "194957.955000", "194959.445000", "195000.935000", "195002.425000", "195003.915000", "195005.405000", "195006.895000", "195008.385000", "195009.875000", "195011.365000", "195012.855000", "195014.345000", "195015.835000", "195017.325000", "195018.815000", "195020.305000", "195021.795000", "195023.285000", "195024.775000", "195026.265000", "195027.755000", "195029.245000", "195030.735000", "195032.225000", "195033.715000", "195035.205000", "195036.695000", "195038.185000", "195039.675000", "195041.165000", "195042.655000", "195044.145000", "195045.635000", "195047.125000", "195048.615000", "195050.105000", "195051.595000", "195053.085000", "195054.575000", "195056.065000", "195057.555000", "195059.045000", "195100.535000", "195102.025000", "195103.515000", "195105.005000", "195106.495000", "195107.985000", "195109.475000", "195110.965000", "195112.455000", "195113.945000", "195115.435000", "195116.925000", "195118.415000", "195119.905000", "195121.395000", "195122.885000", "195124.375000", "195125.865000", "195127.355000", "195128.845000", "195130.335000", "195131.825000", "195133.315000", "195134.805000", "195136.295000", "195137.785000", "195139.275000", "195140.765000", "195142.255000", "195143.745000", "195145.235000", "195146.725000", "195148.215000", "195149.705000", "195151.195000", "195152.685000", "195154.175000", "195155.665000", "195157.155000", "195158.645000", "195200.135000", "195201.625000", "195203.115000", "195204.605000", "195206.095000", "195207.585000", "195209.075000", "195210.565000", "195212.055000", "195213.545000", "195215.035000", "195216.525000", "195218.015000", "195219.505000", "195220.995000", "195222.485000", "195223.975000", "195225.465000", "195226.955000", "195228.445000", "195229.935000", "195231.425000", "195232.915000", "195234.405000", "195235.895000", "195237.385000", "195238.875000", "195240.365000", "195241.855000", "195243.345000", "195244.835000", "195246.325000", "195247.815000", "195249.305000", "195250.795000", "195252.285000", "195253.775000", "195255.265000", "195256.755000", "195258.245000", "195259.735000", "195301.225000", "195302.715000", "195304.205000", "195305.695000", "195307.185000", "195308.675000", "195310.165000", "195311.655000", "195313.145000", "195314.635000", "195316.125000", "195317.615000", "195319.105000", "195320.595000", "195322.085000", "195323.575000", "195325.065000", "195326.555000", "195328.045000", "195329.535000", "195331.025000", "195332.515000", "195334.005000", "195335.495000", "195336.985000", "195338.475000", "195339.965000", "195341.455000", "195342.945000", "195344.435000", "195345.925000", "195347.415000", "195348.905000", "195350.395000", "195351.885000", "195353.375000", "195354.865000", "195356.355000", "195357.845000", "195359.335000", "195400.825000", "195402.315000", "195403.805000", "195405.295000", "195406.785000", "195408.275000", "195409.765000", "195411.255000", "195412.745000", "195414.235000", "195415.725000", "195417.215000", "195418.705000", "195420.195000", "195421.685000", "195423.175000", "195424.665000", "195426.155000", "195427.645000", "195429.135000", "195430.625000", "195432.115000", "195433.605000", "195435.095000", "195436.585000", "195438.075000", "195439.565000", "195441.055000", "195442.545000", "195444.035000", "195445.525000", "195447.015000", "195448.505000", "195449.995000", "195451.485000", "195452.975000", "195454.465000", "195455.955000", "195457.445000", "195458.935000", "195500.425000", "195501.915000", "195503.405000", "195504.895000", "195506.385000", "195507.875000", "195509.365000", "195510.855000", "195512.345000", "195513.835000", "195515.325000", "195516.815000", "195518.305000", "195519.795000", "195521.285000", "195522.775000", "195524.265000", "195525.755000", "195527.245000", "195528.735000", "195530.225000", "195531.715000", "195533.205000", "195534.695000", "195536.185000", "195537.675000", "195539.165000", "195540.655000", "195542.145000", "195543.635000", "195545.125000", "195546.615000", "195548.105000", "195549.595000", "195551.085000", "195552.575000", "195554.065000", "195555.555000", "195557.045000", "195558.535000", "195600.025000", "195601.515000", "195603.005000", "195604.495000", "195605.985000", "195607.475000"],
      "ContentTime": ["194908.293000", "194908.296000", "194908.306000", "194908.309000", "194908.311000", "194908.319000", "194908.322000", "194908.325000", "194908.327000", "194908.330000", "194908.332000", "194908.335000", "194908.337000", "194908.340000", "194908.342000", "194908.345000", "194908.347000", "194908.350000", "194908.352000", "194908.355000", "194908.357000", "194908.360000", "194908.363000", "194908.365000", "194928.234000", "194928.237000", "194928.239000", "194928.242000", "194928.244000", "194928.247000", "194928.249000", "194928.252000", "194928.254000", "194928.257000", "194928.259000", "194928.262000", "194928.265000", "194928.267000", "194928.270000", "194928.272000", "194928.275000", "194928.277000", "194928.280000", "194928.282000", "194928.285000", "194948.234000", "194948.237000", "194948.239000", "194948.242000", "194948.244000", "194948.247000", "194948.249000", "194948.252000", "194948.255000", "194948.257000", "194948.260000", "194948.262000", "194948.265000", "194948.267000", "194948.270000", "194948.273000", "194948.275000", "194948.278000", "194948.280000", "194948.283000", "195008.216000", "195008.218000", "195008.221000", "195008.224000", "195008.226000", "195008.229000", "195008.231000", "195008.234000", "195008.236000", "195008.239000", "195008.241000", "195008.245000", "195008.247000", "195008.250000", "195008.261000", "195008.264000", "195008.267000", "195008.269000", "195008.272000", "195008.274000", "195048.258000", "195048.261000", "195048.264000", "195048.266000", "195048.269000", "195048.272000", "195048.274000", "195048.277000", "195048.279000", "195048.282000", "195048.284000", "195048.287000", "195048.289000", "195048.292000", "195048.294000", "195048.297000", "195048.299000", "195048.302000", "195048.305000", "195048.307000", "195048.310000", "195048.312000", "195048.315000", "195048.317000", "195048.320000", "195048.322000", "195048.325000", "195048.327000", "195048.330000", "195048.332000", "195128.254000", "195128.257000", "195128.260000", "195128.262000", "195128.265000", "195128.267000", "195128.270000", "195128.272000", "195128.275000", "195128.278000", "195128.280000", "195128.283000", "195128.285000", "195128.288000", "195128.290000", "195128.293000", "195128.296000", "195128.298000", "195128.301000", "195128.303000", "195128.306000", "195128.308000", "195128.311000", "195128.313000", "195128.316000", "195128.318000", "195128.321000", "195208.257000", "195208.260000", "195208.263000", "195208.266000", "195208.268000", "195208.271000", "195208.274000", "195208.276000", "195208.279000", "195208.281000", "195208.284000", "195208.295000", "195208.298000", "195208.300000", "195208.303000", "195208.305000", "195208.308000", "195208.310000", "195208.313000", "195208.315000", "195208.318000", "195208.321000", "195208.323000", "195208.326000", "195208.328000", "195208.331000", "195208.333000", "195248.242000", "195248.245000", "195248.248000", "195248.250000", "195248.253000", "195248.255000", "195248.258000", "195248.260000", "195248.263000", "195248.266000", "195248.268000", "195248.271000", "195248.273000", "195248.276000", "195248.278000", "195248.281000", "195248.283000", "195248.286000", "195248.289000", "195248.291000", "195248.294000", "195248.296000", "195248.299000", "195248.301000", "195248.304000", "195248.307000", "195328.249000", "195328.252000", "195328.255000", "195328.257000", "195328.260000", "195328.262000", "195328.265000", "195328.267000", "195328.270000", "195328.273000", "195328.275000", "195328.278000", "195328.280000", "195328.293000", "195328.295000", "195328.298000", "195328.300000", "195328.303000", "195328.305000", "195328.308000", "195328.311000", "195328.313000", "195328.316000", "195328.318000", "195328.321000", "195328.323000", "195328.326000", "195408.250000", "195408.260000", "195408.263000", "195408.266000", "195408.268000", "195408.271000", "195408.273000", "195408.276000", "195408.278000", "195408.281000", "195408.284000", "195408.286000", "195408.289000", "195408.291000", "195408.294000", "195408.296000", "195408.299000", "195408.301000", "195408.304000", "195408.307000", "195408.309000", "195408.311000", "195408.314000", "195408.317000", "195408.319000", "195408.322000", "195408.324000", "195448.253000", "195448.256000", "195448.259000", "195448.261000", "195448.264000", "195448.266000", "195448.269000", "195448.271000", "195448.274000", "195448.277000", "195448.279000", "195448.282000", "195448.284000", "195448.287000", "195448.289000", "195448.292000", "195448.294000", "195448.297000", "195448.299000", "195448.302000", "195448.305000", "195448.307000", "195448.310000", "195448.312000", "195448.315000", "195448.317000", "195448.320000", "195528.250000", "195528.253000", "195528.255000", "195528.258000", "195528.260000", "195528.263000", "195528.266000", "195528.268000", "195528.271000", "195528.273000", "195528.276000", "195528.278000", "195528.281000", "195528.283000", "195528.286000", "195528.289000", "195528.291000", "195528.294000", "195528.296000", "195528.299000", "195528.301000", "195528.304000", "195528.306000", "195528.309000", "195528.311000", "195528.314000", "195528.317000", "195608.269000", "195608.272000", "195608.275000", "195608.278000", "195608.280000", "195608.283000", "195608.285000", "195608.288000", "195608.291000", "195608.293000", "195608.296000", "195608.298000", "195608.301000", "195608.303000", "195608.306000", "195608.308000", "195608.311000", "195608.314000", "195608.316000", "195608.319000", "195608.321000", "195608.324000", "195608.326000", "195608.329000", "195608.331000", "195608.334000", "195608.336000", "195609.845000"],
      "InstanceCreationTime": ["194908.293000", "194908.296000", "194908.306000", "194908.309000", "194908.311000", "194908.319000", "194908.322000", "194908.325000", "194908.327000", "194908.330000", "194908.332000", "194908.335000", "194908.337000", "194908.340000", "194908.342000", "194908.345000", "194908.347000", "194908.350000", "194908.352000", "194908.355000", "194908.357000", "194908.360000", "194908.363000", "194908.365000", "194928.234000", "194928.237000", "194928.239000", "194928.242000", "194928.244000", "194928.247000", "194928.249000", "194928.252000", "194928.254000", "194928.257000", "194928.259000", "194928.262000", "194928.265000", "194928.267000", "194928.270000", "194928.272000", "194928.275000", "194928.277000", "194928.280000", "194928.282000", "194928.285000", "194948.234000", "194948.237000", "194948.239000", "194948.242000", "194948.244000", "194948.247000", "194948.249000", "194948.252000", "194948.255000", "194948.257000", "194948.260000", "194948.262000", "194948.265000", "194948.267000", "194948.270000", "194948.273000", "194948.275000", "194948.278000", "194948.280000", "194948.283000", "195008.216000", "195008.218000", "195008.221000", "195008.224000", "195008.226000", "195008.229000", "195008.231000", "195008.234000", "195008.236000", "195008.239000", "195008.241000", "195008.245000", "195008.247000", "195008.250000", "195008.261000", "195008.264000", "195008.267000", "195008.269000", "195008.272000", "195008.274000", "195048.258000", "195048.261000", "195048.264000", "195048.266000", "195048.269000", "195048.272000", "195048.274000", "195048.277000", "195048.279000", "195048.282000", "195048.284000", "195048.287000", "195048.289000", "195048.292000", "195048.294000", "195048.297000", "195048.299000", "195048.302000", "195048.305000", "195048.307000", "195048.310000", "195048.312000", "195048.315000", "195048.317000", "195048.320000", "195048.322000", "195048.325000", "195048.327000", "195048.330000", "195048.332000", "195128.254000", "195128.257000", "195128.260000", "195128.262000", "195128.265000", "195128.267000", "195128.270000", "195128.272000", "195128.275000", "195128.278000", "195128.280000", "195128.283000", "195128.285000", "195128.288000", "195128.290000", "195128.293000", "195128.296000", "195128.298000", "195128.301000", "195128.303000", "195128.306000", "195128.308000", "195128.311000", "195128.313000", "195128.316000", "195128.318000", "195128.321000", "195208.257000", "195208.260000", "195208.263000", "195208.266000", "195208.268000", "195208.271000", "195208.274000", "195208.276000", "195208.279000", "195208.281000", "195208.284000", "195208.295000", "195208.298000", "195208.300000", "195208.303000", "195208.305000", "195208.308000", "195208.310000", "195208.313000", "195208.315000", "195208.318000", "195208.321000", "195208.323000", "195208.326000", "195208.328000", "195208.331000", "195208.333000", "195248.242000", "195248.245000", "195248.248000", "195248.250000", "195248.253000", "195248.255000", "195248.258000", "195248.260000", "195248.263000", "195248.266000", "195248.268000", "195248.271000", "195248.273000", "195248.276000", "195248.278000", "195248.281000", "195248.283000", "195248.286000", "195248.289000", "195248.291000", "195248.294000", "195248.296000", "195248.299000", "195248.301000", "195248.304000", "195248.307000", "195328.249000", "195328.252000", "195328.255000", "195328.257000", "195328.260000", "195328.262000", "195328.265000", "195328.267000", "195328.270000", "195328.273000", "195328.275000", "195328.278000", "195328.280000", "195328.293000", "195328.295000", "195328.298000", "195328.300000", "195328.303000", "195328.305000", "195328.308000", "195328.311000", "195328.313000", "195328.316000", "195328.318000", "195328.321000", "195328.323000", "195328.326000", "195408.250000", "195408.260000", "195408.263000", "195408.266000", "195408.268000", "195408.271000", "195408.273000", "195408.276000", "195408.278000", "195408.281000", "195408.284000", "195408.286000", "195408.289000", "195408.291000", "195408.294000", "195408.296000", "195408.299000", "195408.301000", "195408.304000", "195408.307000", "195408.309000", "195408.311000", "195408.314000", "195408.317000", "195408.319000", "195408.322000", "195408.324000", "195448.253000", "195448.256000", "195448.259000", "195448.261000", "195448.264000", "195448.266000", "195448.269000", "195448.271000", "195448.274000", "195448.277000", "195448.279000", "195448.282000", "195448.284000", "195448.287000", "195448.289000", "195448.292000", "195448.294000", "195448.297000", "195448.299000", "195448.302000", "195448.305000", "195448.307000", "195448.310000", "195448.312000", "195448.315000", "195448.317000", "195448.320000", "195528.250000", "195528.253000", "195528.255000", "195528.258000", "195528.260000", "195528.263000", "195528.266000", "195528.268000", "195528.271000", "195528.273000", "195528.276000", "195528.278000", "195528.281000", "195528.283000", "195528.286000", "195528.289000", "195528.291000", "195528.294000", "195528.296000", "195528.299000", "195528.301000", "195528.304000", "195528.306000", "195528.309000", "195528.311000", "195528.314000", "195528.317000", "195608.269000", "195608.272000", "195608.275000", "195608.278000", "195608.280000", "195608.283000", "195608.285000", "195608.288000", "195608.291000", "195608.293000", "195608.296000", "195608.298000", "195608.301000", "195608.303000", "195608.306000", "195608.308000", "195608.311000", "195608.314000", "195608.316000", "195608.319000", "195608.321000", "195608.324000", "195608.326000", "195608.329000", "195608.331000", "195608.334000", "195608.336000", "195609.845000"],
      "InstanceNumber": [1, 2, 3, 4, 5, 6, 7, 8, 9, 10, 11, 12, 13, 14, 15, 16, 17, 18, 19, 20, 21, 22, 23, 24, 25, 26, 27, 28, 29, 30, 31, 32, 33, 34, 35, 36, 37, 38, 39, 40, 41, 42, 43, 44, 45, 46, 47, 48, 49, 50, 51, 52, 53, 54, 55, 56, 57, 58, 59, 60, 61, 62, 63, 64, 65, 66, 67, 68, 69, 70, 71, 72, 73, 74, 75, 76, 77, 78, 79, 80, 81, 82, 83, 84, 85, 86, 87, 88, 89, 90, 91, 92, 93, 94, 95, 96, 97, 98, 99, 100, 101, 102, 103, 104, 105, 106, 107, 108, 109, 110, 111, 112, 113, 114, 115, 116, 117, 118, 119, 120, 121, 122, 123, 124, 125, 126, 127, 128, 129, 130, 131, 132, 133, 134, 135, 136, 137, 138, 139, 140, 141, 142, 143, 144, 145, 146, 147, 148, 149, 150, 151, 152, 153, 154, 155, 156, 157, 158, 159, 160, 161, 162, 163, 164, 165, 166, 167, 168, 169, 170, 171, 172, 173, 174, 175, 176, 177, 178, 179, 180, 181, 182, 183, 184, 185, 186, 187, 188, 189, 190, 191, 192, 193, 194, 195, 196, 197, 198, 199, 200, 201, 202, 203, 204, 205, 206, 207, 208, 209, 210, 211, 212, 213, 214, 215, 216, 217, 218, 219, 220, 221, 222, 223, 224, 225, 226, 227, 228, 229, 230, 231, 232, 233, 234, 235, 236, 237, 238, 239, 240, 241, 242, 243, 244, 245, 246, 247, 248, 249, 250, 251, 252, 253, 254, 255, 256, 257, 258, 259, 260, 261, 262, 263, 264, 265, 266, 267, 268, 269, 270, 271, 272, 273, 274, 275, 276, 277, 278, 279, 280, 281, 282, 283, 284, 285, 286, 287, 288, 289, 290, 291, 292, 293, 294, 295, 296, 297, 298, 299, 300, 301, 302, 303, 304, 305, 306, 307, 308, 309, 310, 311, 312, 313, 314, 315, 316, 317, 318, 319, 320, 321, 322, 323, 324, 325, 326, 327, 328, 329, 330, 331],
      "WindowCenter": [4726.0, 4726.0, 4728.0, 4726.0, 4728.0, 4732.0, 4728.0, 4728.0, 4710.0, 4734.0, 4730.0, 4728.0, 4730.0, 4732.0, 4702.0, 4730.0, 4726.0, 4730.0, 4728.0, 4734.0, 4730.0, 4730.0, 4730.0, 4730.0, 4728.0, 4726.0, 4706.0, 4730.0, 4734.0, 4730.0, 4708.0, 4728.0, 4732.0, 4728.0, 4736.0, 4734.0, 4734.0, 4734.0, 4734.0, 4734.0, 4732.0, 4732.0, 4734.0, 4734.0, 4732.0, 4728.0, 4710.0, 4732.0, 4734.0, 4734.0, 4730.0, 4732.0, 4730.0, 4730.0, 4708.0, 4702.0, 4706.0, 4708.0, 4730.0, 4728.0, 4732.0, 4732.0, 4728.0, 4734.0, 4728.0, 4706.0, 4732.0, 4734.0, 4734.0, 4732.0, 4730.0, 4730.0, 4732.0, 4732.0, 4732.0, 4728.0, 4738.0, 4730.0, 4736.0, 4710.0, 4704.0, 4710.0, 4730.0, 4704.0, 4726.0, 4724.0, 4732.0, 4728.0, 4732.0, 4712.0, 4710.0, 4712.0, 4708.0, 4730.0, 4732.0, 4732.0, 4704.0, 4730.0, 4732.0, 4732.0, 4734.0, 4710.0, 4708.0, 4734.0, 4710.0, 4734.0, 4732.0, 4730.0, 4730.0, 4734.0, 4734.0, 4734.0, 4732.0, 4734.0, 4732.0, 4738.0, 4732.0, 4710.0, 4730.0, 4736.0, 4746.0, 4746.0, 4726.0, 4750.0, 4782.0, 4756.0, 4750.0, 4730.0, 4710.0, 4738.0, 4720.0, 4718.0, 4716.0, 4716.0, 4732.0, 4704.0, 4730.0, 4722.0, 4748.0, 4728.0, 4706.0, 4730.0, 4716.0, 4718.0, 4720.0, 4712.0, 4706.0, 4732.0, 4730.0, 4730.0, 4730.0, 4730.0, 4730.0, 4712.0, 4714.0, 4710.0, 4736.0, 4712.0, 4734.0, 4730.0, 4734.0, 4730.0, 4732.0, 4734.0, 4730.0, 4728.0, 4728.0, 4726.0, 4726.0, 4706.0, 4706.0, 4734.0, 4712.0, 4708.0, 4706.0, 4706.0, 4730.0, 4732.0, 4730.0, 4730.0, 4708.0, 4730.0, 4734.0, 4732.0, 4706.0, 4732.0, 4708.0, 4734.0, 4730.0, 4710.0, 4732.0, 4732.0, 4732.0, 4724.0, 4728.0, 4726.0, 4728.0, 4706.0, 4732.0, 4732.0, 4728.0, 4734.0, 4730.0, 4728.0, 4728.0, 4726.0, 4730.0, 4730.0, 4728.0, 4730.0, 4732.0, 4732.0, 4708.0, 4728.0, 4730.0, 4710.0, 4730.0, 4708.0, 4704.0, 4726.0, 4706.0, 4706.0, 4704.0, 4726.0, 4732.0, 4728.0, 4706.0, 4728.0, 4728.0, 4724.0, 4728.0, 4728.0, 4730.0, 4734.0, 4734.0, 4734.0, 4730.0, 4714.0, 4732.0, 4706.0, 4706.0, 4728.0, 4728.0, 4728.0, 4728.0, 4704.0, 4736.0, 4732.0, 4710.0, 4730.0, 4708.0, 4732.0, 4730.0, 4726.0, 4710.0, 4724.0, 4752.0, 4702.0, 4706.0, 4704.0, 4708.0, 4702.0, 4702.0, 4724.0, 4724.0, 4726.0, 4726.0, 4702.0, 4704.0, 4704.0, 4706.0, 4706.0, 4706.0, 4704.0, 4706.0, 4724.0, 4726.0, 4726.0, 4726.0, 4728.0, 4722.0, 4726.0, 4704.0, 4702.0, 4706.0, 4706.0, 4708.0, 4724.0, 4728.0, 4698.0, 4724.0, 4702.0, 4726.0, 4728.0, 4728.0, 4732.0, 4706.0, 4708.0, 4730.0, 4702.0, 4706.0, 4730.0, 4706.0, 4726.0, 4728.0, 4726.0, 4724.0, 4728.0, 4742.0, 4740.0, 4732.0, 4706.0, 4728.0, 4706.0, 4724.0, 4724.0, 4700.0, 4704.0, 4728.0, 4704.0, 4704.0, 4708.0, 4702.0, 4706.0, 4730.0, 4706.0, 4724.0, 4706.0, 4726.0, 4714.0, 4732.0],
