{
  "AcquisitionMatrixPE": 104,
  "AcquisitionNumber": 1,
  "AcquisitionTime": "19:14:5.145000",
  "BandwidthPerPixelPhaseEncode": 17.17,
  "BaseResolution": 104,
  "BodyPartExamined": "BRAIN",
  "CoilCombinationMethod": "Sum of Squares",
  "ConsistencyInfo": "N4_VE11C_LATEST_20160120",
  "ConversionSoftware": "dcm2niix",
  "ConversionSoftwareVersion": "v1.0.20220505",
  "DerivedVendorReportedEchoSpacing": 0.000560011,
  "DeviceSerialNumber": "167006",
  "DwellTime": 2.1e-06,
  "EchoTime": 0.037,
  "EchoTrainLength": 104,
  "EffectiveEchoSpacing": 0.000560011,
  "FlipAngle": 52,
  "HeudiconvVersion": "0.5.3.post811+g6206e14",
  "ImageComments": "Unaliased MB4/PE3/LB",
  "ImageOrientationPatientDICOM": [0.999757, 0.00248157, 0.021882, 0.00610732, 0.923415, -0.383756],
  "ImageOrientationText": "Tra>Cor(-22.6)>Sag(1.2)",
  "ImageType": [
    "ORIGINAL",
    "PRIMARY",
    "M",
    "MB",
    "ND",
    "MOSAIC"
],
  "ImagingFrequency": 123.259,
  "InPlanePhaseEncodingDirectionDICOM": "COL",
  "InstitutionAddress": "Chemin Queen-Mary 4565,Montreal,District,CA,H3W 1W5",
  "InstitutionName": "IUGM",
  "InstitutionalDepartmentName": "Department",
  "MRAcquisitionType": "2D",
  "MagneticFieldStrength": 3,
  "Manufacturer": "Siemens",
  "ManufacturersModelName": "Prisma_fit",
  "MatrixCoilMode": "SENSE",
  "Modality": "MR",
  "MultibandAccelerationFactor": 4,
  "PartialFourier": 1,
  "PatientPosition": "HFS",
  "PercentPhaseFOV": 100,
  "PercentSampling": 100,
  "PhaseEncodingDirection": "j",
  "PhaseEncodingSteps": 104,
  "PhaseResolution": 1,
  "PixelBandwidth": 2290,
  "ProcedureStepDescription": "games^mario3",
  "ProtocolName": "func_task-mario3_run-04",
  "PulseSequenceDetails": "%CustomerSeq%\\cmrr_mbep2d_bold",
  "ReceiveCoilActiveElements": "HC1-7;NC1,2",
  "ReceiveCoilName": "HeadNeck_64",
  "ReconMatrixPE": 104,
  "RepetitionTime": 1.49,
  "SAR": 0.0856788,
  "ScanOptions": "FS",
  "ScanningSequence": "EP",
  "SequenceName": "epfid2d1_104",
  "SequenceVariant": "SK\\SS",
  "SeriesDescription": "func_task-mario3_run-04",
  "SeriesNumber": 19,
  "ShimSetting": [587, -7295, -8810, 404, 24, -363, -45, 95],
  "SliceThickness": 2,
  "SliceTiming": [0, 0.7825, 0.0975, 0.8825, 0.195, 0.98, 0.2925, 1.0775, 0.3925, 1.175, 0.49, 1.2725, 0.5875, 1.3725, 0.685, 0, 0.7825, 0.0975, 0.8825, 0.195, 0.98, 0.2925, 1.0775, 0.3925, 1.175, 0.49, 1.2725, 0.5875, 1.3725, 0.685, 0, 0.7825, 0.0975, 0.8825, 0.195, 0.98, 0.2925, 1.0775, 0.3925, 1.175, 0.49, 1.2725, 0.5875, 1.3725, 0.685, 0, 0.7825, 0.0975, 0.8825, 0.195, 0.98, 0.2925, 1.0775, 0.3925, 1.175, 0.49, 1.2725, 0.5875, 1.3725, 0.685],
  "SoftwareVersions": "syngo MR E11",
  "SpacingBetweenSlices": 2,
  "StationName": "MRC35049",
  "TaskName": "mario3",
  "TotalReadoutTime": 0.0576811,
  "TxRefAmp": 309.502,
  "WipMemBlock": "6deba003-bbfc-4a0b-b9fb-887a989fbe81||Sequence: R017 ve11c/master r/75a17815+; Jun 28 2022 16:32:11 by eja",
  "dcmmeta_affine": [
    [-1.9995149374008179, 0.012214635498821735, 0.04231701418757439, 103.10347747802734],
    [-0.00496314000338316, 1.8468290567398071, -0.7675923109054565, -67.98622131347656],
    [0.04376407712697983, 0.7675111293792725, 1.8463507890701294, -64.58615112304688],
    [0.0, 0.0, 0.0, 1.0]
],
  "dcmmeta_reorient_transform": [
    [0.0, -1.0, 0.0, 103.0],
    [1.0, 0.0, 0.0, 0.0],
    [0.0, 0.0, 1.0, 0.0],
    [0.0, 0.0, 0.0, 1.0]
],
  "dcmmeta_shape": [104, 104, 60, 355],
  "dcmmeta_slice_dim": 2,
  "dcmmeta_version": 0.6,
  "global": {
    "const": {
      "AcquisitionMatrix": [104, 0, 0, 104],
      "AngioFlag": "N",
      "BitsAllocated": 16,
      "BitsStored": 16,
      "BodyPartExamined": "BRAIN",
      "Columns": 832,
      "EchoNumbers": 1,
      "EchoTime": 37.0,
      "EchoTrainLength": 104,
      "FlipAngle": 52.0,
      "HighBit": 15,
      "ImageOrientationPatient": [0.99975747970292, 0.00248156988835, 0.02188203804397, 0.00610731767702, 0.92341450962169, -0.3837555785796],
      "ImagePositionPatient": [-836.63115835605, -796.28951169361, 277.91143686391],
      "ImageType": [
        "ORIGINAL",
        "PRIMARY",
        "M",
        "MB",
        "ND",
        "MOSAIC"
],
      "ImagedNucleus": "1H",
      "ImagingFrequency": 123.259132,
      "InPlanePhaseEncodingDirection": "COL",
      "MRAcquisitionType": "2D",
      "MagneticFieldStrength": 3.0,
      "Manufacturer": "SIEMENS",
      "ManufacturerModelName": "Prisma_fit",
      "Modality": "MR",
      "NumberOfAverages": 1.0,
      "NumberOfPhaseEncodingSteps": 104,
      "PercentPhaseFieldOfView": 100.0,
      "PercentSampling": 100.0,
      "PerformedProcedureStepStartTime": "183820.357000",
      "PhotometricInterpretation": "MONOCHROME2",
      "PixelBandwidth": 2290.0,
      "PixelRepresentation": 0,
      "PixelSpacing": [2.0, 2.0],
      "ProtocolName": "func_task-mario3_run-04",
      "RepetitionTime": 1490.0,
      "Rows": 832,
      "SAR": 0.08567879929513,
      "SamplesPerPixel": 1,
      "ScanOptions": "FS",
      "ScanningSequence": "EP",
      "SequenceName": "epfid2d1_104",
      "SequenceVariant": [
        "SK",
        "SS"
],
      "SeriesDescription": "func_task-mario3_run-04",
      "SeriesNumber": 19,
      "SeriesTime": "191508.149000",
      "SliceLocation": -31.349978674553,
      "SliceThickness": 2.0,
      "SmallestImagePixelValue": 0,
      "SoftwareVersions": "syngo MR E11",
      "SpacingBetweenSlices": 2.0000000078129,
      "SpecificCharacterSet": "ISO_IR 100",
      "StudyID": "1",
      "StudyTime": "183820.284000",
      "TransmitCoilName": "Body",
      "VariableFlipAngleFlag": "N",
      "WindowCenterWidthExplanation": "Algo1",
      "dBdt": 0.0},
    "slices": {}
  },
  "time": {
    "samples": {
      "AcquisitionNumber": [1, 2, 3, 4, 5, 6, 7, 8, 9, 10, 11, 12, 13, 14, 15, 16, 17, 18, 19, 20, 21, 22, 23, 24, 25, 26, 27, 28, 29, 30, 31, 32, 33, 34, 35, 36, 37, 38, 39, 40, 41, 42, 43, 44, 45, 46, 47, 48, 49, 50, 51, 52, 53, 54, 55, 56, 57, 58, 59, 60, 61, 62, 63, 64, 65, 66, 67, 68, 69, 70, 71, 72, 73, 74, 75, 76, 77, 78, 79, 80, 81, 82, 83, 84, 85, 86, 87, 88, 89, 90, 91, 92, 93, 94, 95, 96, 97, 98, 99, 100, 101, 102, 103, 104, 105, 106, 107, 108, 109, 110, 111, 112, 113, 114, 115, 116, 117, 118, 119, 120, 121, 122, 123, 124, 125, 126, 127, 128, 129, 130, 131, 132, 133, 134, 135, 136, 137, 138, 139, 140, 141, 142, 143, 144, 145, 146, 147, 148, 149, 150, 151, 152, 153, 154, 155, 156, 157, 158, 159, 160, 161, 162, 163, 164, 165, 166, 167, 168, 169, 170, 171, 172, 173, 174, 175, 176, 177, 178, 179, 180, 181, 182, 183, 184, 185, 186, 187, 188, 189, 190, 191, 192, 193, 194, 195, 196, 197, 198, 199, 200, 201, 202, 203, 204, 205, 206, 207, 208, 209, 210, 211, 212, 213, 214, 215, 216, 217, 218, 219, 220, 221, 222, 223, 224, 225, 226, 227, 228, 229, 230, 231, 232, 233, 234, 235, 236, 237, 238, 239, 240, 241, 242, 243, 244, 245, 246, 247, 248, 249, 250, 251, 252, 253, 254, 255, 256, 257, 258, 259, 260, 261, 262, 263, 264, 265, 266, 267, 268, 269, 270, 271, 272, 273, 274, 275, 276, 277, 278, 279, 280, 281, 282, 283, 284, 285, 286, 287, 288, 289, 290, 291, 292, 293, 294, 295, 296, 297, 298, 299, 300, 301, 302, 303, 304, 305, 306, 307, 308, 309, 310, 311, 312, 313, 314, 315, 316, 317, 318, 319, 320, 321, 322, 323, 324, 325, 326, 327, 328, 329, 330, 331, 332, 333, 334, 335, 336, 337, 338, 339, 340, 341, 342, 343, 344, 345, 346, 347, 348, 349, 350, 351, 352, 353, 354, 355],
      "AcquisitionTime": ["191405.145000", "191406.635000", "191408.125000", "191409.615000", "191411.105000", "191412.595000", "191414.085000", "191415.575000", "191417.065000", "191418.555000", "191420.045000", "191421.535000", "191423.025000", "191424.515000", "191426.005000", "191427.495000", "191428.985000", "191430.475000", "191431.965000", "191433.455000", "191434.945000", "191436.435000", "191437.925000", "191439.415000", "191440.905000", "191442.395000", "191443.885000", "191445.375000", "191446.865000", "191448.355000", "191449.845000", "191451.335000", "191452.825000", "191454.315000", "191455.805000", "191457.295000", "191458.785000", "191500.275000", "191501.765000", "191503.255000", "191504.745000", "191506.235000", "191507.725000", "191509.215000", "191510.705000", "191512.195000", "191513.685000", "191515.175000", "191516.665000", "191518.155000", "191519.645000", "191521.135000", "191522.625000", "191524.115000", "191525.605000", "191527.095000", "191528.585000", "191530.075000", "191531.565000", "191533.055000", "191534.545000", "191536.035000", "191537.525000", "191539.015000", "191540.505000", "191541.995000", "191543.485000", "191544.975000", "191546.465000", "191547.955000", "191549.445000", "191550.935000", "191552.425000", "191553.915000", "191555.405000", "191556.895000", "191558.385000", "191559.875000", "191601.365000", "191602.855000", "191604.345000", "191605.835000", "191607.325000", "191608.815000", "191610.305000", "191611.795000", "191613.285000", "191614.775000", "191616.265000", "191617.755000", "191619.245000", "191620.735000", "191622.225000", "191623.715000", "191625.205000", "191626.695000", "191628.185000", "191629.675000", "191631.165000", "191632.655000", "191634.145000", "191635.635000", "191637.125000", "191638.615000", "191640.105000", "191641.595000", "191643.085000", "191644.575000", "191646.065000", "191647.555000", "191649.045000", "191650.535000", "191652.025000", "191653.515000", "191655.005000", "191656.495000", "191657.985000", "191659.475000", "191700.965000", "191702.455000", "191703.945000", "191705.435000", "191706.925000", "191708.415000", "191709.905000", "191711.395000", "191712.885000", "191714.375000", "191715.865000", "191717.355000", "191718.845000", "191720.335000", "191721.825000", "191723.315000", "191724.805000", "191726.295000", "191727.785000", "191729.275000", "191730.765000", "191732.255000", "191733.745000", "191735.235000", "191736.725000", "191738.215000", "191739.705000", "191741.195000", "191742.685000", "191744.175000", "191745.665000", "191747.155000", "191748.645000", "191750.135000", "191751.625000", "191753.115000", "191754.605000", "191756.095000", "191757.585000", "191759.075000", "191800.565000", "191802.055000", "191803.545000", "191805.035000", "191806.525000", "191808.015000", "191809.505000", "191810.995000", "191812.485000", "191813.975000", "191815.465000", "191816.955000", "191818.445000", "191819.935000", "191821.425000", "191822.915000", "191824.405000", "191825.895000", "191827.385000", "191828.875000", "191830.365000", "191831.855000", "191833.345000", "191834.835000", "191836.325000", "191837.815000", "191839.305000", "191840.795000", "191842.285000", "191843.775000", "191845.265000", "191846.755000", "191848.245000", "191849.735000", "191851.225000", "191852.715000", "191854.205000", "191855.695000", "191857.185000", "191858.675000", "191900.165000", "191901.655000", "191903.145000", "191904.635000", "191906.125000", "191907.615000", "191909.105000", "191910.595000", "191912.085000", "191913.575000", "191915.065000", "191916.555000", "191918.045000", "191919.535000", "191921.025000", "191922.515000", "191924.005000", "191925.495000", "191926.985000", "191928.475000", "191929.965000", "191931.455000", "191932.945000", "191934.435000", "191935.925000", "191937.415000", "191938.905000", "191940.395000", "191941.885000", "191943.375000", "191944.865000", "191946.355000", "191947.845000", "191949.335000", "191950.825000", "191952.315000", "191953.805000", "191955.295000", "191956.785000", "191958.275000", "191959.765000", "192001.255000", "192002.745000", "192004.235000", "192005.725000", "192007.215000", "192008.705000", "192010.195000", "192011.685000", "192013.175000", "192014.665000", "192016.155000", "192017.645000", "192019.135000", "192020.625000", "192022.115000", "192023.605000", "192025.095000", "192026.585000", "192028.075000", "192029.565000", "192031.055000", "192032.545000", "192034.035000", "192035.525000", "192037.015000", "192038.505000", "192039.995000", "192041.485000", "192042.975000", "192044.465000", "192045.955000", "192047.445000", "192048.935000", "192050.425000", "192051.915000", "192053.405000", "192054.895000", "192056.385000", "192057.875000", "192059.365000", "192100.855000", "192102.345000", "192103.835000", "192105.325000", "192106.815000", "192108.305000", "192109.795000", "192111.285000", "192112.775000", "192114.265000", "192115.755000", "192117.245000", "192118.735000", "192120.225000", "192121.715000", "192123.205000", "192124.695000", "192126.185000", "192127.675000", "192129.165000", "192130.655000", "192132.145000", "192133.635000", "192135.125000", "192136.615000", "192138.105000", "192139.595000", "192141.085000", "192142.575000", "192144.065000", "192145.555000", "192147.045000", "192148.535000", "192150.025000", "192151.515000", "192153.005000", "192154.495000", "192155.985000", "192157.475000", "192158.965000", "192200.455000", "192201.945000", "192203.435000", "192204.925000", "192206.415000", "192207.905000", "192209.395000", "192210.885000", "192212.375000", "192213.865000", "192215.355000", "192216.845000", "192218.335000", "192219.825000", "192221.315000", "192222.805000", "192224.295000", "192225.785000", "192227.275000", "192228.765000", "192230.255000", "192231.745000", "192233.235000", "192234.725000", "192236.215000", "192237.705000", "192239.195000", "192240.685000", "192242.175000", "192243.665000", "192245.155000", "192246.645000", "192248.135000", "192249.625000", "192251.115000", "192252.605000"],
      "ContentTime": ["191508.152000", "191508.156000", "191508.159000", "191508.163000", "191508.166000", "191508.170000", "191508.173000", "191508.176000", "191508.180000", "191508.183000", "191508.186000", "191508.189000", "191508.193000", "191508.196000", "191528.107000", "191528.111000", "191528.114000", "191528.118000", "191528.121000", "191528.124000", "191528.128000", "191528.131000", "191528.134000", "191528.138000", "191528.141000", "191528.144000", "191528.148000", "191528.151000", "191528.154000", "191528.158000", "191528.161000", "191528.164000", "191528.168000", "191528.171000", "191548.107000", "191548.111000", "191548.114000", "191548.118000", "191548.121000", "191548.124000", "191548.131000", "191548.134000", "191548.138000", "191548.141000", "191548.144000", "191548.148000", "191548.151000", "191548.154000", "191548.158000", "191548.161000", "191548.164000", "191548.167000", "191548.171000", "191548.174000", "191608.107000", "191608.111000", "191608.114000", "191608.118000", "191608.121000", "191608.124000", "191608.128000", "191608.131000", "191608.134000", "191608.138000", "191608.141000", "191608.144000", "191608.148000", "191608.151000", "191608.154000", "191608.158000", "191608.161000", "191608.164000", "191608.175000", "191608.178000", "191628.107000", "191628.111000", "191628.114000", "191628.118000", "191628.121000", "191628.124000", "191628.128000", "191628.131000", "191628.135000", "191628.138000", "191628.141000", "191628.145000", "191628.148000", "191628.151000", "191628.154000", "191628.158000", "191628.161000", "191628.164000", "191628.168000", "191628.171000", "191628.174000", "191708.106000", "191708.110000", "191708.113000", "191708.117000", "191708.120000", "191708.123000", "191708.127000", "191708.130000", "191708.133000", "191708.137000", "191708.140000", "191708.145000", "191708.148000", "191708.151000", "191708.154000", "191708.158000", "191708.161000", "191708.164000", "191708.168000", "191708.171000", "191708.175000", "191708.178000", "191708.181000", "191708.185000", "191708.188000", "191708.191000", "191708.195000", "191748.107000", "191748.111000", "191748.114000", "191748.118000", "191748.121000", "191748.124000", "191748.128000", "191748.131000", "191748.135000", "191748.138000", "191748.141000", "191748.145000", "191748.148000", "191748.151000", "191748.155000", "191748.158000", "191748.161000", "191748.165000", "191748.168000", "191748.171000", "191748.175000", "191748.178000", "191748.181000", "191748.185000", "191748.188000", "191748.191000", "191748.195000", "191828.107000", "191828.111000", "191828.114000", "191828.118000", "191828.121000", "191828.125000", "191828.128000", "191828.131000", "191828.135000", "191828.138000", "191828.141000", "191828.145000", "191828.148000", "191828.151000", "191828.155000", "191828.158000", "191828.161000", "191828.165000", "191828.168000", "191828.172000", "191828.175000", "191828.196000", "191828.199000", "191828.203000", "191828.206000", "191828.210000", "191828.213000", "191908.106000", "191908.110000", "191908.113000", "191908.117000", "191908.120000", "191908.123000", "191908.127000", "191908.130000", "191908.133000", "191908.137000", "191908.140000", "191908.144000", "191908.147000", "191908.150000", "191908.153000", "191908.157000", "191908.160000", "191908.164000", "191908.167000", "191908.170000", "191908.174000", "191908.177000", "191908.180000", "191908.184000", "191908.187000", "191908.190000", "191908.194000", "191948.107000", "191948.111000", "191948.114000", "191948.118000", "191948.121000", "191948.124000", "191948.128000", "191948.131000", "191948.134000", "191948.138000", "191948.141000", "191948.145000", "191948.148000", "191948.152000", "191948.155000", "191948.158000", "191948.161000", "191948.165000", "191948.168000", "191948.172000", "191948.175000", "191948.179000", "191948.182000", "191948.185000", "191948.188000", "191948.192000", "192028.107000", "192028.111000", "192028.114000", "192028.118000", "192028.121000", "192028.125000", "192028.128000", "192028.131000", "192028.135000", "192028.138000", "192028.141000", "192028.145000", "192028.148000", "192028.152000", "192028.155000", "192028.158000", "192028.162000", "192028.165000", "192028.168000", "192028.172000", "192028.175000", "192028.178000", "192028.182000", "192028.185000", "192028.188000", "192028.192000", "192028.195000", "192108.108000", "192108.112000", "192108.115000", "192108.119000", "192108.122000", "192108.126000", "192108.129000", "192108.132000", "192108.135000", "192108.139000", "192108.142000", "192108.160000", "192108.163000", "192108.167000", "192108.170000", "192108.173000", "192108.177000", "192108.180000", "192108.184000", "192108.187000", "192108.190000", "192108.194000", "192108.197000", "192108.200000", "192108.203000", "192108.207000", "192108.210000", "192148.107000", "192148.111000", "192148.114000", "192148.118000", "192148.121000", "192148.125000", "192148.128000", "192148.131000", "192148.135000", "192148.138000", "192148.141000", "192148.145000", "192148.148000", "192148.151000", "192148.155000", "192148.158000", "192148.161000", "192148.165000", "192148.168000", "192148.172000", "192148.175000", "192148.178000", "192148.182000", "192148.185000", "192148.188000", "192148.192000", "192148.195000", "192228.107000", "192228.111000", "192228.115000", "192228.118000", "192228.121000", "192228.125000", "192228.128000", "192228.131000", "192228.135000", "192228.138000", "192228.142000", "192228.145000", "192228.148000", "192228.152000", "192228.155000", "192228.158000", "192228.162000", "192228.165000", "192228.169000", "192228.172000", "192228.175000", "192228.179000", "192228.182000", "192228.185000", "192228.202000", "192228.205000", "192228.209000", "192255.868000", "192255.872000", "192255.875000", "192255.879000", "192255.882000", "192255.886000", "192255.889000", "192255.892000", "192255.896000", "192255.899000", "192255.902000", "192255.906000", "192255.909000", "192255.913000", "192255.916000", "192255.919000", "192255.923000", "192255.926000"],
      "InstanceCreationTime": ["191508.152000", "191508.156000", "191508.159000", "191508.163000", "191508.166000", "191508.170000", "191508.173000", "191508.176000", "191508.180000", "191508.183000", "191508.186000", "191508.189000", "191508.193000", "191508.196000", "191528.107000", "191528.111000", "191528.114000", "191528.118000", "191528.121000", "191528.124000", "191528.128000", "191528.131000", "191528.134000", "191528.138000", "191528.141000", "191528.144000", "191528.148000", "191528.151000", "191528.154000", "191528.158000", "191528.161000", "191528.164000", "191528.168000", "191528.171000", "191548.107000", "191548.111000", "191548.114000", "191548.118000", "191548.121000", "191548.124000", "191548.131000", "191548.134000", "191548.138000", "191548.141000", "191548.144000", "191548.148000", "191548.151000", "191548.154000", "191548.158000", "191548.161000", "191548.164000", "191548.167000", "191548.171000", "191548.174000", "191608.107000", "191608.111000", "191608.114000", "191608.118000", "191608.121000", "191608.124000", "191608.128000", "191608.131000", "191608.134000", "191608.138000", "191608.141000", "191608.144000", "191608.148000", "191608.151000", "191608.154000", "191608.158000", "191608.161000", "191608.164000", "191608.175000", "191608.178000", "191628.107000", "191628.111000", "191628.114000", "191628.118000", "191628.121000", "191628.124000", "191628.128000", "191628.131000", "191628.135000", "191628.138000", "191628.141000", "191628.145000", "191628.148000", "191628.151000", "191628.154000", "191628.158000", "191628.161000", "191628.164000", "191628.168000", "191628.171000", "191628.174000", "191708.106000", "191708.110000", "191708.113000", "191708.117000", "191708.120000", "191708.123000", "191708.127000", "191708.130000", "191708.133000", "191708.137000", "191708.140000", "191708.145000", "191708.148000", "191708.151000", "191708.154000", "191708.158000", "191708.161000", "191708.164000", "191708.168000", "191708.171000", "191708.175000", "191708.178000", "191708.181000", "191708.185000", "191708.188000", "191708.191000", "191708.195000", "191748.107000", "191748.111000", "191748.114000", "191748.118000", "191748.121000", "191748.124000", "191748.128000", "191748.131000", "191748.135000", "191748.138000", "191748.141000", "191748.145000", "191748.148000", "191748.151000", "191748.155000", "191748.158000", "191748.161000", "191748.165000", "191748.168000", "191748.171000", "191748.175000", "191748.178000", "191748.181000", "191748.185000", "191748.188000", "191748.191000", "191748.195000", "191828.107000", "191828.111000", "191828.114000", "191828.118000", "191828.121000", "191828.125000", "191828.128000", "191828.131000", "191828.135000", "191828.138000", "191828.141000", "191828.145000", "191828.148000", "191828.151000", "191828.155000", "191828.158000", "191828.161000", "191828.165000", "191828.168000", "191828.172000", "191828.175000", "191828.196000", "191828.199000", "191828.203000", "191828.206000", "191828.210000", "191828.213000", "191908.106000", "191908.110000", "191908.113000", "191908.117000", "191908.120000", "191908.123000", "191908.127000", "191908.130000", "191908.133000", "191908.137000", "191908.140000", "191908.144000", "191908.147000", "191908.150000", "191908.153000", "191908.157000", "191908.160000", "191908.164000", "191908.167000", "191908.170000", "191908.174000", "191908.177000", "191908.180000", "191908.184000", "191908.187000", "191908.190000", "191908.194000", "191948.107000", "191948.111000", "191948.114000", "191948.118000", "191948.121000", "191948.124000", "191948.128000", "191948.131000", "191948.134000", "191948.138000", "191948.141000", "191948.145000", "191948.148000", "191948.152000", "191948.155000", "191948.158000", "191948.161000", "191948.165000", "191948.168000", "191948.172000", "191948.175000", "191948.179000", "191948.182000", "191948.185000", "191948.188000", "191948.192000", "192028.107000", "192028.111000", "192028.114000", "192028.118000", "192028.121000", "192028.125000", "192028.128000", "192028.131000", "192028.135000", "192028.138000", "192028.141000", "192028.145000", "192028.148000", "192028.152000", "192028.155000", "192028.158000", "192028.162000", "192028.165000", "192028.168000", "192028.172000", "192028.175000", "192028.178000", "192028.182000", "192028.185000", "192028.188000", "192028.192000", "192028.195000", "192108.108000", "192108.112000", "192108.115000", "192108.119000", "192108.122000", "192108.126000", "192108.129000", "192108.132000", "192108.135000", "192108.139000", "192108.142000", "192108.160000", "192108.163000", "192108.167000", "192108.170000", "192108.173000", "192108.177000", "192108.180000", "192108.184000", "192108.187000", "192108.190000", "192108.194000", "192108.197000", "192108.200000", "192108.203000", "192108.207000", "192108.210000", "192148.107000", "192148.111000", "192148.114000", "192148.118000", "192148.121000", "192148.125000", "192148.128000", "192148.131000", "192148.135000", "192148.138000", "192148.141000", "192148.145000", "192148.148000", "192148.151000", "192148.155000", "192148.158000", "192148.161000", "192148.165000", "192148.168000", "192148.172000", "192148.175000", "192148.178000", "192148.182000", "192148.185000", "192148.188000", "192148.192000", "192148.195000", "192228.107000", "192228.111000", "192228.115000", "192228.118000", "192228.121000", "192228.125000", "192228.128000", "192228.131000", "192228.135000", "192228.138000", "192228.142000", "192228.145000", "192228.148000", "192228.152000", "192228.155000", "192228.158000", "192228.162000", "192228.165000", "192228.169000", "192228.172000", "192228.175000", "192228.179000", "192228.182000", "192228.185000", "192228.202000", "192228.205000", "192228.209000", "192255.868000", "192255.872000", "192255.875000", "192255.879000", "192255.882000", "192255.886000", "192255.889000", "192255.892000", "192255.896000", "192255.899000", "192255.902000", "192255.906000", "192255.909000", "192255.913000", "192255.916000", "192255.919000", "192255.923000", "192255.926000"],
      "InstanceNumber": [1, 2, 3, 4, 5, 6, 7, 8, 9, 10, 11, 12, 13, 14, 15, 16, 17, 18, 19, 20, 21, 22, 23, 24, 25, 26, 27, 28, 29, 30, 31, 32, 33, 34, 35, 36, 37, 38, 39, 40, 41, 42, 43, 44, 45, 46, 47, 48, 49, 50, 51, 52, 53, 54, 55, 56, 57, 58, 59, 60, 61, 62, 63, 64, 65, 66, 67, 68, 69, 70, 71, 72, 73, 74, 75, 76, 77, 78, 79, 80, 81, 82, 83, 84, 85, 86, 87, 88, 89, 90, 91, 92, 93, 94, 95, 96, 97, 98, 99, 100, 101, 102, 103, 104, 105, 106, 107, 108, 109, 110, 111, 112, 113, 114, 115, 116, 117, 118, 119, 120, 121, 122, 123, 124, 125, 126, 127, 128, 129, 130, 131, 132, 133, 134, 135, 136, 137, 138, 139, 140, 141, 142, 143, 144, 145, 146, 147, 148, 149, 150, 151, 152, 153, 154, 155, 156, 157, 158, 159, 160, 161, 162, 163, 164, 165, 166, 167, 168, 169, 170, 171, 172, 173, 174, 175, 176, 177, 178, 179, 180, 181, 182, 183, 184, 185, 186, 187, 188, 189, 190, 191, 192, 193, 194, 195, 196, 197, 198, 199, 200, 201, 202, 203, 204, 205, 206, 207, 208, 209, 210, 211, 212, 213, 214, 215, 216, 217, 218, 219, 220, 221, 222, 223, 224, 225, 226, 227, 228, 229, 230, 231, 232, 233, 234, 235, 236, 237, 238, 239, 240, 241, 242, 243, 244, 245, 246, 247, 248, 249, 250, 251, 252, 253, 254, 255, 256, 257, 258, 259, 260, 261, 262, 263, 264, 265, 266, 267, 268, 269, 270, 271, 272, 273, 274, 275, 276, 277, 278, 279, 280, 281, 282, 283, 284, 285, 286, 287, 288, 289, 290, 291, 292, 293, 294, 295, 296, 297, 298, 299, 300, 301, 302, 303, 304, 305, 306, 307, 308, 309, 310, 311, 312, 313, 314, 315, 316, 317, 318, 319, 320, 321, 322, 323, 324, 325, 326, 327, 328, 329, 330, 331, 332, 333, 334, 335, 336, 337, 338, 339, 340, 341, 342, 343, 344, 345, 346, 347, 348, 349, 350, 351, 352, 353, 354, 355],
      "LargestImagePixelValue": [62962, 60716, 59612, 59045, 58595, 58391, 58753, 58125, 58625, 57919, 58768, 58054, 58659, 57893, 57984, 58028, 57824, 59298, 57174, 57397, 57653, 58158, 58408, 58138, 58280, 59034, 58690, 58769, 58555, 58593, 58597, 57908, 58805, 58559, 58746, 58261, 59289, 59130, 58917, 58628, 58445, 58533, 58399, 58419, 58705, 58181, 58026, 58107, 58030, 57969, 57322, 57347, 57156, 58120, 57188, 57095, 56648, 56807, 56657, 56714, 57041, 56469, 56067, 56803, 57613, 60298, 56529, 55974, 56637, 57398, 57602, 57917, 58076, 57390, 56951, 56883, 56837, 56842, 56656, 57065, 56514, 57055, 56561, 56871, 56284, 56992, 57242, 57038, 56663, 57032, 56897, 56066, 56663, 56391, 56346, 55928, 55523, 56236, 55519, 55519, 58101, 57099, 57889, 57752, 57048, 55774, 56090, 54152, 54272, 54153, 55093, 54023, 53884, 55840, 57951, 54178, 56587, 55516, 55453, 55006, 55533, 54649, 55404, 54413, 54298, 54546, 53943, 53955, 53564, 54041, 53273, 54469, 53571, 53554, 54113, 52968, 53468, 53994, 53515, 54167, 54640, 54358, 54088, 55204, 54011, 54776, 54995, 54192, 54121, 54891, 54218, 55393, 54389, 55430, 54546, 54906, 54158, 53382, 54545, 52955, 54836, 53353, 54895, 53459, 54777, 54260, 53736, 54810, 54299, 53912, 53966, 54194, 53251, 55323, 53306, 54896, 54882, 53651, 55026, 53104, 54955, 54318, 54131, 53992, 53784, 54061, 53985, 53993, 53674, 53704, 54771, 54593, 53788, 54140, 59052, 54228, 56069, 54752, 54058, 54502, 54431, 53846, 53874, 53873, 54137, 54239, 54043, 54139, 54423, 54503, 54483, 53937, 53727, 53879, 54154, 53428, 53229, 53732, 53124, 53463, 53828, 53393, 54342, 53328, 54091, 53865, 53498, 53886, 55415, 54873, 55739, 55096, 55396, 55591, 54520, 54165, 55404, 55494, 54976, 54517, 54558, 54225, 54083, 54598, 55455, 54163, 54056, 54500, 55012, 55172, 54934, 55425, 54150, 54384, 54412, 54639, 54547, 54668, 54265, 54503, 54375, 54569, 55090, 54701, 55107, 55036, 54646, 55742, 53819, 54815, 53877, 54382, 53776, 54863, 53787, 52785, 54597, 54704, 53737, 53752, 55063, 53909, 54398, 54646, 53057, 55549, 54997, 56204, 54664, 54841, 53325, 54100, 53523, 54838, 53676, 55202, 55386, 55827, 55238, 55527, 55105, 55813, 54294, 54691, 54059, 54875, 54269, 55040, 54204, 55298, 54234, 55150, 53873, 54276, 54729, 54740, 54670, 54188, 54178, 53841, 54190, 55135, 55389, 54767, 56485, 55409, 54846, 54894, 54360, 53563, 56156, 54726, 54747, 53658, 53647, 53782, 53873, 53942, 54059, 54991, 54211, 54287, 55045, 54816, 53779, 53527, 53001, 53786, 54443, 53877, 53738, 53995, 53333, 54382, 53620],
