{
  "AcquisitionMatrixPE": 104,
  "AcquisitionNumber": 1,
  "AcquisitionTime": "19:35:31.477500",
  "BandwidthPerPixelPhaseEncode": 17.17,
  "BaseResolution": 104,
  "BodyPartExamined": "BRAIN",
  "CoilCombinationMethod": "Sum of Squares",
  "ConsistencyInfo": "N4_VE11C_LATEST_20160120",
  "ConversionSoftware": "dcm2niix",
  "ConversionSoftwareVersion": "v1.0.20220505",
  "DerivedVendorReportedEchoSpacing": 0.000560011,
  "DeviceSerialNumber": "167006",
  "DwellTime": 2.1e-06,
  "EchoTime": 0.037,
  "EchoTrainLength": 104,
  "EffectiveEchoSpacing": 0.000560011,
  "FlipAngle": 52,
  "HeudiconvVersion": "0.5.3.post811+g6206e14",
  "ImageComments": "Unaliased MB4/PE3/LB",
  "ImageOrientationPatientDICOM": [0.999757, 0.00248157, 0.021882, 0.00610732, 0.923415, -0.383756],
  "ImageOrientationText": "Tra>Cor(-22.6)>Sag(1.2)",
  "ImageType": [
    "ORIGINAL",
    "PRIMARY",
    "M",
    "MB",
    "ND",
    "MOSAIC"
],
  "ImagingFrequency": 123.259,
  "InPlanePhaseEncodingDirectionDICOM": "COL",
  "InstitutionAddress": "Chemin Queen-Mary 4565,Montreal,District,CA,H3W 1W5",
  "InstitutionName": "IUGM",
  "InstitutionalDepartmentName": "Department",
  "MRAcquisitionType": "2D",
  "MagneticFieldStrength": 3,
  "Manufacturer": "Siemens",
  "ManufacturersModelName": "Prisma_fit",
  "MatrixCoilMode": "SENSE",
  "Modality": "MR",
  "MultibandAccelerationFactor": 4,
  "PartialFourier": 1,
  "PatientPosition": "HFS",
  "PercentPhaseFOV": 100,
  "PercentSampling": 100,
  "PhaseEncodingDirection": "j",
  "PhaseEncodingSteps": 104,
  "PhaseResolution": 1,
  "PixelBandwidth": 2290,
  "ProcedureStepDescription": "games^mario3",
  "ProtocolName": "func_task-mario3_run-06",
  "PulseSequenceDetails": "%CustomerSeq%\\cmrr_mbep2d_bold",
  "ReceiveCoilActiveElements": "HC1-7;NC1,2",
  "ReceiveCoilName": "HeadNeck_64",
  "ReconMatrixPE": 104,
  "RepetitionTime": 1.49,
  "SAR": 0.0856788,
  "ScanOptions": "FS",
  "ScanningSequence": "EP",
  "SequenceName": "epfid2d1_104",
  "SequenceVariant": "SK\\SS",
  "SeriesDescription": "func_task-mario3_run-06",
  "SeriesNumber": 25,
  "ShimSetting": [587, -7295, -8810, 404, 24, -363, -45, 95],
  "SliceThickness": 2,
  "SliceTiming": [0, 0.785, 0.0975, 0.8825, 0.1975, 0.98, 0.295, 1.0775, 0.3925, 1.1775, 0.49, 1.275, 0.5875, 1.3725, 0.6875, 0, 0.785, 0.0975, 0.8825, 0.1975, 0.98, 0.295, 1.0775, 0.3925, 1.1775, 0.49, 1.275, 0.5875, 1.3725, 0.6875, 0, 0.785, 0.0975, 0.8825, 0.1975, 0.98, 0.295, 1.0775, 0.3925, 1.1775, 0.49, 1.275, 0.5875, 1.3725, 0.6875, 0, 0.785, 0.0975, 0.8825, 0.1975, 0.98, 0.295, 1.0775, 0.3925, 1.1775, 0.49, 1.275, 0.5875, 1.3725, 0.6875],
  "SoftwareVersions": "syngo MR E11",
  "SpacingBetweenSlices": 2,
  "StationName": "MRC35049",
  "TaskName": "mario3",
  "TotalReadoutTime": 0.0576811,
  "TxRefAmp": 309.502,
  "WipMemBlock": "3298d805-d2ed-43fe-9b61-713cbc939200||Sequence: R017 ve11c/master r/75a17815+; Jun 28 2022 16:32:11 by eja",
  "dcmmeta_affine": [
    [-1.9995149374008179, 0.012214635498821735, 0.04231701418757439, 103.10347747802734],
    [-0.00496314000338316, 1.8468290567398071, -0.7675923109054565, -67.98622131347656],
    [0.04376407712697983, 0.7675111293792725, 1.8463507890701294, -64.58615112304688],
    [0.0, 0.0, 0.0, 1.0]
],
  "dcmmeta_reorient_transform": [
    [0.0, -1.0, 0.0, 103.0],
    [1.0, 0.0, 0.0, 0.0],
    [0.0, 0.0, 1.0, 0.0],
    [0.0, 0.0, 0.0, 1.0]
],
  "dcmmeta_shape": [104, 104, 60, 452],
  "dcmmeta_slice_dim": 2,
  "dcmmeta_version": 0.6,
  "global": {
    "const": {
      "AcquisitionMatrix": [104, 0, 0, 104],
      "AngioFlag": "N",
      "BitsAllocated": 16,
      "BitsStored": 16,
      "BodyPartExamined": "BRAIN",
      "Columns": 832,
      "EchoNumbers": 1,
      "EchoTime": 37.0,
      "EchoTrainLength": 104,
      "FlipAngle": 52.0,
      "HighBit": 15,
      "ImageOrientationPatient": [0.99975747970292, 0.00248156988835, 0.02188203804397, 0.00610731767702, 0.92341450962169, -0.3837555785796],
      "ImagePositionPatient": [-836.63115835605, -796.28951169361, 277.91143686391],
      "ImageType": [
        "ORIGINAL",
        "PRIMARY",
        "M",
        "MB",
        "ND",
        "MOSAIC"
],
      "ImagedNucleus": "1H",
      "ImagingFrequency": 123.259129,
      "InPlanePhaseEncodingDirection": "COL",
      "MRAcquisitionType": "2D",
      "MagneticFieldStrength": 3.0,
      "Manufacturer": "SIEMENS",
      "ManufacturerModelName": "Prisma_fit",
      "Modality": "MR",
      "NumberOfAverages": 1.0,
      "NumberOfPhaseEncodingSteps": 104,
      "PercentPhaseFieldOfView": 100.0,
      "PercentSampling": 100.0,
      "PerformedProcedureStepStartTime": "183820.357000",
      "PhotometricInterpretation": "MONOCHROME2",
      "PixelBandwidth": 2290.0,
      "PixelRepresentation": 0,
      "PixelSpacing": [2.0, 2.0],
      "ProtocolName": "func_task-mario3_run-06",
      "RepetitionTime": 1490.0,
      "Rows": 832,
      "SAR": 0.08567879929513,
      "SamplesPerPixel": 1,
      "ScanOptions": "FS",
      "ScanningSequence": "EP",
      "SequenceName": "epfid2d1_104",
      "SequenceVariant": [
        "SK",
        "SS"
],
      "SeriesDescription": "func_task-mario3_run-06",
      "SeriesNumber": 25,
      "SeriesTime": "193652.522000",
      "SliceLocation": -31.349978674553,
      "SliceThickness": 2.0,
      "SmallestImagePixelValue": 0,
      "SoftwareVersions": "syngo MR E11",
      "SpacingBetweenSlices": 2.0000000078129,
      "SpecificCharacterSet": "ISO_IR 100",
      "StudyID": "1",
      "StudyTime": "183820.284000",
      "TransmitCoilName": "Body",
      "VariableFlipAngleFlag": "N",
      "WindowCenterWidthExplanation": "Algo1",
      "dBdt": 0.0},
    "slices": {}
  },
  "time": {
    "samples": {
      "AcquisitionNumber": [1, 2, 3, 4, 5, 6, 7, 8, 9, 10, 11, 12, 13, 14, 15, 16, 17, 18, 19, 20, 21, 22, 23, 24, 25, 26, 27, 28, 29, 30, 31, 32, 33, 34, 35, 36, 37, 38, 39, 40, 41, 42, 43, 44, 45, 46, 47, 48, 49, 50, 51, 52, 53, 54, 55, 56, 57, 58, 59, 60, 61, 62, 63, 64, 65, 66, 67, 68, 69, 70, 71, 72, 73, 74, 75, 76, 77, 78, 79, 80, 81, 82, 83, 84, 85, 86, 87, 88, 89, 90, 91, 92, 93, 94, 95, 96, 97, 98, 99, 100, 101, 102, 103, 104, 105, 106, 107, 108, 109, 110, 111, 112, 113, 114, 115, 116, 117, 118, 119, 120, 121, 122, 123, 124, 125, 126, 127, 128, 129, 130, 131, 132, 133, 134, 135, 136, 137, 138, 139, 140, 141, 142, 143, 144, 145, 146, 147, 148, 149, 150, 151, 152, 153, 154, 155, 156, 157, 158, 159, 160, 161, 162, 163, 164, 165, 166, 167, 168, 169, 170, 171, 172, 173, 174, 175, 176, 177, 178, 179, 180, 181, 182, 183, 184, 185, 186, 187, 188, 189, 190, 191, 192, 193, 194, 195, 196, 197, 198, 199, 200, 201, 202, 203, 204, 205, 206, 207, 208, 209, 210, 211, 212, 213, 214, 215, 216, 217, 218, 219, 220, 221, 222, 223, 224, 225, 226, 227, 228, 229, 230, 231, 232, 233, 234, 235, 236, 237, 238, 239, 240, 241, 242, 243, 244, 245, 246, 247, 248, 249, 250, 251, 252, 253, 254, 255, 256, 257, 258, 259, 260, 261, 262, 263, 264, 265, 266, 267, 268, 269, 270, 271, 272, 273, 274, 275, 276, 277, 278, 279, 280, 281, 282, 283, 284, 285, 286, 287, 288, 289, 290, 291, 292, 293, 294, 295, 296, 297, 298, 299, 300, 301, 302, 303, 304, 305, 306, 307, 308, 309, 310, 311, 312, 313, 314, 315, 316, 317, 318, 319, 320, 321, 322, 323, 324, 325, 326, 327, 328, 329, 330, 331, 332, 333, 334, 335, 336, 337, 338, 339, 340, 341, 342, 343, 344, 345, 346, 347, 348, 349, 350, 351, 352, 353, 354, 355, 356, 357, 358, 359, 360, 361, 362, 363, 364, 365, 366, 367, 368, 369, 370, 371, 372, 373, 374, 375, 376, 377, 378, 379, 380, 381, 382, 383, 384, 385, 386, 387, 388, 389, 390, 391, 392, 393, 394, 395, 396, 397, 398, 399, 400, 401, 402, 403, 404, 405, 406, 407, 408, 409, 410, 411, 412, 413, 414, 415, 416, 417, 418, 419, 420, 421, 422, 423, 424, 425, 426, 427, 428, 429, 430, 431, 432, 433, 434, 435, 436, 437, 438, 439, 440, 441, 442, 443, 444, 445, 446, 447, 448, 449, 450, 451, 452],
      "AcquisitionTime": ["193531.477500", "193532.967500", "193534.457500", "193535.947500", "193537.437500", "193538.927500", "193540.417500", "193541.907500", "193543.397500", "193544.887500", "193546.377500", "193547.867500", "193549.357500", "193550.847500", "193552.337500", "193553.827500", "193555.317500", "193556.807500", "193558.297500", "193559.787500", "193601.277500", "193602.767500", "193604.257500", "193605.747500", "193607.237500", "193608.727500", "193610.217500", "193611.707500", "193613.197500", "193614.687500", "193616.177500", "193617.667500", "193619.157500", "193620.647500", "193622.137500", "193623.627500", "193625.117500", "193626.607500", "193628.097500", "193629.587500", "193631.077500", "193632.567500", "193634.057500", "193635.547500", "193637.037500", "193638.527500", "193640.017500", "193641.507500", "193642.997500", "193644.487500", "193645.977500", "193647.467500", "193648.957500", "193650.447500", "193651.937500", "193653.427500", "193654.917500", "193656.407500", "193657.897500", "193659.387500", "193700.877500", "193702.367500", "193703.857500", "193705.347500", "193706.837500", "193708.327500", "193709.817500", "193711.307500", "193712.797500", "193714.287500", "193715.777500", "193717.267500", "193718.757500", "193720.247500", "193721.737500", "193723.227500", "193724.717500", "193726.207500", "193727.697500", "193729.187500", "193730.677500", "193732.167500", "193733.657500", "193735.147500", "193736.637500", "193738.127500", "193739.617500", "193741.107500", "193742.597500", "193744.087500", "193745.577500", "193747.067500", "193748.557500", "193750.047500", "193751.537500", "193753.027500", "193754.517500", "193756.007500", "193757.497500", "193758.987500", "193800.477500", "193801.967500", "193803.457500", "193804.947500", "193806.437500", "193807.927500", "193809.417500", "193810.907500", "193812.397500", "193813.887500", "193815.377500", "193816.867500", "193818.357500", "193819.847500", "193821.337500", "193822.827500", "193824.317500", "193825.807500", "193827.297500", "193828.787500", "193830.277500", "193831.767500", "193833.257500", "193834.747500", "193836.237500", "193837.727500", "193839.217500", "193840.707500", "193842.197500", "193843.687500", "193845.177500", "193846.667500", "193848.157500", "193849.647500", "193851.137500", "193852.627500", "193854.117500", "193855.607500", "193857.097500", "193858.587500", "193900.077500", "193901.567500", "193903.057500", "193904.547500", "193906.037500", "193907.527500", "193909.017500", "193910.507500", "193911.997500", "193913.487500", "193914.977500", "193916.467500", "193917.957500", "193919.447500", "193920.937500", "193922.427500", "193923.917500", "193925.407500", "193926.897500", "193928.387500", "193929.877500", "193931.367500", "193932.857500", "193934.347500", "193935.837500", "193937.327500", "193938.817500", "193940.307500", "193941.797500", "193943.287500", "193944.777500", "193946.267500", "193947.757500", "193949.247500", "193950.737500", "193952.227500", "193953.717500", "193955.207500", "193956.697500", "193958.187500", "193959.677500", "194001.167500", "194002.657500", "194004.147500", "194005.637500", "194007.127500", "194008.617500", "194010.107500", "194011.597500", "194013.087500", "194014.577500", "194016.067500", "194017.557500", "194019.047500", "194020.537500", "194022.027500", "194023.517500", "194025.007500", "194026.497500", "194027.987500", "194029.477500", "194030.967500", "194032.457500", "194033.947500", "194035.437500", "194036.927500", "194038.417500", "194039.907500", "194041.397500", "194042.887500", "194044.377500", "194045.867500", "194047.357500", "194048.847500", "194050.337500", "194051.827500", "194053.317500", "194054.807500", "194056.297500", "194057.787500", "194059.277500", "194100.767500", "194102.257500", "194103.747500", "194105.237500", "194106.727500", "194108.217500", "194109.707500", "194111.197500", "194112.687500", "194114.177500", "194115.667500", "194117.157500", "194118.647500", "194120.137500", "194121.627500", "194123.117500", "194124.607500", "194126.097500", "194127.587500", "194129.077500", "194130.567500", "194132.057500", "194133.547500", "194135.037500", "194136.527500", "194138.017500", "194139.507500", "194140.997500", "194142.487500", "194143.977500", "194145.467500", "194146.957500", "194148.447500", "194149.937500", "194151.427500", "194152.917500", "194154.407500", "194155.897500", "194157.387500", "194158.877500", "194200.367500", "194201.857500", "194203.347500", "194204.837500", "194206.327500", "194207.817500", "194209.307500", "194210.797500", "194212.287500", "194213.777500", "194215.267500", "194216.757500", "194218.247500", "194219.737500", "194221.227500", "194222.717500", "194224.207500", "194225.697500", "194227.187500", "194228.677500", "194230.167500", "194231.657500", "194233.147500", "194234.637500", "194236.127500", "194237.617500", "194239.107500", "194240.597500", "194242.087500", "194243.577500", "194245.067500", "194246.557500", "194248.047500", "194249.537500", "194251.027500", "194252.517500", "194254.007500", "194255.497500", "194256.987500", "194258.477500", "194259.967500", "194301.457500", "194302.947500", "194304.437500", "194305.927500", "194307.417500", "194308.907500", "194310.397500", "194311.887500", "194313.377500", "194314.867500", "194316.357500", "194317.847500", "194319.337500", "194320.827500", "194322.317500", "194323.807500", "194325.297500", "194326.787500", "194328.277500", "194329.767500", "194331.257500", "194332.747500", "194334.237500", "194335.727500", "194337.217500", "194338.707500", "194340.197500", "194341.687500", "194343.177500", "194344.667500", "194346.157500", "194347.647500", "194349.137500", "194350.627500", "194352.117500", "194353.607500", "194355.097500", "194356.587500", "194358.077500", "194359.567500", "194401.057500", "194402.547500", "194404.037500", "194405.527500", "194407.017500", "194408.507500", "194409.997500", "194411.487500", "194412.977500", "194414.467500", "194415.957500", "194417.447500", "194418.937500", "194420.427500", "194421.917500", "194423.407500", "194424.897500", "194426.387500", "194427.877500", "194429.367500", "194430.857500", "194432.347500", "194433.837500", "194435.327500", "194436.817500", "194438.307500", "194439.797500", "194441.287500", "194442.777500", "194444.267500", "194445.757500", "194447.247500", "194448.737500", "194450.227500", "194451.717500", "194453.207500", "194454.697500", "194456.187500", "194457.677500", "194459.167500", "194500.657500", "194502.147500", "194503.637500", "194505.127500", "194506.617500", "194508.107500", "194509.597500", "194511.087500", "194512.577500", "194514.067500", "194515.557500", "194517.047500", "194518.537500", "194520.027500", "194521.517500", "194523.007500", "194524.497500", "194525.987500", "194527.477500", "194528.967500", "194530.457500", "194531.947500", "194533.437500", "194534.927500", "194536.417500", "194537.907500", "194539.397500", "194540.887500", "194542.377500", "194543.867500", "194545.357500", "194546.847500", "194548.337500", "194549.827500", "194551.317500", "194552.807500", "194554.297500", "194555.787500", "194557.277500", "194558.767500", "194600.257500", "194601.747500", "194603.237500", "194604.727500", "194606.217500", "194607.707500", "194609.197500", "194610.687500", "194612.177500", "194613.667500", "194615.157500", "194616.647500", "194618.137500", "194619.627500", "194621.117500", "194622.607500", "194624.097500", "194625.587500", "194627.077500", "194628.567500", "194630.057500", "194631.547500", "194633.037500", "194634.527500", "194636.017500", "194637.507500", "194638.997500", "194640.487500", "194641.977500", "194643.467500"],
      "ContentTime": ["193652.525000", "193652.529000", "193652.532000", "193652.535000", "193652.539000", "193652.542000", "193652.546000", "193652.549000", "193652.552000", "193652.555000", "193652.559000", "193652.562000", "193652.565000", "193652.569000", "193652.572000", "193652.575000", "193652.579000", "193652.582000", "193652.585000", "193652.589000", "193652.592000", "193652.596000", "193652.599000", "193652.602000", "193652.605000", "193652.609000", "193652.612000", "193652.616000", "193652.627000", "193652.630000", "193652.636000", "193712.483000", "193712.487000", "193712.490000", "193712.494000", "193712.497000", "193712.500000", "193712.504000", "193712.507000", "193712.510000", "193712.514000", "193712.517000", "193712.520000", "193712.523000", "193712.527000", "193712.530000", "193712.534000", "193712.537000", "193712.540000", "193712.544000", "193712.547000", "193732.484000", "193732.488000", "193732.491000", "193732.495000", "193732.498000", "193732.501000", "193732.505000", "193732.508000", "193732.511000", "193732.515000", "193732.518000", "193732.521000", "193732.524000", "193732.528000", "193732.531000", "193732.534000", "193732.538000", "193732.541000", "193732.544000", "193732.548000", "193752.484000", "193752.488000", "193752.491000", "193752.495000", "193752.498000", "193752.501000", "193752.505000", "193752.508000", "193752.511000", "193752.515000", "193752.518000", "193752.522000", "193752.525000", "193752.528000", "193752.532000", "193752.535000", "193752.538000", "193752.551000", "193752.554000", "193752.557000", "193832.484000", "193832.488000", "193832.491000", "193832.495000", "193832.498000", "193832.501000", "193832.505000", "193832.508000", "193832.511000", "193832.515000", "193832.518000", "193832.521000", "193832.525000", "193832.528000", "193832.531000", "193832.535000", "193832.538000", "193832.541000", "193832.545000", "193832.548000", "193832.551000", "193832.555000", "193832.558000", "193832.561000", "193832.565000", "193832.568000", "193832.571000", "193832.575000", "193832.578000", "193912.483000", "193912.487000", "193912.509000", "193912.519000", "193912.523000", "193912.526000", "193912.529000", "193912.533000", "193912.536000", "193912.539000", "193912.543000", "193912.546000", "193912.549000", "193912.553000", "193912.556000", "193912.559000", "193912.563000", "193912.566000", "193912.569000", "193912.573000", "193912.576000", "193912.579000", "193912.583000", "193912.586000", "193912.589000", "193912.593000", "193912.596000", "193952.484000", "193952.488000", "193952.491000", "193952.495000", "193952.498000", "193952.502000", "193952.505000", "193952.508000", "193952.512000", "193952.515000", "193952.518000", "193952.522000", "193952.525000", "193952.528000", "193952.532000", "193952.535000", "193952.538000", "193952.542000", "193952.545000", "193952.548000", "193952.552000", "193952.555000", "193952.559000", "193952.562000", "193952.565000", "193952.569000", "193952.572000", "194032.484000", "194032.488000", "194032.491000", "194032.495000", "194032.498000", "194032.501000", "194032.505000", "194032.508000", "194032.512000", "194032.515000", "194032.518000", "194032.522000", "194032.525000", "194032.528000", "194032.532000", "194032.535000", "194032.538000", "194032.542000", "194032.545000", "194032.549000", "194032.552000", "194032.555000", "194032.558000", "194032.562000", "194032.565000", "194032.569000", "194032.572000", "194112.483000", "194112.487000", "194112.490000", "194112.494000", "194112.497000", "194112.500000", "194112.504000", "194112.507000", "194112.510000", "194112.514000", "194112.517000", "194112.520000", "194112.524000", "194112.527000", "194112.530000", "194112.534000", "194112.537000", "194112.540000", "194112.544000", "194112.547000", "194112.550000", "194112.554000", "194112.581000", "194112.584000", "194112.588000", "194112.591000", "194112.594000", "194152.483000", "194152.487000", "194152.490000", "194152.494000", "194152.497000", "194152.501000", "194152.504000", "194152.507000", "194152.511000", "194152.514000", "194152.517000", "194152.521000", "194152.524000", "194152.528000", "194152.531000", "194152.534000", "194152.538000", "194152.541000", "194152.544000", "194152.548000", "194152.551000", "194152.554000", "194152.558000", "194152.561000", "194152.564000", "194152.568000", "194232.484000", "194232.488000", "194232.491000", "194232.495000", "194232.498000", "194232.501000", "194232.505000", "194232.508000", "194232.512000", "194232.515000", "194232.518000", "194232.522000", "194232.525000", "194232.528000", "194232.532000", "194232.535000", "194232.538000", "194232.542000", "194232.545000", "194232.548000", "194232.552000", "194232.555000", "194232.558000", "194232.562000", "194232.565000", "194232.568000", "194232.572000", "194312.484000", "194312.488000", "194312.491000", "194312.495000", "194312.498000", "194312.502000", "194312.505000", "194312.508000", "194312.511000", "194312.515000", "194312.518000", "194312.522000", "194312.525000", "194312.528000", "194312.532000", "194312.535000", "194312.538000", "194312.542000", "194312.545000", "194312.548000", "194312.552000", "194312.555000", "194312.558000", "194312.562000", "194312.565000", "194312.568000", "194312.572000", "194352.483000", "194352.487000", "194352.490000", "194352.513000", "194352.517000", "194352.520000", "194352.523000", "194352.527000", "194352.530000", "194352.533000", "194352.537000", "194352.540000", "194352.544000", "194352.547000", "194352.550000", "194352.554000", "194352.557000", "194352.560000", "194352.564000", "194352.567000", "194352.571000", "194352.574000", "194352.577000", "194352.581000", "194352.584000", "194352.587000", "194352.591000", "194412.483000", "194412.487000", "194412.491000", "194412.494000", "194412.497000", "194412.501000", "194412.505000", "194412.508000", "194412.511000", "194412.515000", "194412.518000", "194412.521000", "194412.525000", "194452.484000", "194452.488000", "194452.491000", "194452.495000", "194452.500000", "194452.503000", "194452.506000", "194452.510000", "194452.513000", "194452.517000", "194452.521000", "194452.525000", "194452.528000", "194452.531000", "194452.535000", "194452.538000", "194452.542000", "194452.545000", "194452.548000", "194452.552000", "194452.555000", "194452.558000", "194452.561000", "194452.565000", "194452.568000", "194452.572000", "194452.575000", "194532.483000", "194532.487000", "194532.491000", "194532.494000", "194532.497000", "194532.501000", "194532.504000", "194532.507000", "194532.510000", "194532.514000", "194532.517000", "194532.520000", "194532.524000", "194532.527000", "194532.530000", "194532.534000", "194532.537000", "194532.540000", "194532.544000", "194532.547000", "194532.551000", "194532.554000", "194532.558000", "194532.561000", "194532.564000", "194532.568000", "194532.571000", "194612.497000", "194612.501000", "194612.504000", "194612.508000", "194612.511000", "194612.514000", "194612.518000", "194612.521000", "194612.525000", "194612.528000", "194612.531000", "194612.535000", "194612.538000", "194612.542000", "194612.545000", "194612.548000", "194612.552000", "194612.555000", "194612.558000", "194612.562000", "194612.565000", "194612.568000", "194612.572000", "194612.575000", "194612.578000", "194612.582000", "194612.585000", "194647.313000", "194647.317000", "194647.321000", "194647.324000", "194647.327000", "194647.331000", "194647.334000", "194647.337000", "194647.341000", "194647.344000", "194647.347000", "194647.351000", "194647.354000", "194647.357000", "194647.361000", "194647.364000", "194647.367000", "194647.371000", "194647.374000", "194647.378000", "194647.381000", "194647.384000", "194647.388000"],
