{
  "AcquisitionMatrixPE": 104,
  "AcquisitionNumber": 1,
  "AcquisitionTime": "19:14:5.145000",
  "BandwidthPerPixelPhaseEncode": 17.17,
  "BaseResolution": 104,
  "BodyPartExamined": "BRAIN",
  "CoilCombinationMethod": "Sum of Squares",
  "ConsistencyInfo": "N4_VE11C_LATEST_20160120",
  "ConversionSoftware": "dcm2niix",
  "ConversionSoftwareVersion": "v1.0.20220505",
  "DerivedVendorReportedEchoSpacing": 0.000560011,
  "DeviceSerialNumber": "167006",
  "DwellTime": 2.1e-06,
  "EchoTime": 0.037,
  "EchoTime1": 0.037,
  "EchoTime2": 0.001,
  "EchoTrainLength": 104,
  "EffectiveEchoSpacing": 0.000560011,
  "FlipAngle": 52,
  "HeudiconvVersion": "0.5.3.post811+g6206e14",
  "ImageComments": "Unaliased MB4/PE3/LB",
  "ImageOrientationPatientDICOM": [0.999757, 0.00248157, 0.021882, 0.00610732, 0.923415, -0.383756],
  "ImageOrientationText": "Tra>Cor(-22.6)>Sag(1.2)",
  "ImageType": [
    "ORIGINAL",
    "PRIMARY",
    "P",
    "MB",
    "ND",
    "MOSAIC",
    "PHASE"
],
  "ImagingFrequency": 123.259,
  "InPlanePhaseEncodingDirectionDICOM": "COL",
  "InstitutionAddress": "Chemin Queen-Mary 4565,Montreal,District,CA,H3W 1W5",
  "InstitutionName": "IUGM",
  "InstitutionalDepartmentName": "Department",
  "MRAcquisitionType": "2D",
  "MagneticFieldStrength": 3,
  "Manufacturer": "Siemens",
  "ManufacturersModelName": "Prisma_fit",
  "MatrixCoilMode": "SENSE",
  "Modality": "MR",
  "MultibandAccelerationFactor": 4,
  "PartialFourier": 1,
  "PatientPosition": "HFS",
  "PercentPhaseFOV": 100,
  "PercentSampling": 100,
  "PhaseEncodingDirection": "j",
  "PhaseEncodingSteps": 104,
  "PhaseResolution": 1,
  "PixelBandwidth": 2290,
  "ProcedureStepDescription": "games^mario3",
  "ProtocolName": "func_task-mario3_run-04",
  "PulseSequenceDetails": "%CustomerSeq%\\cmrr_mbep2d_bold",
  "ReceiveCoilActiveElements": "HC1-7;NC1,2",
  "ReceiveCoilName": "HeadNeck_64",
  "ReconMatrixPE": 104,
  "RepetitionTime": 1.49,
  "SAR": 0.0856788,
  "ScanOptions": "FS",
  "ScanningSequence": "EP",
  "SequenceName": "epfid2d1_104",
  "SequenceVariant": "SK\\SS",
  "SeriesDescription": "func_task-mario3_run-04",
  "SeriesNumber": 20,
  "ShimSetting": [587, -7295, -8810, 404, 24, -363, -45, 95],
  "SliceThickness": 2,
  "SliceTiming": [0, 0.7825, 0.0975, 0.8825, 0.195, 0.98, 0.2925, 1.0775, 0.3925, 1.175, 0.49, 1.2725, 0.5875, 1.3725, 0.685, 0, 0.7825, 0.0975, 0.8825, 0.195, 0.98, 0.2925, 1.0775, 0.3925, 1.175, 0.49, 1.2725, 0.5875, 1.3725, 0.685, 0, 0.7825, 0.0975, 0.8825, 0.195, 0.98, 0.2925, 1.0775, 0.3925, 1.175, 0.49, 1.2725, 0.5875, 1.3725, 0.685, 0, 0.7825, 0.0975, 0.8825, 0.195, 0.98, 0.2925, 1.0775, 0.3925, 1.175, 0.49, 1.2725, 0.5875, 1.3725, 0.685],
  "SoftwareVersions": "syngo MR E11",
  "SpacingBetweenSlices": 2,
  "StationName": "MRC35049",
  "TaskName": "mario3",
  "TotalReadoutTime": 0.0576811,
  "TxRefAmp": 309.502,
  "WipMemBlock": "6deba003-bbfc-4a0b-b9fb-887a989fbe81||Sequence: R017 ve11c/master r/75a17815+; Jun 28 2022 16:32:11 by eja",
  "dcmmeta_affine": [
    [-1.9995149374008179, 0.012214635498821735, 0.04231701418757439, 103.10347747802734],
    [-0.00496314000338316, 1.8468290567398071, -0.7675923109054565, -67.98622131347656],
    [0.04376407712697983, 0.7675111293792725, 1.8463507890701294, -64.58615112304688],
    [0.0, 0.0, 0.0, 1.0]
],
  "dcmmeta_reorient_transform": [
    [0.0, -1.0, 0.0, 103.0],
    [1.0, 0.0, 0.0, 0.0],
    [0.0, 0.0, 1.0, 0.0],
    [0.0, 0.0, 0.0, 1.0]
],
  "dcmmeta_shape": [104, 104, 60, 355],
  "dcmmeta_slice_dim": 2,
  "dcmmeta_version": 0.6,
  "global": {
    "const": {
      "AcquisitionMatrix": [104, 0, 0, 104],
      "AngioFlag": "N",
      "BitsAllocated": 16,
      "BitsStored": 16,
      "BodyPartExamined": "BRAIN",
      "Columns": 832,
      "EchoNumbers": 1,
      "EchoTime": 37.0,
      "EchoTrainLength": 104,
      "FlipAngle": 52.0,
      "HighBit": 15,
      "ImageOrientationPatient": [0.99975747970292, 0.00248156988835, 0.02188203804397, 0.00610731767702, 0.92341450962169, -0.3837555785796],
      "ImagePositionPatient": [-836.63115835605, -796.28951169361, 277.91143686391],
      "ImageType": [
        "ORIGINAL",
        "PRIMARY",
        "P",
        "MB",
        "ND",
        "MOSAIC"
],
      "ImagedNucleus": "1H",
      "ImagingFrequency": 123.259132,
      "InPlanePhaseEncodingDirection": "COL",
      "LargestImagePixelValue": 4095,
      "MRAcquisitionType": "2D",
      "MagneticFieldStrength": 3.0,
      "Manufacturer": "SIEMENS",
      "ManufacturerModelName": "Prisma_fit",
      "Modality": "MR",
      "NumberOfAverages": 1.0,
      "NumberOfPhaseEncodingSteps": 104,
      "PercentPhaseFieldOfView": 100.0,
      "PercentSampling": 100.0,
      "PerformedProcedureStepStartTime": "183820.357000",
      "PhotometricInterpretation": "MONOCHROME2",
      "PixelBandwidth": 2290.0,
      "PixelRepresentation": 0,
      "PixelSpacing": [2.0, 2.0],
      "ProtocolName": "func_task-mario3_run-04",
      "RepetitionTime": 1490.0,
      "RescaleIntercept": -4096.0,
      "RescaleSlope": 2.0,
      "RescaleType": "US",
      "Rows": 832,
      "SAR": 0.08567879929513,
      "SamplesPerPixel": 1,
      "ScanOptions": "FS",
      "ScanningSequence": "EP",
      "SequenceName": "epfid2d1_104",
      "SequenceVariant": [
        "SK",
        "SS"
],
      "SeriesDescription": "func_task-mario3_run-04",
      "SeriesNumber": 20,
      "SeriesTime": "191508.236000",
      "SliceLocation": -31.349978674553,
      "SliceThickness": 2.0,
      "SmallestImagePixelValue": 0,
      "SoftwareVersions": "syngo MR E11",
      "SpacingBetweenSlices": 2.0000000078129,
      "SpecificCharacterSet": "ISO_IR 100",
      "StudyID": "1",
      "StudyTime": "183820.284000",
      "TransmitCoilName": "Body",
      "VariableFlipAngleFlag": "N",
      "WindowCenterWidthExplanation": "Algo1",
      "dBdt": 0.0},
    "slices": {}
  },
  "time": {
    "samples": {
      "AcquisitionNumber": [1, 2, 3, 4, 5, 6, 7, 8, 9, 10, 11, 12, 13, 14, 15, 16, 17, 18, 19, 20, 21, 22, 23, 24, 25, 26, 27, 28, 29, 30, 31, 32, 33, 34, 35, 36, 37, 38, 39, 40, 41, 42, 43, 44, 45, 46, 47, 48, 49, 50, 51, 52, 53, 54, 55, 56, 57, 58, 59, 60, 61, 62, 63, 64, 65, 66, 67, 68, 69, 70, 71, 72, 73, 74, 75, 76, 77, 78, 79, 80, 81, 82, 83, 84, 85, 86, 87, 88, 89, 90, 91, 92, 93, 94, 95, 96, 97, 98, 99, 100, 101, 102, 103, 104, 105, 106, 107, 108, 109, 110, 111, 112, 113, 114, 115, 116, 117, 118, 119, 120, 121, 122, 123, 124, 125, 126, 127, 128, 129, 130, 131, 132, 133, 134, 135, 136, 137, 138, 139, 140, 141, 142, 143, 144, 145, 146, 147, 148, 149, 150, 151, 152, 153, 154, 155, 156, 157, 158, 159, 160, 161, 162, 163, 164, 165, 166, 167, 168, 169, 170, 171, 172, 173, 174, 175, 176, 177, 178, 179, 180, 181, 182, 183, 184, 185, 186, 187, 188, 189, 190, 191, 192, 193, 194, 195, 196, 197, 198, 199, 200, 201, 202, 203, 204, 205, 206, 207, 208, 209, 210, 211, 212, 213, 214, 215, 216, 217, 218, 219, 220, 221, 222, 223, 224, 225, 226, 227, 228, 229, 230, 231, 232, 233, 234, 235, 236, 237, 238, 239, 240, 241, 242, 243, 244, 245, 246, 247, 248, 249, 250, 251, 252, 253, 254, 255, 256, 257, 258, 259, 260, 261, 262, 263, 264, 265, 266, 267, 268, 269, 270, 271, 272, 273, 274, 275, 276, 277, 278, 279, 280, 281, 282, 283, 284, 285, 286, 287, 288, 289, 290, 291, 292, 293, 294, 295, 296, 297, 298, 299, 300, 301, 302, 303, 304, 305, 306, 307, 308, 309, 310, 311, 312, 313, 314, 315, 316, 317, 318, 319, 320, 321, 322, 323, 324, 325, 326, 327, 328, 329, 330, 331, 332, 333, 334, 335, 336, 337, 338, 339, 340, 341, 342, 343, 344, 345, 346, 347, 348, 349, 350, 351, 352, 353, 354, 355],
      "AcquisitionTime": ["191405.145000", "191406.635000", "191408.125000", "191409.615000", "191411.105000", "191412.595000", "191414.085000", "191415.575000", "191417.065000", "191418.555000", "191420.045000", "191421.535000", "191423.025000", "191424.515000", "191426.005000", "191427.495000", "191428.985000", "191430.475000", "191431.965000", "191433.455000", "191434.945000", "191436.435000", "191437.925000", "191439.415000", "191440.905000", "191442.395000", "191443.885000", "191445.375000", "191446.865000", "191448.355000", "191449.845000", "191451.335000", "191452.825000", "191454.315000", "191455.805000", "191457.295000", "191458.785000", "191500.275000", "191501.765000", "191503.255000", "191504.745000", "191506.235000", "191507.725000", "191509.215000", "191510.705000", "191512.195000", "191513.685000", "191515.175000", "191516.665000", "191518.155000", "191519.645000", "191521.135000", "191522.625000", "191524.115000", "191525.605000", "191527.095000", "191528.585000", "191530.075000", "191531.565000", "191533.055000", "191534.545000", "191536.035000", "191537.525000", "191539.015000", "191540.505000", "191541.995000", "191543.485000", "191544.975000", "191546.465000", "191547.955000", "191549.445000", "191550.935000", "191552.425000", "191553.915000", "191555.405000", "191556.895000", "191558.385000", "191559.875000", "191601.365000", "191602.855000", "191604.345000", "191605.835000", "191607.325000", "191608.815000", "191610.305000", "191611.795000", "191613.285000", "191614.775000", "191616.265000", "191617.755000", "191619.245000", "191620.735000", "191622.225000", "191623.715000", "191625.205000", "191626.695000", "191628.185000", "191629.675000", "191631.165000", "191632.655000", "191634.145000", "191635.635000", "191637.125000", "191638.615000", "191640.105000", "191641.595000", "191643.085000", "191644.575000", "191646.065000", "191647.555000", "191649.045000", "191650.535000", "191652.025000", "191653.515000", "191655.005000", "191656.495000", "191657.985000", "191659.475000", "191700.965000", "191702.455000", "191703.945000", "191705.435000", "191706.925000", "191708.415000", "191709.905000", "191711.395000", "191712.885000", "191714.375000", "191715.865000", "191717.355000", "191718.845000", "191720.335000", "191721.825000", "191723.315000", "191724.805000", "191726.295000", "191727.785000", "191729.275000", "191730.765000", "191732.255000", "191733.745000", "191735.235000", "191736.725000", "191738.215000", "191739.705000", "191741.195000", "191742.685000", "191744.175000", "191745.665000", "191747.155000", "191748.645000", "191750.135000", "191751.625000", "191753.115000", "191754.605000", "191756.095000", "191757.585000", "191759.075000", "191800.565000", "191802.055000", "191803.545000", "191805.035000", "191806.525000", "191808.015000", "191809.505000", "191810.995000", "191812.485000", "191813.975000", "191815.465000", "191816.955000", "191818.445000", "191819.935000", "191821.425000", "191822.915000", "191824.405000", "191825.895000", "191827.385000", "191828.875000", "191830.365000", "191831.855000", "191833.345000", "191834.835000", "191836.325000", "191837.815000", "191839.305000", "191840.795000", "191842.285000", "191843.775000", "191845.265000", "191846.755000", "191848.245000", "191849.735000", "191851.225000", "191852.715000", "191854.205000", "191855.695000", "191857.185000", "191858.675000", "191900.165000", "191901.655000", "191903.145000", "191904.635000", "191906.125000", "191907.615000", "191909.105000", "191910.595000", "191912.085000", "191913.575000", "191915.065000", "191916.555000", "191918.045000", "191919.535000", "191921.025000", "191922.515000", "191924.005000", "191925.495000", "191926.985000", "191928.475000", "191929.965000", "191931.455000", "191932.945000", "191934.435000", "191935.925000", "191937.415000", "191938.905000", "191940.395000", "191941.885000", "191943.375000", "191944.865000", "191946.355000", "191947.845000", "191949.335000", "191950.825000", "191952.315000", "191953.805000", "191955.295000", "191956.785000", "191958.275000", "191959.765000", "192001.255000", "192002.745000", "192004.235000", "192005.725000", "192007.215000", "192008.705000", "192010.195000", "192011.685000", "192013.175000", "192014.665000", "192016.155000", "192017.645000", "192019.135000", "192020.625000", "192022.115000", "192023.605000", "192025.095000", "192026.585000", "192028.075000", "192029.565000", "192031.055000", "192032.545000", "192034.035000", "192035.525000", "192037.015000", "192038.505000", "192039.995000", "192041.485000", "192042.975000", "192044.465000", "192045.955000", "192047.445000", "192048.935000", "192050.425000", "192051.915000", "192053.405000", "192054.895000", "192056.385000", "192057.875000", "192059.365000", "192100.855000", "192102.345000", "192103.835000", "192105.325000", "192106.815000", "192108.305000", "192109.795000", "192111.285000", "192112.775000", "192114.265000", "192115.755000", "192117.245000", "192118.735000", "192120.225000", "192121.715000", "192123.205000", "192124.695000", "192126.185000", "192127.675000", "192129.165000", "192130.655000", "192132.145000", "192133.635000", "192135.125000", "192136.615000", "192138.105000", "192139.595000", "192141.085000", "192142.575000", "192144.065000", "192145.555000", "192147.045000", "192148.535000", "192150.025000", "192151.515000", "192153.005000", "192154.495000", "192155.985000", "192157.475000", "192158.965000", "192200.455000", "192201.945000", "192203.435000", "192204.925000", "192206.415000", "192207.905000", "192209.395000", "192210.885000", "192212.375000", "192213.865000", "192215.355000", "192216.845000", "192218.335000", "192219.825000", "192221.315000", "192222.805000", "192224.295000", "192225.785000", "192227.275000", "192228.765000", "192230.255000", "192231.745000", "192233.235000", "192234.725000", "192236.215000", "192237.705000", "192239.195000", "192240.685000", "192242.175000", "192243.665000", "192245.155000", "192246.645000", "192248.135000", "192249.625000", "192251.115000", "192252.605000"],
      "ContentTime": ["191508.238000", "191508.241000", "191508.244000", "191508.246000", "191508.249000", "191508.251000", "191508.254000", "191508.256000", "191508.259000", "191508.261000", "191508.264000", "191508.266000", "191508.269000", "191508.272000", "191528.213000", "191528.216000", "191528.219000", "191528.221000", "191528.223000", "191528.226000", "191528.229000", "191528.231000", "191528.234000", "191528.236000", "191528.239000", "191528.241000", "191528.244000", "191528.246000", "191528.249000", "191528.251000", "191528.254000", "191528.256000", "191528.259000", "191528.269000", "191548.223000", "191548.226000", "191548.229000", "191548.231000", "191548.234000", "191548.236000", "191548.239000", "191548.242000", "191548.244000", "191548.247000", "191548.249000", "191548.252000", "191548.254000", "191548.257000", "191548.260000", "191548.262000", "191548.265000", "191548.267000", "191548.270000", "191548.273000", "191608.221000", "191608.224000", "191608.226000", "191608.229000", "191608.232000", "191608.234000", "191608.237000", "191608.239000", "191608.242000", "191608.244000", "191608.247000", "191608.250000", "191608.252000", "191608.255000", "191608.257000", "191608.260000", "191608.262000", "191608.265000", "191608.267000", "191608.270000", "191628.226000", "191628.229000", "191628.231000", "191628.234000", "191628.236000", "191628.239000", "191628.241000", "191628.244000", "191628.247000", "191628.249000", "191628.252000", "191628.254000", "191628.257000", "191628.259000", "191628.262000", "191628.264000", "191628.267000", "191628.270000", "191628.272000", "191628.274000", "191628.277000", "191708.252000", "191708.254000", "191708.257000", "191708.260000", "191708.262000", "191708.265000", "191708.267000", "191708.270000", "191708.272000", "191708.275000", "191708.278000", "191708.280000", "191708.283000", "191708.285000", "191708.288000", "191708.290000", "191708.293000", "191708.295000", "191708.298000", "191708.300000", "191708.303000", "191708.305000", "191708.308000", "191708.310000", "191708.313000", "191708.316000", "191708.318000", "191748.248000", "191748.250000", "191748.253000", "191748.255000", "191748.258000", "191748.261000", "191748.263000", "191748.266000", "191748.268000", "191748.271000", "191748.274000", "191748.276000", "191748.279000", "191748.281000", "191748.284000", "191748.287000", "191748.289000", "191748.292000", "191748.294000", "191748.297000", "191748.299000", "191748.302000", "191748.304000", "191748.307000", "191748.310000", "191748.312000", "191748.315000", "191828.263000", "191828.266000", "191828.269000", "191828.271000", "191828.274000", "191828.276000", "191828.279000", "191828.282000", "191828.284000", "191828.287000", "191828.289000", "191828.292000", "191828.294000", "191828.297000", "191828.299000", "191828.302000", "191828.305000", "191828.307000", "191828.310000", "191828.312000", "191828.315000", "191828.317000", "191828.320000", "191828.322000", "191828.325000", "191828.327000", "191828.330000", "191908.257000", "191908.260000", "191908.263000", "191908.265000", "191908.268000", "191908.270000", "191908.273000", "191908.275000", "191908.278000", "191908.280000", "191908.283000", "191908.286000", "191908.288000", "191908.291000", "191908.293000", "191908.296000", "191908.298000", "191908.300000", "191908.303000", "191908.306000", "191908.308000", "191908.311000", "191908.313000", "191908.316000", "191908.318000", "191908.321000", "191908.324000", "191948.648000", "191948.651000", "191948.653000", "191948.656000", "191948.658000", "191948.661000", "191948.663000", "191948.666000", "191948.668000", "191948.671000", "191948.673000", "191948.676000", "191948.679000", "191948.681000", "191948.684000", "191948.686000", "191948.689000", "191948.691000", "191948.703000", "191948.705000", "191948.708000", "191948.710000", "191948.713000", "191948.716000", "191948.718000", "191948.721000", "192028.250000", "192028.253000", "192028.256000", "192028.258000", "192028.261000", "192028.264000", "192028.266000", "192028.269000", "192028.272000", "192028.274000", "192028.277000", "192028.279000", "192028.282000", "192028.284000", "192028.287000", "192028.289000", "192028.292000", "192028.295000", "192028.297000", "192028.300000", "192028.302000", "192028.305000", "192028.307000", "192028.310000", "192028.314000", "192028.317000", "192028.319000", "192108.264000", "192108.267000", "192108.270000", "192108.272000", "192108.275000", "192108.277000", "192108.280000", "192108.282000", "192108.285000", "192108.287000", "192108.290000", "192108.293000", "192108.295000", "192108.298000", "192108.300000", "192108.303000", "192108.305000", "192108.308000", "192108.311000", "192108.313000", "192108.316000", "192108.318000", "192108.321000", "192108.323000", "192108.326000", "192108.328000", "192108.331000", "192148.245000", "192148.248000", "192148.250000", "192148.253000", "192148.255000", "192148.258000", "192148.260000", "192148.263000", "192148.266000", "192148.268000", "192148.271000", "192148.273000", "192148.276000", "192148.278000", "192148.281000", "192148.283000", "192148.286000", "192148.289000", "192148.291000", "192148.294000", "192148.296000", "192148.299000", "192148.301000", "192148.304000", "192148.314000", "192148.316000", "192148.319000", "192228.258000", "192228.261000", "192228.264000", "192228.267000", "192228.269000", "192228.272000", "192228.284000", "192228.287000", "192228.289000", "192228.292000", "192228.295000", "192228.297000", "192228.300000", "192228.302000", "192228.305000", "192228.307000", "192228.310000", "192228.312000", "192228.315000", "192228.318000", "192228.320000", "192228.323000", "192228.325000", "192228.328000", "192228.330000", "192228.333000", "192228.336000", "192255.979000", "192255.982000", "192255.985000", "192255.987000", "192255.990000", "192255.992000", "192255.995000", "192255.997000", "192256.001000", "192256.004000", "192256.006000", "192256.009000", "192256.011000", "192256.014000", "192256.017000", "192256.019000", "192256.022000", "192256.024000"],
      "InstanceCreationTime": ["191508.238000", "191508.241000", "191508.244000", "191508.246000", "191508.249000", "191508.251000", "191508.254000", "191508.256000", "191508.259000", "191508.261000", "191508.264000", "191508.266000", "191508.269000", "191508.272000", "191528.213000", "191528.216000", "191528.219000", "191528.221000", "191528.223000", "191528.226000", "191528.229000", "191528.231000", "191528.234000", "191528.236000", "191528.239000", "191528.241000", "191528.244000", "191528.246000", "191528.249000", "191528.251000", "191528.254000", "191528.256000", "191528.259000", "191528.269000", "191548.223000", "191548.226000", "191548.229000", "191548.231000", "191548.234000", "191548.236000", "191548.239000", "191548.242000", "191548.244000", "191548.247000", "191548.249000", "191548.252000", "191548.254000", "191548.257000", "191548.260000", "191548.262000", "191548.265000", "191548.267000", "191548.270000", "191548.273000", "191608.221000", "191608.224000", "191608.226000", "191608.229000", "191608.232000", "191608.234000", "191608.237000", "191608.239000", "191608.242000", "191608.244000", "191608.247000", "191608.250000", "191608.252000", "191608.255000", "191608.257000", "191608.260000", "191608.262000", "191608.265000", "191608.267000", "191608.270000", "191628.226000", "191628.229000", "191628.231000", "191628.234000", "191628.236000", "191628.239000", "191628.241000", "191628.244000", "191628.247000", "191628.249000", "191628.252000", "191628.254000", "191628.257000", "191628.259000", "191628.262000", "191628.264000", "191628.267000", "191628.270000", "191628.272000", "191628.274000", "191628.277000", "191708.252000", "191708.254000", "191708.257000", "191708.260000", "191708.262000", "191708.265000", "191708.267000", "191708.270000", "191708.272000", "191708.275000", "191708.278000", "191708.280000", "191708.283000", "191708.285000", "191708.288000", "191708.290000", "191708.293000", "191708.295000", "191708.298000", "191708.300000", "191708.303000", "191708.305000", "191708.308000", "191708.310000", "191708.313000", "191708.316000", "191708.318000", "191748.248000", "191748.250000", "191748.253000", "191748.255000", "191748.258000", "191748.261000", "191748.263000", "191748.266000", "191748.268000", "191748.271000", "191748.274000", "191748.276000", "191748.279000", "191748.281000", "191748.284000", "191748.287000", "191748.289000", "191748.292000", "191748.294000", "191748.297000", "191748.299000", "191748.302000", "191748.304000", "191748.307000", "191748.310000", "191748.312000", "191748.315000", "191828.263000", "191828.266000", "191828.269000", "191828.271000", "191828.274000", "191828.276000", "191828.279000", "191828.282000", "191828.284000", "191828.287000", "191828.289000", "191828.292000", "191828.294000", "191828.297000", "191828.299000", "191828.302000", "191828.305000", "191828.307000", "191828.310000", "191828.312000", "191828.315000", "191828.317000", "191828.320000", "191828.322000", "191828.325000", "191828.327000", "191828.330000", "191908.257000", "191908.260000", "191908.263000", "191908.265000", "191908.268000", "191908.270000", "191908.273000", "191908.275000", "191908.278000", "191908.280000", "191908.283000", "191908.286000", "191908.288000", "191908.291000", "191908.293000", "191908.296000", "191908.298000", "191908.300000", "191908.303000", "191908.306000", "191908.308000", "191908.311000", "191908.313000", "191908.316000", "191908.318000", "191908.321000", "191908.324000", "191948.648000", "191948.651000", "191948.653000", "191948.656000", "191948.658000", "191948.661000", "191948.663000", "191948.666000", "191948.668000", "191948.671000", "191948.673000", "191948.676000", "191948.679000", "191948.681000", "191948.684000", "191948.686000", "191948.689000", "191948.691000", "191948.703000", "191948.705000", "191948.708000", "191948.710000", "191948.713000", "191948.716000", "191948.718000", "191948.721000", "192028.250000", "192028.253000", "192028.256000", "192028.258000", "192028.261000", "192028.264000", "192028.266000", "192028.269000", "192028.272000", "192028.274000", "192028.277000", "192028.279000", "192028.282000", "192028.284000", "192028.287000", "192028.289000", "192028.292000", "192028.295000", "192028.297000", "192028.300000", "192028.302000", "192028.305000", "192028.307000", "192028.310000", "192028.314000", "192028.317000", "192028.319000", "192108.264000", "192108.267000", "192108.270000", "192108.272000", "192108.275000", "192108.277000", "192108.280000", "192108.282000", "192108.285000", "192108.287000", "192108.290000", "192108.293000", "192108.295000", "192108.298000", "192108.300000", "192108.303000", "192108.305000", "192108.308000", "192108.311000", "192108.313000", "192108.316000", "192108.318000", "192108.321000", "192108.323000", "192108.326000", "192108.328000", "192108.331000", "192148.245000", "192148.248000", "192148.250000", "192148.253000", "192148.255000", "192148.258000", "192148.260000", "192148.263000", "192148.266000", "192148.268000", "192148.271000", "192148.273000", "192148.276000", "192148.278000", "192148.281000", "192148.283000", "192148.286000", "192148.289000", "192148.291000", "192148.294000", "192148.296000", "192148.299000", "192148.301000", "192148.304000", "192148.314000", "192148.316000", "192148.319000", "192228.258000", "192228.261000", "192228.264000", "192228.267000", "192228.269000", "192228.272000", "192228.284000", "192228.287000", "192228.289000", "192228.292000", "192228.295000", "192228.297000", "192228.300000", "192228.302000", "192228.305000", "192228.307000", "192228.310000", "192228.312000", "192228.315000", "192228.318000", "192228.320000", "192228.323000", "192228.325000", "192228.328000", "192228.330000", "192228.333000", "192228.336000", "192255.979000", "192255.982000", "192255.985000", "192255.987000", "192255.990000", "192255.992000", "192255.995000", "192255.997000", "192256.001000", "192256.004000", "192256.006000", "192256.009000", "192256.011000", "192256.014000", "192256.017000", "192256.019000", "192256.022000", "192256.024000"],
      "InstanceNumber": [1, 2, 3, 4, 5, 6, 7, 8, 9, 10, 11, 12, 13, 14, 15, 16, 17, 18, 19, 20, 21, 22, 23, 24, 25, 26, 27, 28, 29, 30, 31, 32, 33, 34, 35, 36, 37, 38, 39, 40, 41, 42, 43, 44, 45, 46, 47, 48, 49, 50, 51, 52, 53, 54, 55, 56, 57, 58, 59, 60, 61, 62, 63, 64, 65, 66, 67, 68, 69, 70, 71, 72, 73, 74, 75, 76, 77, 78, 79, 80, 81, 82, 83, 84, 85, 86, 87, 88, 89, 90, 91, 92, 93, 94, 95, 96, 97, 98, 99, 100, 101, 102, 103, 104, 105, 106, 107, 108, 109, 110, 111, 112, 113, 114, 115, 116, 117, 118, 119, 120, 121, 122, 123, 124, 125, 126, 127, 128, 129, 130, 131, 132, 133, 134, 135, 136, 137, 138, 139, 140, 141, 142, 143, 144, 145, 146, 147, 148, 149, 150, 151, 152, 153, 154, 155, 156, 157, 158, 159, 160, 161, 162, 163, 164, 165, 166, 167, 168, 169, 170, 171, 172, 173, 174, 175, 176, 177, 178, 179, 180, 181, 182, 183, 184, 185, 186, 187, 188, 189, 190, 191, 192, 193, 194, 195, 196, 197, 198, 199, 200, 201, 202, 203, 204, 205, 206, 207, 208, 209, 210, 211, 212, 213, 214, 215, 216, 217, 218, 219, 220, 221, 222, 223, 224, 225, 226, 227, 228, 229, 230, 231, 232, 233, 234, 235, 236, 237, 238, 239, 240, 241, 242, 243, 244, 245, 246, 247, 248, 249, 250, 251, 252, 253, 254, 255, 256, 257, 258, 259, 260, 261, 262, 263, 264, 265, 266, 267, 268, 269, 270, 271, 272, 273, 274, 275, 276, 277, 278, 279, 280, 281, 282, 283, 284, 285, 286, 287, 288, 289, 290, 291, 292, 293, 294, 295, 296, 297, 298, 299, 300, 301, 302, 303, 304, 305, 306, 307, 308, 309, 310, 311, 312, 313, 314, 315, 316, 317, 318, 319, 320, 321, 322, 323, 324, 325, 326, 327, 328, 329, 330, 331, 332, 333, 334, 335, 336, 337, 338, 339, 340, 341, 342, 343, 344, 345, 346, 347, 348, 349, 350, 351, 352, 353, 354, 355],
