{
  "AcquisitionMatrixPE": 104,
  "AcquisitionNumber": 1,
  "AcquisitionTime": "11:40:12.372500",
  "BandwidthPerPixelPhaseEncode": 17.17,
  "BaseResolution": 104,
  "BodyPartExamined": "BRAIN",
  "CoilCombinationMethod": "Sum of Squares",
  "ConsistencyInfo": "N4_VE11C_LATEST_20160120",
  "ConversionSoftware": "dcm2niix",
  "ConversionSoftwareVersion": "v1.0.20220505",
  "DerivedVendorReportedEchoSpacing": 0.000560011,
  "DeviceSerialNumber": "167006",
  "DwellTime": 2.1e-06,
  "EchoTime": 0.037,
  "EchoTime1": 0.037,
  "EchoTime2": 0.001,
  "EchoTrainLength": 104,
  "EffectiveEchoSpacing": 0.000560011,
  "FlipAngle": 52,
  "HeudiconvVersion": "0.5.3.post811+g6206e14",
  "ImageComments": "Unaliased MB4/PE3/LB",
  "ImageOrientationPatientDICOM": [0.995286, 0.0931666, 0.0269544, -0.07536, 0.917825, -0.389766],
  "ImageOrientationText": "Tra>Cor(-22.7)>Sag(3.5)",
  "ImageType": [
    "ORIGINAL",
    "PRIMARY",
    "P",
    "MB",
    "ND",
    "MOSAIC",
    "PHASE"
],
  "ImagingFrequency": 123.259,
  "InPlanePhaseEncodingDirectionDICOM": "COL",
  "InstitutionAddress": "Chemin Queen-Mary 4565,Montreal,District,CA,H3W 1W5",
  "InstitutionName": "IUGM",
  "InstitutionalDepartmentName": "Department",
  "MRAcquisitionType": "2D",
  "MagneticFieldStrength": 3,
  "Manufacturer": "Siemens",
  "ManufacturersModelName": "Prisma_fit",
  "MatrixCoilMode": "SENSE",
  "Modality": "MR",
  "MultibandAccelerationFactor": 4,
  "PartialFourier": 1,
  "PatientPosition": "HFS",
  "PercentPhaseFOV": 100,
  "PercentSampling": 100,
  "PhaseEncodingDirection": "j",
  "PhaseEncodingSteps": 104,
  "PhaseResolution": 1,
  "PixelBandwidth": 2290,
  "ProcedureStepDescription": "games^mario3",
  "ProtocolName": "func_task-mario3_run-01",
  "PulseSequenceDetails": "%CustomerSeq%\\cmrr_mbep2d_bold",
  "ReceiveCoilActiveElements": "HC1-7;NC1,2",
  "ReceiveCoilName": "HeadNeck_64",
  "ReconMatrixPE": 104,
  "RepetitionTime": 1.49,
  "SAR": 0.0837087,
  "ScanOptions": "FS",
  "ScanningSequence": "EP",
  "SequenceName": "epfid2d1_104",
  "SequenceVariant": "SK\\SS",
  "SeriesDescription": "func_task-mario3_run-01",
  "SeriesNumber": 11,
  "ShimSetting": [600, -7232, -8821, 608, 110, -50, -129, 82],
  "SliceThickness": 2,
  "SliceTiming": [0, 0.785, 0.0975, 0.8825, 0.195, 0.98, 0.295, 1.0775, 0.3925, 1.175, 0.49, 1.275, 0.5875, 1.3725, 0.685, 0, 0.785, 0.0975, 0.8825, 0.195, 0.98, 0.295, 1.0775, 0.3925, 1.175, 0.49, 1.275, 0.5875, 1.3725, 0.685, 0, 0.785, 0.0975, 0.8825, 0.195, 0.98, 0.295, 1.0775, 0.3925, 1.175, 0.49, 1.275, 0.5875, 1.3725, 0.685, 0, 0.785, 0.0975, 0.8825, 0.195, 0.98, 0.295, 1.0775, 0.3925, 1.175, 0.49, 1.275, 0.5875, 1.3725, 0.685],
  "SoftwareVersions": "syngo MR E11",
  "SpacingBetweenSlices": 2,
  "StationName": "MRC35049",
  "TaskName": "mario3",
  "TotalReadoutTime": 0.0576811,
  "TxRefAmp": 310.44,
  "WipMemBlock": "54ccbad0-f05b-40bd-ae7d-5225e59c4a4f||Sequence: R017 ve11c/master r/75a17815+; Jun 28 2022 16:32:11 by eja",
  "dcmmeta_affine": [
    [-1.9905712604522705, -0.15072008967399597, 0.12210506200790405, 111.7552490234375],
    [-0.18633314967155457, 1.83565092086792, -0.7717939019203186, -56.160953521728516],
    [0.053908709436655045, 0.7795314788818359, 1.8410390615463257, -71.87001037597656],
    [0.0, 0.0, 0.0, 1.0]
],
  "dcmmeta_reorient_transform": [
    [0.0, -1.0, 0.0, 103.0],
    [1.0, 0.0, 0.0, 0.0],
    [0.0, 0.0, 1.0, 0.0],
    [0.0, 0.0, 0.0, 1.0]
],
  "dcmmeta_shape": [104, 104, 60, 296],
  "dcmmeta_slice_dim": 2,
  "dcmmeta_version": 0.6,
  "global": {
    "const": {
      "AcquisitionMatrix": [104, 0, 0, 104],
      "AngioFlag": "N",
      "BitsAllocated": 16,
      "BitsStored": 16,
      "BodyPartExamined": "BRAIN",
      "Columns": 832,
      "EchoNumbers": 1,
      "EchoTime": 37.0,
      "EchoTrainLength": 104,
      "FlipAngle": 52.0,
      "HighBit": 15,
      "ImageOrientationPatient": [0.99528561336371, 0.09316657464484, 0.02695435401141, -0.0753600455196, 0.91782544167288, -0.3897657272738],
      "ImagePositionPatient": [-765.93689579338, -868.91327711675, 272.54841268247],
      "ImageType": [
        "ORIGINAL",
        "PRIMARY",
        "P",
        "MB",
        "ND",
        "MOSAIC"
],
      "ImagedNucleus": "1H",
      "ImagingFrequency": 123.259088,
      "InPlanePhaseEncodingDirection": "COL",
      "LargestImagePixelValue": 4095,
      "MRAcquisitionType": "2D",
      "MagneticFieldStrength": 3.0,
      "Manufacturer": "SIEMENS",
      "ManufacturerModelName": "Prisma_fit",
      "Modality": "MR",
      "NumberOfAverages": 1.0,
      "NumberOfPhaseEncodingSteps": 104,
      "PercentPhaseFieldOfView": 100.0,
      "PercentSampling": 100.0,
      "PerformedProcedureStepStartTime": "113637.223000",
      "PhotometricInterpretation": "MONOCHROME2",
      "PixelBandwidth": 2290.0,
      "PixelRepresentation": 0,
      "PixelSpacing": [2.0, 2.0],
      "ProtocolName": "func_task-mario3_run-01",
      "RepetitionTime": 1490.0,
      "RescaleIntercept": -4096.0,
      "RescaleSlope": 2.0,
      "RescaleType": "US",
      "Rows": 832,
      "SAR": 0.08370870493739,
      "SamplesPerPixel": 1,
      "ScanOptions": "FS",
      "ScanningSequence": "EP",
      "SequenceName": "epfid2d1_104",
      "SequenceVariant": [
        "SK",
        "SS"
],
      "SeriesDescription": "func_task-mario3_run-01",
      "SeriesNumber": 11,
      "SeriesTime": "114132.366000",
      "SliceLocation": -37.662462208175,
      "SliceThickness": 2.0,
      "SmallestImagePixelValue": 0,
      "SoftwareVersions": "syngo MR E11",
      "SpacingBetweenSlices": 2.0000000501357,
      "SpecificCharacterSet": "ISO_IR 100",
      "StudyID": "1",
      "StudyTime": "113637.147000",
      "TransmitCoilName": "Body",
      "VariableFlipAngleFlag": "N",
      "WindowCenterWidthExplanation": "Algo1",
      "dBdt": 0.0},
    "slices": {}
  },
  "time": {
    "samples": {
      "AcquisitionNumber": [1, 2, 3, 4, 5, 6, 7, 8, 9, 10, 11, 12, 13, 14, 15, 16, 17, 18, 19, 20, 21, 22, 23, 24, 25, 26, 27, 28, 29, 30, 31, 32, 33, 34, 35, 36, 37, 38, 39, 40, 41, 42, 43, 44, 45, 46, 47, 48, 49, 50, 51, 52, 53, 54, 55, 56, 57, 58, 59, 60, 61, 62, 63, 64, 65, 66, 67, 68, 69, 70, 71, 72, 73, 74, 75, 76, 77, 78, 79, 80, 81, 82, 83, 84, 85, 86, 87, 88, 89, 90, 91, 92, 93, 94, 95, 96, 97, 98, 99, 100, 101, 102, 103, 104, 105, 106, 107, 108, 109, 110, 111, 112, 113, 114, 115, 116, 117, 118, 119, 120, 121, 122, 123, 124, 125, 126, 127, 128, 129, 130, 131, 132, 133, 134, 135, 136, 137, 138, 139, 140, 141, 142, 143, 144, 145, 146, 147, 148, 149, 150, 151, 152, 153, 154, 155, 156, 157, 158, 159, 160, 161, 162, 163, 164, 165, 166, 167, 168, 169, 170, 171, 172, 173, 174, 175, 176, 177, 178, 179, 180, 181, 182, 183, 184, 185, 186, 187, 188, 189, 190, 191, 192, 193, 194, 195, 196, 197, 198, 199, 200, 201, 202, 203, 204, 205, 206, 207, 208, 209, 210, 211, 212, 213, 214, 215, 216, 217, 218, 219, 220, 221, 222, 223, 224, 225, 226, 227, 228, 229, 230, 231, 232, 233, 234, 235, 236, 237, 238, 239, 240, 241, 242, 243, 244, 245, 246, 247, 248, 249, 250, 251, 252, 253, 254, 255, 256, 257, 258, 259, 260, 261, 262, 263, 264, 265, 266, 267, 268, 269, 270, 271, 272, 273, 274, 275, 276, 277, 278, 279, 280, 281, 282, 283, 284, 285, 286, 287, 288, 289, 290, 291, 292, 293, 294, 295, 296],
      "AcquisitionTime": ["114012.372500", "114013.862500", "114015.352500", "114016.842500", "114018.332500", "114019.822500", "114021.312500", "114022.802500", "114024.292500", "114025.782500", "114027.272500", "114028.762500", "114030.252500", "114031.742500", "114033.232500", "114034.722500", "114036.212500", "114037.702500", "114039.192500", "114040.682500", "114042.172500", "114043.662500", "114045.152500", "114046.642500", "114048.132500", "114049.622500", "114051.112500", "114052.602500", "114054.092500", "114055.582500", "114057.072500", "114058.562500", "114100.052500", "114101.542500", "114103.032500", "114104.522500", "114106.012500", "114107.502500", "114108.992500", "114110.482500", "114111.972500", "114113.462500", "114114.952500", "114116.442500", "114117.932500", "114119.422500", "114120.912500", "114122.402500", "114123.892500", "114125.382500", "114126.872500", "114128.362500", "114129.852500", "114131.342500", "114132.832500", "114134.322500", "114135.812500", "114137.302500", "114138.792500", "114140.282500", "114141.772500", "114143.262500", "114144.752500", "114146.242500", "114147.732500", "114149.222500", "114150.712500", "114152.202500", "114153.692500", "114155.182500", "114156.672500", "114158.162500", "114159.652500", "114201.142500", "114202.632500", "114204.122500", "114205.612500", "114207.102500", "114208.592500", "114210.082500", "114211.572500", "114213.062500", "114214.552500", "114216.042500", "114217.532500", "114219.022500", "114220.512500", "114222.002500", "114223.492500", "114224.982500", "114226.472500", "114227.962500", "114229.452500", "114230.942500", "114232.432500", "114233.922500", "114235.412500", "114236.902500", "114238.392500", "114239.882500", "114241.372500", "114242.862500", "114244.352500", "114245.842500", "114247.332500", "114248.822500", "114250.312500", "114251.802500", "114253.292500", "114254.782500", "114256.272500", "114257.762500", "114259.252500", "114300.742500", "114302.232500", "114303.722500", "114305.212500", "114306.702500", "114308.192500", "114309.682500", "114311.172500", "114312.662500", "114314.152500", "114315.642500", "114317.132500", "114318.622500", "114320.112500", "114321.602500", "114323.092500", "114324.582500", "114326.072500", "114327.562500", "114329.052500", "114330.542500", "114332.032500", "114333.522500", "114335.012500", "114336.502500", "114337.992500", "114339.482500", "114340.972500", "114342.462500", "114343.952500", "114345.442500", "114346.932500", "114348.422500", "114349.912500", "114351.402500", "114352.892500", "114354.382500", "114355.872500", "114357.362500", "114358.852500", "114400.342500", "114401.832500", "114403.322500", "114404.812500", "114406.302500", "114407.792500", "114409.282500", "114410.772500", "114412.262500", "114413.752500", "114415.242500", "114416.732500", "114418.222500", "114419.712500", "114421.202500", "114422.692500", "114424.182500", "114425.672500", "114427.162500", "114428.652500", "114430.142500", "114431.632500", "114433.122500", "114434.612500", "114436.102500", "114437.592500", "114439.082500", "114440.572500", "114442.062500", "114443.552500", "114445.042500", "114446.532500", "114448.022500", "114449.512500", "114451.002500", "114452.492500", "114453.982500", "114455.472500", "114456.962500", "114458.452500", "114459.942500", "114501.432500", "114502.922500", "114504.412500", "114505.902500", "114507.392500", "114508.882500", "114510.372500", "114511.862500", "114513.352500", "114514.842500", "114516.332500", "114517.822500", "114519.312500", "114520.802500", "114522.292500", "114523.782500", "114525.272500", "114526.762500", "114528.252500", "114529.742500", "114531.232500", "114532.722500", "114534.212500", "114535.702500", "114537.192500", "114538.682500", "114540.172500", "114541.662500", "114543.152500", "114544.642500", "114546.132500", "114547.622500", "114549.112500", "114550.602500", "114552.092500", "114553.582500", "114555.072500", "114556.562500", "114558.052500", "114559.542500", "114601.032500", "114602.522500", "114604.012500", "114605.502500", "114606.992500", "114608.482500", "114609.972500", "114611.462500", "114612.952500", "114614.442500", "114615.932500", "114617.422500", "114618.912500", "114620.402500", "114621.892500", "114623.382500", "114624.872500", "114626.362500", "114627.852500", "114629.342500", "114630.832500", "114632.322500", "114633.812500", "114635.302500", "114636.792500", "114638.282500", "114639.772500", "114641.262500", "114642.752500", "114644.242500", "114645.732500", "114647.222500", "114648.712500", "114650.202500", "114651.692500", "114653.182500", "114654.672500", "114656.162500", "114657.652500", "114659.142500", "114700.632500", "114702.122500", "114703.612500", "114705.102500", "114706.592500", "114708.082500", "114709.572500", "114711.062500", "114712.552500", "114714.042500", "114715.532500", "114717.022500", "114718.512500", "114720.002500", "114721.492500", "114722.982500", "114724.472500", "114725.962500", "114727.452500", "114728.942500", "114730.432500", "114731.922500"],
      "ContentTime": ["114132.368000", "114132.371000", "114132.373000", "114132.376000", "114132.378000", "114132.381000", "114132.384000", "114132.386000", "114132.389000", "114132.391000", "114132.394000", "114132.396000", "114132.399000", "114132.401000", "114132.404000", "114132.406000", "114132.409000", "114132.411000", "114132.414000", "114132.416000", "114132.419000", "114132.421000", "114132.424000", "114132.426000", "114132.429000", "114132.431000", "114132.434000", "114132.436000", "114132.439000", "114132.441000", "114152.268000", "114152.271000", "114152.273000", "114152.276000", "114152.278000", "114152.281000", "114152.283000", "114152.286000", "114152.288000", "114152.291000", "114152.293000", "114152.296000", "114152.298000", "114152.301000", "114152.303000", "114152.306000", "114152.308000", "114152.310000", "114152.313000", "114152.316000", "114212.283000", "114212.285000", "114212.288000", "114212.291000", "114212.293000", "114212.295000", "114212.304000", "114212.306000", "114212.309000", "114212.311000", "114212.314000", "114212.317000", "114212.319000", "114212.322000", "114212.324000", "114212.327000", "114212.329000", "114212.332000", "114212.335000", "114212.337000", "114232.278000", "114232.280000", "114232.283000", "114232.285000", "114232.288000", "114232.291000", "114232.293000", "114232.296000", "114232.298000", "114232.301000", "114232.303000", "114232.306000", "114232.308000", "114232.311000", "114232.313000", "114232.316000", "114232.318000", "114232.321000", "114232.323000", "114232.325000", "114232.328000", "114312.332000", "114312.335000", "114312.337000", "114312.348000", "114312.351000", "114312.353000", "114312.356000", "114312.359000", "114312.361000", "114312.364000", "114312.366000", "114312.369000", "114312.371000", "114312.374000", "114312.376000", "114312.379000", "114312.381000", "114312.384000", "114312.386000", "114312.389000", "114312.391000", "114312.394000", "114312.396000", "114312.399000", "114312.401000", "114312.403000", "114312.406000", "114312.409000", "114312.411000", "114352.306000", "114352.309000", "114352.311000", "114352.314000", "114352.316000", "114352.319000", "114352.321000", "114352.324000", "114352.326000", "114352.329000", "114352.331000", "114352.333000", "114352.336000", "114352.338000", "114352.341000", "114352.343000", "114352.346000", "114352.348000", "114352.351000", "114352.353000", "114352.356000", "114352.358000", "114352.360000", "114352.363000", "114352.365000", "114352.368000", "114352.370000", "114432.314000", "114432.317000", "114432.319000", "114432.322000", "114432.324000", "114432.327000", "114432.329000", "114432.332000", "114432.334000", "114432.336000", "114432.339000", "114432.342000", "114432.344000", "114432.346000", "114432.349000", "114432.351000", "114432.354000", "114432.356000", "114432.359000", "114432.361000", "114432.364000", "114432.366000", "114432.369000", "114432.371000", "114432.374000", "114432.376000", "114432.379000", "114512.311000", "114512.314000", "114512.316000", "114512.319000", "114512.321000", "114512.324000", "114512.326000", "114512.329000", "114512.331000", "114512.334000", "114512.336000", "114512.339000", "114512.341000", "114512.344000", "114512.346000", "114512.349000", "114512.351000", "114512.353000", "114512.356000", "114512.358000", "114512.361000", "114512.363000", "114512.366000", "114512.368000", "114512.371000", "114512.373000", "114512.376000", "114552.902000", "114552.904000", "114552.907000", "114552.909000", "114552.912000", "114552.914000", "114552.917000", "114552.919000", "114552.922000", "114552.924000", "114552.927000", "114552.929000", "114552.932000", "114552.935000", "114552.937000", "114552.939000", "114552.942000", "114552.945000", "114552.947000", "114552.949000", "114552.952000", "114552.955000", "114552.957000", "114552.960000", "114552.962000", "114552.965000", "114632.322000", "114632.325000", "114632.328000", "114632.331000", "114632.333000", "114632.336000", "114632.338000", "114632.341000", "114632.343000", "114632.346000", "114632.348000", "114632.351000", "114632.354000", "114632.356000", "114632.359000", "114632.361000", "114632.364000", "114632.366000", "114632.369000", "114632.371000", "114632.374000", "114632.377000", "114632.379000", "114632.382000", "114632.384000", "114632.387000", "114632.389000", "114712.313000", "114712.316000", "114712.319000", "114712.321000", "114712.323000", "114712.326000", "114712.328000", "114712.331000", "114712.333000", "114712.336000", "114712.338000", "114712.341000", "114712.343000", "114712.346000", "114712.348000", "114712.351000", "114712.353000", "114712.356000", "114712.358000", "114712.361000", "114712.363000", "114712.366000", "114712.368000", "114712.371000", "114712.373000", "114712.376000", "114712.378000", "114734.586000", "114734.589000", "114734.592000", "114734.594000", "114734.597000", "114734.599000", "114734.602000", "114734.604000", "114734.607000", "114734.609000", "114734.612000", "114734.614000", "114734.617000", "114734.620000", "114734.622000"],
      "InstanceCreationTime": ["114132.368000", "114132.371000", "114132.373000", "114132.376000", "114132.378000", "114132.381000", "114132.384000", "114132.386000", "114132.389000", "114132.391000", "114132.394000", "114132.396000", "114132.399000", "114132.401000", "114132.404000", "114132.406000", "114132.409000", "114132.411000", "114132.414000", "114132.416000", "114132.419000", "114132.421000", "114132.424000", "114132.426000", "114132.429000", "114132.431000", "114132.434000", "114132.436000", "114132.439000", "114132.441000", "114152.268000", "114152.271000", "114152.273000", "114152.276000", "114152.278000", "114152.281000", "114152.283000", "114152.286000", "114152.288000", "114152.291000", "114152.293000", "114152.296000", "114152.298000", "114152.301000", "114152.303000", "114152.306000", "114152.308000", "114152.310000", "114152.313000", "114152.316000", "114212.283000", "114212.285000", "114212.288000", "114212.291000", "114212.293000", "114212.295000", "114212.304000", "114212.306000", "114212.309000", "114212.311000", "114212.314000", "114212.317000", "114212.319000", "114212.322000", "114212.324000", "114212.327000", "114212.329000", "114212.332000", "114212.335000", "114212.337000", "114232.278000", "114232.280000", "114232.283000", "114232.285000", "114232.288000", "114232.291000", "114232.293000", "114232.296000", "114232.298000", "114232.301000", "114232.303000", "114232.306000", "114232.308000", "114232.311000", "114232.313000", "114232.316000", "114232.318000", "114232.321000", "114232.323000", "114232.325000", "114232.328000", "114312.332000", "114312.335000", "114312.337000", "114312.348000", "114312.351000", "114312.353000", "114312.356000", "114312.359000", "114312.361000", "114312.364000", "114312.366000", "114312.369000", "114312.371000", "114312.374000", "114312.376000", "114312.379000", "114312.381000", "114312.384000", "114312.386000", "114312.389000", "114312.391000", "114312.394000", "114312.396000", "114312.399000", "114312.401000", "114312.403000", "114312.406000", "114312.409000", "114312.411000", "114352.306000", "114352.309000", "114352.311000", "114352.314000", "114352.316000", "114352.319000", "114352.321000", "114352.324000", "114352.326000", "114352.329000", "114352.331000", "114352.333000", "114352.336000", "114352.338000", "114352.341000", "114352.343000", "114352.346000", "114352.348000", "114352.351000", "114352.353000", "114352.356000", "114352.358000", "114352.360000", "114352.363000", "114352.365000", "114352.368000", "114352.370000", "114432.314000", "114432.317000", "114432.319000", "114432.322000", "114432.324000", "114432.327000", "114432.329000", "114432.332000", "114432.334000", "114432.336000", "114432.339000", "114432.342000", "114432.344000", "114432.346000", "114432.349000", "114432.351000", "114432.354000", "114432.356000", "114432.359000", "114432.361000", "114432.364000", "114432.366000", "114432.369000", "114432.371000", "114432.374000", "114432.376000", "114432.379000", "114512.311000", "114512.314000", "114512.316000", "114512.319000", "114512.321000", "114512.324000", "114512.326000", "114512.329000", "114512.331000", "114512.334000", "114512.336000", "114512.339000", "114512.341000", "114512.344000", "114512.346000", "114512.349000", "114512.351000", "114512.353000", "114512.356000", "114512.358000", "114512.361000", "114512.363000", "114512.366000", "114512.368000", "114512.371000", "114512.373000", "114512.376000", "114552.902000", "114552.904000", "114552.907000", "114552.909000", "114552.912000", "114552.914000", "114552.917000", "114552.919000", "114552.922000", "114552.924000", "114552.927000", "114552.929000", "114552.932000", "114552.935000", "114552.937000", "114552.939000", "114552.942000", "114552.945000", "114552.947000", "114552.949000", "114552.952000", "114552.955000", "114552.957000", "114552.960000", "114552.962000", "114552.965000", "114632.322000", "114632.325000", "114632.328000", "114632.331000", "114632.333000", "114632.336000", "114632.338000", "114632.341000", "114632.343000", "114632.346000", "114632.348000", "114632.351000", "114632.354000", "114632.356000", "114632.359000", "114632.361000", "114632.364000", "114632.366000", "114632.369000", "114632.371000", "114632.374000", "114632.377000", "114632.379000", "114632.382000", "114632.384000", "114632.387000", "114632.389000", "114712.313000", "114712.316000", "114712.319000", "114712.321000", "114712.323000", "114712.326000", "114712.328000", "114712.331000", "114712.333000", "114712.336000", "114712.338000", "114712.341000", "114712.343000", "114712.346000", "114712.348000", "114712.351000", "114712.353000", "114712.356000", "114712.358000", "114712.361000", "114712.363000", "114712.366000", "114712.368000", "114712.371000", "114712.373000", "114712.376000", "114712.378000", "114734.586000", "114734.589000", "114734.592000", "114734.594000", "114734.597000", "114734.599000", "114734.602000", "114734.604000", "114734.607000", "114734.609000", "114734.612000", "114734.614000", "114734.617000", "114734.620000", "114734.622000"],
      "InstanceNumber": [1, 2, 3, 4, 5, 6, 7, 8, 9, 10, 11, 12, 13, 14, 15, 16, 17, 18, 19, 20, 21, 22, 23, 24, 25, 26, 27, 28, 29, 30, 31, 32, 33, 34, 35, 36, 37, 38, 39, 40, 41, 42, 43, 44, 45, 46, 47, 48, 49, 50, 51, 52, 53, 54, 55, 56, 57, 58, 59, 60, 61, 62, 63, 64, 65, 66, 67, 68, 69, 70, 71, 72, 73, 74, 75, 76, 77, 78, 79, 80, 81, 82, 83, 84, 85, 86, 87, 88, 89, 90, 91, 92, 93, 94, 95, 96, 97, 98, 99, 100, 101, 102, 103, 104, 105, 106, 107, 108, 109, 110, 111, 112, 113, 114, 115, 116, 117, 118, 119, 120, 121, 122, 123, 124, 125, 126, 127, 128, 129, 130, 131, 132, 133, 134, 135, 136, 137, 138, 139, 140, 141, 142, 143, 144, 145, 146, 147, 148, 149, 150, 151, 152, 153, 154, 155, 156, 157, 158, 159, 160, 161, 162, 163, 164, 165, 166, 167, 168, 169, 170, 171, 172, 173, 174, 175, 176, 177, 178, 179, 180, 181, 182, 183, 184, 185, 186, 187, 188, 189, 190, 191, 192, 193, 194, 195, 196, 197, 198, 199, 200, 201, 202, 203, 204, 205, 206, 207, 208, 209, 210, 211, 212, 213, 214, 215, 216, 217, 218, 219, 220, 221, 222, 223, 224, 225, 226, 227, 228, 229, 230, 231, 232, 233, 234, 235, 236, 237, 238, 239, 240, 241, 242, 243, 244, 245, 246, 247, 248, 249, 250, 251, 252, 253, 254, 255, 256, 257, 258, 259, 260, 261, 262, 263, 264, 265, 266, 267, 268, 269, 270, 271, 272, 273, 274, 275, 276, 277, 278, 279, 280, 281, 282, 283, 284, 285, 286, 287, 288, 289, 290, 291, 292, 293, 294, 295, 296],
      "WindowCenter": [4768.0, 4748.0, 4752.0, 4768.0, 4748.0, 4768.0, 4768.0, 4774.0, 4768.0, 4770.0, 4768.0, 4776.0, 4774.0, 4752.0, 4776.0, 4772.0, 4768.0, 4774.0, 4772.0, 4772.0, 4772.0, 4778.0, 4774.0, 4774.0, 4778.0, 4774.0, 4774.0, 4776.0, 4774.0, 4774.0, 4770.0, 4776.0, 4772.0, 4772.0, 4776.0, 4774.0, 4774.0, 4774.0, 4774.0, 4770.0, 4770.0, 4774.0, 4772.0, 4776.0, 4772.0, 4774.0, 4778.0, 4778.0, 4776.0, 4750.0, 4774.0, 4772.0, 4774.0, 4774.0, 4776.0, 4776.0, 4774.0, 4778.0, 4776.0, 4774.0, 4778.0, 4774.0, 4776.0, 4774.0, 4776.0, 4776.0, 4776.0, 4778.0, 4780.0, 4776.0, 4778.0, 4778.0, 4776.0, 4778.0, 4776.0, 4776.0, 4776.0, 4778.0, 4776.0, 4776.0, 4776.0, 4778.0, 4774.0, 4778.0, 4778.0, 4776.0, 4776.0, 4776.0, 4776.0, 4774.0, 4778.0, 4778.0, 4782.0, 4780.0, 4780.0, 4776.0, 4778.0, 4778.0, 4776.0, 4776.0, 4780.0, 4780.0, 4776.0, 4780.0, 4778.0, 4778.0, 4778.0, 4780.0, 4778.0, 4780.0, 4778.0, 4776.0, 4776.0, 4780.0, 4780.0, 4778.0, 4778.0, 4778.0, 4780.0, 4778.0, 4780.0, 4780.0, 4780.0, 4780.0, 4778.0, 4778.0, 4780.0, 4780.0, 4780.0, 4780.0, 4784.0, 4778.0, 4780.0, 4778.0, 4778.0, 4778.0, 4778.0, 4776.0, 4780.0, 4780.0, 4784.0, 4778.0, 4782.0, 4782.0, 4782.0, 4782.0, 4780.0, 4780.0, 4778.0, 4782.0, 4778.0, 4778.0, 4780.0, 4780.0, 4780.0, 4780.0, 4780.0, 4782.0, 4782.0, 4780.0, 4780.0, 4782.0, 4782.0, 4780.0, 4780.0, 4780.0, 4780.0, 4782.0, 4778.0, 4778.0, 4780.0, 4780.0, 4780.0, 4778.0, 4778.0, 4780.0, 4778.0, 4780.0, 4778.0, 4782.0, 4780.0, 4780.0, 4782.0, 4778.0, 4778.0, 4776.0, 4778.0, 4782.0, 4780.0, 4780.0, 4780.0, 4784.0, 4778.0, 4782.0, 4778.0, 4778.0, 4778.0, 4778.0, 4782.0, 4780.0, 4780.0, 4780.0, 4780.0, 4776.0, 4780.0, 4782.0, 4780.0, 4782.0, 4780.0, 4780.0, 4784.0, 4778.0, 4780.0, 4778.0, 4782.0, 4780.0, 4780.0, 4780.0, 4780.0, 4780.0, 4780.0, 4776.0, 4782.0, 4780.0, 4774.0, 4780.0, 4782.0, 4780.0, 4780.0, 4778.0, 4780.0, 4780.0, 4782.0, 4778.0, 4780.0, 4780.0, 4780.0, 4780.0, 4778.0, 4778.0, 4776.0, 4778.0, 4776.0, 4780.0, 4778.0, 4782.0, 4780.0, 4780.0, 4782.0, 4780.0, 4778.0, 4778.0, 4782.0, 4776.0, 4780.0, 4776.0, 4780.0, 4782.0, 4780.0, 4780.0, 4782.0, 4778.0, 4778.0, 4782.0, 4780.0, 4778.0, 4780.0, 4778.0, 4780.0, 4778.0, 4782.0, 4784.0, 4780.0, 4776.0, 4780.0, 4782.0, 4780.0, 4778.0, 4778.0, 4780.0, 4782.0, 4780.0, 4778.0, 4780.0, 4784.0, 4780.0, 4778.0, 4780.0, 4778.0, 4778.0, 4778.0, 4774.0, 4778.0, 4780.0, 4778.0, 4778.0],
      "WindowWidth": [18572.0, 18538.0, 18544.0, 18570.0, 18544.0, 18574.0, 18570.0, 18578.0, 18570.0, 18574.0, 18568.0, 18570.0, 18570.0, 18540.0, 18580.0, 18568.0, 18568.0, 18574.0, 18568.0, 18570.0, 18568.0, 18574.0, 18572.0, 18570.0, 18574.0, 18568.0, 18572.0, 18572.0, 18570.0, 18572.0, 18570.0, 18572.0, 18564.0, 18568.0, 18574.0, 18568.0, 18572.0, 18570.0, 18570.0, 18562.0, 18566.0, 18568.0, 18568.0, 18570.0, 18568.0, 18570.0, 18562.0, 18572.0, 18568.0, 18538.0, 18572.0, 18568.0, 18574.0, 18570.0, 18576.0, 18566.0, 18568.0, 18570.0, 18568.0, 18566.0, 18574.0, 18566.0, 18570.0, 18568.0, 18572.0, 18570.0, 18574.0, 18566.0, 18570.0, 18568.0, 18570.0, 18570.0, 18572.0, 18572.0, 18572.0, 18568.0, 18572.0, 18574.0, 18568.0, 18568.0, 18566.0, 18566.0, 18564.0, 18572.0, 18572.0, 18568.0, 18570.0, 18570.0, 18570.0, 18570.0, 18570.0, 18574.0, 18568.0, 18574.0, 18570.0, 18570.0, 18570.0, 18572.0, 18572.0, 18574.0, 18572.0, 18578.0, 18572.0, 18566.0, 18570.0, 18570.0, 18570.0, 18572.0, 18568.0, 18574.0, 18568.0, 18570.0, 18568.0, 18574.0, 18568.0, 18572.0, 18568.0, 18566.0, 18568.0, 18570.0, 18574.0, 18576.0, 18572.0, 18570.0, 18574.0, 18574.0, 18570.0, 18574.0, 18572.0, 18570.0, 18578.0, 18572.0, 18570.0, 18572.0, 18570.0, 18570.0, 18568.0, 18566.0, 18572.0, 18570.0, 18576.0, 18566.0, 18574.0, 18570.0, 18572.0, 18572.0, 18570.0, 18572.0, 18570.0, 18572.0, 18570.0, 18574.0, 18572.0, 18574.0, 18570.0, 18570.0, 18564.0, 18570.0, 18578.0, 18570.0, 18572.0, 18570.0, 18572.0, 18568.0, 18570.0, 18568.0, 18572.0, 18576.0, 18572.0, 18564.0, 18570.0, 18572.0, 18574.0, 18568.0, 18568.0, 18570.0, 18570.0, 18568.0, 18568.0, 18574.0, 18574.0, 18576.0, 18570.0, 18566.0, 18568.0, 18568.0, 18570.0, 18574.0, 18572.0, 18574.0, 18572.0, 18576.0, 18566.0, 18570.0, 18566.0, 18566.0, 18566.0, 18570.0, 18572.0, 18572.0, 18568.0, 18574.0, 18576.0, 18568.0, 18576.0, 18574.0, 18576.0, 18572.0, 18574.0, 18572.0, 18574.0, 18572.0, 18574.0, 18570.0, 18576.0, 18570.0, 18570.0, 18572.0, 18568.0, 18570.0, 18570.0, 18566.0, 18576.0, 18568.0, 18568.0, 18572.0, 18572.0, 18576.0, 18570.0, 18570.0, 18568.0, 18568.0, 18576.0, 18570.0, 18570.0, 18566.0, 18572.0, 18564.0, 18570.0, 18568.0, 18564.0, 18566.0, 18570.0, 18564.0, 18570.0, 18568.0, 18570.0, 18572.0, 18570.0, 18568.0, 18572.0, 18568.0, 18576.0, 18572.0, 18576.0, 18572.0, 18570.0, 18570.0, 18574.0, 18574.0, 18568.0, 18570.0, 18572.0, 18578.0, 18574.0, 18570.0, 18570.0, 18572.0, 18568.0, 18570.0, 18570.0, 18574.0, 18570.0, 18564.0, 18570.0, 18572.0, 18572.0, 18572.0, 18570.0, 18572.0, 18570.0, 18570.0, 18574.0, 18568.0, 18576.0, 18572.0, 18572.0, 18574.0, 18570.0, 18572.0, 18570.0, 18568.0, 18568.0, 18574.0, 18570.0, 18574.0]
    },
    "slices": {}
  }
}