{
  "AcquisitionMatrixPE": 104,
  "AcquisitionNumber": 1,
  "AcquisitionTime": "12:13:28.897500",
  "BandwidthPerPixelPhaseEncode": 17.17,
  "BaseResolution": 104,
  "BodyPartExamined": "BRAIN",
  "CoilCombinationMethod": "Sum of Squares",
  "ConsistencyInfo": "N4_VE11C_LATEST_20160120",
  "ConversionSoftware": "dcm2niix",
  "ConversionSoftwareVersion": "v1.0.20220505",
  "DerivedVendorReportedEchoSpacing": 0.000560011,
  "DeviceSerialNumber": "167006",
  "DwellTime": 2.1e-06,
  "EchoTime": 0.037,
  "EchoTime1": 0.037,
  "EchoTime2": 0.001,
  "EchoTrainLength": 104,
  "EffectiveEchoSpacing": 0.000560011,
  "FlipAngle": 52,
  "HeudiconvVersion": "0.5.3.post811+g6206e14",
  "ImageComments": "Unaliased MB4/PE3/LB",
  "ImageOrientationPatientDICOM": [0.995286, 0.0931666, 0.0269544, -0.07536, 0.917825, -0.389766],
  "ImageOrientationText": "Tra>Cor(-22.7)>Sag(3.5)",
  "ImageType": [
    "ORIGINAL",
    "PRIMARY",
    "P",
    "MB",
    "ND",
    "MOSAIC",
    "PHASE"
],
  "ImagingFrequency": 123.259,
  "InPlanePhaseEncodingDirectionDICOM": "COL",
  "InstitutionAddress": "Chemin Queen-Mary 4565,Montreal,District,CA,H3W 1W5",
  "InstitutionName": "IUGM",
  "InstitutionalDepartmentName": "Department",
  "MRAcquisitionType": "2D",
  "MagneticFieldStrength": 3,
  "Manufacturer": "Siemens",
  "ManufacturersModelName": "Prisma_fit",
  "MatrixCoilMode": "SENSE",
  "Modality": "MR",
  "MultibandAccelerationFactor": 4,
  "PartialFourier": 1,
  "PatientPosition": "HFS",
  "PercentPhaseFOV": 100,
  "PercentSampling": 100,
  "PhaseEncodingDirection": "j",
  "PhaseEncodingSteps": 104,
  "PhaseResolution": 1,
  "PixelBandwidth": 2290,
  "ProcedureStepDescription": "games^mario3",
  "ProtocolName": "func_task-mario3_run-04",
  "PulseSequenceDetails": "%CustomerSeq%\\cmrr_mbep2d_bold",
  "ReceiveCoilActiveElements": "HC1-7;NC1,2",
  "ReceiveCoilName": "HeadNeck_64",
  "ReconMatrixPE": 104,
  "RepetitionTime": 1.49,
  "SAR": 0.0837087,
  "ScanOptions": "FS",
  "ScanningSequence": "EP",
  "SequenceName": "epfid2d1_104",
  "SequenceVariant": "SK\\SS",
  "SeriesDescription": "func_task-mario3_run-04",
  "SeriesNumber": 20,
  "ShimSetting": [600, -7232, -8821, 608, 110, -50, -129, 82],
  "SliceThickness": 2,
  "SliceTiming": [0, 0.7825, 0.0975, 0.88, 0.195, 0.98, 0.2925, 1.0775, 0.39, 1.175, 0.49, 1.2725, 0.5875, 1.37, 0.685, 0, 0.7825, 0.0975, 0.88, 0.195, 0.98, 0.2925, 1.0775, 0.39, 1.175, 0.49, 1.2725, 0.5875, 1.37, 0.685, 0, 0.7825, 0.0975, 0.88, 0.195, 0.98, 0.2925, 1.0775, 0.39, 1.175, 0.49, 1.2725, 0.5875, 1.37, 0.685, 0, 0.7825, 0.0975, 0.88, 0.195, 0.98, 0.2925, 1.0775, 0.39, 1.175, 0.49, 1.2725, 0.5875, 1.37, 0.685],
  "SoftwareVersions": "syngo MR E11",
  "SpacingBetweenSlices": 2,
  "StationName": "MRC35049",
  "TaskName": "mario3",
  "TotalReadoutTime": 0.0576811,
  "TxRefAmp": 310.44,
  "WipMemBlock": "e774e0f3-bde6-4f6d-97e1-a7cd09c4338e||Sequence: R017 ve11c/master r/75a17815+; Jun 28 2022 16:32:11 by eja",
  "dcmmeta_affine": [
    [-1.9905712604522705, -0.15072008967399597, 0.12210506200790405, 111.7552490234375],
    [-0.18633314967155457, 1.83565092086792, -0.7717939019203186, -56.160953521728516],
    [0.053908709436655045, 0.7795314788818359, 1.8410390615463257, -71.87001037597656],
    [0.0, 0.0, 0.0, 1.0]
],
  "dcmmeta_reorient_transform": [
    [0.0, -1.0, 0.0, 103.0],
    [1.0, 0.0, 0.0, 0.0],
    [0.0, 0.0, 1.0, 0.0],
    [0.0, 0.0, 0.0, 1.0]
],
  "dcmmeta_shape": [104, 104, 60, 304],
  "dcmmeta_slice_dim": 2,
  "dcmmeta_version": 0.6,
  "global": {
    "const": {
      "AcquisitionMatrix": [104, 0, 0, 104],
      "AngioFlag": "N",
      "BitsAllocated": 16,
      "BitsStored": 16,
      "BodyPartExamined": "BRAIN",
      "Columns": 832,
      "EchoNumbers": 1,
      "EchoTime": 37.0,
      "EchoTrainLength": 104,
      "FlipAngle": 52.0,
      "HighBit": 15,
      "ImageOrientationPatient": [0.99528561336371, 0.09316657464484, 0.02695435401141, -0.0753600455196, 0.91782544167288, -0.3897657272738],
      "ImagePositionPatient": [-765.93689579338, -868.91327711675, 272.54841268247],
      "ImageType": [
        "ORIGINAL",
        "PRIMARY",
        "P",
        "MB",
        "ND",
        "MOSAIC"
],
      "ImagedNucleus": "1H",
      "ImagingFrequency": 123.259099,
      "InPlanePhaseEncodingDirection": "COL",
      "LargestImagePixelValue": 4095,
      "MRAcquisitionType": "2D",
      "MagneticFieldStrength": 3.0,
      "Manufacturer": "SIEMENS",
      "ManufacturerModelName": "Prisma_fit",
      "Modality": "MR",
      "NumberOfAverages": 1.0,
      "NumberOfPhaseEncodingSteps": 104,
      "PercentPhaseFieldOfView": 100.0,
      "PercentSampling": 100.0,
      "PerformedProcedureStepStartTime": "113637.223000",
      "PhotometricInterpretation": "MONOCHROME2",
      "PixelBandwidth": 2290.0,
      "PixelRepresentation": 0,
      "PixelSpacing": [2.0, 2.0],
      "ProtocolName": "func_task-mario3_run-04",
      "RepetitionTime": 1490.0,
      "RescaleIntercept": -4096.0,
      "RescaleSlope": 2.0,
      "RescaleType": "US",
      "Rows": 832,
      "SAR": 0.08370870493739,
      "SamplesPerPixel": 1,
      "ScanOptions": "FS",
      "ScanningSequence": "EP",
      "SequenceName": "epfid2d1_104",
      "SequenceVariant": [
        "SK",
        "SS"
],
      "SeriesDescription": "func_task-mario3_run-04",
      "SeriesNumber": 20,
      "SeriesTime": "121452.476000",
      "SliceLocation": -37.662462208175,
      "SliceThickness": 2.0,
      "SmallestImagePixelValue": 0,
      "SoftwareVersions": "syngo MR E11",
      "SpacingBetweenSlices": 2.0000000501357,
      "SpecificCharacterSet": "ISO_IR 100",
      "StudyID": "1",
      "StudyTime": "113637.147000",
      "TransmitCoilName": "Body",
      "VariableFlipAngleFlag": "N",
      "WindowCenterWidthExplanation": "Algo1",
      "dBdt": 0.0},
    "slices": {}
  },
  "time": {
    "samples": {
      "AcquisitionNumber": [1, 2, 3, 4, 5, 6, 7, 8, 9, 10, 11, 12, 13, 14, 15, 16, 17, 18, 19, 20, 21, 22, 23, 24, 25, 26, 27, 28, 29, 30, 31, 32, 33, 34, 35, 36, 37, 38, 39, 40, 41, 42, 43, 44, 45, 46, 47, 48, 49, 50, 51, 52, 53, 54, 55, 56, 57, 58, 59, 60, 61, 62, 63, 64, 65, 66, 67, 68, 69, 70, 71, 72, 73, 74, 75, 76, 77, 78, 79, 80, 81, 82, 83, 84, 85, 86, 87, 88, 89, 90, 91, 92, 93, 94, 95, 96, 97, 98, 99, 100, 101, 102, 103, 104, 105, 106, 107, 108, 109, 110, 111, 112, 113, 114, 115, 116, 117, 118, 119, 120, 121, 122, 123, 124, 125, 126, 127, 128, 129, 130, 131, 132, 133, 134, 135, 136, 137, 138, 139, 140, 141, 142, 143, 144, 145, 146, 147, 148, 149, 150, 151, 152, 153, 154, 155, 156, 157, 158, 159, 160, 161, 162, 163, 164, 165, 166, 167, 168, 169, 170, 171, 172, 173, 174, 175, 176, 177, 178, 179, 180, 181, 182, 183, 184, 185, 186, 187, 188, 189, 190, 191, 192, 193, 194, 195, 196, 197, 198, 199, 200, 201, 202, 203, 204, 205, 206, 207, 208, 209, 210, 211, 212, 213, 214, 215, 216, 217, 218, 219, 220, 221, 222, 223, 224, 225, 226, 227, 228, 229, 230, 231, 232, 233, 234, 235, 236, 237, 238, 239, 240, 241, 242, 243, 244, 245, 246, 247, 248, 249, 250, 251, 252, 253, 254, 255, 256, 257, 258, 259, 260, 261, 262, 263, 264, 265, 266, 267, 268, 269, 270, 271, 272, 273, 274, 275, 276, 277, 278, 279, 280, 281, 282, 283, 284, 285, 286, 287, 288, 289, 290, 291, 292, 293, 294, 295, 296, 297, 298, 299, 300, 301, 302, 303, 304],
      "AcquisitionTime": ["121328.897500", "121330.387500", "121331.877500", "121333.367500", "121334.857500", "121336.347500", "121337.837500", "121339.327500", "121340.817500", "121342.307500", "121343.797500", "121345.287500", "121346.777500", "121348.267500", "121349.757500", "121351.247500", "121352.737500", "121354.227500", "121355.717500", "121357.207500", "121358.697500", "121400.187500", "121401.677500", "121403.167500", "121404.657500", "121406.147500", "121407.637500", "121409.127500", "121410.617500", "121412.107500", "121413.597500", "121415.087500", "121416.577500", "121418.067500", "121419.557500", "121421.047500", "121422.537500", "121424.027500", "121425.517500", "121427.007500", "121428.497500", "121429.987500", "121431.477500", "121432.967500", "121434.457500", "121435.947500", "121437.437500", "121438.927500", "121440.417500", "121441.907500", "121443.397500", "121444.887500", "121446.377500", "121447.867500", "121449.357500", "121450.847500", "121452.337500", "121453.827500", "121455.317500", "121456.807500", "121458.297500", "121459.787500", "121501.277500", "121502.767500", "121504.257500", "121505.747500", "121507.237500", "121508.727500", "121510.217500", "121511.707500", "121513.197500", "121514.687500", "121516.177500", "121517.667500", "121519.157500", "121520.647500", "121522.137500", "121523.627500", "121525.117500", "121526.607500", "121528.097500", "121529.587500", "121531.077500", "121532.567500", "121534.057500", "121535.547500", "121537.037500", "121538.527500", "121540.017500", "121541.507500", "121542.997500", "121544.487500", "121545.977500", "121547.467500", "121548.957500", "121550.447500", "121551.937500", "121553.427500", "121554.917500", "121556.407500", "121557.897500", "121559.387500", "121600.877500", "121602.367500", "121603.857500", "121605.347500", "121606.837500", "121608.327500", "121609.817500", "121611.307500", "121612.797500", "121614.287500", "121615.777500", "121617.267500", "121618.757500", "121620.247500", "121621.737500", "121623.227500", "121624.717500", "121626.207500", "121627.697500", "121629.187500", "121630.677500", "121632.167500", "121633.657500", "121635.147500", "121636.637500", "121638.127500", "121639.617500", "121641.107500", "121642.597500", "121644.087500", "121645.577500", "121647.067500", "121648.557500", "121650.047500", "121651.537500", "121653.027500", "121654.517500", "121656.007500", "121657.497500", "121658.987500", "121700.477500", "121701.967500", "121703.457500", "121704.947500", "121706.437500", "121707.927500", "121709.417500", "121710.907500", "121712.397500", "121713.887500", "121715.377500", "121716.867500", "121718.357500", "121719.847500", "121721.337500", "121722.827500", "121724.317500", "121725.807500", "121727.297500", "121728.787500", "121730.277500", "121731.767500", "121733.257500", "121734.747500", "121736.237500", "121737.727500", "121739.217500", "121740.707500", "121742.197500", "121743.687500", "121745.177500", "121746.667500", "121748.157500", "121749.647500", "121751.137500", "121752.627500", "121754.117500", "121755.607500", "121757.097500", "121758.587500", "121800.077500", "121801.567500", "121803.057500", "121804.547500", "121806.037500", "121807.527500", "121809.017500", "121810.507500", "121811.997500", "121813.487500", "121814.977500", "121816.467500", "121817.957500", "121819.447500", "121820.937500", "121822.427500", "121823.917500", "121825.407500", "121826.897500", "121828.387500", "121829.877500", "121831.367500", "121832.857500", "121834.347500", "121835.837500", "121837.327500", "121838.817500", "121840.307500", "121841.797500", "121843.287500", "121844.777500", "121846.267500", "121847.757500", "121849.247500", "121850.737500", "121852.227500", "121853.717500", "121855.207500", "121856.697500", "121858.187500", "121859.677500", "121901.167500", "121902.657500", "121904.147500", "121905.637500", "121907.127500", "121908.617500", "121910.107500", "121911.597500", "121913.087500", "121914.577500", "121916.067500", "121917.557500", "121919.047500", "121920.537500", "121922.027500", "121923.517500", "121925.007500", "121926.497500", "121927.987500", "121929.477500", "121930.967500", "121932.457500", "121933.947500", "121935.437500", "121936.927500", "121938.417500", "121939.907500", "121941.397500", "121942.887500", "121944.377500", "121945.867500", "121947.357500", "121948.847500", "121950.337500", "121951.827500", "121953.317500", "121954.807500", "121956.297500", "121957.787500", "121959.277500", "122000.767500", "122002.257500", "122003.747500", "122005.237500", "122006.727500", "122008.217500", "122009.707500", "122011.197500", "122012.687500", "122014.177500", "122015.667500", "122017.157500", "122018.647500", "122020.137500", "122021.627500", "122023.117500", "122024.607500", "122026.097500", "122027.587500", "122029.077500", "122030.567500", "122032.057500", "122033.547500", "122035.037500", "122036.527500", "122038.017500", "122039.507500", "122040.997500", "122042.487500", "122043.977500", "122045.467500", "122046.957500", "122048.447500", "122049.937500", "122051.427500", "122052.917500", "122054.407500", "122055.897500", "122057.387500", "122058.877500", "122100.367500"],
      "ContentTime": ["121452.478000", "121452.481000", "121452.483000", "121452.486000", "121452.488000", "121452.491000", "121452.493000", "121452.496000", "121452.498000", "121452.501000", "121452.503000", "121452.506000", "121452.508000", "121452.531000", "121452.533000", "121452.536000", "121452.538000", "121452.541000", "121452.543000", "121452.546000", "121452.548000", "121452.551000", "121452.553000", "121452.556000", "121452.565000", "121452.568000", "121452.570000", "121452.573000", "121452.575000", "121452.578000", "121452.580000", "121452.582000", "121452.585000", "121452.588000", "121512.287000", "121512.290000", "121512.292000", "121512.295000", "121512.297000", "121512.300000", "121512.302000", "121512.305000", "121512.307000", "121512.310000", "121512.312000", "121512.315000", "121512.317000", "121512.320000", "121512.322000", "121512.324000", "121512.327000", "121512.330000", "121512.332000", "121512.335000", "121512.337000", "121532.269000", "121532.272000", "121532.274000", "121532.277000", "121532.279000", "121532.282000", "121532.284000", "121532.287000", "121532.289000", "121532.292000", "121532.294000", "121532.297000", "121532.299000", "121532.302000", "121532.304000", "121532.307000", "121532.309000", "121532.312000", "121532.314000", "121532.317000", "121552.291000", "121552.293000", "121552.296000", "121552.298000", "121552.301000", "121552.303000", "121552.306000", "121552.308000", "121552.311000", "121552.313000", "121552.316000", "121552.318000", "121552.321000", "121552.323000", "121552.326000", "121552.328000", "121552.331000", "121552.333000", "121552.335000", "121552.338000", "121632.311000", "121632.314000", "121632.325000", "121632.328000", "121632.331000", "121632.333000", "121632.336000", "121632.338000", "121632.341000", "121632.343000", "121632.345000", "121632.348000", "121632.350000", "121632.353000", "121632.355000", "121632.358000", "121632.360000", "121632.363000", "121632.365000", "121632.368000", "121632.370000", "121632.373000", "121632.376000", "121632.378000", "121632.381000", "121632.383000", "121632.385000", "121712.318000", "121712.321000", "121712.324000", "121712.326000", "121712.328000", "121712.331000", "121712.334000", "121712.336000", "121712.346000", "121712.349000", "121712.351000", "121712.354000", "121712.356000", "121712.359000", "121712.361000", "121712.364000", "121712.366000", "121712.369000", "121712.371000", "121712.374000", "121712.376000", "121712.379000", "121712.381000", "121712.384000", "121712.386000", "121712.389000", "121712.391000", "121752.318000", "121752.321000", "121752.324000", "121752.326000", "121752.329000", "121752.331000", "121752.334000", "121752.336000", "121752.339000", "121752.341000", "121752.344000", "121752.346000", "121752.349000", "121752.351000", "121752.354000", "121752.356000", "121752.359000", "121752.361000", "121752.364000", "121752.366000", "121752.369000", "121752.371000", "121752.374000", "121752.376000", "121752.379000", "121752.381000", "121752.384000", "121832.304000", "121832.307000", "121832.319000", "121832.322000", "121832.324000", "121832.327000", "121832.329000", "121832.332000", "121832.334000", "121832.337000", "121832.339000", "121832.342000", "121832.344000", "121832.347000", "121832.349000", "121832.352000", "121832.354000", "121832.357000", "121832.359000", "121832.362000", "121832.364000", "121832.367000", "121832.369000", "121832.372000", "121832.374000", "121832.377000", "121832.379000", "121912.312000", "121912.315000", "121912.318000", "121912.320000", "121912.323000", "121912.325000", "121912.328000", "121912.330000", "121912.343000", "121912.346000", "121912.348000", "121912.351000", "121912.353000", "121912.356000", "121912.358000", "121912.361000", "121912.363000", "121912.366000", "121912.368000", "121912.371000", "121912.373000", "121912.376000", "121912.378000", "121912.381000", "121912.383000", "121912.386000", "121952.314000", "121952.317000", "121952.319000", "121952.322000", "121952.324000", "121952.327000", "121952.329000", "121952.332000", "121952.334000", "121952.337000", "121952.339000", "121952.342000", "121952.344000", "121952.347000", "121952.349000", "121952.352000", "121952.354000", "121952.357000", "121952.359000", "121952.362000", "121952.364000", "121952.367000", "121952.369000", "121952.372000", "121952.374000", "121952.377000", "121952.379000", "122032.333000", "122032.336000", "122032.338000", "122032.341000", "122032.343000", "122032.346000", "122032.348000", "122032.351000", "122032.353000", "122032.356000", "122032.358000", "122032.361000", "122032.363000", "122032.366000", "122032.368000", "122032.371000", "122032.373000", "122032.376000", "122032.378000", "122032.381000", "122032.383000", "122032.386000", "122032.388000", "122032.391000", "122032.393000", "122032.396000", "122032.398000", "122103.535000", "122103.537000", "122103.540000", "122103.543000", "122103.546000", "122103.548000", "122103.551000", "122103.554000", "122103.556000", "122103.559000", "122103.561000", "122103.564000", "122103.566000", "122103.569000", "122103.571000", "122103.574000", "122103.576000", "122103.579000", "122103.581000", "122103.584000", "122103.586000"],
      "InstanceCreationTime": ["121452.478000", "121452.481000", "121452.483000", "121452.486000", "121452.488000", "121452.491000", "121452.493000", "121452.496000", "121452.498000", "121452.501000", "121452.503000", "121452.506000", "121452.508000", "121452.531000", "121452.533000", "121452.536000", "121452.538000", "121452.541000", "121452.543000", "121452.546000", "121452.548000", "121452.551000", "121452.553000", "121452.556000", "121452.565000", "121452.568000", "121452.570000", "121452.573000", "121452.575000", "121452.578000", "121452.580000", "121452.582000", "121452.585000", "121452.588000", "121512.287000", "121512.290000", "121512.292000", "121512.295000", "121512.297000", "121512.300000", "121512.302000", "121512.305000", "121512.307000", "121512.310000", "121512.312000", "121512.315000", "121512.317000", "121512.320000", "121512.322000", "121512.324000", "121512.327000", "121512.330000", "121512.332000", "121512.335000", "121512.337000", "121532.269000", "121532.272000", "121532.274000", "121532.277000", "121532.279000", "121532.282000", "121532.284000", "121532.287000", "121532.289000", "121532.292000", "121532.294000", "121532.297000", "121532.299000", "121532.302000", "121532.304000", "121532.307000", "121532.309000", "121532.312000", "121532.314000", "121532.317000", "121552.291000", "121552.293000", "121552.296000", "121552.298000", "121552.301000", "121552.303000", "121552.306000", "121552.308000", "121552.311000", "121552.313000", "121552.316000", "121552.318000", "121552.321000", "121552.323000", "121552.326000", "121552.328000", "121552.331000", "121552.333000", "121552.335000", "121552.338000", "121632.311000", "121632.314000", "121632.325000", "121632.328000", "121632.331000", "121632.333000", "121632.336000", "121632.338000", "121632.341000", "121632.343000", "121632.345000", "121632.348000", "121632.350000", "121632.353000", "121632.355000", "121632.358000", "121632.360000", "121632.363000", "121632.365000", "121632.368000", "121632.370000", "121632.373000", "121632.376000", "121632.378000", "121632.381000", "121632.383000", "121632.385000", "121712.318000", "121712.321000", "121712.324000", "121712.326000", "121712.328000", "121712.331000", "121712.334000", "121712.336000", "121712.346000", "121712.349000", "121712.351000", "121712.354000", "121712.356000", "121712.359000", "121712.361000", "121712.364000", "121712.366000", "121712.369000", "121712.371000", "121712.374000", "121712.376000", "121712.379000", "121712.381000", "121712.384000", "121712.386000", "121712.389000", "121712.391000", "121752.318000", "121752.321000", "121752.324000", "121752.326000", "121752.329000", "121752.331000", "121752.334000", "121752.336000", "121752.339000", "121752.341000", "121752.344000", "121752.346000", "121752.349000", "121752.351000", "121752.354000", "121752.356000", "121752.359000", "121752.361000", "121752.364000", "121752.366000", "121752.369000", "121752.371000", "121752.374000", "121752.376000", "121752.379000", "121752.381000", "121752.384000", "121832.304000", "121832.307000", "121832.319000", "121832.322000", "121832.324000", "121832.327000", "121832.329000", "121832.332000", "121832.334000", "121832.337000", "121832.339000", "121832.342000", "121832.344000", "121832.347000", "121832.349000", "121832.352000", "121832.354000", "121832.357000", "121832.359000", "121832.362000", "121832.364000", "121832.367000", "121832.369000", "121832.372000", "121832.374000", "121832.377000", "121832.379000", "121912.312000", "121912.315000", "121912.318000", "121912.320000", "121912.323000", "121912.325000", "121912.328000", "121912.330000", "121912.343000", "121912.346000", "121912.348000", "121912.351000", "121912.353000", "121912.356000", "121912.358000", "121912.361000", "121912.363000", "121912.366000", "121912.368000", "121912.371000", "121912.373000", "121912.376000", "121912.378000", "121912.381000", "121912.383000", "121912.386000", "121952.314000", "121952.317000", "121952.319000", "121952.322000", "121952.324000", "121952.327000", "121952.329000", "121952.332000", "121952.334000", "121952.337000", "121952.339000", "121952.342000", "121952.344000", "121952.347000", "121952.349000", "121952.352000", "121952.354000", "121952.357000", "121952.359000", "121952.362000", "121952.364000", "121952.367000", "121952.369000", "121952.372000", "121952.374000", "121952.377000", "121952.379000", "122032.333000", "122032.336000", "122032.338000", "122032.341000", "122032.343000", "122032.346000", "122032.348000", "122032.351000", "122032.353000", "122032.356000", "122032.358000", "122032.361000", "122032.363000", "122032.366000", "122032.368000", "122032.371000", "122032.373000", "122032.376000", "122032.378000", "122032.381000", "122032.383000", "122032.386000", "122032.388000", "122032.391000", "122032.393000", "122032.396000", "122032.398000", "122103.535000", "122103.537000", "122103.540000", "122103.543000", "122103.546000", "122103.548000", "122103.551000", "122103.554000", "122103.556000", "122103.559000", "122103.561000", "122103.564000", "122103.566000", "122103.569000", "122103.571000", "122103.574000", "122103.576000", "122103.579000", "122103.581000", "122103.584000", "122103.586000"],
      "InstanceNumber": [1, 2, 3, 4, 5, 6, 7, 8, 9, 10, 11, 12, 13, 14, 15, 16, 17, 18, 19, 20, 21, 22, 23, 24, 25, 26, 27, 28, 29, 30, 31, 32, 33, 34, 35, 36, 37, 38, 39, 40, 41, 42, 43, 44, 45, 46, 47, 48, 49, 50, 51, 52, 53, 54, 55, 56, 57, 58, 59, 60, 61, 62, 63, 64, 65, 66, 67, 68, 69, 70, 71, 72, 73, 74, 75, 76, 77, 78, 79, 80, 81, 82, 83, 84, 85, 86, 87, 88, 89, 90, 91, 92, 93, 94, 95, 96, 97, 98, 99, 100, 101, 102, 103, 104, 105, 106, 107, 108, 109, 110, 111, 112, 113, 114, 115, 116, 117, 118, 119, 120, 121, 122, 123, 124, 125, 126, 127, 128, 129, 130, 131, 132, 133, 134, 135, 136, 137, 138, 139, 140, 141, 142, 143, 144, 145, 146, 147, 148, 149, 150, 151, 152, 153, 154, 155, 156, 157, 158, 159, 160, 161, 162, 163, 164, 165, 166, 167, 168, 169, 170, 171, 172, 173, 174, 175, 176, 177, 178, 179, 180, 181, 182, 183, 184, 185, 186, 187, 188, 189, 190, 191, 192, 193, 194, 195, 196, 197, 198, 199, 200, 201, 202, 203, 204, 205, 206, 207, 208, 209, 210, 211, 212, 213, 214, 215, 216, 217, 218, 219, 220, 221, 222, 223, 224, 225, 226, 227, 228, 229, 230, 231, 232, 233, 234, 235, 236, 237, 238, 239, 240, 241, 242, 243, 244, 245, 246, 247, 248, 249, 250, 251, 252, 253, 254, 255, 256, 257, 258, 259, 260, 261, 262, 263, 264, 265, 266, 267, 268, 269, 270, 271, 272, 273, 274, 275, 276, 277, 278, 279, 280, 281, 282, 283, 284, 285, 286, 287, 288, 289, 290, 291, 292, 293, 294, 295, 296, 297, 298, 299, 300, 301, 302, 303, 304],
      "WindowCenter": [4778.0, 4778.0, 4756.0, 4782.0, 4754.0, 4778.0, 4780.0, 4778.0, 4780.0, 4778.0, 4776.0, 4782.0, 4782.0, 4782.0, 4778.0, 4758.0, 4780.0, 4782.0, 4756.0, 4758.0, 4758.0, 4782.0, 4780.0, 4784.0, 4782.0, 4780.0, 4780.0, 4786.0, 4778.0, 4778.0, 4780.0, 4780.0, 4778.0, 4756.0, 4780.0, 4782.0, 4782.0, 4782.0, 4784.0, 4780.0, 4782.0, 4782.0, 4782.0, 4782.0, 4786.0, 4782.0, 4784.0, 4780.0, 4782.0, 4784.0, 4782.0, 4784.0, 4782.0, 4782.0, 4782.0, 4778.0, 4782.0, 4780.0, 4782.0, 4782.0, 4758.0, 4782.0, 4784.0, 4782.0, 4782.0, 4782.0, 4758.0, 4784.0, 4786.0, 4776.0, 4782.0, 4782.0, 4786.0, 4758.0, 4784.0, 4784.0, 4758.0, 4784.0, 4760.0, 4778.0, 4780.0, 4784.0, 4782.0, 4778.0, 4782.0, 4780.0, 4782.0, 4780.0, 4782.0, 4782.0, 4780.0, 4784.0, 4782.0, 4782.0, 4780.0, 4780.0, 4758.0, 4780.0, 4780.0, 4782.0, 4780.0, 4784.0, 4782.0, 4786.0, 4782.0, 4780.0, 4784.0, 4758.0, 4780.0, 4782.0, 4784.0, 4786.0, 4786.0, 4782.0, 4780.0, 4780.0, 4780.0, 4784.0, 4784.0, 4786.0, 4782.0, 4782.0, 4782.0, 4760.0, 4784.0, 4784.0, 4786.0, 4780.0, 4782.0, 4782.0, 4786.0, 4784.0, 4788.0, 4782.0, 4782.0, 4786.0, 4784.0, 4784.0, 4784.0, 4782.0, 4786.0, 4786.0, 4782.0, 4784.0, 4782.0, 4778.0, 4776.0, 4776.0, 4780.0, 4782.0, 4782.0, 4784.0, 4760.0, 4784.0, 4786.0, 4786.0, 4780.0, 4780.0, 4786.0, 4780.0, 4784.0, 4784.0, 4784.0, 4784.0, 4784.0, 4784.0, 4786.0, 4786.0, 4784.0, 4784.0, 4784.0, 4778.0, 4786.0, 4782.0, 4782.0, 4784.0, 4786.0, 4786.0, 4786.0, 4786.0, 4784.0, 4786.0, 4780.0, 4786.0, 4784.0, 4780.0, 4788.0, 4786.0, 4786.0, 4782.0, 4780.0, 4782.0, 4782.0, 4782.0, 4782.0, 4784.0, 4786.0, 4786.0, 4786.0, 4782.0, 4788.0, 4780.0, 4782.0, 4790.0, 4784.0, 4780.0, 4780.0, 4782.0, 4758.0, 4786.0, 4782.0, 4784.0, 4760.0, 4784.0, 4784.0, 4784.0, 4784.0, 4782.0, 4786.0, 4780.0, 4786.0, 4784.0, 4782.0, 4786.0, 4782.0, 4782.0, 4784.0, 4784.0, 4786.0, 4784.0, 4784.0, 4784.0, 4782.0, 4782.0, 4780.0, 4784.0, 4780.0, 4784.0, 4786.0, 4782.0, 4788.0, 4784.0, 4782.0, 4786.0, 4780.0, 4782.0, 4782.0, 4786.0, 4784.0, 4782.0, 4784.0, 4784.0, 4786.0, 4786.0, 4784.0, 4784.0, 4760.0, 4780.0, 4784.0, 4782.0, 4784.0, 4786.0, 4784.0, 4784.0, 4786.0, 4782.0, 4780.0, 4784.0, 4786.0, 4784.0, 4786.0, 4788.0, 4782.0, 4784.0, 4786.0, 4786.0, 4786.0, 4788.0, 4784.0, 4786.0, 4784.0, 4788.0, 4786.0, 4788.0, 4788.0, 4786.0, 4780.0, 4788.0, 4786.0, 4788.0, 4790.0, 4786.0, 4788.0, 4784.0, 4776.0, 4780.0, 4784.0, 4780.0, 4784.0, 4782.0, 4786.0, 4784.0, 4784.0, 4784.0],
      "WindowWidth": [18570.0, 18576.0, 18538.0, 18574.0, 18536.0, 18576.0, 18566.0, 18568.0, 18570.0, 18572.0, 18568.0, 18574.0, 18574.0, 18572.0, 18570.0, 18538.0, 18570.0, 18572.0, 18534.0, 18534.0, 18538.0, 18572.0, 18568.0, 18572.0, 18568.0, 18568.0, 18566.0, 18568.0, 18568.0, 18570.0, 18570.0, 18570.0, 18568.0, 18534.0, 18570.0, 18568.0, 18566.0, 18568.0, 18574.0, 18570.0, 18568.0, 18570.0, 18562.0, 18570.0, 18570.0, 18572.0, 18572.0, 18564.0, 18568.0, 18566.0, 18568.0, 18564.0, 18566.0, 18566.0, 18566.0, 18566.0, 18566.0, 18568.0, 18568.0, 18566.0, 18534.0, 18568.0, 18570.0, 18566.0, 18568.0, 18564.0, 18536.0, 18572.0, 18572.0, 18564.0, 18562.0, 18568.0, 18566.0, 18534.0, 18566.0, 18566.0, 18534.0, 18566.0, 18536.0, 18564.0, 18570.0, 18566.0, 18564.0, 18568.0, 18570.0, 18572.0, 18570.0, 18566.0, 18568.0, 18568.0, 18562.0, 18570.0, 18564.0, 18564.0, 18572.0, 18566.0, 18536.0, 18568.0, 18566.0, 18564.0, 18566.0, 18566.0, 18566.0, 18574.0, 18566.0, 18566.0, 18570.0, 18534.0, 18564.0, 18566.0, 18570.0, 18570.0, 18570.0, 18568.0, 18570.0, 18564.0, 18566.0, 18570.0, 18572.0, 18570.0, 18570.0, 18566.0, 18570.0, 18540.0, 18568.0, 18568.0, 18570.0, 18564.0, 18562.0, 18570.0, 18564.0, 18568.0, 18568.0, 18566.0, 18566.0, 18568.0, 18568.0, 18564.0, 18564.0, 18566.0, 18570.0, 18570.0, 18564.0, 18572.0, 18568.0, 18568.0, 18570.0, 18566.0, 18568.0, 18568.0, 18566.0, 18562.0, 18532.0, 18564.0, 18566.0, 18570.0, 18566.0, 18564.0, 18572.0, 18566.0, 18566.0, 18570.0, 18568.0, 18562.0, 18568.0, 18570.0, 18566.0, 18568.0, 18566.0, 18568.0, 18568.0, 18560.0, 18572.0, 18564.0, 18564.0, 18566.0, 18570.0, 18564.0, 18566.0, 18562.0, 18560.0, 18564.0, 18564.0, 18570.0, 18568.0, 18566.0, 18566.0, 18574.0, 18570.0, 18572.0, 18566.0, 18568.0, 18564.0, 18564.0, 18562.0, 18576.0, 18566.0, 18570.0, 18570.0, 18570.0, 18568.0, 18566.0, 18564.0, 18572.0, 18570.0, 18566.0, 18566.0, 18568.0, 18538.0, 18578.0, 18572.0, 18570.0, 18536.0, 18570.0, 18566.0, 18564.0, 18568.0, 18562.0, 18566.0, 18562.0, 18570.0, 18570.0, 18568.0, 18568.0, 18568.0, 18566.0, 18566.0, 18564.0, 18570.0, 18564.0, 18574.0, 18566.0, 18564.0, 18564.0, 18564.0, 18564.0, 18566.0, 18570.0, 18574.0, 18564.0, 18568.0, 18564.0, 18572.0, 18568.0, 18566.0, 18568.0, 18568.0, 18574.0, 18570.0, 18562.0, 18564.0, 18562.0, 18568.0, 18568.0, 18572.0, 18568.0, 18532.0, 18564.0, 18566.0, 18570.0, 18570.0, 18572.0, 18564.0, 18570.0, 18566.0, 18568.0, 18564.0, 18566.0, 18570.0, 18572.0, 18570.0, 18568.0, 18568.0, 18568.0, 18572.0, 18562.0, 18570.0, 18570.0, 18568.0, 18566.0, 18568.0, 18570.0, 18570.0, 18572.0, 18572.0, 18568.0, 18562.0, 18568.0, 18572.0, 18566.0, 18572.0, 18576.0, 18574.0, 18568.0, 18570.0, 18572.0, 18574.0, 18570.0, 18568.0, 18570.0, 18568.0, 18568.0, 18572.0, 18558.0]
    },
    "slices": {}
  }
}