{
  "AcquisitionMatrixPE": 104,
  "AcquisitionNumber": 1,
  "AcquisitionTime": "12:01:44.197500",
  "BandwidthPerPixelPhaseEncode": 17.17,
  "BaseResolution": 104,
  "BodyPartExamined": "BRAIN",
  "CoilCombinationMethod": "Sum of Squares",
  "ConsistencyInfo": "N4_VE11C_LATEST_20160120",
  "ConversionSoftware": "dcm2niix",
  "ConversionSoftwareVersion": "v1.0.20220505",
  "DerivedVendorReportedEchoSpacing": 0.000560011,
  "DeviceSerialNumber": "167006",
  "DwellTime": 2.1e-06,
  "EchoTime": 0.037,
  "EchoTime1": 0.037,
  "EchoTime2": 0.001,
  "EchoTrainLength": 104,
  "EffectiveEchoSpacing": 0.000560011,
  "FlipAngle": 52,
  "HeudiconvVersion": "0.5.3.post811+g6206e14",
  "ImageComments": "Unaliased MB4/PE3/LB",
  "ImageOrientationPatientDICOM": [0.995286, 0.0931666, 0.0269544, -0.07536, 0.917825, -0.389766],
  "ImageOrientationText": "Tra>Cor(-22.7)>Sag(3.5)",
  "ImageType": [
    "ORIGINAL",
    "PRIMARY",
    "P",
    "MB",
    "ND",
    "MOSAIC",
    "PHASE"
],
  "ImagingFrequency": 123.259,
  "InPlanePhaseEncodingDirectionDICOM": "COL",
  "InstitutionAddress": "Chemin Queen-Mary 4565,Montreal,District,CA,H3W 1W5",
  "InstitutionName": "IUGM",
  "InstitutionalDepartmentName": "Department",
  "MRAcquisitionType": "2D",
  "MagneticFieldStrength": 3,
  "Manufacturer": "Siemens",
  "ManufacturersModelName": "Prisma_fit",
  "MatrixCoilMode": "SENSE",
  "Modality": "MR",
  "MultibandAccelerationFactor": 4,
  "PartialFourier": 1,
  "PatientPosition": "HFS",
  "PercentPhaseFOV": 100,
  "PercentSampling": 100,
  "PhaseEncodingDirection": "j",
  "PhaseEncodingSteps": 104,
  "PhaseResolution": 1,
  "PixelBandwidth": 2290,
  "ProcedureStepDescription": "games^mario3",
  "ProtocolName": "func_task-mario3_run-03",
  "PulseSequenceDetails": "%CustomerSeq%\\cmrr_mbep2d_bold",
  "ReceiveCoilActiveElements": "HC1-7;NC1,2",
  "ReceiveCoilName": "HeadNeck_64",
  "ReconMatrixPE": 104,
  "RepetitionTime": 1.49,
  "SAR": 0.0837087,
  "ScanOptions": "FS",
  "ScanningSequence": "EP",
  "SequenceName": "epfid2d1_104",
  "SequenceVariant": "SK\\SS",
  "SeriesDescription": "func_task-mario3_run-03",
  "SeriesNumber": 17,
  "ShimSetting": [600, -7232, -8821, 608, 110, -50, -129, 82],
  "SliceThickness": 2,
  "SliceTiming": [0, 0.7825, 0.0975, 0.88, 0.195, 0.98, 0.2925, 1.0775, 0.39, 1.175, 0.49, 1.2725, 0.5875, 1.37, 0.685, 0, 0.7825, 0.0975, 0.88, 0.195, 0.98, 0.2925, 1.0775, 0.39, 1.175, 0.49, 1.2725, 0.5875, 1.37, 0.685, 0, 0.7825, 0.0975, 0.88, 0.195, 0.98, 0.2925, 1.0775, 0.39, 1.175, 0.49, 1.2725, 0.5875, 1.37, 0.685, 0, 0.7825, 0.0975, 0.88, 0.195, 0.98, 0.2925, 1.0775, 0.39, 1.175, 0.49, 1.2725, 0.5875, 1.37, 0.685],
  "SoftwareVersions": "syngo MR E11",
  "SpacingBetweenSlices": 2,
  "StationName": "MRC35049",
  "TaskName": "mario3",
  "TotalReadoutTime": 0.0576811,
  "TxRefAmp": 310.44,
  "WipMemBlock": "9e10c426-8ec8-4fba-a96e-f4839da72bcd||Sequence: R017 ve11c/master r/75a17815+; Jun 28 2022 16:32:11 by eja",
  "dcmmeta_affine": [
    [-1.9905712604522705, -0.15072008967399597, 0.12210506200790405, 111.7552490234375],
    [-0.18633314967155457, 1.83565092086792, -0.7717939019203186, -56.160953521728516],
    [0.053908709436655045, 0.7795314788818359, 1.8410390615463257, -71.87001037597656],
    [0.0, 0.0, 0.0, 1.0]
],
  "dcmmeta_reorient_transform": [
    [0.0, -1.0, 0.0, 103.0],
    [1.0, 0.0, 0.0, 0.0],
    [0.0, 0.0, 1.0, 0.0],
    [0.0, 0.0, 0.0, 1.0]
],
  "dcmmeta_shape": [104, 104, 60, 406],
  "dcmmeta_slice_dim": 2,
  "dcmmeta_version": 0.6,
  "global": {
    "const": {
      "AcquisitionMatrix": [104, 0, 0, 104],
      "AngioFlag": "N",
      "BitsAllocated": 16,
      "BitsStored": 16,
      "BodyPartExamined": "BRAIN",
      "Columns": 832,
      "EchoNumbers": 1,
      "EchoTime": 37.0,
      "EchoTrainLength": 104,
      "FlipAngle": 52.0,
      "HighBit": 15,
      "ImageOrientationPatient": [0.99528561336371, 0.09316657464484, 0.02695435401141, -0.0753600455196, 0.91782544167288, -0.3897657272738],
      "ImagePositionPatient": [-765.93689579338, -868.91327711675, 272.54841268247],
      "ImageType": [
        "ORIGINAL",
        "PRIMARY",
        "P",
        "MB",
        "ND",
        "MOSAIC"
],
      "ImagedNucleus": "1H",
      "ImagingFrequency": 123.259096,
      "InPlanePhaseEncodingDirection": "COL",
      "LargestImagePixelValue": 4095,
      "MRAcquisitionType": "2D",
      "MagneticFieldStrength": 3.0,
      "Manufacturer": "SIEMENS",
      "ManufacturerModelName": "Prisma_fit",
      "Modality": "MR",
      "NumberOfAverages": 1.0,
      "NumberOfPhaseEncodingSteps": 104,
      "PercentPhaseFieldOfView": 100.0,
      "PercentSampling": 100.0,
      "PerformedProcedureStepStartTime": "113637.223000",
      "PhotometricInterpretation": "MONOCHROME2",
      "PixelBandwidth": 2290.0,
      "PixelRepresentation": 0,
      "PixelSpacing": [2.0, 2.0],
      "ProtocolName": "func_task-mario3_run-03",
      "RepetitionTime": 1490.0,
      "RescaleIntercept": -4096.0,
      "RescaleSlope": 2.0,
      "RescaleType": "US",
      "Rows": 832,
      "SAR": 0.08370870493739,
      "SamplesPerPixel": 1,
      "ScanOptions": "FS",
      "ScanningSequence": "EP",
      "SequenceName": "epfid2d1_104",
      "SequenceVariant": [
        "SK",
        "SS"
],
      "SeriesDescription": "func_task-mario3_run-03",
      "SeriesNumber": 17,
      "SeriesTime": "120240.649000",
      "SliceLocation": -37.662462208175,
      "SliceThickness": 2.0,
      "SmallestImagePixelValue": 0,
      "SoftwareVersions": "syngo MR E11",
      "SpacingBetweenSlices": 2.0000000501357,
      "SpecificCharacterSet": "ISO_IR 100",
      "StudyID": "1",
      "StudyTime": "113637.147000",
      "TransmitCoilName": "Body",
      "VariableFlipAngleFlag": "N",
      "WindowCenterWidthExplanation": "Algo1",
      "dBdt": 0.0},
    "slices": {}
  },
  "time": {
    "samples": {
      "AcquisitionNumber": [1, 2, 3, 4, 5, 6, 7, 8, 9, 10, 11, 12, 13, 14, 15, 16, 17, 18, 19, 20, 21, 22, 23, 24, 25, 26, 27, 28, 29, 30, 31, 32, 33, 34, 35, 36, 37, 38, 39, 40, 41, 42, 43, 44, 45, 46, 47, 48, 49, 50, 51, 52, 53, 54, 55, 56, 57, 58, 59, 60, 61, 62, 63, 64, 65, 66, 67, 68, 69, 70, 71, 72, 73, 74, 75, 76, 77, 78, 79, 80, 81, 82, 83, 84, 85, 86, 87, 88, 89, 90, 91, 92, 93, 94, 95, 96, 97, 98, 99, 100, 101, 102, 103, 104, 105, 106, 107, 108, 109, 110, 111, 112, 113, 114, 115, 116, 117, 118, 119, 120, 121, 122, 123, 124, 125, 126, 127, 128, 129, 130, 131, 132, 133, 134, 135, 136, 137, 138, 139, 140, 141, 142, 143, 144, 145, 146, 147, 148, 149, 150, 151, 152, 153, 154, 155, 156, 157, 158, 159, 160, 161, 162, 163, 164, 165, 166, 167, 168, 169, 170, 171, 172, 173, 174, 175, 176, 177, 178, 179, 180, 181, 182, 183, 184, 185, 186, 187, 188, 189, 190, 191, 192, 193, 194, 195, 196, 197, 198, 199, 200, 201, 202, 203, 204, 205, 206, 207, 208, 209, 210, 211, 212, 213, 214, 215, 216, 217, 218, 219, 220, 221, 222, 223, 224, 225, 226, 227, 228, 229, 230, 231, 232, 233, 234, 235, 236, 237, 238, 239, 240, 241, 242, 243, 244, 245, 246, 247, 248, 249, 250, 251, 252, 253, 254, 255, 256, 257, 258, 259, 260, 261, 262, 263, 264, 265, 266, 267, 268, 269, 270, 271, 272, 273, 274, 275, 276, 277, 278, 279, 280, 281, 282, 283, 284, 285, 286, 287, 288, 289, 290, 291, 292, 293, 294, 295, 296, 297, 298, 299, 300, 301, 302, 303, 304, 305, 306, 307, 308, 309, 310, 311, 312, 313, 314, 315, 316, 317, 318, 319, 320, 321, 322, 323, 324, 325, 326, 327, 328, 329, 330, 331, 332, 333, 334, 335, 336, 337, 338, 339, 340, 341, 342, 343, 344, 345, 346, 347, 348, 349, 350, 351, 352, 353, 354, 355, 356, 357, 358, 359, 360, 361, 362, 363, 364, 365, 366, 367, 368, 369, 370, 371, 372, 373, 374, 375, 376, 377, 378, 379, 380, 381, 382, 383, 384, 385, 386, 387, 388, 389, 390, 391, 392, 393, 394, 395, 396, 397, 398, 399, 400, 401, 402, 403, 404, 405, 406],
      "AcquisitionTime": ["120144.197500", "120145.687500", "120147.177500", "120148.667500", "120150.157500", "120151.647500", "120153.137500", "120154.627500", "120156.117500", "120157.607500", "120159.097500", "120200.587500", "120202.077500", "120203.567500", "120205.057500", "120206.547500", "120208.037500", "120209.527500", "120211.017500", "120212.507500", "120213.997500", "120215.487500", "120216.977500", "120218.467500", "120219.957500", "120221.447500", "120222.937500", "120224.427500", "120225.917500", "120227.407500", "120228.897500", "120230.387500", "120231.877500", "120233.367500", "120234.857500", "120236.347500", "120237.837500", "120239.327500", "120240.817500", "120242.307500", "120243.797500", "120245.287500", "120246.777500", "120248.267500", "120249.757500", "120251.247500", "120252.737500", "120254.227500", "120255.717500", "120257.207500", "120258.697500", "120300.187500", "120301.677500", "120303.167500", "120304.657500", "120306.147500", "120307.637500", "120309.127500", "120310.617500", "120312.107500", "120313.597500", "120315.087500", "120316.577500", "120318.067500", "120319.557500", "120321.047500", "120322.537500", "120324.027500", "120325.517500", "120327.007500", "120328.497500", "120329.987500", "120331.477500", "120332.967500", "120334.457500", "120335.947500", "120337.437500", "120338.927500", "120340.417500", "120341.907500", "120343.397500", "120344.887500", "120346.377500", "120347.867500", "120349.357500", "120350.847500", "120352.337500", "120353.827500", "120355.317500", "120356.807500", "120358.297500", "120359.787500", "120401.277500", "120402.767500", "120404.257500", "120405.747500", "120407.237500", "120408.727500", "120410.217500", "120411.707500", "120413.197500", "120414.687500", "120416.177500", "120417.667500", "120419.157500", "120420.647500", "120422.137500", "120423.627500", "120425.117500", "120426.607500", "120428.097500", "120429.587500", "120431.077500", "120432.567500", "120434.057500", "120435.547500", "120437.037500", "120438.527500", "120440.017500", "120441.507500", "120442.997500", "120444.487500", "120445.977500", "120447.467500", "120448.957500", "120450.447500", "120451.937500", "120453.427500", "120454.917500", "120456.407500", "120457.897500", "120459.387500", "120500.877500", "120502.367500", "120503.857500", "120505.347500", "120506.837500", "120508.327500", "120509.817500", "120511.307500", "120512.797500", "120514.287500", "120515.777500", "120517.267500", "120518.757500", "120520.247500", "120521.737500", "120523.227500", "120524.717500", "120526.207500", "120527.697500", "120529.187500", "120530.677500", "120532.167500", "120533.657500", "120535.147500", "120536.637500", "120538.127500", "120539.617500", "120541.107500", "120542.597500", "120544.087500", "120545.577500", "120547.067500", "120548.557500", "120550.047500", "120551.537500", "120553.027500", "120554.517500", "120556.007500", "120557.497500", "120558.987500", "120600.477500", "120601.967500", "120603.457500", "120604.947500", "120606.437500", "120607.927500", "120609.417500", "120610.907500", "120612.397500", "120613.887500", "120615.377500", "120616.867500", "120618.357500", "120619.847500", "120621.337500", "120622.827500", "120624.317500", "120625.807500", "120627.297500", "120628.787500", "120630.277500", "120631.767500", "120633.257500", "120634.747500", "120636.237500", "120637.727500", "120639.217500", "120640.707500", "120642.197500", "120643.687500", "120645.177500", "120646.667500", "120648.157500", "120649.647500", "120651.137500", "120652.627500", "120654.117500", "120655.607500", "120657.097500", "120658.587500", "120700.077500", "120701.567500", "120703.057500", "120704.547500", "120706.037500", "120707.527500", "120709.017500", "120710.507500", "120711.997500", "120713.487500", "120714.977500", "120716.467500", "120717.957500", "120719.447500", "120720.937500", "120722.427500", "120723.917500", "120725.407500", "120726.897500", "120728.387500", "120729.877500", "120731.367500", "120732.857500", "120734.347500", "120735.837500", "120737.327500", "120738.817500", "120740.307500", "120741.797500", "120743.287500", "120744.777500", "120746.267500", "120747.757500", "120749.247500", "120750.737500", "120752.227500", "120753.717500", "120755.207500", "120756.697500", "120758.187500", "120759.677500", "120801.167500", "120802.657500", "120804.147500", "120805.637500", "120807.127500", "120808.617500", "120810.107500", "120811.597500", "120813.087500", "120814.577500", "120816.067500", "120817.557500", "120819.047500", "120820.537500", "120822.027500", "120823.517500", "120825.007500", "120826.497500", "120827.987500", "120829.477500", "120830.967500", "120832.457500", "120833.947500", "120835.437500", "120836.927500", "120838.417500", "120839.907500", "120841.397500", "120842.887500", "120844.377500", "120845.867500", "120847.357500", "120848.847500", "120850.337500", "120851.827500", "120853.317500", "120854.807500", "120856.297500", "120857.787500", "120859.277500", "120900.767500", "120902.257500", "120903.747500", "120905.237500", "120906.727500", "120908.217500", "120909.707500", "120911.197500", "120912.687500", "120914.177500", "120915.667500", "120917.157500", "120918.647500", "120920.137500", "120921.627500", "120923.117500", "120924.607500", "120926.097500", "120927.587500", "120929.077500", "120930.567500", "120932.057500", "120933.547500", "120935.037500", "120936.527500", "120938.017500", "120939.507500", "120940.997500", "120942.487500", "120943.977500", "120945.467500", "120946.957500", "120948.447500", "120949.937500", "120951.427500", "120952.917500", "120954.407500", "120955.897500", "120957.387500", "120958.877500", "121000.367500", "121001.857500", "121003.347500", "121004.837500", "121006.327500", "121007.817500", "121009.307500", "121010.797500", "121012.287500", "121013.777500", "121015.267500", "121016.757500", "121018.247500", "121019.737500", "121021.227500", "121022.717500", "121024.207500", "121025.697500", "121027.187500", "121028.677500", "121030.167500", "121031.657500", "121033.147500", "121034.637500", "121036.127500", "121037.617500", "121039.107500", "121040.597500", "121042.087500", "121043.577500", "121045.067500", "121046.557500", "121048.047500", "121049.537500", "121051.027500", "121052.517500", "121054.007500", "121055.497500", "121056.987500", "121058.477500", "121059.967500", "121101.457500", "121102.947500", "121104.437500", "121105.927500", "121107.417500", "121108.907500", "121110.397500", "121111.887500", "121113.377500", "121114.867500", "121116.357500", "121117.847500", "121119.337500", "121120.827500", "121122.317500", "121123.807500", "121125.297500", "121126.787500", "121128.277500", "121129.767500", "121131.257500", "121132.747500", "121134.237500", "121135.727500", "121137.217500", "121138.707500", "121140.197500", "121141.687500", "121143.177500", "121144.667500", "121146.157500", "121147.647500"],
      "ContentTime": ["120240.651000", "120240.654000", "120240.656000", "120240.663000", "120240.666000", "120240.668000", "120240.671000", "120240.673000", "120300.649000", "120300.652000", "120300.654000", "120300.657000", "120300.660000", "120300.662000", "120300.664000", "120300.667000", "120300.669000", "120300.672000", "120300.680000", "120300.683000", "120300.685000", "120300.688000", "120300.690000", "120300.693000", "120300.695000", "120300.698000", "120300.710000", "120300.713000", "120320.654000", "120320.657000", "120320.659000", "120320.662000", "120320.664000", "120320.667000", "120320.669000", "120320.672000", "120320.674000", "120320.677000", "120320.679000", "120320.681000", "120320.684000", "120320.686000", "120320.689000", "120320.691000", "120320.694000", "120320.696000", "120320.699000", "120320.701000", "120340.648000", "120340.651000", "120340.654000", "120340.656000", "120340.659000", "120340.661000", "120340.664000", "120340.666000", "120340.669000", "120340.671000", "120340.674000", "120340.676000", "120340.679000", "120340.681000", "120340.683000", "120340.686000", "120340.689000", "120340.691000", "120340.693000", "120340.696000", "120400.653000", "120400.656000", "120400.658000", "120400.661000", "120400.663000", "120400.666000", "120400.668000", "120400.671000", "120400.673000", "120400.676000", "120400.678000", "120400.681000", "120400.683000", "120400.686000", "120400.694000", "120400.697000", "120400.699000", "120400.702000", "120400.704000", "120400.707000", "120440.673000", "120440.675000", "120440.678000", "120440.680000", "120440.683000", "120440.686000", "120440.688000", "120440.690000", "120440.693000", "120440.696000", "120440.698000", "120440.700000", "120440.703000", "120440.706000", "120440.708000", "120440.710000", "120440.713000", "120440.716000", "120440.718000", "120440.720000", "120440.723000", "120440.726000", "120440.728000", "120440.731000", "120440.733000", "120440.736000", "120440.738000", "120440.741000", "120440.743000", "120440.746000", "120520.672000", "120520.675000", "120520.678000", "120520.680000", "120520.695000", "120520.697000", "120520.700000", "120520.702000", "120520.705000", "120520.707000", "120520.710000", "120520.712000", "120520.715000", "120520.717000", "120520.720000", "120520.722000", "120520.725000", "120520.727000", "120520.730000", "120520.732000", "120520.735000", "120520.737000", "120520.740000", "120520.742000", "120520.745000", "120520.747000", "120520.750000", "120600.676000", "120600.678000", "120600.681000", "120600.683000", "120600.686000", "120600.688000", "120600.691000", "120600.693000", "120600.696000", "120600.698000", "120600.701000", "120600.704000", "120600.708000", "120600.711000", "120600.714000", "120600.716000", "120600.722000", "120600.725000", "120600.728000", "120600.730000", "120600.732000", "120600.735000", "120600.737000", "120600.740000", "120600.743000", "120600.745000", "120640.677000", "120640.680000", "120640.683000", "120640.685000", "120640.687000", "120640.690000", "120640.693000", "120640.695000", "120640.697000", "120640.700000", "120640.702000", "120640.705000", "120640.707000", "120640.710000", "120640.712000", "120640.715000", "120640.717000", "120640.720000", "120640.722000", "120640.725000", "120640.727000", "120640.730000", "120640.732000", "120640.735000", "120640.737000", "120640.740000", "120640.742000", "120720.679000", "120720.682000", "120720.684000", "120720.687000", "120720.689000", "120720.692000", "120720.694000", "120720.697000", "120720.700000", "120720.702000", "120720.704000", "120720.707000", "120720.710000", "120720.712000", "120720.714000", "120720.717000", "120720.719000", "120720.722000", "120720.724000", "120720.727000", "120720.729000", "120720.732000", "120720.734000", "120720.737000", "120720.739000", "120720.742000", "120720.744000", "120800.682000", "120800.685000", "120800.688000", "120800.690000", "120800.693000", "120800.695000", "120800.698000", "120800.700000", "120800.703000", "120800.705000", "120800.708000", "120800.710000", "120800.713000", "120800.715000", "120800.718000", "120800.720000", "120800.723000", "120800.725000", "120800.728000", "120800.730000", "120800.733000", "120800.735000", "120800.738000", "120800.740000", "120800.743000", "120800.745000", "120800.748000", "120840.684000", "120840.687000", "120840.690000", "120840.692000", "120840.695000", "120840.697000", "120840.700000", "120840.702000", "120840.705000", "120840.707000", "120840.710000", "120840.712000", "120840.715000", "120840.717000", "120840.720000", "120840.722000", "120840.725000", "120840.728000", "120840.730000", "120840.732000", "120840.735000", "120840.738000", "120840.740000", "120840.742000", "120840.745000", "120840.748000", "120840.750000", "120920.675000", "120920.678000", "120920.681000", "120920.683000", "120920.686000", "120920.688000", "120920.691000", "120920.693000", "120920.696000", "120920.698000", "120920.701000", "120920.703000", "120920.706000", "120920.708000", "120920.711000", "120920.713000", "120920.716000", "120920.718000", "120920.721000", "120920.723000", "120920.726000", "120920.728000", "120920.731000", "120920.733000", "120920.736000", "120920.738000", "120920.741000", "121001.213000", "121001.216000", "121001.219000", "121001.221000", "121001.224000", "121001.226000", "121001.229000", "121001.231000", "121001.234000", "121001.244000", "121001.247000", "121001.249000", "121001.252000", "121001.254000", "121001.257000", "121001.259000", "121001.262000", "121001.264000", "121001.267000", "121001.269000", "121001.272000", "121001.274000", "121001.277000", "121001.279000", "121001.282000", "121001.284000", "121040.681000", "121040.684000", "121040.686000", "121040.689000", "121040.692000", "121040.695000", "121040.698000", "121040.700000", "121040.703000", "121040.706000", "121040.722000", "121040.725000", "121040.727000", "121040.730000", "121040.732000", "121040.735000", "121040.737000", "121040.740000", "121040.742000", "121040.745000", "121040.748000", "121040.750000", "121040.753000", "121040.756000", "121040.758000", "121040.761000", "121040.763000", "121120.672000", "121120.674000", "121120.677000", "121120.680000", "121120.682000", "121120.685000", "121120.687000", "121120.690000", "121120.692000", "121120.695000", "121120.697000", "121120.700000", "121120.702000", "121120.705000", "121120.707000", "121120.710000", "121120.712000", "121120.715000", "121120.717000", "121120.720000", "121120.722000", "121120.725000", "121120.727000", "121120.730000", "121120.732000", "121120.735000", "121120.737000", "121150.511000", "121150.514000", "121150.516000", "121150.519000", "121150.521000", "121150.524000", "121150.526000", "121150.529000", "121150.532000", "121150.534000", "121150.537000", "121150.540000", "121150.542000", "121150.545000", "121150.547000", "121150.550000", "121150.552000", "121150.555000", "121150.557000", "121150.560000"],
      "InstanceCreationTime": ["120240.651000", "120240.654000", "120240.656000", "120240.663000", "120240.666000", "120240.668000", "120240.671000", "120240.673000", "120300.649000", "120300.652000", "120300.654000", "120300.657000", "120300.660000", "120300.662000", "120300.664000", "120300.667000", "120300.669000", "120300.672000", "120300.680000", "120300.683000", "120300.685000", "120300.688000", "120300.690000", "120300.693000", "120300.695000", "120300.698000", "120300.710000", "120300.713000", "120320.654000", "120320.657000", "120320.659000", "120320.662000", "120320.664000", "120320.667000", "120320.669000", "120320.672000", "120320.674000", "120320.677000", "120320.679000", "120320.681000", "120320.684000", "120320.686000", "120320.689000", "120320.691000", "120320.694000", "120320.696000", "120320.699000", "120320.701000", "120340.648000", "120340.651000", "120340.654000", "120340.656000", "120340.659000", "120340.661000", "120340.664000", "120340.666000", "120340.669000", "120340.671000", "120340.674000", "120340.676000", "120340.679000", "120340.681000", "120340.683000", "120340.686000", "120340.689000", "120340.691000", "120340.693000", "120340.696000", "120400.653000", "120400.656000", "120400.658000", "120400.661000", "120400.663000", "120400.666000", "120400.668000", "120400.671000", "120400.673000", "120400.676000", "120400.678000", "120400.681000", "120400.683000", "120400.686000", "120400.694000", "120400.697000", "120400.699000", "120400.702000", "120400.704000", "120400.707000", "120440.673000", "120440.675000", "120440.678000", "120440.680000", "120440.683000", "120440.686000", "120440.688000", "120440.690000", "120440.693000", "120440.696000", "120440.698000", "120440.700000", "120440.703000", "120440.706000", "120440.708000", "120440.710000", "120440.713000", "120440.716000", "120440.718000", "120440.720000", "120440.723000", "120440.726000", "120440.728000", "120440.731000", "120440.733000", "120440.736000", "120440.738000", "120440.741000", "120440.743000", "120440.746000", "120520.672000", "120520.675000", "120520.678000", "120520.680000", "120520.695000", "120520.697000", "120520.700000", "120520.702000", "120520.705000", "120520.707000", "120520.710000", "120520.712000", "120520.715000", "120520.717000", "120520.720000", "120520.722000", "120520.725000", "120520.727000", "120520.730000", "120520.732000", "120520.735000", "120520.737000", "120520.740000", "120520.742000", "120520.745000", "120520.747000", "120520.750000", "120600.676000", "120600.678000", "120600.681000", "120600.683000", "120600.686000", "120600.688000", "120600.691000", "120600.693000", "120600.696000", "120600.698000", "120600.701000", "120600.704000", "120600.708000", "120600.711000", "120600.714000", "120600.716000", "120600.722000", "120600.725000", "120600.728000", "120600.730000", "120600.732000", "120600.735000", "120600.737000", "120600.740000", "120600.743000", "120600.745000", "120640.677000", "120640.680000", "120640.683000", "120640.685000", "120640.687000", "120640.690000", "120640.693000", "120640.695000", "120640.697000", "120640.700000", "120640.702000", "120640.705000", "120640.707000", "120640.710000", "120640.712000", "120640.715000", "120640.717000", "120640.720000", "120640.722000", "120640.725000", "120640.727000", "120640.730000", "120640.732000", "120640.735000", "120640.737000", "120640.740000", "120640.742000", "120720.679000", "120720.682000", "120720.684000", "120720.687000", "120720.689000", "120720.692000", "120720.694000", "120720.697000", "120720.700000", "120720.702000", "120720.704000", "120720.707000", "120720.710000", "120720.712000", "120720.714000", "120720.717000", "120720.719000", "120720.722000", "120720.724000", "120720.727000", "120720.729000", "120720.732000", "120720.734000", "120720.737000", "120720.739000", "120720.742000", "120720.744000", "120800.682000", "120800.685000", "120800.688000", "120800.690000", "120800.693000", "120800.695000", "120800.698000", "120800.700000", "120800.703000", "120800.705000", "120800.708000", "120800.710000", "120800.713000", "120800.715000", "120800.718000", "120800.720000", "120800.723000", "120800.725000", "120800.728000", "120800.730000", "120800.733000", "120800.735000", "120800.738000", "120800.740000", "120800.743000", "120800.745000", "120800.748000", "120840.684000", "120840.687000", "120840.690000", "120840.692000", "120840.695000", "120840.697000", "120840.700000", "120840.702000", "120840.705000", "120840.707000", "120840.710000", "120840.712000", "120840.715000", "120840.717000", "120840.720000", "120840.722000", "120840.725000", "120840.728000", "120840.730000", "120840.732000", "120840.735000", "120840.738000", "120840.740000", "120840.742000", "120840.745000", "120840.748000", "120840.750000", "120920.675000", "120920.678000", "120920.681000", "120920.683000", "120920.686000", "120920.688000", "120920.691000", "120920.693000", "120920.696000", "120920.698000", "120920.701000", "120920.703000", "120920.706000", "120920.708000", "120920.711000", "120920.713000", "120920.716000", "120920.718000", "120920.721000", "120920.723000", "120920.726000", "120920.728000", "120920.731000", "120920.733000", "120920.736000", "120920.738000", "120920.741000", "121001.213000", "121001.216000", "121001.219000", "121001.221000", "121001.224000", "121001.226000", "121001.229000", "121001.231000", "121001.234000", "121001.244000", "121001.247000", "121001.249000", "121001.252000", "121001.254000", "121001.257000", "121001.259000", "121001.262000", "121001.264000", "121001.267000", "121001.269000", "121001.272000", "121001.274000", "121001.277000", "121001.279000", "121001.282000", "121001.284000", "121040.681000", "121040.684000", "121040.686000", "121040.689000", "121040.692000", "121040.695000", "121040.698000", "121040.700000", "121040.703000", "121040.706000", "121040.722000", "121040.725000", "121040.727000", "121040.730000", "121040.732000", "121040.735000", "121040.737000", "121040.740000", "121040.742000", "121040.745000", "121040.748000", "121040.750000", "121040.753000", "121040.756000", "121040.758000", "121040.761000", "121040.763000", "121120.672000", "121120.674000", "121120.677000", "121120.680000", "121120.682000", "121120.685000", "121120.687000", "121120.690000", "121120.692000", "121120.695000", "121120.697000", "121120.700000", "121120.702000", "121120.705000", "121120.707000", "121120.710000", "121120.712000", "121120.715000", "121120.717000", "121120.720000", "121120.722000", "121120.725000", "121120.727000", "121120.730000", "121120.732000", "121120.735000", "121120.737000", "121150.511000", "121150.514000", "121150.516000", "121150.519000", "121150.521000", "121150.524000", "121150.526000", "121150.529000", "121150.532000", "121150.534000", "121150.537000", "121150.540000", "121150.542000", "121150.545000", "121150.547000", "121150.550000", "121150.552000", "121150.555000", "121150.557000", "121150.560000"],
