{
  "AcquisitionMatrixPE": 104,
  "AcquisitionNumber": 1,
  "AcquisitionTime": "11:50:12.005000",
  "BandwidthPerPixelPhaseEncode": 17.17,
  "BaseResolution": 104,
  "BodyPartExamined": "BRAIN",
  "CoilCombinationMethod": "Sum of Squares",
  "ConsistencyInfo": "N4_VE11C_LATEST_20160120",
  "ConversionSoftware": "dcm2niix",
  "ConversionSoftwareVersion": "v1.0.20220505",
  "DerivedVendorReportedEchoSpacing": 0.000560011,
  "DeviceSerialNumber": "167006",
  "DwellTime": 2.1e-06,
  "EchoTime": 0.037,
  "EchoTrainLength": 104,
  "EffectiveEchoSpacing": 0.000560011,
  "FlipAngle": 52,
  "HeudiconvVersion": "0.5.3.post811+g6206e14",
  "ImageComments": "Unaliased MB4/PE3/LB",
  "ImageOrientationPatientDICOM": [0.995286, 0.0931666, 0.0269544, -0.07536, 0.917825, -0.389766],
  "ImageOrientationText": "Tra>Cor(-22.7)>Sag(3.5)",
  "ImageType": [
    "ORIGINAL",
    "PRIMARY",
    "M",
    "MB",
    "ND",
    "MOSAIC"
],
  "ImagingFrequency": 123.259,
  "InPlanePhaseEncodingDirectionDICOM": "COL",
  "InstitutionAddress": "Chemin Queen-Mary 4565,Montreal,District,CA,H3W 1W5",
  "InstitutionName": "IUGM",
  "InstitutionalDepartmentName": "Department",
  "MRAcquisitionType": "2D",
  "MagneticFieldStrength": 3,
  "Manufacturer": "Siemens",
  "ManufacturersModelName": "Prisma_fit",
  "MatrixCoilMode": "SENSE",
  "Modality": "MR",
  "MultibandAccelerationFactor": 4,
  "PartialFourier": 1,
  "PatientPosition": "HFS",
  "PercentPhaseFOV": 100,
  "PercentSampling": 100,
  "PhaseEncodingDirection": "j",
  "PhaseEncodingSteps": 104,
  "PhaseResolution": 1,
  "PixelBandwidth": 2290,
  "ProcedureStepDescription": "games^mario3",
  "ProtocolName": "func_task-mario3_run-02",
  "PulseSequenceDetails": "%CustomerSeq%\\cmrr_mbep2d_bold",
  "ReceiveCoilActiveElements": "HC1-7;NC1,2",
  "ReceiveCoilName": "HeadNeck_64",
  "ReconMatrixPE": 104,
  "RepetitionTime": 1.49,
  "SAR": 0.0837087,
  "ScanOptions": "FS",
  "ScanningSequence": "EP",
  "SequenceName": "epfid2d1_104",
  "SequenceVariant": "SK\\SS",
  "SeriesDescription": "func_task-mario3_run-02",
  "SeriesNumber": 13,
  "ShimSetting": [600, -7232, -8821, 608, 110, -50, -129, 82],
  "SliceThickness": 2,
  "SliceTiming": [0, 0.785, 0.0975, 0.8825, 0.195, 0.98, 0.295, 1.0775, 0.3925, 1.175, 0.49, 1.275, 0.5875, 1.3725, 0.685, 0, 0.785, 0.0975, 0.8825, 0.195, 0.98, 0.295, 1.0775, 0.3925, 1.175, 0.49, 1.275, 0.5875, 1.3725, 0.685, 0, 0.785, 0.0975, 0.8825, 0.195, 0.98, 0.295, 1.0775, 0.3925, 1.175, 0.49, 1.275, 0.5875, 1.3725, 0.685, 0, 0.785, 0.0975, 0.8825, 0.195, 0.98, 0.295, 1.0775, 0.3925, 1.175, 0.49, 1.275, 0.5875, 1.3725, 0.685],
  "SoftwareVersions": "syngo MR E11",
  "SpacingBetweenSlices": 2,
  "StationName": "MRC35049",
  "TaskName": "mario3",
  "TotalReadoutTime": 0.0576811,
  "TxRefAmp": 310.44,
  "WipMemBlock": "bd5a98db-3721-4cbd-b0b1-b58f06aa674a||Sequence: R017 ve11c/master r/75a17815+; Jun 28 2022 16:32:11 by eja",
  "dcmmeta_affine": [
    [-1.9905712604522705, -0.15072008967399597, 0.12210506200790405, 111.7552490234375],
    [-0.18633314967155457, 1.83565092086792, -0.7717939019203186, -56.160953521728516],
    [0.053908709436655045, 0.7795314788818359, 1.8410390615463257, -71.87001037597656],
    [0.0, 0.0, 0.0, 1.0]
],
  "dcmmeta_reorient_transform": [
    [0.0, -1.0, 0.0, 103.0],
    [1.0, 0.0, 0.0, 0.0],
    [0.0, 0.0, 1.0, 0.0],
    [0.0, 0.0, 0.0, 1.0]
],
  "dcmmeta_shape": [104, 104, 60, 385],
  "dcmmeta_slice_dim": 2,
  "dcmmeta_version": 0.6,
  "global": {
    "const": {
      "AcquisitionMatrix": [104, 0, 0, 104],
      "AngioFlag": "N",
      "BitsAllocated": 16,
      "BitsStored": 16,
      "BodyPartExamined": "BRAIN",
      "Columns": 832,
      "EchoNumbers": 1,
      "EchoTime": 37.0,
      "EchoTrainLength": 104,
      "FlipAngle": 52.0,
      "HighBit": 15,
      "ImageOrientationPatient": [0.99528561336371, 0.09316657464484, 0.02695435401141, -0.0753600455196, 0.91782544167288, -0.3897657272738],
      "ImagePositionPatient": [-765.93689579338, -868.91327711675, 272.54841268247],
      "ImageType": [
        "ORIGINAL",
        "PRIMARY",
        "M",
        "MB",
        "ND",
        "MOSAIC"
],
      "ImagedNucleus": "1H",
      "ImagingFrequency": 123.259092,
      "InPlanePhaseEncodingDirection": "COL",
      "MRAcquisitionType": "2D",
      "MagneticFieldStrength": 3.0,
      "Manufacturer": "SIEMENS",
      "ManufacturerModelName": "Prisma_fit",
      "Modality": "MR",
      "NumberOfAverages": 1.0,
      "NumberOfPhaseEncodingSteps": 104,
      "PercentPhaseFieldOfView": 100.0,
      "PercentSampling": 100.0,
      "PerformedProcedureStepStartTime": "113637.223000",
      "PhotometricInterpretation": "MONOCHROME2",
      "PixelBandwidth": 2290.0,
      "PixelRepresentation": 0,
      "PixelSpacing": [2.0, 2.0],
      "ProtocolName": "func_task-mario3_run-02",
      "RepetitionTime": 1490.0,
      "Rows": 832,
      "SAR": 0.08370870493739,
      "SamplesPerPixel": 1,
      "ScanOptions": "FS",
      "ScanningSequence": "EP",
      "SequenceName": "epfid2d1_104",
      "SequenceVariant": [
        "SK",
        "SS"
],
      "SeriesDescription": "func_task-mario3_run-02",
      "SeriesNumber": 13,
      "SeriesTime": "115129.995000",
      "SliceLocation": -37.662462208175,
      "SliceThickness": 2.0,
      "SmallestImagePixelValue": 0,
      "SoftwareVersions": "syngo MR E11",
      "SpacingBetweenSlices": 2.0000000501357,
      "SpecificCharacterSet": "ISO_IR 100",
      "StudyID": "1",
      "StudyTime": "113637.147000",
      "TransmitCoilName": "Body",
      "VariableFlipAngleFlag": "N",
      "WindowCenterWidthExplanation": "Algo1",
      "dBdt": 0.0},
    "slices": {}
  },
  "time": {
    "samples": {
      "AcquisitionNumber": [1, 2, 3, 4, 5, 6, 7, 8, 9, 10, 11, 12, 13, 14, 15, 16, 17, 18, 19, 20, 21, 22, 23, 24, 25, 26, 27, 28, 29, 30, 31, 32, 33, 34, 35, 36, 37, 38, 39, 40, 41, 42, 43, 44, 45, 46, 47, 48, 49, 50, 51, 52, 53, 54, 55, 56, 57, 58, 59, 60, 61, 62, 63, 64, 65, 66, 67, 68, 69, 70, 71, 72, 73, 74, 75, 76, 77, 78, 79, 80, 81, 82, 83, 84, 85, 86, 87, 88, 89, 90, 91, 92, 93, 94, 95, 96, 97, 98, 99, 100, 101, 102, 103, 104, 105, 106, 107, 108, 109, 110, 111, 112, 113, 114, 115, 116, 117, 118, 119, 120, 121, 122, 123, 124, 125, 126, 127, 128, 129, 130, 131, 132, 133, 134, 135, 136, 137, 138, 139, 140, 141, 142, 143, 144, 145, 146, 147, 148, 149, 150, 151, 152, 153, 154, 155, 156, 157, 158, 159, 160, 161, 162, 163, 164, 165, 166, 167, 168, 169, 170, 171, 172, 173, 174, 175, 176, 177, 178, 179, 180, 181, 182, 183, 184, 185, 186, 187, 188, 189, 190, 191, 192, 193, 194, 195, 196, 197, 198, 199, 200, 201, 202, 203, 204, 205, 206, 207, 208, 209, 210, 211, 212, 213, 214, 215, 216, 217, 218, 219, 220, 221, 222, 223, 224, 225, 226, 227, 228, 229, 230, 231, 232, 233, 234, 235, 236, 237, 238, 239, 240, 241, 242, 243, 244, 245, 246, 247, 248, 249, 250, 251, 252, 253, 254, 255, 256, 257, 258, 259, 260, 261, 262, 263, 264, 265, 266, 267, 268, 269, 270, 271, 272, 273, 274, 275, 276, 277, 278, 279, 280, 281, 282, 283, 284, 285, 286, 287, 288, 289, 290, 291, 292, 293, 294, 295, 296, 297, 298, 299, 300, 301, 302, 303, 304, 305, 306, 307, 308, 309, 310, 311, 312, 313, 314, 315, 316, 317, 318, 319, 320, 321, 322, 323, 324, 325, 326, 327, 328, 329, 330, 331, 332, 333, 334, 335, 336, 337, 338, 339, 340, 341, 342, 343, 344, 345, 346, 347, 348, 349, 350, 351, 352, 353, 354, 355, 356, 357, 358, 359, 360, 361, 362, 363, 364, 365, 366, 367, 368, 369, 370, 371, 372, 373, 374, 375, 376, 377, 378, 379, 380, 381, 382, 383, 384, 385],
      "AcquisitionTime": ["115012.005000", "115013.495000", "115014.985000", "115016.475000", "115017.965000", "115019.455000", "115020.945000", "115022.435000", "115023.925000", "115025.415000", "115026.905000", "115028.395000", "115029.885000", "115031.375000", "115032.865000", "115034.355000", "115035.845000", "115037.335000", "115038.825000", "115040.315000", "115041.805000", "115043.295000", "115044.785000", "115046.275000", "115047.765000", "115049.255000", "115050.745000", "115052.235000", "115053.725000", "115055.215000", "115056.705000", "115058.195000", "115059.685000", "115101.175000", "115102.665000", "115104.155000", "115105.645000", "115107.135000", "115108.625000", "115110.115000", "115111.605000", "115113.095000", "115114.585000", "115116.075000", "115117.565000", "115119.055000", "115120.545000", "115122.035000", "115123.525000", "115125.015000", "115126.505000", "115127.995000", "115129.485000", "115130.975000", "115132.465000", "115133.955000", "115135.445000", "115136.935000", "115138.425000", "115139.915000", "115141.405000", "115142.895000", "115144.385000", "115145.875000", "115147.365000", "115148.855000", "115150.345000", "115151.835000", "115153.325000", "115154.815000", "115156.305000", "115157.795000", "115159.285000", "115200.775000", "115202.265000", "115203.755000", "115205.245000", "115206.735000", "115208.225000", "115209.715000", "115211.205000", "115212.695000", "115214.185000", "115215.675000", "115217.165000", "115218.655000", "115220.145000", "115221.635000", "115223.125000", "115224.615000", "115226.105000", "115227.595000", "115229.085000", "115230.575000", "115232.065000", "115233.555000", "115235.045000", "115236.535000", "115238.025000", "115239.515000", "115241.005000", "115242.495000", "115243.985000", "115245.475000", "115246.965000", "115248.455000", "115249.945000", "115251.435000", "115252.925000", "115254.415000", "115255.905000", "115257.395000", "115258.885000", "115300.375000", "115301.865000", "115303.355000", "115304.845000", "115306.335000", "115307.825000", "115309.315000", "115310.805000", "115312.295000", "115313.785000", "115315.275000", "115316.765000", "115318.255000", "115319.745000", "115321.235000", "115322.725000", "115324.215000", "115325.705000", "115327.195000", "115328.685000", "115330.175000", "115331.665000", "115333.155000", "115334.645000", "115336.135000", "115337.625000", "115339.115000", "115340.605000", "115342.095000", "115343.585000", "115345.075000", "115346.565000", "115348.055000", "115349.545000", "115351.035000", "115352.525000", "115354.015000", "115355.505000", "115356.995000", "115358.485000", "115359.975000", "115401.465000", "115402.955000", "115404.445000", "115405.935000", "115407.425000", "115408.915000", "115410.405000", "115411.895000", "115413.385000", "115414.875000", "115416.365000", "115417.855000", "115419.345000", "115420.835000", "115422.325000", "115423.815000", "115425.305000", "115426.795000", "115428.285000", "115429.775000", "115431.265000", "115432.755000", "115434.245000", "115435.735000", "115437.225000", "115438.715000", "115440.205000", "115441.695000", "115443.185000", "115444.675000", "115446.165000", "115447.655000", "115449.145000", "115450.635000", "115452.125000", "115453.615000", "115455.105000", "115456.595000", "115458.085000", "115459.575000", "115501.065000", "115502.555000", "115504.045000", "115505.535000", "115507.025000", "115508.515000", "115510.005000", "115511.495000", "115512.985000", "115514.475000", "115515.965000", "115517.455000", "115518.945000", "115520.435000", "115521.925000", "115523.415000", "115524.905000", "115526.395000", "115527.885000", "115529.375000", "115530.865000", "115532.355000", "115533.845000", "115535.335000", "115536.825000", "115538.315000", "115539.805000", "115541.295000", "115542.785000", "115544.275000", "115545.765000", "115547.255000", "115548.745000", "115550.235000", "115551.725000", "115553.215000", "115554.705000", "115556.195000", "115557.685000", "115559.175000", "115600.665000", "115602.155000", "115603.645000", "115605.135000", "115606.625000", "115608.115000", "115609.605000", "115611.095000", "115612.585000", "115614.075000", "115615.565000", "115617.055000", "115618.545000", "115620.035000", "115621.525000", "115623.015000", "115624.505000", "115625.995000", "115627.485000", "115628.975000", "115630.465000", "115631.955000", "115633.445000", "115634.935000", "115636.425000", "115637.915000", "115639.405000", "115640.895000", "115642.385000", "115643.875000", "115645.365000", "115646.855000", "115648.345000", "115649.835000", "115651.325000", "115652.815000", "115654.305000", "115655.795000", "115657.285000", "115658.775000", "115700.265000", "115701.755000", "115703.245000", "115704.735000", "115706.225000", "115707.715000", "115709.205000", "115710.695000", "115712.185000", "115713.675000", "115715.165000", "115716.655000", "115718.145000", "115719.635000", "115721.125000", "115722.615000", "115724.105000", "115725.595000", "115727.085000", "115728.575000", "115730.065000", "115731.555000", "115733.045000", "115734.535000", "115736.025000", "115737.515000", "115739.005000", "115740.495000", "115741.985000", "115743.475000", "115744.965000", "115746.455000", "115747.945000", "115749.435000", "115750.925000", "115752.415000", "115753.905000", "115755.395000", "115756.885000", "115758.375000", "115759.865000", "115801.355000", "115802.845000", "115804.335000", "115805.825000", "115807.315000", "115808.805000", "115810.295000", "115811.785000", "115813.275000", "115814.765000", "115816.255000", "115817.745000", "115819.235000", "115820.725000", "115822.215000", "115823.705000", "115825.195000", "115826.685000", "115828.175000", "115829.665000", "115831.155000", "115832.645000", "115834.135000", "115835.625000", "115837.115000", "115838.605000", "115840.095000", "115841.585000", "115843.075000", "115844.565000", "115846.055000", "115847.545000", "115849.035000", "115850.525000", "115852.015000", "115853.505000", "115854.995000", "115856.485000", "115857.975000", "115859.465000", "115900.955000", "115902.445000", "115903.935000", "115905.425000", "115906.915000", "115908.405000", "115909.895000", "115911.385000", "115912.875000", "115914.365000", "115915.855000", "115917.345000", "115918.835000", "115920.325000", "115921.815000", "115923.305000", "115924.795000", "115926.285000", "115927.775000", "115929.265000", "115930.755000", "115932.245000", "115933.735000", "115935.225000", "115936.715000", "115938.205000", "115939.695000", "115941.185000", "115942.675000", "115944.165000"],
      "ContentTime": ["115129.998000", "115130.003000", "115130.007000", "115130.010000", "115130.013000", "115130.016000", "115130.020000", "115130.023000", "115130.034000", "115130.038000", "115130.041000", "115130.044000", "115130.048000", "115130.051000", "115130.054000", "115130.057000", "115130.061000", "115130.064000", "115130.067000", "115130.071000", "115130.074000", "115130.077000", "115130.081000", "115130.084000", "115130.087000", "115130.090000", "115130.094000", "115130.097000", "115130.100000", "115130.103000", "115149.952000", "115149.956000", "115149.959000", "115149.962000", "115149.965000", "115149.969000", "115149.972000", "115149.975000", "115149.978000", "115149.982000", "115149.985000", "115149.989000", "115149.993000", "115149.996000", "115150.000000", "115150.003000", "115150.007000", "115150.010000", "115150.013000", "115150.016000", "115209.952000", "115209.956000", "115209.959000", "115209.963000", "115209.966000", "115209.969000", "115209.972000", "115209.976000", "115209.979000", "115209.982000", "115209.985000", "115209.989000", "115209.992000", "115209.995000", "115209.998000", "115210.003000", "115210.006000", "115210.009000", "115210.012000", "115210.019000", "115210.022000", "115229.952000", "115229.956000", "115229.964000", "115229.967000", "115229.970000", "115229.974000", "115229.977000", "115229.980000", "115229.984000", "115229.987000", "115229.991000", "115229.994000", "115229.997000", "115230.001000", "115230.005000", "115230.008000", "115230.011000", "115230.015000", "115230.018000", "115230.021000", "115309.953000", "115309.964000", "115309.967000", "115309.971000", "115309.974000", "115309.977000", "115309.981000", "115309.984000", "115309.987000", "115309.991000", "115309.994000", "115309.997000", "115310.001000", "115310.019000", "115310.022000", "115310.026000", "115310.029000", "115310.038000", "115310.041000", "115310.045000", "115310.048000", "115310.052000", "115310.055000", "115310.058000", "115310.061000", "115310.065000", "115310.068000", "115310.071000", "115349.952000", "115349.956000", "115349.959000", "115349.962000", "115349.966000", "115349.969000", "115349.973000", "115349.977000", "115349.980000", "115349.983000", "115349.987000", "115349.990000", "115349.993000", "115349.997000", "115350.001000", "115350.004000", "115350.008000", "115350.011000", "115350.014000", "115350.018000", "115350.021000", "115350.024000", "115350.027000", "115350.031000", "115350.034000", "115350.038000", "115429.952000", "115429.956000", "115429.959000", "115429.962000", "115429.972000", "115429.975000", "115429.978000", "115429.981000", "115429.985000", "115429.988000", "115429.991000", "115429.995000", "115429.998000", "115430.002000", "115430.006000", "115430.009000", "115430.012000", "115430.015000", "115430.019000", "115430.022000", "115430.025000", "115430.029000", "115430.032000", "115430.035000", "115430.038000", "115430.042000", "115430.045000", "115509.952000", "115509.956000", "115509.959000", "115509.962000", "115509.966000", "115509.969000", "115509.972000", "115509.976000", "115509.979000", "115509.982000", "115509.986000", "115509.989000", "115509.992000", "115509.996000", "115510.000000", "115510.004000", "115510.007000", "115510.010000", "115510.014000", "115510.017000", "115510.020000", "115510.024000", "115510.027000", "115510.030000", "115510.034000", "115510.037000", "115510.040000", "115549.952000", "115549.956000", "115549.959000", "115549.962000", "115549.966000", "115549.969000", "115549.972000", "115549.975000", "115549.979000", "115549.982000", "115549.985000", "115549.989000", "115549.992000", "115549.995000", "115549.998000", "115550.003000", "115550.006000", "115550.009000", "115550.013000", "115550.016000", "115550.019000", "115550.023000", "115550.026000", "115550.029000", "115550.033000", "115550.036000", "115550.039000", "115629.952000", "115629.956000", "115629.959000", "115629.962000", "115629.966000", "115629.969000", "115629.972000", "115629.976000", "115629.979000", "115629.982000", "115629.985000", "115629.989000", "115629.992000", "115629.995000", "115629.998000", "115630.003000", "115630.006000", "115630.009000", "115630.013000", "115630.016000", "115630.019000", "115630.022000", "115630.026000", "115630.029000", "115630.032000", "115630.036000", "115630.039000", "115709.952000", "115709.956000", "115709.959000", "115709.962000", "115709.966000", "115709.969000", "115709.972000", "115709.976000", "115709.979000", "115709.982000", "115709.986000", "115709.989000", "115709.992000", "115709.995000", "115710.000000", "115710.003000", "115710.007000", "115710.010000", "115710.013000", "115710.016000", "115710.020000", "115710.023000", "115710.026000", "115710.030000", "115710.033000", "115710.036000", "115710.039000", "115749.953000", "115749.957000", "115749.960000", "115749.970000", "115749.973000", "115749.976000", "115749.980000", "115749.984000", "115749.987000", "115749.990000", "115749.994000", "115749.997000", "115750.002000", "115750.012000", "115750.016000", "115750.019000", "115750.022000", "115750.026000", "115750.029000", "115750.032000", "115750.036000", "115750.039000", "115750.042000", "115750.046000", "115750.049000", "115750.052000", "115829.952000", "115829.956000", "115829.959000", "115829.963000", "115829.966000", "115829.969000", "115829.973000", "115829.976000", "115829.979000", "115829.983000", "115829.986000", "115829.989000", "115829.993000", "115829.996000", "115830.000000", "115830.004000", "115830.007000", "115830.010000", "115830.014000", "115830.017000", "115830.020000", "115830.024000", "115830.027000", "115830.031000", "115830.034000", "115830.037000", "115830.040000", "115909.952000", "115909.956000", "115909.959000", "115909.962000", "115909.966000", "115909.969000", "115909.972000", "115909.976000", "115909.979000", "115909.982000", "115909.985000", "115909.989000", "115909.992000", "115909.995000", "115909.998000", "115910.003000", "115910.006000", "115910.009000", "115910.013000", "115910.016000", "115910.019000", "115910.023000", "115910.026000", "115910.029000", "115910.032000", "115910.036000", "115910.039000", "115947.132000", "115947.135000", "115947.139000", "115947.142000", "115947.146000", "115947.149000", "115947.152000", "115947.155000", "115947.159000", "115947.162000", "115947.165000", "115947.169000", "115947.173000", "115947.177000", "115947.180000", "115947.183000", "115947.187000", "115947.190000", "115947.193000", "115947.196000", "115947.200000", "115947.203000", "115947.206000", "115947.209000", "115947.213000"],
      "InstanceCreationTime": ["115129.998000", "115130.003000", "115130.007000", "115130.010000", "115130.013000", "115130.016000", "115130.020000", "115130.023000", "115130.034000", "115130.038000", "115130.041000", "115130.044000", "115130.048000", "115130.051000", "115130.054000", "115130.057000", "115130.061000", "115130.064000", "115130.067000", "115130.071000", "115130.074000", "115130.077000", "115130.081000", "115130.084000", "115130.087000", "115130.090000", "115130.094000", "115130.097000", "115130.100000", "115130.103000", "115149.952000", "115149.956000", "115149.959000", "115149.962000", "115149.965000", "115149.969000", "115149.972000", "115149.975000", "115149.978000", "115149.982000", "115149.985000", "115149.989000", "115149.993000", "115149.996000", "115150.000000", "115150.003000", "115150.007000", "115150.010000", "115150.013000", "115150.016000", "115209.952000", "115209.956000", "115209.959000", "115209.963000", "115209.966000", "115209.969000", "115209.972000", "115209.976000", "115209.979000", "115209.982000", "115209.985000", "115209.989000", "115209.992000", "115209.995000", "115209.998000", "115210.003000", "115210.006000", "115210.009000", "115210.012000", "115210.019000", "115210.022000", "115229.952000", "115229.956000", "115229.964000", "115229.967000", "115229.970000", "115229.974000", "115229.977000", "115229.980000", "115229.984000", "115229.987000", "115229.991000", "115229.994000", "115229.997000", "115230.001000", "115230.005000", "115230.008000", "115230.011000", "115230.015000", "115230.018000", "115230.021000", "115309.953000", "115309.964000", "115309.967000", "115309.971000", "115309.974000", "115309.977000", "115309.981000", "115309.984000", "115309.987000", "115309.991000", "115309.994000", "115309.997000", "115310.001000", "115310.019000", "115310.022000", "115310.026000", "115310.029000", "115310.038000", "115310.041000", "115310.045000", "115310.048000", "115310.052000", "115310.055000", "115310.058000", "115310.061000", "115310.065000", "115310.068000", "115310.071000", "115349.952000", "115349.956000", "115349.959000", "115349.962000", "115349.966000", "115349.969000", "115349.973000", "115349.977000", "115349.980000", "115349.983000", "115349.987000", "115349.990000", "115349.993000", "115349.997000", "115350.001000", "115350.004000", "115350.008000", "115350.011000", "115350.014000", "115350.018000", "115350.021000", "115350.024000", "115350.027000", "115350.031000", "115350.034000", "115350.038000", "115429.952000", "115429.956000", "115429.959000", "115429.962000", "115429.972000", "115429.975000", "115429.978000", "115429.981000", "115429.985000", "115429.988000", "115429.991000", "115429.995000", "115429.998000", "115430.002000", "115430.006000", "115430.009000", "115430.012000", "115430.015000", "115430.019000", "115430.022000", "115430.025000", "115430.029000", "115430.032000", "115430.035000", "115430.038000", "115430.042000", "115430.045000", "115509.952000", "115509.956000", "115509.959000", "115509.962000", "115509.966000", "115509.969000", "115509.972000", "115509.976000", "115509.979000", "115509.982000", "115509.986000", "115509.989000", "115509.992000", "115509.996000", "115510.000000", "115510.004000", "115510.007000", "115510.010000", "115510.014000", "115510.017000", "115510.020000", "115510.024000", "115510.027000", "115510.030000", "115510.034000", "115510.037000", "115510.040000", "115549.952000", "115549.956000", "115549.959000", "115549.962000", "115549.966000", "115549.969000", "115549.972000", "115549.975000", "115549.979000", "115549.982000", "115549.985000", "115549.989000", "115549.992000", "115549.995000", "115549.998000", "115550.003000", "115550.006000", "115550.009000", "115550.013000", "115550.016000", "115550.019000", "115550.023000", "115550.026000", "115550.029000", "115550.033000", "115550.036000", "115550.039000", "115629.952000", "115629.956000", "115629.959000", "115629.962000", "115629.966000", "115629.969000", "115629.972000", "115629.976000", "115629.979000", "115629.982000", "115629.985000", "115629.989000", "115629.992000", "115629.995000", "115629.998000", "115630.003000", "115630.006000", "115630.009000", "115630.013000", "115630.016000", "115630.019000", "115630.022000", "115630.026000", "115630.029000", "115630.032000", "115630.036000", "115630.039000", "115709.952000", "115709.956000", "115709.959000", "115709.962000", "115709.966000", "115709.969000", "115709.972000", "115709.976000", "115709.979000", "115709.982000", "115709.986000", "115709.989000", "115709.992000", "115709.995000", "115710.000000", "115710.003000", "115710.007000", "115710.010000", "115710.013000", "115710.016000", "115710.020000", "115710.023000", "115710.026000", "115710.030000", "115710.033000", "115710.036000", "115710.039000", "115749.953000", "115749.957000", "115749.960000", "115749.970000", "115749.973000", "115749.976000", "115749.980000", "115749.984000", "115749.987000", "115749.990000", "115749.994000", "115749.997000", "115750.002000", "115750.012000", "115750.016000", "115750.019000", "115750.022000", "115750.026000", "115750.029000", "115750.032000", "115750.036000", "115750.039000", "115750.042000", "115750.046000", "115750.049000", "115750.052000", "115829.952000", "115829.956000", "115829.959000", "115829.963000", "115829.966000", "115829.969000", "115829.973000", "115829.976000", "115829.979000", "115829.983000", "115829.986000", "115829.989000", "115829.993000", "115829.996000", "115830.000000", "115830.004000", "115830.007000", "115830.010000", "115830.014000", "115830.017000", "115830.020000", "115830.024000", "115830.027000", "115830.031000", "115830.034000", "115830.037000", "115830.040000", "115909.952000", "115909.956000", "115909.959000", "115909.962000", "115909.966000", "115909.969000", "115909.972000", "115909.976000", "115909.979000", "115909.982000", "115909.985000", "115909.989000", "115909.992000", "115909.995000", "115909.998000", "115910.003000", "115910.006000", "115910.009000", "115910.013000", "115910.016000", "115910.019000", "115910.023000", "115910.026000", "115910.029000", "115910.032000", "115910.036000", "115910.039000", "115947.132000", "115947.135000", "115947.139000", "115947.142000", "115947.146000", "115947.149000", "115947.152000", "115947.155000", "115947.159000", "115947.162000", "115947.165000", "115947.169000", "115947.173000", "115947.177000", "115947.180000", "115947.183000", "115947.187000", "115947.190000", "115947.193000", "115947.196000", "115947.200000", "115947.203000", "115947.206000", "115947.209000", "115947.213000"],
      "InstanceNumber": [1, 2, 3, 4, 5, 6, 7, 8, 9, 10, 11, 12, 13, 14, 15, 16, 17, 18, 19, 20, 21, 22, 23, 24, 25, 26, 27, 28, 29, 30, 31, 32, 33, 34, 35, 36, 37, 38, 39, 40, 41, 42, 43, 44, 45, 46, 47, 48, 49, 50, 51, 52, 53, 54, 55, 56, 57, 58, 59, 60, 61, 62, 63, 64, 65, 66, 67, 68, 69, 70, 71, 72, 73, 74, 75, 76, 77, 78, 79, 80, 81, 82, 83, 84, 85, 86, 87, 88, 89, 90, 91, 92, 93, 94, 95, 96, 97, 98, 99, 100, 101, 102, 103, 104, 105, 106, 107, 108, 109, 110, 111, 112, 113, 114, 115, 116, 117, 118, 119, 120, 121, 122, 123, 124, 125, 126, 127, 128, 129, 130, 131, 132, 133, 134, 135, 136, 137, 138, 139, 140, 141, 142, 143, 144, 145, 146, 147, 148, 149, 150, 151, 152, 153, 154, 155, 156, 157, 158, 159, 160, 161, 162, 163, 164, 165, 166, 167, 168, 169, 170, 171, 172, 173, 174, 175, 176, 177, 178, 179, 180, 181, 182, 183, 184, 185, 186, 187, 188, 189, 190, 191, 192, 193, 194, 195, 196, 197, 198, 199, 200, 201, 202, 203, 204, 205, 206, 207, 208, 209, 210, 211, 212, 213, 214, 215, 216, 217, 218, 219, 220, 221, 222, 223, 224, 225, 226, 227, 228, 229, 230, 231, 232, 233, 234, 235, 236, 237, 238, 239, 240, 241, 242, 243, 244, 245, 246, 247, 248, 249, 250, 251, 252, 253, 254, 255, 256, 257, 258, 259, 260, 261, 262, 263, 264, 265, 266, 267, 268, 269, 270, 271, 272, 273, 274, 275, 276, 277, 278, 279, 280, 281, 282, 283, 284, 285, 286, 287, 288, 289, 290, 291, 292, 293, 294, 295, 296, 297, 298, 299, 300, 301, 302, 303, 304, 305, 306, 307, 308, 309, 310, 311, 312, 313, 314, 315, 316, 317, 318, 319, 320, 321, 322, 323, 324, 325, 326, 327, 328, 329, 330, 331, 332, 333, 334, 335, 336, 337, 338, 339, 340, 341, 342, 343, 344, 345, 346, 347, 348, 349, 350, 351, 352, 353, 354, 355, 356, 357, 358, 359, 360, 361, 362, 363, 364, 365, 366, 367, 368, 369, 370, 371, 372, 373, 374, 375, 376, 377, 378, 379, 380, 381, 382, 383, 384, 385],
