{
  "AcquisitionMatrixPE": 104,
  "AcquisitionNumber": 1,
  "AcquisitionTime": "11:40:12.372500",
  "BandwidthPerPixelPhaseEncode": 17.17,
  "BaseResolution": 104,
  "BodyPartExamined": "BRAIN",
  "CoilCombinationMethod": "Sum of Squares",
  "ConsistencyInfo": "N4_VE11C_LATEST_20160120",
  "ConversionSoftware": "dcm2niix",
  "ConversionSoftwareVersion": "v1.0.20220505",
  "DerivedVendorReportedEchoSpacing": 0.000560011,
  "DeviceSerialNumber": "167006",
  "DwellTime": 2.1e-06,
  "EchoTime": 0.037,
  "EchoTrainLength": 104,
  "EffectiveEchoSpacing": 0.000560011,
  "FlipAngle": 52,
  "HeudiconvVersion": "0.5.3.post811+g6206e14",
  "ImageComments": "Unaliased MB4/PE3/LB",
  "ImageOrientationPatientDICOM": [0.995286, 0.0931666, 0.0269544, -0.07536, 0.917825, -0.389766],
  "ImageOrientationText": "Tra>Cor(-22.7)>Sag(3.5)",
  "ImageType": [
    "ORIGINAL",
    "PRIMARY",
    "M",
    "MB",
    "ND",
    "MOSAIC"
],
  "ImagingFrequency": 123.259,
  "InPlanePhaseEncodingDirectionDICOM": "COL",
  "InstitutionAddress": "Chemin Queen-Mary 4565,Montreal,District,CA,H3W 1W5",
  "InstitutionName": "IUGM",
  "InstitutionalDepartmentName": "Department",
  "MRAcquisitionType": "2D",
  "MagneticFieldStrength": 3,
  "Manufacturer": "Siemens",
  "ManufacturersModelName": "Prisma_fit",
  "MatrixCoilMode": "SENSE",
  "Modality": "MR",
  "MultibandAccelerationFactor": 4,
  "PartialFourier": 1,
  "PatientPosition": "HFS",
  "PercentPhaseFOV": 100,
  "PercentSampling": 100,
  "PhaseEncodingDirection": "j",
  "PhaseEncodingSteps": 104,
  "PhaseResolution": 1,
  "PixelBandwidth": 2290,
  "ProcedureStepDescription": "games^mario3",
  "ProtocolName": "func_task-mario3_run-01",
  "PulseSequenceDetails": "%CustomerSeq%\\cmrr_mbep2d_bold",
  "ReceiveCoilActiveElements": "HC1-7;NC1,2",
  "ReceiveCoilName": "HeadNeck_64",
  "ReconMatrixPE": 104,
  "RepetitionTime": 1.49,
  "SAR": 0.0837087,
  "ScanOptions": "FS",
  "ScanningSequence": "EP",
  "SequenceName": "epfid2d1_104",
  "SequenceVariant": "SK\\SS",
  "SeriesDescription": "func_task-mario3_run-01",
  "SeriesNumber": 10,
  "ShimSetting": [600, -7232, -8821, 608, 110, -50, -129, 82],
  "SliceThickness": 2,
  "SliceTiming": [0, 0.785, 0.0975, 0.8825, 0.195, 0.98, 0.295, 1.0775, 0.3925, 1.175, 0.49, 1.275, 0.5875, 1.3725, 0.685, 0, 0.785, 0.0975, 0.8825, 0.195, 0.98, 0.295, 1.0775, 0.3925, 1.175, 0.49, 1.275, 0.5875, 1.3725, 0.685, 0, 0.785, 0.0975, 0.8825, 0.195, 0.98, 0.295, 1.0775, 0.3925, 1.175, 0.49, 1.275, 0.5875, 1.3725, 0.685, 0, 0.785, 0.0975, 0.8825, 0.195, 0.98, 0.295, 1.0775, 0.3925, 1.175, 0.49, 1.275, 0.5875, 1.3725, 0.685],
  "SoftwareVersions": "syngo MR E11",
  "SpacingBetweenSlices": 2,
  "StationName": "MRC35049",
  "TaskName": "mario3",
  "TotalReadoutTime": 0.0576811,
  "TxRefAmp": 310.44,
  "WipMemBlock": "54ccbad0-f05b-40bd-ae7d-5225e59c4a4f||Sequence: R017 ve11c/master r/75a17815+; Jun 28 2022 16:32:11 by eja",
  "dcmmeta_affine": [
    [-1.9905712604522705, -0.15072008967399597, 0.12210506200790405, 111.7552490234375],
    [-0.18633314967155457, 1.83565092086792, -0.7717939019203186, -56.160953521728516],
    [0.053908709436655045, 0.7795314788818359, 1.8410390615463257, -71.87001037597656],
    [0.0, 0.0, 0.0, 1.0]
],
  "dcmmeta_reorient_transform": [
    [0.0, -1.0, 0.0, 103.0],
    [1.0, 0.0, 0.0, 0.0],
    [0.0, 0.0, 1.0, 0.0],
    [0.0, 0.0, 0.0, 1.0]
],
  "dcmmeta_shape": [104, 104, 60, 296],
  "dcmmeta_slice_dim": 2,
  "dcmmeta_version": 0.6,
  "global": {
    "const": {
      "AcquisitionMatrix": [104, 0, 0, 104],
      "AngioFlag": "N",
      "BitsAllocated": 16,
      "BitsStored": 16,
      "BodyPartExamined": "BRAIN",
      "Columns": 832,
      "EchoNumbers": 1,
      "EchoTime": 37.0,
      "EchoTrainLength": 104,
      "FlipAngle": 52.0,
      "HighBit": 15,
      "ImageOrientationPatient": [0.99528561336371, 0.09316657464484, 0.02695435401141, -0.0753600455196, 0.91782544167288, -0.3897657272738],
      "ImagePositionPatient": [-765.93689579338, -868.91327711675, 272.54841268247],
      "ImageType": [
        "ORIGINAL",
        "PRIMARY",
        "M",
        "MB",
        "ND",
        "MOSAIC"
],
      "ImagedNucleus": "1H",
      "ImagingFrequency": 123.259088,
      "InPlanePhaseEncodingDirection": "COL",
      "MRAcquisitionType": "2D",
      "MagneticFieldStrength": 3.0,
      "Manufacturer": "SIEMENS",
      "ManufacturerModelName": "Prisma_fit",
      "Modality": "MR",
      "NumberOfAverages": 1.0,
      "NumberOfPhaseEncodingSteps": 104,
      "PercentPhaseFieldOfView": 100.0,
      "PercentSampling": 100.0,
      "PerformedProcedureStepStartTime": "113637.223000",
      "PhotometricInterpretation": "MONOCHROME2",
      "PixelBandwidth": 2290.0,
      "PixelRepresentation": 0,
      "PixelSpacing": [2.0, 2.0],
      "ProtocolName": "func_task-mario3_run-01",
      "RepetitionTime": 1490.0,
      "Rows": 832,
      "SAR": 0.08370870493739,
      "SamplesPerPixel": 1,
      "ScanOptions": "FS",
      "ScanningSequence": "EP",
      "SequenceName": "epfid2d1_104",
      "SequenceVariant": [
        "SK",
        "SS"
],
      "SeriesDescription": "func_task-mario3_run-01",
      "SeriesNumber": 10,
      "SeriesTime": "114132.196000",
      "SliceLocation": -37.662462208175,
      "SliceThickness": 2.0,
      "SmallestImagePixelValue": 0,
      "SoftwareVersions": "syngo MR E11",
      "SpacingBetweenSlices": 2.0000000501357,
      "SpecificCharacterSet": "ISO_IR 100",
      "StudyID": "1",
      "StudyTime": "113637.147000",
      "TransmitCoilName": "Body",
      "VariableFlipAngleFlag": "N",
      "WindowCenterWidthExplanation": "Algo1",
      "dBdt": 0.0},
    "slices": {}
  },
  "time": {
    "samples": {
      "AcquisitionNumber": [1, 2, 3, 4, 5, 6, 7, 8, 9, 10, 11, 12, 13, 14, 15, 16, 17, 18, 19, 20, 21, 22, 23, 24, 25, 26, 27, 28, 29, 30, 31, 32, 33, 34, 35, 36, 37, 38, 39, 40, 41, 42, 43, 44, 45, 46, 47, 48, 49, 50, 51, 52, 53, 54, 55, 56, 57, 58, 59, 60, 61, 62, 63, 64, 65, 66, 67, 68, 69, 70, 71, 72, 73, 74, 75, 76, 77, 78, 79, 80, 81, 82, 83, 84, 85, 86, 87, 88, 89, 90, 91, 92, 93, 94, 95, 96, 97, 98, 99, 100, 101, 102, 103, 104, 105, 106, 107, 108, 109, 110, 111, 112, 113, 114, 115, 116, 117, 118, 119, 120, 121, 122, 123, 124, 125, 126, 127, 128, 129, 130, 131, 132, 133, 134, 135, 136, 137, 138, 139, 140, 141, 142, 143, 144, 145, 146, 147, 148, 149, 150, 151, 152, 153, 154, 155, 156, 157, 158, 159, 160, 161, 162, 163, 164, 165, 166, 167, 168, 169, 170, 171, 172, 173, 174, 175, 176, 177, 178, 179, 180, 181, 182, 183, 184, 185, 186, 187, 188, 189, 190, 191, 192, 193, 194, 195, 196, 197, 198, 199, 200, 201, 202, 203, 204, 205, 206, 207, 208, 209, 210, 211, 212, 213, 214, 215, 216, 217, 218, 219, 220, 221, 222, 223, 224, 225, 226, 227, 228, 229, 230, 231, 232, 233, 234, 235, 236, 237, 238, 239, 240, 241, 242, 243, 244, 245, 246, 247, 248, 249, 250, 251, 252, 253, 254, 255, 256, 257, 258, 259, 260, 261, 262, 263, 264, 265, 266, 267, 268, 269, 270, 271, 272, 273, 274, 275, 276, 277, 278, 279, 280, 281, 282, 283, 284, 285, 286, 287, 288, 289, 290, 291, 292, 293, 294, 295, 296],
      "AcquisitionTime": ["114012.372500", "114013.862500", "114015.352500", "114016.842500", "114018.332500", "114019.822500", "114021.312500", "114022.802500", "114024.292500", "114025.782500", "114027.272500", "114028.762500", "114030.252500", "114031.742500", "114033.232500", "114034.722500", "114036.212500", "114037.702500", "114039.192500", "114040.682500", "114042.172500", "114043.662500", "114045.152500", "114046.642500", "114048.132500", "114049.622500", "114051.112500", "114052.602500", "114054.092500", "114055.582500", "114057.072500", "114058.562500", "114100.052500", "114101.542500", "114103.032500", "114104.522500", "114106.012500", "114107.502500", "114108.992500", "114110.482500", "114111.972500", "114113.462500", "114114.952500", "114116.442500", "114117.932500", "114119.422500", "114120.912500", "114122.402500", "114123.892500", "114125.382500", "114126.872500", "114128.362500", "114129.852500", "114131.342500", "114132.832500", "114134.322500", "114135.812500", "114137.302500", "114138.792500", "114140.282500", "114141.772500", "114143.262500", "114144.752500", "114146.242500", "114147.732500", "114149.222500", "114150.712500", "114152.202500", "114153.692500", "114155.182500", "114156.672500", "114158.162500", "114159.652500", "114201.142500", "114202.632500", "114204.122500", "114205.612500", "114207.102500", "114208.592500", "114210.082500", "114211.572500", "114213.062500", "114214.552500", "114216.042500", "114217.532500", "114219.022500", "114220.512500", "114222.002500", "114223.492500", "114224.982500", "114226.472500", "114227.962500", "114229.452500", "114230.942500", "114232.432500", "114233.922500", "114235.412500", "114236.902500", "114238.392500", "114239.882500", "114241.372500", "114242.862500", "114244.352500", "114245.842500", "114247.332500", "114248.822500", "114250.312500", "114251.802500", "114253.292500", "114254.782500", "114256.272500", "114257.762500", "114259.252500", "114300.742500", "114302.232500", "114303.722500", "114305.212500", "114306.702500", "114308.192500", "114309.682500", "114311.172500", "114312.662500", "114314.152500", "114315.642500", "114317.132500", "114318.622500", "114320.112500", "114321.602500", "114323.092500", "114324.582500", "114326.072500", "114327.562500", "114329.052500", "114330.542500", "114332.032500", "114333.522500", "114335.012500", "114336.502500", "114337.992500", "114339.482500", "114340.972500", "114342.462500", "114343.952500", "114345.442500", "114346.932500", "114348.422500", "114349.912500", "114351.402500", "114352.892500", "114354.382500", "114355.872500", "114357.362500", "114358.852500", "114400.342500", "114401.832500", "114403.322500", "114404.812500", "114406.302500", "114407.792500", "114409.282500", "114410.772500", "114412.262500", "114413.752500", "114415.242500", "114416.732500", "114418.222500", "114419.712500", "114421.202500", "114422.692500", "114424.182500", "114425.672500", "114427.162500", "114428.652500", "114430.142500", "114431.632500", "114433.122500", "114434.612500", "114436.102500", "114437.592500", "114439.082500", "114440.572500", "114442.062500", "114443.552500", "114445.042500", "114446.532500", "114448.022500", "114449.512500", "114451.002500", "114452.492500", "114453.982500", "114455.472500", "114456.962500", "114458.452500", "114459.942500", "114501.432500", "114502.922500", "114504.412500", "114505.902500", "114507.392500", "114508.882500", "114510.372500", "114511.862500", "114513.352500", "114514.842500", "114516.332500", "114517.822500", "114519.312500", "114520.802500", "114522.292500", "114523.782500", "114525.272500", "114526.762500", "114528.252500", "114529.742500", "114531.232500", "114532.722500", "114534.212500", "114535.702500", "114537.192500", "114538.682500", "114540.172500", "114541.662500", "114543.152500", "114544.642500", "114546.132500", "114547.622500", "114549.112500", "114550.602500", "114552.092500", "114553.582500", "114555.072500", "114556.562500", "114558.052500", "114559.542500", "114601.032500", "114602.522500", "114604.012500", "114605.502500", "114606.992500", "114608.482500", "114609.972500", "114611.462500", "114612.952500", "114614.442500", "114615.932500", "114617.422500", "114618.912500", "114620.402500", "114621.892500", "114623.382500", "114624.872500", "114626.362500", "114627.852500", "114629.342500", "114630.832500", "114632.322500", "114633.812500", "114635.302500", "114636.792500", "114638.282500", "114639.772500", "114641.262500", "114642.752500", "114644.242500", "114645.732500", "114647.222500", "114648.712500", "114650.202500", "114651.692500", "114653.182500", "114654.672500", "114656.162500", "114657.652500", "114659.142500", "114700.632500", "114702.122500", "114703.612500", "114705.102500", "114706.592500", "114708.082500", "114709.572500", "114711.062500", "114712.552500", "114714.042500", "114715.532500", "114717.022500", "114718.512500", "114720.002500", "114721.492500", "114722.982500", "114724.472500", "114725.962500", "114727.452500", "114728.942500", "114730.432500", "114731.922500"],
      "ContentTime": ["114132.200000", "114132.204000", "114132.207000", "114132.211000", "114132.214000", "114132.217000", "114132.227000", "114132.231000", "114132.234000", "114132.237000", "114132.241000", "114132.244000", "114132.247000", "114132.251000", "114132.254000", "114132.257000", "114132.260000", "114132.264000", "114132.267000", "114132.270000", "114132.274000", "114132.290000", "114132.294000", "114132.297000", "114132.300000", "114132.304000", "114132.307000", "114132.310000", "114132.314000", "114132.317000", "114152.167000", "114152.171000", "114152.174000", "114152.178000", "114152.181000", "114152.184000", "114152.187000", "114152.191000", "114152.194000", "114152.197000", "114152.201000", "114152.204000", "114152.208000", "114152.211000", "114152.215000", "114152.218000", "114152.221000", "114152.225000", "114152.228000", "114152.231000", "114212.167000", "114212.171000", "114212.174000", "114212.177000", "114212.181000", "114212.184000", "114212.187000", "114212.191000", "114212.194000", "114212.197000", "114212.207000", "114212.210000", "114212.214000", "114212.217000", "114212.220000", "114212.223000", "114212.227000", "114212.230000", "114212.233000", "114212.237000", "114232.167000", "114232.171000", "114232.174000", "114232.177000", "114232.181000", "114232.184000", "114232.187000", "114232.190000", "114232.194000", "114232.197000", "114232.200000", "114232.203000", "114232.207000", "114232.210000", "114232.213000", "114232.217000", "114232.220000", "114232.223000", "114232.226000", "114232.229000", "114232.233000", "114312.166000", "114312.170000", "114312.173000", "114312.176000", "114312.180000", "114312.183000", "114312.186000", "114312.189000", "114312.193000", "114312.196000", "114312.200000", "114312.203000", "114312.206000", "114312.210000", "114312.213000", "114312.217000", "114312.220000", "114312.223000", "114312.226000", "114312.230000", "114312.233000", "114312.236000", "114312.240000", "114312.243000", "114312.246000", "114312.249000", "114312.253000", "114312.256000", "114312.273000", "114352.167000", "114352.171000", "114352.174000", "114352.178000", "114352.181000", "114352.184000", "114352.187000", "114352.191000", "114352.194000", "114352.197000", "114352.201000", "114352.204000", "114352.207000", "114352.211000", "114352.214000", "114352.217000", "114352.221000", "114352.224000", "114352.227000", "114352.231000", "114352.234000", "114352.237000", "114352.241000", "114352.244000", "114352.247000", "114352.250000", "114352.254000", "114432.167000", "114432.171000", "114432.174000", "114432.178000", "114432.181000", "114432.185000", "114432.188000", "114432.192000", "114432.195000", "114432.199000", "114432.202000", "114432.205000", "114432.209000", "114432.212000", "114432.215000", "114432.219000", "114432.222000", "114432.225000", "114432.229000", "114432.232000", "114432.235000", "114432.238000", "114432.242000", "114432.245000", "114432.248000", "114432.252000", "114432.255000", "114512.166000", "114512.170000", "114512.173000", "114512.177000", "114512.180000", "114512.183000", "114512.187000", "114512.190000", "114512.193000", "114512.197000", "114512.200000", "114512.203000", "114512.207000", "114512.210000", "114512.213000", "114512.216000", "114512.220000", "114512.223000", "114512.226000", "114512.230000", "114512.233000", "114512.236000", "114512.239000", "114512.243000", "114512.246000", "114512.249000", "114512.253000", "114552.167000", "114552.171000", "114552.174000", "114552.178000", "114552.181000", "114552.184000", "114552.187000", "114552.211000", "114552.214000", "114552.217000", "114552.222000", "114552.226000", "114552.229000", "114552.232000", "114552.236000", "114552.239000", "114552.242000", "114552.246000", "114552.249000", "114552.252000", "114552.256000", "114552.259000", "114552.262000", "114552.266000", "114552.269000", "114552.272000", "114632.167000", "114632.171000", "114632.175000", "114632.178000", "114632.181000", "114632.185000", "114632.188000", "114632.198000", "114632.201000", "114632.205000", "114632.208000", "114632.211000", "114632.215000", "114632.218000", "114632.222000", "114632.225000", "114632.229000", "114632.232000", "114632.235000", "114632.239000", "114632.242000", "114632.245000", "114632.249000", "114632.252000", "114632.256000", "114632.259000", "114632.262000", "114712.167000", "114712.171000", "114712.174000", "114712.178000", "114712.181000", "114712.184000", "114712.188000", "114712.191000", "114712.194000", "114712.197000", "114712.201000", "114712.204000", "114712.207000", "114712.210000", "114712.214000", "114712.217000", "114712.220000", "114712.224000", "114712.227000", "114712.230000", "114712.233000", "114712.237000", "114712.240000", "114712.244000", "114712.247000", "114712.251000", "114712.254000", "114734.482000", "114734.485000", "114734.489000", "114734.492000", "114734.496000", "114734.499000", "114734.502000", "114734.506000", "114734.509000", "114734.512000", "114734.515000", "114734.519000", "114734.522000", "114734.526000", "114734.529000"],
      "InstanceCreationTime": ["114132.200000", "114132.204000", "114132.207000", "114132.211000", "114132.214000", "114132.217000", "114132.227000", "114132.231000", "114132.234000", "114132.237000", "114132.241000", "114132.244000", "114132.247000", "114132.251000", "114132.254000", "114132.257000", "114132.260000", "114132.264000", "114132.267000", "114132.270000", "114132.274000", "114132.290000", "114132.294000", "114132.297000", "114132.300000", "114132.304000", "114132.307000", "114132.310000", "114132.314000", "114132.317000", "114152.167000", "114152.171000", "114152.174000", "114152.178000", "114152.181000", "114152.184000", "114152.187000", "114152.191000", "114152.194000", "114152.197000", "114152.201000", "114152.204000", "114152.208000", "114152.211000", "114152.215000", "114152.218000", "114152.221000", "114152.225000", "114152.228000", "114152.231000", "114212.167000", "114212.171000", "114212.174000", "114212.177000", "114212.181000", "114212.184000", "114212.187000", "114212.191000", "114212.194000", "114212.197000", "114212.207000", "114212.210000", "114212.214000", "114212.217000", "114212.220000", "114212.223000", "114212.227000", "114212.230000", "114212.233000", "114212.237000", "114232.167000", "114232.171000", "114232.174000", "114232.177000", "114232.181000", "114232.184000", "114232.187000", "114232.190000", "114232.194000", "114232.197000", "114232.200000", "114232.203000", "114232.207000", "114232.210000", "114232.213000", "114232.217000", "114232.220000", "114232.223000", "114232.226000", "114232.229000", "114232.233000", "114312.166000", "114312.170000", "114312.173000", "114312.176000", "114312.180000", "114312.183000", "114312.186000", "114312.189000", "114312.193000", "114312.196000", "114312.200000", "114312.203000", "114312.206000", "114312.210000", "114312.213000", "114312.217000", "114312.220000", "114312.223000", "114312.226000", "114312.230000", "114312.233000", "114312.236000", "114312.240000", "114312.243000", "114312.246000", "114312.249000", "114312.253000", "114312.256000", "114312.273000", "114352.167000", "114352.171000", "114352.174000", "114352.178000", "114352.181000", "114352.184000", "114352.187000", "114352.191000", "114352.194000", "114352.197000", "114352.201000", "114352.204000", "114352.207000", "114352.211000", "114352.214000", "114352.217000", "114352.221000", "114352.224000", "114352.227000", "114352.231000", "114352.234000", "114352.237000", "114352.241000", "114352.244000", "114352.247000", "114352.250000", "114352.254000", "114432.167000", "114432.171000", "114432.174000", "114432.178000", "114432.181000", "114432.185000", "114432.188000", "114432.192000", "114432.195000", "114432.199000", "114432.202000", "114432.205000", "114432.209000", "114432.212000", "114432.215000", "114432.219000", "114432.222000", "114432.225000", "114432.229000", "114432.232000", "114432.235000", "114432.238000", "114432.242000", "114432.245000", "114432.248000", "114432.252000", "114432.255000", "114512.166000", "114512.170000", "114512.173000", "114512.177000", "114512.180000", "114512.183000", "114512.187000", "114512.190000", "114512.193000", "114512.197000", "114512.200000", "114512.203000", "114512.207000", "114512.210000", "114512.213000", "114512.216000", "114512.220000", "114512.223000", "114512.226000", "114512.230000", "114512.233000", "114512.236000", "114512.239000", "114512.243000", "114512.246000", "114512.249000", "114512.253000", "114552.167000", "114552.171000", "114552.174000", "114552.178000", "114552.181000", "114552.184000", "114552.187000", "114552.211000", "114552.214000", "114552.217000", "114552.222000", "114552.226000", "114552.229000", "114552.232000", "114552.236000", "114552.239000", "114552.242000", "114552.246000", "114552.249000", "114552.252000", "114552.256000", "114552.259000", "114552.262000", "114552.266000", "114552.269000", "114552.272000", "114632.167000", "114632.171000", "114632.175000", "114632.178000", "114632.181000", "114632.185000", "114632.188000", "114632.198000", "114632.201000", "114632.205000", "114632.208000", "114632.211000", "114632.215000", "114632.218000", "114632.222000", "114632.225000", "114632.229000", "114632.232000", "114632.235000", "114632.239000", "114632.242000", "114632.245000", "114632.249000", "114632.252000", "114632.256000", "114632.259000", "114632.262000", "114712.167000", "114712.171000", "114712.174000", "114712.178000", "114712.181000", "114712.184000", "114712.188000", "114712.191000", "114712.194000", "114712.197000", "114712.201000", "114712.204000", "114712.207000", "114712.210000", "114712.214000", "114712.217000", "114712.220000", "114712.224000", "114712.227000", "114712.230000", "114712.233000", "114712.237000", "114712.240000", "114712.244000", "114712.247000", "114712.251000", "114712.254000", "114734.482000", "114734.485000", "114734.489000", "114734.492000", "114734.496000", "114734.499000", "114734.502000", "114734.506000", "114734.509000", "114734.512000", "114734.515000", "114734.519000", "114734.522000", "114734.526000", "114734.529000"],
      "InstanceNumber": [1, 2, 3, 4, 5, 6, 7, 8, 9, 10, 11, 12, 13, 14, 15, 16, 17, 18, 19, 20, 21, 22, 23, 24, 25, 26, 27, 28, 29, 30, 31, 32, 33, 34, 35, 36, 37, 38, 39, 40, 41, 42, 43, 44, 45, 46, 47, 48, 49, 50, 51, 52, 53, 54, 55, 56, 57, 58, 59, 60, 61, 62, 63, 64, 65, 66, 67, 68, 69, 70, 71, 72, 73, 74, 75, 76, 77, 78, 79, 80, 81, 82, 83, 84, 85, 86, 87, 88, 89, 90, 91, 92, 93, 94, 95, 96, 97, 98, 99, 100, 101, 102, 103, 104, 105, 106, 107, 108, 109, 110, 111, 112, 113, 114, 115, 116, 117, 118, 119, 120, 121, 122, 123, 124, 125, 126, 127, 128, 129, 130, 131, 132, 133, 134, 135, 136, 137, 138, 139, 140, 141, 142, 143, 144, 145, 146, 147, 148, 149, 150, 151, 152, 153, 154, 155, 156, 157, 158, 159, 160, 161, 162, 163, 164, 165, 166, 167, 168, 169, 170, 171, 172, 173, 174, 175, 176, 177, 178, 179, 180, 181, 182, 183, 184, 185, 186, 187, 188, 189, 190, 191, 192, 193, 194, 195, 196, 197, 198, 199, 200, 201, 202, 203, 204, 205, 206, 207, 208, 209, 210, 211, 212, 213, 214, 215, 216, 217, 218, 219, 220, 221, 222, 223, 224, 225, 226, 227, 228, 229, 230, 231, 232, 233, 234, 235, 236, 237, 238, 239, 240, 241, 242, 243, 244, 245, 246, 247, 248, 249, 250, 251, 252, 253, 254, 255, 256, 257, 258, 259, 260, 261, 262, 263, 264, 265, 266, 267, 268, 269, 270, 271, 272, 273, 274, 275, 276, 277, 278, 279, 280, 281, 282, 283, 284, 285, 286, 287, 288, 289, 290, 291, 292, 293, 294, 295, 296],
      "LargestImagePixelValue": [47514, 46074, 45776, 43223, 45244, 44068, 45397, 44956, 44709, 46195, 45835, 45946, 45273, 44674, 44579, 45273, 44069, 44488, 44067, 44126, 43363, 43902, 43417, 44131, 44239, 44169, 43359, 44823, 44632, 44613, 45251, 45353, 44989, 45133, 45063, 44205, 45121, 43984, 44496, 44102, 43877, 43872, 44472, 43880, 43557, 43200, 43620, 43450, 43774, 43188, 43087, 43855, 42957, 44397, 42836, 45610, 43872, 45208, 45294, 45450, 45947, 45820, 47705, 47733, 47694, 47656, 48138, 49288, 48124, 47995, 47729, 46839, 47153, 48004, 48126, 48238, 48304, 47933, 47851, 47660, 49502, 48600, 48255, 48040, 47967, 48115, 48019, 47952, 48457, 48305, 47862, 48009, 48195, 48156, 48271, 47379, 47503, 48474, 48039, 48279, 48368, 49285, 49564, 47801, 49220, 49408, 48733, 48514, 46897, 47852, 48472, 48234, 48146, 47891, 46877, 45812, 46324, 45880, 45768, 46046, 46165, 45501, 44469, 43428, 44609, 43967, 45323, 44798, 44963, 45104, 44282, 45648, 44395, 44184, 44355, 44088, 43384, 44105, 44080, 44128, 43885, 44033, 44583, 45389, 44507, 43950, 44657, 44566, 44830, 43620, 43877, 44103, 43613, 43386, 43164, 42469, 43322, 43387, 43748, 43031, 44045, 43235, 43010, 43079, 42913, 44439, 44796, 43883, 44056, 43756, 43576, 44094, 43323, 44525, 43867, 43592, 42914, 43534, 43527, 43524, 43348, 43376, 42789, 43305, 43257, 42604, 43500, 42828, 43546, 42856, 43074, 43157, 42558, 43485, 43472, 43060, 42343, 43192, 42587, 42765, 43484, 42549, 43262, 42685, 42701, 43163, 42938, 43379, 42413, 42666, 43902, 43207, 42573, 42869, 43320, 42936, 43616, 42264, 42983, 43355, 43555, 43184, 43148, 43146, 43295, 44058, 43675, 44101, 43357, 43608, 44211, 43572, 43734, 43926, 43878, 45028, 45216, 45203, 45893, 45479, 44583, 45680, 46131, 44838, 44718, 44790, 44882, 44819, 44996, 47137, 46356, 45271, 46132, 45376, 44948, 43852, 43298, 44622, 44510, 44823, 43926, 44676, 43633, 43641, 44680, 43222, 43414, 42933, 43137, 42752, 43242, 43637, 43878, 43950, 43442, 43476, 43541, 43412, 43698, 42882, 44100, 45666, 45421, 45565, 44813, 46339, 45473, 44336, 45436, 44336, 44343, 43750, 43279, 43782, 43769, 43433],
      "WindowCenter": [10508.0, 10465.0, 10453.0, 10447.0, 10463.0, 10441.0, 10432.0, 10416.0, 10422.0, 10453.0, 10454.0, 10469.0, 10450.0, 10452.0, 10437.0, 10459.0, 10457.0, 10475.0, 10460.0, 10450.0, 10426.0, 10423.0, 10413.0, 10428.0, 10430.0, 10430.0, 10417.0, 10431.0, 10425.0, 10440.0, 10457.0, 10466.0, 10463.0, 10450.0, 10437.0, 10417.0, 10428.0, 10425.0, 10450.0, 10445.0, 10456.0, 10446.0, 10449.0, 10427.0, 10455.0, 10469.0, 10461.0, 10436.0, 10423.0, 10391.0, 10386.0, 10401.0, 10398.0, 10430.0, 10415.0, 10448.0, 10420.0, 10439.0, 10442.0, 10440.0, 10447.0, 10461.0, 10486.0, 10468.0, 10442.0, 10424.0, 10426.0, 10442.0, 10452.0, 10463.0, 10465.0, 10454.0, 10451.0, 10445.0, 10454.0, 10460.0, 10477.0, 10472.0, 10474.0, 10458.0, 10471.0, 10459.0, 10459.0, 10463.0, 10480.0, 10492.0, 10495.0, 10494.0, 10482.0, 10473.0, 10457.0, 10456.0, 10455.0, 10456.0, 10452.0, 10432.0, 10449.0, 10467.0, 10473.0, 10474.0, 10475.0, 10460.0, 10459.0, 10426.0, 10433.0, 10443.0, 10435.0, 10435.0, 10425.0, 10419.0, 10423.0, 10422.0, 10436.0, 10450.0, 10453.0, 10448.0, 10455.0, 10436.0, 10432.0, 10430.0, 10440.0, 10443.0, 10451.0, 10448.0, 10451.0, 10423.0, 10434.0, 10432.0, 10453.0, 10463.0, 10453.0, 10452.0, 10434.0, 10426.0, 10435.0, 10435.0, 10437.0, 10428.0, 10435.0, 10432.0, 10426.0, 10418.0, 10423.0, 10427.0, 10423.0, 10427.0, 10431.0, 10426.0, 10415.0, 10409.0, 10401.0, 10416.0, 10413.0, 10422.0, 10416.0, 10400.0, 10408.0, 10397.0, 10405.0, 10402.0, 10420.0, 10425.0, 10420.0, 10401.0, 10402.0, 10421.0, 10427.0, 10424.0, 10421.0, 10424.0, 10417.0, 10429.0, 10411.0, 10426.0, 10432.0, 10437.0, 10426.0, 10429.0, 10419.0, 10410.0, 10408.0, 10435.0, 10434.0, 10441.0, 10430.0, 10414.0, 10418.0, 10423.0, 10439.0, 10416.0, 10407.0, 10402.0, 10396.0, 10410.0, 10419.0, 10420.0, 10402.0, 10406.0, 10398.0, 10414.0, 10429.0, 10410.0, 10416.0, 10401.0, 10407.0, 10413.0, 10407.0, 10419.0, 10410.0, 10421.0, 10429.0, 10414.0, 10409.0, 10416.0, 10423.0, 10422.0, 10436.0, 10420.0, 10442.0, 10435.0, 10431.0, 10430.0, 10431.0, 10441.0, 10435.0, 10446.0, 10422.0, 10423.0, 10421.0, 10435.0, 10453.0, 10447.0, 10447.0, 10431.0, 10428.0, 10436.0, 10446.0, 10447.0, 10452.0, 10446.0, 10441.0, 10452.0, 10456.0, 10459.0, 10466.0, 10470.0, 10453.0, 10449.0, 10440.0, 10454.0, 10451.0, 10440.0, 10442.0, 10424.0, 10392.0, 10376.0, 10377.0, 10412.0, 10439.0, 10459.0, 10451.0, 10449.0, 10444.0, 10431.0, 10429.0, 10406.0, 10403.0, 10410.0, 10413.0, 10405.0, 10422.0, 10430.0, 10427.0, 10418.0, 10410.0, 10411.0, 10417.0, 10421.0, 10414.0, 10407.0, 10407.0, 10425.0, 10425.0, 10421.0, 10410.0, 10424.0, 10415.0, 10400.0, 10418.0, 10437.0, 10435.0, 10419.0, 10410.0, 10398.0, 10405.0, 10407.0],
