{
  "AcquisitionMatrixPE": 104,
  "AcquisitionNumber": 1,
  "AcquisitionTime": "18:38:16.835000",
  "BandwidthPerPixelPhaseEncode": 17.17,
  "BaseResolution": 104,
  "BodyPartExamined": "BRAIN",
  "CoilCombinationMethod": "Sum of Squares",
  "ConsistencyInfo": "N4_VE11C_LATEST_20160120",
  "ConversionSoftware": "dcm2niix",
  "ConversionSoftwareVersion": "v1.0.20220505",
  "DerivedVendorReportedEchoSpacing": 0.000560011,
  "DeviceSerialNumber": "167006",
  "DwellTime": 2.1e-06,
  "EchoTime": 0.037,
  "EchoTrainLength": 104,
  "EffectiveEchoSpacing": 0.000560011,
  "FlipAngle": 52,
  "HeudiconvVersion": "0.5.3.post811+g6206e14",
  "ImageComments": "Unaliased MB4/PE3/LB",
  "ImageOrientationPatientDICOM": [0.997578, 0.067888, 0.0151211, -0.056996, 0.922538, -0.381673],
  "ImageOrientationText": "Tra>Cor(-22.3)>Sag(2.3)",
  "ImageType": [
    "ORIGINAL",
    "PRIMARY",
    "M",
    "MB",
    "ND",
    "MOSAIC"
],
  "ImagingFrequency": 123.26,
  "InPlanePhaseEncodingDirectionDICOM": "COL",
  "InstitutionAddress": "Chemin Queen-Mary 4565,Montreal,District,CA,H3W 1W5",
  "InstitutionName": "IUGM",
  "InstitutionalDepartmentName": "Department",
  "MRAcquisitionType": "2D",
  "MagneticFieldStrength": 3,
  "Manufacturer": "Siemens",
  "ManufacturersModelName": "Prisma_fit",
  "MatrixCoilMode": "SENSE",
  "Modality": "MR",
  "MultibandAccelerationFactor": 4,
  "PartialFourier": 1,
  "PatientPosition": "HFS",
  "PercentPhaseFOV": 100,
  "PercentSampling": 100,
  "PhaseEncodingDirection": "j",
  "PhaseEncodingSteps": 104,
  "PhaseResolution": 1,
  "PixelBandwidth": 2290,
  "ProcedureStepDescription": "games^mario3",
  "ProtocolName": "func_task-mario3_run-03",
  "PulseSequenceDetails": "%CustomerSeq%\\cmrr_mbep2d_bold",
  "ReceiveCoilActiveElements": "HC1-7;NC1,2",
  "ReceiveCoilName": "HeadNeck_64",
  "ReconMatrixPE": 104,
  "RepetitionTime": 1.49,
  "SAR": 0.046411,
  "ScanOptions": "FS",
  "ScanningSequence": "EP",
  "SequenceName": "epfid2d1_104",
  "SequenceVariant": "SK\\SS",
  "SeriesDescription": "func_task-mario3_run-03",
  "SeriesNumber": 16,
  "ShimSetting": [622, -7203, -8817, 676, 124, -29, -72, 23],
  "SliceThickness": 2,
  "SliceTiming": [0, 0.785, 0.0975, 0.8825, 0.195, 0.98, 0.295, 1.0775, 0.3925, 1.175, 0.49, 1.275, 0.5875, 1.3725, 0.685, 0, 0.785, 0.0975, 0.8825, 0.195, 0.98, 0.295, 1.0775, 0.3925, 1.175, 0.49, 1.275, 0.5875, 1.3725, 0.685, 0, 0.785, 0.0975, 0.8825, 0.195, 0.98, 0.295, 1.0775, 0.3925, 1.175, 0.49, 1.275, 0.5875, 1.3725, 0.685, 0, 0.785, 0.0975, 0.8825, 0.195, 0.98, 0.295, 1.0775, 0.3925, 1.175, 0.49, 1.275, 0.5875, 1.3725, 0.685],
  "SoftwareVersions": "syngo MR E11",
  "SpacingBetweenSlices": 2,
  "StationName": "MRC35049",
  "TaskName": "mario3",
  "TotalReadoutTime": 0.0576811,
  "TxRefAmp": 248.751,
  "WipMemBlock": "61588a62-0244-4d1a-a50a-17231509f8a0||Sequence: R017 ve11c/master r/75a17815+; Jun 28 2022 16:32:11 by eja",
  "dcmmeta_affine": [
    [-1.9951567649841309, -0.11399197578430176, 0.07972152531147003, 109.638671875],
    [-0.13577593863010406, 1.8450769186019897, -0.7597737908363342, -59.625244140625],
    [0.03024211712181568, 0.7633460164070129, 1.848347544670105, -69.02948760986328],
    [0.0, 0.0, 0.0, 1.0]
],
  "dcmmeta_reorient_transform": [
    [0.0, -1.0, 0.0, 103.0],
    [1.0, 0.0, 0.0, 0.0],
    [0.0, 0.0, 1.0, 0.0],
    [0.0, 0.0, 0.0, 1.0]
],
  "dcmmeta_shape": [104, 104, 60, 310],
  "dcmmeta_slice_dim": 2,
  "dcmmeta_version": 0.6,
  "global": {
    "const": {
      "AcquisitionMatrix": [104, 0, 0, 104],
      "AngioFlag": "N",
      "BitsAllocated": 16,
      "BitsStored": 16,
      "BodyPartExamined": "BRAIN",
      "Columns": 832,
      "EchoNumbers": 1,
      "EchoTime": 37.0,
      "EchoTrainLength": 104,
      "FlipAngle": 52.0,
      "HighBit": 15,
      "ImageOrientationPatient": [0.99757835636953, 0.06788797010093, 0.01512105878059, -0.0569959863409, 0.92253844302184, -0.3816729996841],
      "ImagePositionPatient": [-782.64146112012, -851.44810198157, 276.44496399251],
      "ImageType": [
        "ORIGINAL",
        "PRIMARY",
        "M",
        "MB",
        "ND",
        "MOSAIC"
],
      "ImagedNucleus": "1H",
      "ImagingFrequency": 123.260462,
      "InPlanePhaseEncodingDirection": "COL",
      "MRAcquisitionType": "2D",
      "MagneticFieldStrength": 3.0,
      "Manufacturer": "SIEMENS",
      "ManufacturerModelName": "Prisma_fit",
      "Modality": "MR",
      "NumberOfAverages": 1.0,
      "NumberOfPhaseEncodingSteps": 104,
      "PercentPhaseFieldOfView": 100.0,
      "PercentSampling": 100.0,
      "PerformedProcedureStepStartTime": "181309.293000",
      "PhotometricInterpretation": "MONOCHROME2",
      "PixelBandwidth": 2290.0,
      "PixelRepresentation": 0,
      "PixelSpacing": [2.0, 2.0],
      "ProtocolName": "func_task-mario3_run-03",
      "RepetitionTime": 1490.0,
      "Rows": 832,
      "SAR": 0.04641096392684,
      "SamplesPerPixel": 1,
      "ScanOptions": "FS",
      "ScanningSequence": "EP",
      "SequenceName": "epfid2d1_104",
      "SequenceVariant": [
        "SK",
        "SS"
],
      "SeriesDescription": "func_task-mario3_run-03",
      "SeriesNumber": 16,
      "SeriesTime": "183941.680000",
      "SliceLocation": -36.774108148871,
      "SliceThickness": 2.0,
      "SmallestImagePixelValue": 0,
      "SoftwareVersions": "syngo MR E11",
      "SpacingBetweenSlices": 2.000000063112,
      "SpecificCharacterSet": "ISO_IR 100",
      "StudyID": "1",
      "StudyTime": "181309.209000",
      "TransmitCoilName": "Body",
      "VariableFlipAngleFlag": "N",
      "WindowCenterWidthExplanation": "Algo1",
      "dBdt": 0.0},
    "slices": {}
  },
  "time": {
    "samples": {
      "AcquisitionNumber": [1, 2, 3, 4, 5, 6, 7, 8, 9, 10, 11, 12, 13, 14, 15, 16, 17, 18, 19, 20, 21, 22, 23, 24, 25, 26, 27, 28, 29, 30, 31, 32, 33, 34, 35, 36, 37, 38, 39, 40, 41, 42, 43, 44, 45, 46, 47, 48, 49, 50, 51, 52, 53, 54, 55, 56, 57, 58, 59, 60, 61, 62, 63, 64, 65, 66, 67, 68, 69, 70, 71, 72, 73, 74, 75, 76, 77, 78, 79, 80, 81, 82, 83, 84, 85, 86, 87, 88, 89, 90, 91, 92, 93, 94, 95, 96, 97, 98, 99, 100, 101, 102, 103, 104, 105, 106, 107, 108, 109, 110, 111, 112, 113, 114, 115, 116, 117, 118, 119, 120, 121, 122, 123, 124, 125, 126, 127, 128, 129, 130, 131, 132, 133, 134, 135, 136, 137, 138, 139, 140, 141, 142, 143, 144, 145, 146, 147, 148, 149, 150, 151, 152, 153, 154, 155, 156, 157, 158, 159, 160, 161, 162, 163, 164, 165, 166, 167, 168, 169, 170, 171, 172, 173, 174, 175, 176, 177, 178, 179, 180, 181, 182, 183, 184, 185, 186, 187, 188, 189, 190, 191, 192, 193, 194, 195, 196, 197, 198, 199, 200, 201, 202, 203, 204, 205, 206, 207, 208, 209, 210, 211, 212, 213, 214, 215, 216, 217, 218, 219, 220, 221, 222, 223, 224, 225, 226, 227, 228, 229, 230, 231, 232, 233, 234, 235, 236, 237, 238, 239, 240, 241, 242, 243, 244, 245, 246, 247, 248, 249, 250, 251, 252, 253, 254, 255, 256, 257, 258, 259, 260, 261, 262, 263, 264, 265, 266, 267, 268, 269, 270, 271, 272, 273, 274, 275, 276, 277, 278, 279, 280, 281, 282, 283, 284, 285, 286, 287, 288, 289, 290, 291, 292, 293, 294, 295, 296, 297, 298, 299, 300, 301, 302, 303, 304, 305, 306, 307, 308, 309, 310],
      "AcquisitionTime": ["183816.835000", "183818.325000", "183819.815000", "183821.305000", "183822.795000", "183824.285000", "183825.775000", "183827.265000", "183828.755000", "183830.245000", "183831.735000", "183833.225000", "183834.715000", "183836.205000", "183837.695000", "183839.185000", "183840.675000", "183842.165000", "183843.655000", "183845.145000", "183846.635000", "183848.125000", "183849.615000", "183851.105000", "183852.595000", "183854.085000", "183855.575000", "183857.065000", "183858.555000", "183900.045000", "183901.535000", "183903.025000", "183904.515000", "183906.005000", "183907.495000", "183908.985000", "183910.475000", "183911.965000", "183913.455000", "183914.945000", "183916.435000", "183917.925000", "183919.415000", "183920.905000", "183922.395000", "183923.885000", "183925.375000", "183926.865000", "183928.355000", "183929.845000", "183931.335000", "183932.825000", "183934.315000", "183935.805000", "183937.295000", "183938.785000", "183940.275000", "183941.765000", "183943.255000", "183944.745000", "183946.235000", "183947.725000", "183949.215000", "183950.705000", "183952.195000", "183953.685000", "183955.175000", "183956.665000", "183958.155000", "183959.645000", "184001.135000", "184002.625000", "184004.115000", "184005.605000", "184007.095000", "184008.585000", "184010.075000", "184011.565000", "184013.055000", "184014.545000", "184016.035000", "184017.525000", "184019.015000", "184020.505000", "184021.995000", "184023.485000", "184024.975000", "184026.465000", "184027.955000", "184029.445000", "184030.935000", "184032.425000", "184033.915000", "184035.405000", "184036.895000", "184038.385000", "184039.875000", "184041.365000", "184042.855000", "184044.345000", "184045.835000", "184047.325000", "184048.815000", "184050.305000", "184051.795000", "184053.285000", "184054.775000", "184056.265000", "184057.755000", "184059.245000", "184100.735000", "184102.225000", "184103.715000", "184105.205000", "184106.695000", "184108.185000", "184109.675000", "184111.165000", "184112.655000", "184114.145000", "184115.635000", "184117.125000", "184118.615000", "184120.105000", "184121.595000", "184123.085000", "184124.575000", "184126.065000", "184127.555000", "184129.045000", "184130.535000", "184132.025000", "184133.515000", "184135.005000", "184136.495000", "184137.985000", "184139.475000", "184140.965000", "184142.455000", "184143.945000", "184145.435000", "184146.925000", "184148.415000", "184149.905000", "184151.395000", "184152.885000", "184154.375000", "184155.865000", "184157.355000", "184158.845000", "184200.335000", "184201.825000", "184203.315000", "184204.805000", "184206.295000", "184207.785000", "184209.275000", "184210.765000", "184212.255000", "184213.745000", "184215.235000", "184216.725000", "184218.215000", "184219.705000", "184221.195000", "184222.685000", "184224.175000", "184225.665000", "184227.155000", "184228.645000", "184230.135000", "184231.625000", "184233.115000", "184234.605000", "184236.095000", "184237.585000", "184239.075000", "184240.565000", "184242.055000", "184243.545000", "184245.035000", "184246.525000", "184248.015000", "184249.505000", "184250.995000", "184252.485000", "184253.975000", "184255.465000", "184256.955000", "184258.445000", "184259.935000", "184301.425000", "184302.915000", "184304.405000", "184305.895000", "184307.385000", "184308.875000", "184310.365000", "184311.855000", "184313.345000", "184314.835000", "184316.325000", "184317.815000", "184319.305000", "184320.795000", "184322.285000", "184323.775000", "184325.265000", "184326.755000", "184328.245000", "184329.735000", "184331.225000", "184332.715000", "184334.205000", "184335.695000", "184337.185000", "184338.675000", "184340.165000", "184341.655000", "184343.145000", "184344.635000", "184346.125000", "184347.615000", "184349.105000", "184350.595000", "184352.085000", "184353.575000", "184355.065000", "184356.555000", "184358.045000", "184359.535000", "184401.025000", "184402.515000", "184404.005000", "184405.495000", "184406.985000", "184408.475000", "184409.965000", "184411.455000", "184412.945000", "184414.435000", "184415.925000", "184417.415000", "184418.905000", "184420.395000", "184421.885000", "184423.375000", "184424.865000", "184426.355000", "184427.845000", "184429.335000", "184430.825000", "184432.315000", "184433.805000", "184435.295000", "184436.785000", "184438.275000", "184439.765000", "184441.255000", "184442.745000", "184444.235000", "184445.725000", "184447.215000", "184448.705000", "184450.195000", "184451.685000", "184453.175000", "184454.665000", "184456.155000", "184457.645000", "184459.135000", "184500.625000", "184502.115000", "184503.605000", "184505.095000", "184506.585000", "184508.075000", "184509.565000", "184511.055000", "184512.545000", "184514.035000", "184515.525000", "184517.015000", "184518.505000", "184519.995000", "184521.485000", "184522.975000", "184524.465000", "184525.955000", "184527.445000", "184528.935000", "184530.425000", "184531.915000", "184533.405000", "184534.895000", "184536.385000", "184537.875000", "184539.365000", "184540.855000", "184542.345000", "184543.835000", "184545.325000", "184546.815000", "184548.305000", "184549.795000", "184551.285000", "184552.775000", "184554.265000", "184555.755000", "184557.245000"],
      "ContentTime": ["183941.684000", "183941.688000", "183941.691000", "183941.695000", "183941.698000", "183941.701000", "183941.705000", "183941.708000", "183941.712000", "183941.715000", "183941.719000", "183941.722000", "183941.725000", "183941.729000", "183941.732000", "183941.736000", "183941.739000", "183941.743000", "183941.746000", "183941.749000", "183941.774000", "183941.777000", "183941.780000", "183941.784000", "183941.787000", "183941.791000", "183941.794000", "183941.797000", "183941.801000", "183941.804000", "183941.808000", "183941.811000", "183941.814000", "183941.818000", "183941.821000", "183941.825000", "183941.828000", "184001.646000", "184001.650000", "184001.654000", "184001.657000", "184001.660000", "184001.664000", "184001.667000", "184001.670000", "184001.674000", "184001.677000", "184001.681000", "184001.684000", "184001.688000", "184001.691000", "184001.695000", "184001.698000", "184001.702000", "184001.705000", "184001.708000", "184001.712000", "184021.646000", "184021.650000", "184021.653000", "184021.657000", "184021.660000", "184021.664000", "184021.667000", "184021.670000", "184021.674000", "184021.677000", "184021.681000", "184021.684000", "184021.688000", "184021.691000", "184021.694000", "184021.698000", "184021.701000", "184021.705000", "184021.708000", "184021.712000", "184101.646000", "184101.650000", "184101.654000", "184101.657000", "184101.660000", "184101.664000", "184101.667000", "184101.685000", "184101.689000", "184101.692000", "184101.695000", "184101.699000", "184101.702000", "184101.706000", "184101.709000", "184101.713000", "184101.716000", "184101.720000", "184101.723000", "184101.726000", "184101.730000", "184101.733000", "184101.737000", "184101.740000", "184101.744000", "184101.747000", "184101.751000", "184101.754000", "184101.757000", "184101.761000", "184101.764000", "184101.768000", "184101.771000", "184141.646000", "184141.650000", "184141.653000", "184141.657000", "184141.660000", "184141.664000", "184141.667000", "184141.671000", "184141.674000", "184141.678000", "184141.681000", "184141.684000", "184141.688000", "184141.691000", "184141.695000", "184141.698000", "184141.702000", "184141.705000", "184141.709000", "184141.712000", "184141.715000", "184141.719000", "184141.722000", "184141.726000", "184141.729000", "184141.733000", "184141.736000", "184221.646000", "184221.650000", "184221.654000", "184221.657000", "184221.661000", "184221.664000", "184221.668000", "184221.671000", "184221.675000", "184221.678000", "184221.681000", "184221.685000", "184221.689000", "184221.692000", "184221.696000", "184221.699000", "184221.703000", "184221.706000", "184221.709000", "184221.713000", "184221.717000", "184221.720000", "184221.724000", "184221.727000", "184221.731000", "184221.734000", "184221.738000", "184301.645000", "184301.649000", "184301.660000", "184301.664000", "184301.667000", "184301.671000", "184301.674000", "184301.678000", "184301.681000", "184301.685000", "184301.689000", "184301.692000", "184301.696000", "184301.699000", "184301.703000", "184301.706000", "184301.709000", "184301.713000", "184301.716000", "184301.730000", "184301.733000", "184301.737000", "184301.740000", "184301.744000", "184301.747000", "184301.750000", "184341.646000", "184341.650000", "184341.654000", "184341.657000", "184341.661000", "184341.664000", "184341.667000", "184341.671000", "184341.674000", "184341.678000", "184341.681000", "184341.684000", "184341.688000", "184341.699000", "184341.702000", "184341.706000", "184341.709000", "184341.713000", "184341.716000", "184341.720000", "184341.723000", "184341.726000", "184341.730000", "184341.733000", "184341.737000", "184341.740000", "184341.743000", "184421.646000", "184421.650000", "184421.654000", "184421.658000", "184421.661000", "184421.665000", "184421.668000", "184421.671000", "184421.675000", "184421.678000", "184421.682000", "184421.685000", "184421.689000", "184421.692000", "184421.695000", "184421.699000", "184421.702000", "184421.706000", "184421.709000", "184421.713000", "184421.716000", "184421.720000", "184421.723000", "184421.727000", "184421.730000", "184421.733000", "184421.737000", "184501.646000", "184501.650000", "184501.654000", "184501.657000", "184501.661000", "184501.664000", "184501.667000", "184501.671000", "184501.674000", "184501.678000", "184501.681000", "184501.685000", "184501.688000", "184501.692000", "184501.695000", "184501.698000", "184501.702000", "184501.705000", "184501.709000", "184501.712000", "184501.716000", "184501.719000", "184501.723000", "184501.726000", "184501.729000", "184501.733000", "184501.736000", "184541.646000", "184541.650000", "184541.654000", "184541.657000", "184541.661000", "184541.664000", "184541.668000", "184541.671000", "184541.674000", "184541.691000", "184541.695000", "184541.698000", "184541.702000", "184541.705000", "184541.708000", "184541.712000", "184541.715000", "184541.719000", "184541.722000", "184541.726000", "184541.729000", "184541.733000", "184541.736000", "184541.740000", "184541.743000", "184541.746000", "184541.750000", "184559.600000", "184559.604000", "184559.607000", "184559.611000", "184559.614000", "184559.618000", "184559.621000", "184559.625000", "184559.628000", "184559.632000", "184559.635000", "184559.639000"],
      "InstanceCreationTime": ["183941.684000", "183941.688000", "183941.691000", "183941.695000", "183941.698000", "183941.701000", "183941.705000", "183941.708000", "183941.712000", "183941.715000", "183941.719000", "183941.722000", "183941.725000", "183941.729000", "183941.732000", "183941.736000", "183941.739000", "183941.743000", "183941.746000", "183941.749000", "183941.774000", "183941.777000", "183941.780000", "183941.784000", "183941.787000", "183941.791000", "183941.794000", "183941.797000", "183941.801000", "183941.804000", "183941.808000", "183941.811000", "183941.814000", "183941.818000", "183941.821000", "183941.825000", "183941.828000", "184001.646000", "184001.650000", "184001.654000", "184001.657000", "184001.660000", "184001.664000", "184001.667000", "184001.670000", "184001.674000", "184001.677000", "184001.681000", "184001.684000", "184001.688000", "184001.691000", "184001.695000", "184001.698000", "184001.702000", "184001.705000", "184001.708000", "184001.712000", "184021.646000", "184021.650000", "184021.653000", "184021.657000", "184021.660000", "184021.664000", "184021.667000", "184021.670000", "184021.674000", "184021.677000", "184021.681000", "184021.684000", "184021.688000", "184021.691000", "184021.694000", "184021.698000", "184021.701000", "184021.705000", "184021.708000", "184021.712000", "184101.646000", "184101.650000", "184101.654000", "184101.657000", "184101.660000", "184101.664000", "184101.667000", "184101.685000", "184101.689000", "184101.692000", "184101.695000", "184101.699000", "184101.702000", "184101.706000", "184101.709000", "184101.713000", "184101.716000", "184101.720000", "184101.723000", "184101.726000", "184101.730000", "184101.733000", "184101.737000", "184101.740000", "184101.744000", "184101.747000", "184101.751000", "184101.754000", "184101.757000", "184101.761000", "184101.764000", "184101.768000", "184101.771000", "184141.646000", "184141.650000", "184141.653000", "184141.657000", "184141.660000", "184141.664000", "184141.667000", "184141.671000", "184141.674000", "184141.678000", "184141.681000", "184141.684000", "184141.688000", "184141.691000", "184141.695000", "184141.698000", "184141.702000", "184141.705000", "184141.709000", "184141.712000", "184141.715000", "184141.719000", "184141.722000", "184141.726000", "184141.729000", "184141.733000", "184141.736000", "184221.646000", "184221.650000", "184221.654000", "184221.657000", "184221.661000", "184221.664000", "184221.668000", "184221.671000", "184221.675000", "184221.678000", "184221.681000", "184221.685000", "184221.689000", "184221.692000", "184221.696000", "184221.699000", "184221.703000", "184221.706000", "184221.709000", "184221.713000", "184221.717000", "184221.720000", "184221.724000", "184221.727000", "184221.731000", "184221.734000", "184221.738000", "184301.645000", "184301.649000", "184301.660000", "184301.664000", "184301.667000", "184301.671000", "184301.674000", "184301.678000", "184301.681000", "184301.685000", "184301.689000", "184301.692000", "184301.696000", "184301.699000", "184301.703000", "184301.706000", "184301.709000", "184301.713000", "184301.716000", "184301.730000", "184301.733000", "184301.737000", "184301.740000", "184301.744000", "184301.747000", "184301.750000", "184341.646000", "184341.650000", "184341.654000", "184341.657000", "184341.661000", "184341.664000", "184341.667000", "184341.671000", "184341.674000", "184341.678000", "184341.681000", "184341.684000", "184341.688000", "184341.699000", "184341.702000", "184341.706000", "184341.709000", "184341.713000", "184341.716000", "184341.720000", "184341.723000", "184341.726000", "184341.730000", "184341.733000", "184341.737000", "184341.740000", "184341.743000", "184421.646000", "184421.650000", "184421.654000", "184421.658000", "184421.661000", "184421.665000", "184421.668000", "184421.671000", "184421.675000", "184421.678000", "184421.682000", "184421.685000", "184421.689000", "184421.692000", "184421.695000", "184421.699000", "184421.702000", "184421.706000", "184421.709000", "184421.713000", "184421.716000", "184421.720000", "184421.723000", "184421.727000", "184421.730000", "184421.733000", "184421.737000", "184501.646000", "184501.650000", "184501.654000", "184501.657000", "184501.661000", "184501.664000", "184501.667000", "184501.671000", "184501.674000", "184501.678000", "184501.681000", "184501.685000", "184501.688000", "184501.692000", "184501.695000", "184501.698000", "184501.702000", "184501.705000", "184501.709000", "184501.712000", "184501.716000", "184501.719000", "184501.723000", "184501.726000", "184501.729000", "184501.733000", "184501.736000", "184541.646000", "184541.650000", "184541.654000", "184541.657000", "184541.661000", "184541.664000", "184541.668000", "184541.671000", "184541.674000", "184541.691000", "184541.695000", "184541.698000", "184541.702000", "184541.705000", "184541.708000", "184541.712000", "184541.715000", "184541.719000", "184541.722000", "184541.726000", "184541.729000", "184541.733000", "184541.736000", "184541.740000", "184541.743000", "184541.746000", "184541.750000", "184559.600000", "184559.604000", "184559.607000", "184559.611000", "184559.614000", "184559.618000", "184559.621000", "184559.625000", "184559.628000", "184559.632000", "184559.635000", "184559.639000"],
      "InstanceNumber": [1, 2, 3, 4, 5, 6, 7, 8, 9, 10, 11, 12, 13, 14, 15, 16, 17, 18, 19, 20, 21, 22, 23, 24, 25, 26, 27, 28, 29, 30, 31, 32, 33, 34, 35, 36, 37, 38, 39, 40, 41, 42, 43, 44, 45, 46, 47, 48, 49, 50, 51, 52, 53, 54, 55, 56, 57, 58, 59, 60, 61, 62, 63, 64, 65, 66, 67, 68, 69, 70, 71, 72, 73, 74, 75, 76, 77, 78, 79, 80, 81, 82, 83, 84, 85, 86, 87, 88, 89, 90, 91, 92, 93, 94, 95, 96, 97, 98, 99, 100, 101, 102, 103, 104, 105, 106, 107, 108, 109, 110, 111, 112, 113, 114, 115, 116, 117, 118, 119, 120, 121, 122, 123, 124, 125, 126, 127, 128, 129, 130, 131, 132, 133, 134, 135, 136, 137, 138, 139, 140, 141, 142, 143, 144, 145, 146, 147, 148, 149, 150, 151, 152, 153, 154, 155, 156, 157, 158, 159, 160, 161, 162, 163, 164, 165, 166, 167, 168, 169, 170, 171, 172, 173, 174, 175, 176, 177, 178, 179, 180, 181, 182, 183, 184, 185, 186, 187, 188, 189, 190, 191, 192, 193, 194, 195, 196, 197, 198, 199, 200, 201, 202, 203, 204, 205, 206, 207, 208, 209, 210, 211, 212, 213, 214, 215, 216, 217, 218, 219, 220, 221, 222, 223, 224, 225, 226, 227, 228, 229, 230, 231, 232, 233, 234, 235, 236, 237, 238, 239, 240, 241, 242, 243, 244, 245, 246, 247, 248, 249, 250, 251, 252, 253, 254, 255, 256, 257, 258, 259, 260, 261, 262, 263, 264, 265, 266, 267, 268, 269, 270, 271, 272, 273, 274, 275, 276, 277, 278, 279, 280, 281, 282, 283, 284, 285, 286, 287, 288, 289, 290, 291, 292, 293, 294, 295, 296, 297, 298, 299, 300, 301, 302, 303, 304, 305, 306, 307, 308, 309, 310],
      "LargestImagePixelValue": [45371, 43382, 44765, 44256, 42593, 43286, 42696, 42996, 43015, 43672, 43376, 42896, 43188, 44962, 44133, 43474, 43208, 43133, 45029, 43708, 43716, 44687, 43756, 44369, 44667, 44229, 43627, 44035, 45890, 44428, 44535, 44434, 44372, 44348, 44171, 44822, 43635, 45120, 44386, 43627, 43281, 44562, 45475, 43823, 43446, 43239, 43580, 42173, 41197, 40514, 42358, 43705, 43469, 43892, 43046, 43011, 42243, 42122, 43035, 42790, 43487, 43133, 42398, 41538, 40524, 42297, 41707, 42665, 44464, 43006, 43202, 43983, 41533, 43288, 40517, 41863, 43247, 44258, 44343, 44393, 44566, 43558, 43760, 44326, 44417, 44677, 44579, 41931, 43167, 44999, 45610, 44054, 44636, 45794, 42539, 42549, 42117, 39275, 44226, 43907, 44851, 43533, 43601, 45626, 45103, 44034, 44593, 45193, 44215, 43172, 40192, 43126, 44095, 44362, 44489, 43610, 44303, 40731, 43630, 42116, 42187, 43123, 42190, 43178, 41549, 40290, 42947, 43527, 41796, 42362, 43496, 45225, 44327, 42693, 43919, 44155, 43587, 42398, 43708, 44936, 42453, 41318, 41852, 43187, 43458, 43602, 43661, 42961, 41219, 39721, 41316, 41114, 40655, 40632, 42032, 42259, 40903, 40393, 40181, 41518, 42050, 41030, 40172, 40204, 40900, 41059, 41188, 41427, 41533, 41552, 41654, 41783, 40247, 40469, 42246, 41119, 40187, 40119, 40973, 43050, 43128, 43630, 45615, 45196, 45076, 45002, 44735, 44065, 44662, 44553, 44968, 41305, 42841, 43485, 44564, 43667, 42835, 44276, 43780, 44714, 43673, 42424, 40774, 41416, 42101, 42774, 43398, 44120, 43771, 43772, 41625, 41434, 40777, 42417, 41523, 40684, 40017, 39933, 40794, 41504, 40351, 40736, 43135, 43204, 41856, 41179, 38427, 38677, 40181, 40266, 40450, 42118, 40307, 38892, 40290, 40189, 40201, 40402, 40587, 40079, 39974, 39277, 38942, 39371, 38813, 39205, 39532, 38810, 39235, 38967, 39105, 39744, 39713, 39394, 39775, 40178, 39650, 39762, 40088, 39964, 39477, 39763, 40064, 39587, 38854, 39256, 40222, 40305, 40628, 39964, 40973, 40718, 40917, 40132, 40328, 40197, 41734, 41871, 40823, 41378, 41860, 41860, 41533, 41590, 43456, 40890, 42007, 40784, 40522, 41302, 39747, 39762, 39551, 40211, 40879, 40337, 39988, 39938, 39540, 39118, 40428, 41643, 40558, 39342, 39456, 40149, 38880, 40120, 40995, 40405],
      "WindowCenter": [10529.0, 10485.0, 10493.0, 10488.0, 10469.0, 10488.0, 10478.0, 10486.0, 10490.0, 10489.0, 10502.0, 10509.0, 10514.0, 10522.0, 10503.0, 10502.0, 10496.0, 10497.0, 10500.0, 10470.0, 10459.0, 10462.0, 10455.0, 10461.0, 10466.0, 10468.0, 10473.0, 10486.0, 10513.0, 10496.0, 10502.0, 10495.0, 10494.0, 10493.0, 10486.0, 10493.0, 10482.0, 10490.0, 10477.0, 10473.0, 10469.0, 10484.0, 10496.0, 10480.0, 10471.0, 10477.0, 10467.0, 10461.0, 10458.0, 10447.0, 10469.0, 10480.0, 10489.0, 10494.0, 10483.0, 10484.0, 10463.0, 10463.0, 10483.0, 10487.0, 10502.0, 10486.0, 10472.0, 10450.0, 10437.0, 10470.0, 10469.0, 10482.0, 10488.0, 10471.0, 10475.0, 10473.0, 10456.0, 10473.0, 10448.0, 10465.0, 10484.0, 10505.0, 10506.0, 10505.0, 10497.0, 10481.0, 10488.0, 10486.0, 10493.0, 10511.0, 10506.0, 10485.0, 10486.0, 10500.0, 10521.0, 10508.0, 10517.0, 10532.0, 10487.0, 10480.0, 10469.0, 10451.0, 10500.0, 10500.0, 10510.0, 10486.0, 10484.0, 10498.0, 10492.0, 10489.0, 10495.0, 10507.0, 10492.0, 10476.0, 10450.0, 10476.0, 10496.0, 10507.0, 10513.0, 10504.0, 10493.0, 10461.0, 10474.0, 10459.0, 10468.0, 10483.0, 10477.0, 10489.0, 10472.0, 10453.0, 10470.0, 10470.0, 10458.0, 10472.0, 10477.0, 10486.0, 10480.0, 10465.0, 10482.0, 10491.0, 10497.0, 10485.0, 10486.0, 10489.0, 10473.0, 10465.0, 10469.0, 10479.0, 10495.0, 10495.0, 10498.0, 10483.0, 10465.0, 10448.0, 10454.0, 10458.0, 10464.0, 10480.0, 10481.0, 10470.0, 10458.0, 10447.0, 10454.0, 10457.0, 10460.0, 10445.0, 10445.0, 10444.0, 10455.0, 10466.0, 10468.0, 10462.0, 10461.0, 10454.0, 10458.0, 10455.0, 10431.0, 10446.0, 10469.0, 10466.0, 10467.0, 10460.0, 10472.0, 10500.0, 10491.0, 10500.0, 10514.0, 10491.0, 10491.0, 10490.0, 10484.0, 10484.0, 10490.0, 10483.0, 10488.0, 10451.0, 10471.0, 10479.0, 10490.0, 10479.0, 10463.0, 10466.0, 10465.0, 10481.0, 10477.0, 10469.0, 10455.0, 10459.0, 10470.0, 10474.0, 10485.0, 10485.0, 10488.0, 10488.0, 10462.0, 10466.0, 10462.0, 10485.0, 10482.0, 10474.0, 10466.0, 10467.0, 10479.0, 10498.0, 10481.0, 10471.0, 10487.0, 10483.0, 10473.0, 10474.0, 10436.0, 10422.0, 10444.0, 10454.0, 10473.0, 10488.0, 10457.0, 10437.0, 10430.0, 10424.0, 10434.0, 10441.0, 10442.0, 10427.0, 10435.0, 10436.0, 10456.0, 10453.0, 10424.0, 10421.0, 10425.0, 10420.0, 10435.0, 10445.0, 10454.0, 10461.0, 10450.0, 10437.0, 10435.0, 10438.0, 10450.0, 10451.0, 10459.0, 10458.0, 10446.0, 10444.0, 10448.0, 10445.0, 10447.0, 10440.0, 10463.0, 10456.0, 10447.0, 10456.0, 10469.0, 10472.0, 10468.0, 10443.0, 10447.0, 10454.0, 10472.0, 10472.0, 10469.0, 10468.0, 10470.0, 10472.0, 10465.0, 10474.0, 10481.0, 10462.0, 10479.0, 10471.0, 10472.0, 10460.0, 10444.0, 10435.0, 10443.0, 10457.0, 10465.0, 10455.0, 10447.0, 10431.0, 10408.0, 10413.0, 10441.0, 10459.0, 10448.0, 10443.0, 10433.0, 10428.0, 10411.0, 10410.0, 10411.0, 10424.0],
