{
  "AcquisitionMatrixPE": 104,
  "AcquisitionNumber": 1,
  "AcquisitionTime": "18:26:39.727500",
  "BandwidthPerPixelPhaseEncode": 17.17,
  "BaseResolution": 104,
  "BodyPartExamined": "BRAIN",
  "CoilCombinationMethod": "Sum of Squares",
  "ConsistencyInfo": "N4_VE11C_LATEST_20160120",
  "ConversionSoftware": "dcm2niix",
  "ConversionSoftwareVersion": "v1.0.20220505",
  "DerivedVendorReportedEchoSpacing": 0.000560011,
  "DeviceSerialNumber": "167006",
  "DwellTime": 2.1e-06,
  "EchoTime": 0.037,
  "EchoTrainLength": 104,
  "EffectiveEchoSpacing": 0.000560011,
  "FlipAngle": 52,
  "HeudiconvVersion": "0.5.3.post811+g6206e14",
  "ImageComments": "Unaliased MB4/PE3/LB",
  "ImageOrientationPatientDICOM": [0.997578, 0.067888, 0.0151211, -0.056996, 0.922538, -0.381673],
  "ImageOrientationText": "Tra>Cor(-22.3)>Sag(2.3)",
  "ImageType": [
    "ORIGINAL",
    "PRIMARY",
    "M",
    "MB",
    "ND",
    "MOSAIC"
],
  "ImagingFrequency": 123.26,
  "InPlanePhaseEncodingDirectionDICOM": "COL",
  "InstitutionAddress": "Chemin Queen-Mary 4565,Montreal,District,CA,H3W 1W5",
  "InstitutionName": "IUGM",
  "InstitutionalDepartmentName": "Department",
  "MRAcquisitionType": "2D",
  "MagneticFieldStrength": 3,
  "Manufacturer": "Siemens",
  "ManufacturersModelName": "Prisma_fit",
  "MatrixCoilMode": "SENSE",
  "Modality": "MR",
  "MultibandAccelerationFactor": 4,
  "PartialFourier": 1,
  "PatientPosition": "HFS",
  "PercentPhaseFOV": 100,
  "PercentSampling": 100,
  "PhaseEncodingDirection": "j",
  "PhaseEncodingSteps": 104,
  "PhaseResolution": 1,
  "PixelBandwidth": 2290,
  "ProcedureStepDescription": "games^mario3",
  "ProtocolName": "func_task-mario3_run-02",
  "PulseSequenceDetails": "%CustomerSeq%\\cmrr_mbep2d_bold",
  "ReceiveCoilActiveElements": "HC1-7;NC1,2",
  "ReceiveCoilName": "HeadNeck_64",
  "ReconMatrixPE": 104,
  "RepetitionTime": 1.49,
  "SAR": 0.046411,
  "ScanOptions": "FS",
  "ScanningSequence": "EP",
  "SequenceName": "epfid2d1_104",
  "SequenceVariant": "SK\\SS",
  "SeriesDescription": "func_task-mario3_run-02",
  "SeriesNumber": 13,
  "ShimSetting": [622, -7203, -8817, 676, 124, -29, -72, 23],
  "SliceThickness": 2,
  "SliceTiming": [0, 0.7825, 0.0975, 0.88, 0.195, 0.98, 0.2925, 1.0775, 0.39, 1.175, 0.49, 1.2725, 0.5875, 1.37, 0.685, 0, 0.7825, 0.0975, 0.88, 0.195, 0.98, 0.2925, 1.0775, 0.39, 1.175, 0.49, 1.2725, 0.5875, 1.37, 0.685, 0, 0.7825, 0.0975, 0.88, 0.195, 0.98, 0.2925, 1.0775, 0.39, 1.175, 0.49, 1.2725, 0.5875, 1.37, 0.685, 0, 0.7825, 0.0975, 0.88, 0.195, 0.98, 0.2925, 1.0775, 0.39, 1.175, 0.49, 1.2725, 0.5875, 1.37, 0.685],
  "SoftwareVersions": "syngo MR E11",
  "SpacingBetweenSlices": 2,
  "StationName": "MRC35049",
  "TaskName": "mario3",
  "TotalReadoutTime": 0.0576811,
  "TxRefAmp": 248.751,
  "WipMemBlock": "0a1188a5-603e-4fe0-8ff4-738f76f30ff1||Sequence: R017 ve11c/master r/75a17815+; Jun 28 2022 16:32:11 by eja",
  "dcmmeta_affine": [
    [-1.9951567649841309, -0.11399197578430176, 0.07972152531147003, 109.638671875],
    [-0.13577593863010406, 1.8450769186019897, -0.7597737908363342, -59.625244140625],
    [0.03024211712181568, 0.7633460164070129, 1.848347544670105, -69.02948760986328],
    [0.0, 0.0, 0.0, 1.0]
],
  "dcmmeta_reorient_transform": [
    [0.0, -1.0, 0.0, 103.0],
    [1.0, 0.0, 0.0, 0.0],
    [0.0, 0.0, 1.0, 0.0],
    [0.0, 0.0, 0.0, 1.0]
],
  "dcmmeta_shape": [104, 104, 60, 378],
  "dcmmeta_slice_dim": 2,
  "dcmmeta_version": 0.6,
  "global": {
    "const": {
      "AcquisitionMatrix": [104, 0, 0, 104],
      "AngioFlag": "N",
      "BitsAllocated": 16,
      "BitsStored": 16,
      "BodyPartExamined": "BRAIN",
      "Columns": 832,
      "EchoNumbers": 1,
      "EchoTime": 37.0,
      "EchoTrainLength": 104,
      "FlipAngle": 52.0,
      "HighBit": 15,
      "ImageOrientationPatient": [0.99757835636953, 0.06788797010093, 0.01512105878059, -0.0569959863409, 0.92253844302184, -0.3816729996841],
      "ImagePositionPatient": [-782.64146112012, -851.44810198157, 276.44496399251],
      "ImageType": [
        "ORIGINAL",
        "PRIMARY",
        "M",
        "MB",
        "ND",
        "MOSAIC"
],
      "ImagedNucleus": "1H",
      "ImagingFrequency": 123.260456,
      "InPlanePhaseEncodingDirection": "COL",
      "MRAcquisitionType": "2D",
      "MagneticFieldStrength": 3.0,
      "Manufacturer": "SIEMENS",
      "ManufacturerModelName": "Prisma_fit",
      "Modality": "MR",
      "NumberOfAverages": 1.0,
      "NumberOfPhaseEncodingSteps": 104,
      "PercentPhaseFieldOfView": 100.0,
      "PercentSampling": 100.0,
      "PerformedProcedureStepStartTime": "181309.293000",
      "PhotometricInterpretation": "MONOCHROME2",
      "PixelBandwidth": 2290.0,
      "PixelRepresentation": 0,
      "PixelSpacing": [2.0, 2.0],
      "ProtocolName": "func_task-mario3_run-02",
      "RepetitionTime": 1490.0,
      "Rows": 832,
      "SAR": 0.04641096392684,
      "SamplesPerPixel": 1,
      "ScanOptions": "FS",
      "ScanningSequence": "EP",
      "SequenceName": "epfid2d1_104",
      "SequenceVariant": [
        "SK",
        "SS"
],
      "SeriesDescription": "func_task-mario3_run-02",
      "SeriesNumber": 13,
      "SeriesTime": "182756.967000",
      "SliceLocation": -36.774108148871,
      "SliceThickness": 2.0,
      "SmallestImagePixelValue": 0,
      "SoftwareVersions": "syngo MR E11",
      "SpacingBetweenSlices": 2.000000063112,
      "SpecificCharacterSet": "ISO_IR 100",
      "StudyID": "1",
      "StudyTime": "181309.209000",
      "TransmitCoilName": "Body",
      "VariableFlipAngleFlag": "N",
      "WindowCenterWidthExplanation": "Algo1",
      "dBdt": 0.0},
    "slices": {}
  },
  "time": {
    "samples": {
      "AcquisitionNumber": [1, 2, 3, 4, 5, 6, 7, 8, 9, 10, 11, 12, 13, 14, 15, 16, 17, 18, 19, 20, 21, 22, 23, 24, 25, 26, 27, 28, 29, 30, 31, 32, 33, 34, 35, 36, 37, 38, 39, 40, 41, 42, 43, 44, 45, 46, 47, 48, 49, 50, 51, 52, 53, 54, 55, 56, 57, 58, 59, 60, 61, 62, 63, 64, 65, 66, 67, 68, 69, 70, 71, 72, 73, 74, 75, 76, 77, 78, 79, 80, 81, 82, 83, 84, 85, 86, 87, 88, 89, 90, 91, 92, 93, 94, 95, 96, 97, 98, 99, 100, 101, 102, 103, 104, 105, 106, 107, 108, 109, 110, 111, 112, 113, 114, 115, 116, 117, 118, 119, 120, 121, 122, 123, 124, 125, 126, 127, 128, 129, 130, 131, 132, 133, 134, 135, 136, 137, 138, 139, 140, 141, 142, 143, 144, 145, 146, 147, 148, 149, 150, 151, 152, 153, 154, 155, 156, 157, 158, 159, 160, 161, 162, 163, 164, 165, 166, 167, 168, 169, 170, 171, 172, 173, 174, 175, 176, 177, 178, 179, 180, 181, 182, 183, 184, 185, 186, 187, 188, 189, 190, 191, 192, 193, 194, 195, 196, 197, 198, 199, 200, 201, 202, 203, 204, 205, 206, 207, 208, 209, 210, 211, 212, 213, 214, 215, 216, 217, 218, 219, 220, 221, 222, 223, 224, 225, 226, 227, 228, 229, 230, 231, 232, 233, 234, 235, 236, 237, 238, 239, 240, 241, 242, 243, 244, 245, 246, 247, 248, 249, 250, 251, 252, 253, 254, 255, 256, 257, 258, 259, 260, 261, 262, 263, 264, 265, 266, 267, 268, 269, 270, 271, 272, 273, 274, 275, 276, 277, 278, 279, 280, 281, 282, 283, 284, 285, 286, 287, 288, 289, 290, 291, 292, 293, 294, 295, 296, 297, 298, 299, 300, 301, 302, 303, 304, 305, 306, 307, 308, 309, 310, 311, 312, 313, 314, 315, 316, 317, 318, 319, 320, 321, 322, 323, 324, 325, 326, 327, 328, 329, 330, 331, 332, 333, 334, 335, 336, 337, 338, 339, 340, 341, 342, 343, 344, 345, 346, 347, 348, 349, 350, 351, 352, 353, 354, 355, 356, 357, 358, 359, 360, 361, 362, 363, 364, 365, 366, 367, 368, 369, 370, 371, 372, 373, 374, 375, 376, 377, 378],
      "AcquisitionTime": ["182639.727500", "182641.217500", "182642.707500", "182644.197500", "182645.687500", "182647.177500", "182648.667500", "182650.157500", "182651.647500", "182653.137500", "182654.627500", "182656.117500", "182657.607500", "182659.097500", "182700.587500", "182702.077500", "182703.567500", "182705.057500", "182706.547500", "182708.037500", "182709.527500", "182711.017500", "182712.507500", "182713.997500", "182715.487500", "182716.977500", "182718.467500", "182719.957500", "182721.447500", "182722.937500", "182724.427500", "182725.917500", "182727.407500", "182728.897500", "182730.387500", "182731.877500", "182733.367500", "182734.857500", "182736.347500", "182737.837500", "182739.327500", "182740.817500", "182742.307500", "182743.797500", "182745.287500", "182746.777500", "182748.267500", "182749.757500", "182751.247500", "182752.737500", "182754.227500", "182755.717500", "182757.207500", "182758.697500", "182800.187500", "182801.677500", "182803.167500", "182804.657500", "182806.147500", "182807.637500", "182809.127500", "182810.617500", "182812.107500", "182813.597500", "182815.087500", "182816.577500", "182818.067500", "182819.557500", "182821.047500", "182822.537500", "182824.027500", "182825.517500", "182827.007500", "182828.497500", "182829.987500", "182831.477500", "182832.967500", "182834.457500", "182835.947500", "182837.437500", "182838.927500", "182840.417500", "182841.907500", "182843.397500", "182844.887500", "182846.377500", "182847.867500", "182849.357500", "182850.847500", "182852.337500", "182853.827500", "182855.317500", "182856.807500", "182858.297500", "182859.787500", "182901.277500", "182902.767500", "182904.257500", "182905.747500", "182907.237500", "182908.727500", "182910.217500", "182911.707500", "182913.197500", "182914.687500", "182916.177500", "182917.667500", "182919.157500", "182920.647500", "182922.137500", "182923.627500", "182925.117500", "182926.607500", "182928.097500", "182929.587500", "182931.077500", "182932.567500", "182934.057500", "182935.547500", "182937.037500", "182938.527500", "182940.017500", "182941.507500", "182942.997500", "182944.487500", "182945.977500", "182947.467500", "182948.957500", "182950.447500", "182951.937500", "182953.427500", "182954.917500", "182956.407500", "182957.897500", "182959.387500", "183000.877500", "183002.367500", "183003.857500", "183005.347500", "183006.837500", "183008.327500", "183009.817500", "183011.307500", "183012.797500", "183014.287500", "183015.777500", "183017.267500", "183018.757500", "183020.247500", "183021.737500", "183023.227500", "183024.717500", "183026.207500", "183027.697500", "183029.187500", "183030.677500", "183032.167500", "183033.657500", "183035.147500", "183036.637500", "183038.127500", "183039.617500", "183041.107500", "183042.597500", "183044.087500", "183045.577500", "183047.067500", "183048.557500", "183050.047500", "183051.537500", "183053.027500", "183054.517500", "183056.007500", "183057.497500", "183058.987500", "183100.477500", "183101.967500", "183103.457500", "183104.947500", "183106.437500", "183107.927500", "183109.417500", "183110.907500", "183112.397500", "183113.887500", "183115.377500", "183116.867500", "183118.357500", "183119.847500", "183121.337500", "183122.827500", "183124.317500", "183125.807500", "183127.297500", "183128.787500", "183130.277500", "183131.767500", "183133.257500", "183134.747500", "183136.237500", "183137.727500", "183139.217500", "183140.707500", "183142.197500", "183143.687500", "183145.177500", "183146.667500", "183148.157500", "183149.647500", "183151.137500", "183152.627500", "183154.117500", "183155.607500", "183157.097500", "183158.587500", "183200.077500", "183201.567500", "183203.057500", "183204.547500", "183206.037500", "183207.527500", "183209.017500", "183210.507500", "183211.997500", "183213.487500", "183214.977500", "183216.467500", "183217.957500", "183219.447500", "183220.937500", "183222.427500", "183223.917500", "183225.407500", "183226.897500", "183228.387500", "183229.877500", "183231.367500", "183232.857500", "183234.347500", "183235.837500", "183237.327500", "183238.817500", "183240.307500", "183241.797500", "183243.287500", "183244.777500", "183246.267500", "183247.757500", "183249.247500", "183250.737500", "183252.227500", "183253.717500", "183255.207500", "183256.697500", "183258.187500", "183259.677500", "183301.167500", "183302.657500", "183304.147500", "183305.637500", "183307.127500", "183308.617500", "183310.107500", "183311.597500", "183313.087500", "183314.577500", "183316.067500", "183317.557500", "183319.047500", "183320.537500", "183322.027500", "183323.517500", "183325.007500", "183326.497500", "183327.987500", "183329.477500", "183330.967500", "183332.457500", "183333.947500", "183335.437500", "183336.927500", "183338.417500", "183339.907500", "183341.397500", "183342.887500", "183344.377500", "183345.867500", "183347.357500", "183348.847500", "183350.337500", "183351.827500", "183353.317500", "183354.807500", "183356.297500", "183357.787500", "183359.277500", "183400.767500", "183402.257500", "183403.747500", "183405.237500", "183406.727500", "183408.217500", "183409.707500", "183411.197500", "183412.687500", "183414.177500", "183415.667500", "183417.157500", "183418.647500", "183420.137500", "183421.627500", "183423.117500", "183424.607500", "183426.097500", "183427.587500", "183429.077500", "183430.567500", "183432.057500", "183433.547500", "183435.037500", "183436.527500", "183438.017500", "183439.507500", "183440.997500", "183442.487500", "183443.977500", "183445.467500", "183446.957500", "183448.447500", "183449.937500", "183451.427500", "183452.917500", "183454.407500", "183455.897500", "183457.387500", "183458.877500", "183500.367500", "183501.857500", "183503.347500", "183504.837500", "183506.327500", "183507.817500", "183509.307500", "183510.797500", "183512.287500", "183513.777500", "183515.267500", "183516.757500", "183518.247500", "183519.737500", "183521.227500", "183522.717500", "183524.207500", "183525.697500", "183527.187500", "183528.677500", "183530.167500", "183531.657500", "183533.147500", "183534.637500", "183536.127500", "183537.617500", "183539.107500", "183540.597500", "183542.087500", "183543.577500", "183545.067500", "183546.557500", "183548.047500", "183549.537500", "183551.027500", "183552.517500", "183554.007500", "183555.497500", "183556.987500", "183558.477500", "183559.967500", "183601.457500"],
      "ContentTime": ["182756.970000", "182756.974000", "182756.978000", "182756.981000", "182756.984000", "182756.988000", "182756.991000", "182756.995000", "182756.998000", "182757.003000", "182757.008000", "182757.011000", "182757.018000", "182757.022000", "182757.025000", "182757.028000", "182757.032000", "182757.035000", "182757.039000", "182757.042000", "182757.046000", "182757.049000", "182757.052000", "182757.056000", "182757.059000", "182757.063000", "182757.066000", "182757.069000", "182757.073000", "182816.925000", "182816.929000", "182816.932000", "182816.936000", "182816.939000", "182816.943000", "182816.946000", "182816.950000", "182816.953000", "182816.957000", "182816.981000", "182816.984000", "182816.987000", "182816.991000", "182816.994000", "182816.997000", "182817.002000", "182817.005000", "182817.009000", "182817.012000", "182836.924000", "182836.928000", "182836.931000", "182836.935000", "182836.938000", "182836.941000", "182836.945000", "182836.948000", "182836.951000", "182836.955000", "182836.958000", "182836.962000", "182836.965000", "182836.969000", "182836.972000", "182836.975000", "182836.979000", "182836.982000", "182836.986000", "182836.989000", "182837.000000", "182856.924000", "182856.928000", "182856.931000", "182856.935000", "182856.938000", "182856.942000", "182856.945000", "182856.948000", "182856.952000", "182856.955000", "182856.959000", "182856.962000", "182856.965000", "182856.969000", "182856.972000", "182856.976000", "182856.979000", "182856.982000", "182856.986000", "182856.989000", "182936.924000", "182936.928000", "182936.931000", "182936.935000", "182936.938000", "182936.942000", "182936.945000", "182936.962000", "182936.965000", "182936.968000", "182936.972000", "182936.975000", "182936.979000", "182936.982000", "182936.986000", "182936.989000", "182936.993000", "182936.996000", "182937.000000", "182937.004000", "182937.007000", "182937.011000", "182937.014000", "182937.018000", "182937.021000", "182937.024000", "182937.028000", "182937.031000", "183016.925000", "183016.929000", "183016.932000", "183016.936000", "183016.939000", "183016.943000", "183016.946000", "183016.950000", "183016.953000", "183016.956000", "183016.960000", "183016.963000", "183016.967000", "183016.970000", "183016.974000", "183016.977000", "183016.981000", "183016.984000", "183016.987000", "183016.991000", "183016.994000", "183016.998000", "183017.002000", "183017.005000", "183017.009000", "183017.012000", "183017.016000", "183056.924000", "183056.928000", "183056.931000", "183056.935000", "183056.938000", "183056.942000", "183056.945000", "183056.949000", "183056.952000", "183056.955000", "183056.959000", "183056.962000", "183056.966000", "183056.969000", "183056.973000", "183056.976000", "183056.980000", "183056.983000", "183056.986000", "183056.990000", "183056.993000", "183057.007000", "183057.010000", "183057.013000", "183057.017000", "183057.020000", "183057.024000", "183136.924000", "183136.928000", "183136.939000", "183136.942000", "183136.946000", "183136.949000", "183136.953000", "183136.956000", "183136.960000", "183136.963000", "183136.967000", "183136.970000", "183136.974000", "183136.977000", "183136.981000", "183136.984000", "183136.987000", "183136.991000", "183136.994000", "183136.998000", "183137.002000", "183137.005000", "183137.009000", "183137.012000", "183137.016000", "183137.031000", "183137.034000", "183216.926000", "183216.929000", "183216.933000", "183216.936000", "183216.940000", "183216.943000", "183216.946000", "183216.950000", "183216.953000", "183216.957000", "183216.960000", "183216.964000", "183216.967000", "183216.971000", "183216.974000", "183216.978000", "183216.981000", "183216.985000", "183216.988000", "183216.991000", "183216.995000", "183216.998000", "183217.002000", "183217.005000", "183217.009000", "183217.012000", "183256.925000", "183256.929000", "183256.932000", "183256.936000", "183256.940000", "183256.943000", "183256.946000", "183256.950000", "183256.953000", "183256.964000", "183256.967000", "183256.971000", "183256.975000", "183256.978000", "183256.981000", "183256.985000", "183256.989000", "183256.992000", "183256.995000", "183257.000000", "183257.003000", "183257.007000", "183257.010000", "183257.014000", "183257.017000", "183257.021000", "183257.024000", "183336.925000", "183336.929000", "183336.932000", "183336.936000", "183336.939000", "183336.942000", "183336.946000", "183336.949000", "183336.953000", "183336.956000", "183336.960000", "183336.963000", "183336.966000", "183336.970000", "183336.973000", "183336.977000", "183336.980000", "183336.984000", "183336.987000", "183336.990000", "183336.994000", "183336.997000", "183337.002000", "183337.005000", "183337.009000", "183337.012000", "183337.015000", "183416.924000", "183416.928000", "183416.932000", "183416.935000", "183416.938000", "183416.942000", "183416.945000", "183416.966000", "183416.969000", "183416.973000", "183416.976000", "183416.980000", "183416.983000", "183416.986000", "183416.990000", "183416.993000", "183416.997000", "183417.001000", "183417.004000", "183417.008000", "183417.011000", "183417.015000", "183417.018000", "183417.022000", "183417.025000", "183417.028000", "183417.032000", "183456.925000", "183456.929000", "183456.932000", "183456.936000", "183456.940000", "183456.943000", "183456.947000", "183456.950000", "183456.954000", "183456.957000", "183456.960000", "183456.964000", "183456.967000", "183456.971000", "183456.974000", "183456.978000", "183456.981000", "183456.985000", "183456.988000", "183456.991000", "183456.995000", "183457.010000", "183457.013000", "183457.017000", "183457.020000", "183457.024000", "183457.027000", "183536.924000", "183536.928000", "183536.932000", "183536.935000", "183536.939000", "183536.942000", "183536.946000", "183536.949000", "183536.953000", "183536.956000", "183536.959000", "183536.963000", "183536.966000", "183536.970000", "183536.973000", "183536.977000", "183536.980000", "183536.983000", "183536.987000", "183536.990000", "183536.994000", "183536.997000", "183537.001000", "183537.005000", "183537.008000", "183537.012000", "183537.015000", "183603.655000", "183603.659000", "183603.662000", "183603.666000", "183603.669000", "183603.673000", "183603.676000", "183603.679000", "183603.683000", "183603.686000", "183603.690000", "183603.695000", "183603.698000", "183603.702000", "183603.705000", "183603.709000", "183603.712000", "183603.716000"],
      "InstanceCreationTime": ["182756.970000", "182756.974000", "182756.978000", "182756.981000", "182756.984000", "182756.988000", "182756.991000", "182756.995000", "182756.998000", "182757.003000", "182757.008000", "182757.011000", "182757.018000", "182757.022000", "182757.025000", "182757.028000", "182757.032000", "182757.035000", "182757.039000", "182757.042000", "182757.046000", "182757.049000", "182757.052000", "182757.056000", "182757.059000", "182757.063000", "182757.066000", "182757.069000", "182757.073000", "182816.925000", "182816.929000", "182816.932000", "182816.936000", "182816.939000", "182816.943000", "182816.946000", "182816.950000", "182816.953000", "182816.957000", "182816.981000", "182816.984000", "182816.987000", "182816.991000", "182816.994000", "182816.997000", "182817.002000", "182817.005000", "182817.009000", "182817.012000", "182836.924000", "182836.928000", "182836.931000", "182836.935000", "182836.938000", "182836.941000", "182836.945000", "182836.948000", "182836.951000", "182836.955000", "182836.958000", "182836.962000", "182836.965000", "182836.969000", "182836.972000", "182836.975000", "182836.979000", "182836.982000", "182836.986000", "182836.989000", "182837.000000", "182856.924000", "182856.928000", "182856.931000", "182856.935000", "182856.938000", "182856.942000", "182856.945000", "182856.948000", "182856.952000", "182856.955000", "182856.959000", "182856.962000", "182856.965000", "182856.969000", "182856.972000", "182856.976000", "182856.979000", "182856.982000", "182856.986000", "182856.989000", "182936.924000", "182936.928000", "182936.931000", "182936.935000", "182936.938000", "182936.942000", "182936.945000", "182936.962000", "182936.965000", "182936.968000", "182936.972000", "182936.975000", "182936.979000", "182936.982000", "182936.986000", "182936.989000", "182936.993000", "182936.996000", "182937.000000", "182937.004000", "182937.007000", "182937.011000", "182937.014000", "182937.018000", "182937.021000", "182937.024000", "182937.028000", "182937.031000", "183016.925000", "183016.929000", "183016.932000", "183016.936000", "183016.939000", "183016.943000", "183016.946000", "183016.950000", "183016.953000", "183016.956000", "183016.960000", "183016.963000", "183016.967000", "183016.970000", "183016.974000", "183016.977000", "183016.981000", "183016.984000", "183016.987000", "183016.991000", "183016.994000", "183016.998000", "183017.002000", "183017.005000", "183017.009000", "183017.012000", "183017.016000", "183056.924000", "183056.928000", "183056.931000", "183056.935000", "183056.938000", "183056.942000", "183056.945000", "183056.949000", "183056.952000", "183056.955000", "183056.959000", "183056.962000", "183056.966000", "183056.969000", "183056.973000", "183056.976000", "183056.980000", "183056.983000", "183056.986000", "183056.990000", "183056.993000", "183057.007000", "183057.010000", "183057.013000", "183057.017000", "183057.020000", "183057.024000", "183136.924000", "183136.928000", "183136.939000", "183136.942000", "183136.946000", "183136.949000", "183136.953000", "183136.956000", "183136.960000", "183136.963000", "183136.967000", "183136.970000", "183136.974000", "183136.977000", "183136.981000", "183136.984000", "183136.987000", "183136.991000", "183136.994000", "183136.998000", "183137.002000", "183137.005000", "183137.009000", "183137.012000", "183137.016000", "183137.031000", "183137.034000", "183216.926000", "183216.929000", "183216.933000", "183216.936000", "183216.940000", "183216.943000", "183216.946000", "183216.950000", "183216.953000", "183216.957000", "183216.960000", "183216.964000", "183216.967000", "183216.971000", "183216.974000", "183216.978000", "183216.981000", "183216.985000", "183216.988000", "183216.991000", "183216.995000", "183216.998000", "183217.002000", "183217.005000", "183217.009000", "183217.012000", "183256.925000", "183256.929000", "183256.932000", "183256.936000", "183256.940000", "183256.943000", "183256.946000", "183256.950000", "183256.953000", "183256.964000", "183256.967000", "183256.971000", "183256.975000", "183256.978000", "183256.981000", "183256.985000", "183256.989000", "183256.992000", "183256.995000", "183257.000000", "183257.003000", "183257.007000", "183257.010000", "183257.014000", "183257.017000", "183257.021000", "183257.024000", "183336.925000", "183336.929000", "183336.932000", "183336.936000", "183336.939000", "183336.942000", "183336.946000", "183336.949000", "183336.953000", "183336.956000", "183336.960000", "183336.963000", "183336.966000", "183336.970000", "183336.973000", "183336.977000", "183336.980000", "183336.984000", "183336.987000", "183336.990000", "183336.994000", "183336.997000", "183337.002000", "183337.005000", "183337.009000", "183337.012000", "183337.015000", "183416.924000", "183416.928000", "183416.932000", "183416.935000", "183416.938000", "183416.942000", "183416.945000", "183416.966000", "183416.969000", "183416.973000", "183416.976000", "183416.980000", "183416.983000", "183416.986000", "183416.990000", "183416.993000", "183416.997000", "183417.001000", "183417.004000", "183417.008000", "183417.011000", "183417.015000", "183417.018000", "183417.022000", "183417.025000", "183417.028000", "183417.032000", "183456.925000", "183456.929000", "183456.932000", "183456.936000", "183456.940000", "183456.943000", "183456.947000", "183456.950000", "183456.954000", "183456.957000", "183456.960000", "183456.964000", "183456.967000", "183456.971000", "183456.974000", "183456.978000", "183456.981000", "183456.985000", "183456.988000", "183456.991000", "183456.995000", "183457.010000", "183457.013000", "183457.017000", "183457.020000", "183457.024000", "183457.027000", "183536.924000", "183536.928000", "183536.932000", "183536.935000", "183536.939000", "183536.942000", "183536.946000", "183536.949000", "183536.953000", "183536.956000", "183536.959000", "183536.963000", "183536.966000", "183536.970000", "183536.973000", "183536.977000", "183536.980000", "183536.983000", "183536.987000", "183536.990000", "183536.994000", "183536.997000", "183537.001000", "183537.005000", "183537.008000", "183537.012000", "183537.015000", "183603.655000", "183603.659000", "183603.662000", "183603.666000", "183603.669000", "183603.673000", "183603.676000", "183603.679000", "183603.683000", "183603.686000", "183603.690000", "183603.695000", "183603.698000", "183603.702000", "183603.705000", "183603.709000", "183603.712000", "183603.716000"],
      "InstanceNumber": [1, 2, 3, 4, 5, 6, 7, 8, 9, 10, 11, 12, 13, 14, 15, 16, 17, 18, 19, 20, 21, 22, 23, 24, 25, 26, 27, 28, 29, 30, 31, 32, 33, 34, 35, 36, 37, 38, 39, 40, 41, 42, 43, 44, 45, 46, 47, 48, 49, 50, 51, 52, 53, 54, 55, 56, 57, 58, 59, 60, 61, 62, 63, 64, 65, 66, 67, 68, 69, 70, 71, 72, 73, 74, 75, 76, 77, 78, 79, 80, 81, 82, 83, 84, 85, 86, 87, 88, 89, 90, 91, 92, 93, 94, 95, 96, 97, 98, 99, 100, 101, 102, 103, 104, 105, 106, 107, 108, 109, 110, 111, 112, 113, 114, 115, 116, 117, 118, 119, 120, 121, 122, 123, 124, 125, 126, 127, 128, 129, 130, 131, 132, 133, 134, 135, 136, 137, 138, 139, 140, 141, 142, 143, 144, 145, 146, 147, 148, 149, 150, 151, 152, 153, 154, 155, 156, 157, 158, 159, 160, 161, 162, 163, 164, 165, 166, 167, 168, 169, 170, 171, 172, 173, 174, 175, 176, 177, 178, 179, 180, 181, 182, 183, 184, 185, 186, 187, 188, 189, 190, 191, 192, 193, 194, 195, 196, 197, 198, 199, 200, 201, 202, 203, 204, 205, 206, 207, 208, 209, 210, 211, 212, 213, 214, 215, 216, 217, 218, 219, 220, 221, 222, 223, 224, 225, 226, 227, 228, 229, 230, 231, 232, 233, 234, 235, 236, 237, 238, 239, 240, 241, 242, 243, 244, 245, 246, 247, 248, 249, 250, 251, 252, 253, 254, 255, 256, 257, 258, 259, 260, 261, 262, 263, 264, 265, 266, 267, 268, 269, 270, 271, 272, 273, 274, 275, 276, 277, 278, 279, 280, 281, 282, 283, 284, 285, 286, 287, 288, 289, 290, 291, 292, 293, 294, 295, 296, 297, 298, 299, 300, 301, 302, 303, 304, 305, 306, 307, 308, 309, 310, 311, 312, 313, 314, 315, 316, 317, 318, 319, 320, 321, 322, 323, 324, 325, 326, 327, 328, 329, 330, 331, 332, 333, 334, 335, 336, 337, 338, 339, 340, 341, 342, 343, 344, 345, 346, 347, 348, 349, 350, 351, 352, 353, 354, 355, 356, 357, 358, 359, 360, 361, 362, 363, 364, 365, 366, 367, 368, 369, 370, 371, 372, 373, 374, 375, 376, 377, 378],
