{
  "AcquisitionMatrixPE": 104,
  "AcquisitionNumber": 1,
  "AcquisitionTime": "18:38:16.835000",
  "BandwidthPerPixelPhaseEncode": 17.17,
  "BaseResolution": 104,
  "BodyPartExamined": "BRAIN",
  "CoilCombinationMethod": "Sum of Squares",
  "ConsistencyInfo": "N4_VE11C_LATEST_20160120",
  "ConversionSoftware": "dcm2niix",
  "ConversionSoftwareVersion": "v1.0.20220505",
  "DerivedVendorReportedEchoSpacing": 0.000560011,
  "DeviceSerialNumber": "167006",
  "DwellTime": 2.1e-06,
  "EchoTime": 0.037,
  "EchoTime1": 0.037,
  "EchoTime2": 0.001,
  "EchoTrainLength": 104,
  "EffectiveEchoSpacing": 0.000560011,
  "FlipAngle": 52,
  "HeudiconvVersion": "0.5.3.post811+g6206e14",
  "ImageComments": "Unaliased MB4/PE3/LB",
  "ImageOrientationPatientDICOM": [0.997578, 0.067888, 0.0151211, -0.056996, 0.922538, -0.381673],
  "ImageOrientationText": "Tra>Cor(-22.3)>Sag(2.3)",
  "ImageType": [
    "ORIGINAL",
    "PRIMARY",
    "P",
    "MB",
    "ND",
    "MOSAIC",
    "PHASE"
],
  "ImagingFrequency": 123.26,
  "InPlanePhaseEncodingDirectionDICOM": "COL",
  "InstitutionAddress": "Chemin Queen-Mary 4565,Montreal,District,CA,H3W 1W5",
  "InstitutionName": "IUGM",
  "InstitutionalDepartmentName": "Department",
  "MRAcquisitionType": "2D",
  "MagneticFieldStrength": 3,
  "Manufacturer": "Siemens",
  "ManufacturersModelName": "Prisma_fit",
  "MatrixCoilMode": "SENSE",
  "Modality": "MR",
  "MultibandAccelerationFactor": 4,
  "PartialFourier": 1,
  "PatientPosition": "HFS",
  "PercentPhaseFOV": 100,
  "PercentSampling": 100,
  "PhaseEncodingDirection": "j",
  "PhaseEncodingSteps": 104,
  "PhaseResolution": 1,
  "PixelBandwidth": 2290,
  "ProcedureStepDescription": "games^mario3",
  "ProtocolName": "func_task-mario3_run-03",
  "PulseSequenceDetails": "%CustomerSeq%\\cmrr_mbep2d_bold",
  "ReceiveCoilActiveElements": "HC1-7;NC1,2",
  "ReceiveCoilName": "HeadNeck_64",
  "ReconMatrixPE": 104,
  "RepetitionTime": 1.49,
  "SAR": 0.046411,
  "ScanOptions": "FS",
  "ScanningSequence": "EP",
  "SequenceName": "epfid2d1_104",
  "SequenceVariant": "SK\\SS",
  "SeriesDescription": "func_task-mario3_run-03",
  "SeriesNumber": 17,
  "ShimSetting": [622, -7203, -8817, 676, 124, -29, -72, 23],
  "SliceThickness": 2,
  "SliceTiming": [0, 0.785, 0.0975, 0.8825, 0.195, 0.98, 0.295, 1.0775, 0.3925, 1.175, 0.49, 1.275, 0.5875, 1.3725, 0.685, 0, 0.785, 0.0975, 0.8825, 0.195, 0.98, 0.295, 1.0775, 0.3925, 1.175, 0.49, 1.275, 0.5875, 1.3725, 0.685, 0, 0.785, 0.0975, 0.8825, 0.195, 0.98, 0.295, 1.0775, 0.3925, 1.175, 0.49, 1.275, 0.5875, 1.3725, 0.685, 0, 0.785, 0.0975, 0.8825, 0.195, 0.98, 0.295, 1.0775, 0.3925, 1.175, 0.49, 1.275, 0.5875, 1.3725, 0.685],
  "SoftwareVersions": "syngo MR E11",
  "SpacingBetweenSlices": 2,
  "StationName": "MRC35049",
  "TaskName": "mario3",
  "TotalReadoutTime": 0.0576811,
  "TxRefAmp": 248.751,
  "WipMemBlock": "61588a62-0244-4d1a-a50a-17231509f8a0||Sequence: R017 ve11c/master r/75a17815+; Jun 28 2022 16:32:11 by eja",
  "dcmmeta_affine": [
    [-1.9951567649841309, -0.11399197578430176, 0.07972152531147003, 109.638671875],
    [-0.13577593863010406, 1.8450769186019897, -0.7597737908363342, -59.625244140625],
    [0.03024211712181568, 0.7633460164070129, 1.848347544670105, -69.02948760986328],
    [0.0, 0.0, 0.0, 1.0]
],
  "dcmmeta_reorient_transform": [
    [0.0, -1.0, 0.0, 103.0],
    [1.0, 0.0, 0.0, 0.0],
    [0.0, 0.0, 1.0, 0.0],
    [0.0, 0.0, 0.0, 1.0]
],
  "dcmmeta_shape": [104, 104, 60, 310],
  "dcmmeta_slice_dim": 2,
  "dcmmeta_version": 0.6,
  "global": {
    "const": {
      "AcquisitionMatrix": [104, 0, 0, 104],
      "AngioFlag": "N",
      "BitsAllocated": 16,
      "BitsStored": 16,
      "BodyPartExamined": "BRAIN",
      "Columns": 832,
      "EchoNumbers": 1,
      "EchoTime": 37.0,
      "EchoTrainLength": 104,
      "FlipAngle": 52.0,
      "HighBit": 15,
      "ImageOrientationPatient": [0.99757835636953, 0.06788797010093, 0.01512105878059, -0.0569959863409, 0.92253844302184, -0.3816729996841],
      "ImagePositionPatient": [-782.64146112012, -851.44810198157, 276.44496399251],
      "ImageType": [
        "ORIGINAL",
        "PRIMARY",
        "P",
        "MB",
        "ND",
        "MOSAIC"
],
      "ImagedNucleus": "1H",
      "ImagingFrequency": 123.260462,
      "InPlanePhaseEncodingDirection": "COL",
      "LargestImagePixelValue": 4095,
      "MRAcquisitionType": "2D",
      "MagneticFieldStrength": 3.0,
      "Manufacturer": "SIEMENS",
      "ManufacturerModelName": "Prisma_fit",
      "Modality": "MR",
      "NumberOfAverages": 1.0,
      "NumberOfPhaseEncodingSteps": 104,
      "PercentPhaseFieldOfView": 100.0,
      "PercentSampling": 100.0,
      "PerformedProcedureStepStartTime": "181309.293000",
      "PhotometricInterpretation": "MONOCHROME2",
      "PixelBandwidth": 2290.0,
      "PixelRepresentation": 0,
      "PixelSpacing": [2.0, 2.0],
      "ProtocolName": "func_task-mario3_run-03",
      "RepetitionTime": 1490.0,
      "RescaleIntercept": -4096.0,
      "RescaleSlope": 2.0,
      "RescaleType": "US",
      "Rows": 832,
      "SAR": 0.04641096392684,
      "SamplesPerPixel": 1,
      "ScanOptions": "FS",
      "ScanningSequence": "EP",
      "SequenceName": "epfid2d1_104",
      "SequenceVariant": [
        "SK",
        "SS"
],
      "SeriesDescription": "func_task-mario3_run-03",
      "SeriesNumber": 17,
      "SeriesTime": "183941.880000",
      "SliceLocation": -36.774108148871,
      "SliceThickness": 2.0,
      "SmallestImagePixelValue": 0,
      "SoftwareVersions": "syngo MR E11",
      "SpacingBetweenSlices": 2.000000063112,
      "SpecificCharacterSet": "ISO_IR 100",
      "StudyID": "1",
      "StudyTime": "181309.209000",
      "TransmitCoilName": "Body",
      "VariableFlipAngleFlag": "N",
      "WindowCenterWidthExplanation": "Algo1",
      "dBdt": 0.0},
    "slices": {}
  },
  "time": {
    "samples": {
      "AcquisitionNumber": [1, 2, 3, 4, 5, 6, 7, 8, 9, 10, 11, 12, 13, 14, 15, 16, 17, 18, 19, 20, 21, 22, 23, 24, 25, 26, 27, 28, 29, 30, 31, 32, 33, 34, 35, 36, 37, 38, 39, 40, 41, 42, 43, 44, 45, 46, 47, 48, 49, 50, 51, 52, 53, 54, 55, 56, 57, 58, 59, 60, 61, 62, 63, 64, 65, 66, 67, 68, 69, 70, 71, 72, 73, 74, 75, 76, 77, 78, 79, 80, 81, 82, 83, 84, 85, 86, 87, 88, 89, 90, 91, 92, 93, 94, 95, 96, 97, 98, 99, 100, 101, 102, 103, 104, 105, 106, 107, 108, 109, 110, 111, 112, 113, 114, 115, 116, 117, 118, 119, 120, 121, 122, 123, 124, 125, 126, 127, 128, 129, 130, 131, 132, 133, 134, 135, 136, 137, 138, 139, 140, 141, 142, 143, 144, 145, 146, 147, 148, 149, 150, 151, 152, 153, 154, 155, 156, 157, 158, 159, 160, 161, 162, 163, 164, 165, 166, 167, 168, 169, 170, 171, 172, 173, 174, 175, 176, 177, 178, 179, 180, 181, 182, 183, 184, 185, 186, 187, 188, 189, 190, 191, 192, 193, 194, 195, 196, 197, 198, 199, 200, 201, 202, 203, 204, 205, 206, 207, 208, 209, 210, 211, 212, 213, 214, 215, 216, 217, 218, 219, 220, 221, 222, 223, 224, 225, 226, 227, 228, 229, 230, 231, 232, 233, 234, 235, 236, 237, 238, 239, 240, 241, 242, 243, 244, 245, 246, 247, 248, 249, 250, 251, 252, 253, 254, 255, 256, 257, 258, 259, 260, 261, 262, 263, 264, 265, 266, 267, 268, 269, 270, 271, 272, 273, 274, 275, 276, 277, 278, 279, 280, 281, 282, 283, 284, 285, 286, 287, 288, 289, 290, 291, 292, 293, 294, 295, 296, 297, 298, 299, 300, 301, 302, 303, 304, 305, 306, 307, 308, 309, 310],
      "AcquisitionTime": ["183816.835000", "183818.325000", "183819.815000", "183821.305000", "183822.795000", "183824.285000", "183825.775000", "183827.265000", "183828.755000", "183830.245000", "183831.735000", "183833.225000", "183834.715000", "183836.205000", "183837.695000", "183839.185000", "183840.675000", "183842.165000", "183843.655000", "183845.145000", "183846.635000", "183848.125000", "183849.615000", "183851.105000", "183852.595000", "183854.085000", "183855.575000", "183857.065000", "183858.555000", "183900.045000", "183901.535000", "183903.025000", "183904.515000", "183906.005000", "183907.495000", "183908.985000", "183910.475000", "183911.965000", "183913.455000", "183914.945000", "183916.435000", "183917.925000", "183919.415000", "183920.905000", "183922.395000", "183923.885000", "183925.375000", "183926.865000", "183928.355000", "183929.845000", "183931.335000", "183932.825000", "183934.315000", "183935.805000", "183937.295000", "183938.785000", "183940.275000", "183941.765000", "183943.255000", "183944.745000", "183946.235000", "183947.725000", "183949.215000", "183950.705000", "183952.195000", "183953.685000", "183955.175000", "183956.665000", "183958.155000", "183959.645000", "184001.135000", "184002.625000", "184004.115000", "184005.605000", "184007.095000", "184008.585000", "184010.075000", "184011.565000", "184013.055000", "184014.545000", "184016.035000", "184017.525000", "184019.015000", "184020.505000", "184021.995000", "184023.485000", "184024.975000", "184026.465000", "184027.955000", "184029.445000", "184030.935000", "184032.425000", "184033.915000", "184035.405000", "184036.895000", "184038.385000", "184039.875000", "184041.365000", "184042.855000", "184044.345000", "184045.835000", "184047.325000", "184048.815000", "184050.305000", "184051.795000", "184053.285000", "184054.775000", "184056.265000", "184057.755000", "184059.245000", "184100.735000", "184102.225000", "184103.715000", "184105.205000", "184106.695000", "184108.185000", "184109.675000", "184111.165000", "184112.655000", "184114.145000", "184115.635000", "184117.125000", "184118.615000", "184120.105000", "184121.595000", "184123.085000", "184124.575000", "184126.065000", "184127.555000", "184129.045000", "184130.535000", "184132.025000", "184133.515000", "184135.005000", "184136.495000", "184137.985000", "184139.475000", "184140.965000", "184142.455000", "184143.945000", "184145.435000", "184146.925000", "184148.415000", "184149.905000", "184151.395000", "184152.885000", "184154.375000", "184155.865000", "184157.355000", "184158.845000", "184200.335000", "184201.825000", "184203.315000", "184204.805000", "184206.295000", "184207.785000", "184209.275000", "184210.765000", "184212.255000", "184213.745000", "184215.235000", "184216.725000", "184218.215000", "184219.705000", "184221.195000", "184222.685000", "184224.175000", "184225.665000", "184227.155000", "184228.645000", "184230.135000", "184231.625000", "184233.115000", "184234.605000", "184236.095000", "184237.585000", "184239.075000", "184240.565000", "184242.055000", "184243.545000", "184245.035000", "184246.525000", "184248.015000", "184249.505000", "184250.995000", "184252.485000", "184253.975000", "184255.465000", "184256.955000", "184258.445000", "184259.935000", "184301.425000", "184302.915000", "184304.405000", "184305.895000", "184307.385000", "184308.875000", "184310.365000", "184311.855000", "184313.345000", "184314.835000", "184316.325000", "184317.815000", "184319.305000", "184320.795000", "184322.285000", "184323.775000", "184325.265000", "184326.755000", "184328.245000", "184329.735000", "184331.225000", "184332.715000", "184334.205000", "184335.695000", "184337.185000", "184338.675000", "184340.165000", "184341.655000", "184343.145000", "184344.635000", "184346.125000", "184347.615000", "184349.105000", "184350.595000", "184352.085000", "184353.575000", "184355.065000", "184356.555000", "184358.045000", "184359.535000", "184401.025000", "184402.515000", "184404.005000", "184405.495000", "184406.985000", "184408.475000", "184409.965000", "184411.455000", "184412.945000", "184414.435000", "184415.925000", "184417.415000", "184418.905000", "184420.395000", "184421.885000", "184423.375000", "184424.865000", "184426.355000", "184427.845000", "184429.335000", "184430.825000", "184432.315000", "184433.805000", "184435.295000", "184436.785000", "184438.275000", "184439.765000", "184441.255000", "184442.745000", "184444.235000", "184445.725000", "184447.215000", "184448.705000", "184450.195000", "184451.685000", "184453.175000", "184454.665000", "184456.155000", "184457.645000", "184459.135000", "184500.625000", "184502.115000", "184503.605000", "184505.095000", "184506.585000", "184508.075000", "184509.565000", "184511.055000", "184512.545000", "184514.035000", "184515.525000", "184517.015000", "184518.505000", "184519.995000", "184521.485000", "184522.975000", "184524.465000", "184525.955000", "184527.445000", "184528.935000", "184530.425000", "184531.915000", "184533.405000", "184534.895000", "184536.385000", "184537.875000", "184539.365000", "184540.855000", "184542.345000", "184543.835000", "184545.325000", "184546.815000", "184548.305000", "184549.795000", "184551.285000", "184552.775000", "184554.265000", "184555.755000", "184557.245000"],
      "ContentTime": ["183941.882000", "183941.885000", "183941.887000", "183941.890000", "183941.892000", "183941.895000", "183941.898000", "183941.900000", "183941.903000", "183941.905000", "183941.908000", "183941.910000", "183941.917000", "183941.920000", "183941.922000", "183941.925000", "183941.928000", "183941.930000", "183941.933000", "183941.935000", "183941.938000", "183941.940000", "183941.943000", "183941.946000", "183941.948000", "183941.951000", "183941.953000", "183941.956000", "183941.958000", "183941.961000", "183941.963000", "183941.966000", "183941.969000", "183941.971000", "183941.975000", "183941.977000", "183941.980000", "184001.753000", "184001.756000", "184001.759000", "184001.761000", "184001.764000", "184001.772000", "184001.775000", "184001.777000", "184001.780000", "184001.782000", "184001.785000", "184001.787000", "184001.790000", "184001.793000", "184001.795000", "184001.798000", "184001.800000", "184001.803000", "184001.805000", "184001.808000", "184021.758000", "184021.761000", "184021.763000", "184021.766000", "184021.769000", "184021.772000", "184021.775000", "184021.777000", "184021.780000", "184021.782000", "184021.785000", "184021.787000", "184021.790000", "184021.793000", "184021.795000", "184021.798000", "184021.800000", "184021.803000", "184021.805000", "184021.808000", "184101.823000", "184101.826000", "184101.829000", "184101.831000", "184101.834000", "184101.837000", "184101.839000", "184101.842000", "184101.844000", "184101.847000", "184101.849000", "184101.852000", "184101.854000", "184101.857000", "184101.860000", "184101.862000", "184101.865000", "184101.867000", "184101.870000", "184101.872000", "184101.875000", "184101.878000", "184101.880000", "184101.883000", "184101.885000", "184101.888000", "184101.891000", "184101.893000", "184101.896000", "184101.898000", "184101.901000", "184101.904000", "184101.906000", "184141.796000", "184141.799000", "184141.802000", "184141.810000", "184141.813000", "184141.816000", "184141.818000", "184141.821000", "184141.823000", "184141.826000", "184141.829000", "184141.831000", "184141.834000", "184141.836000", "184141.839000", "184141.842000", "184141.844000", "184141.847000", "184141.850000", "184141.852000", "184141.855000", "184141.857000", "184141.860000", "184141.862000", "184141.865000", "184141.868000", "184141.870000", "184221.813000", "184221.816000", "184221.818000", "184221.821000", "184221.823000", "184221.826000", "184221.829000", "184221.831000", "184221.834000", "184221.837000", "184221.839000", "184221.842000", "184221.845000", "184221.847000", "184221.850000", "184221.853000", "184221.855000", "184221.858000", "184221.860000", "184221.863000", "184221.865000", "184221.868000", "184221.870000", "184221.873000", "184221.876000", "184221.878000", "184221.881000", "184301.815000", "184301.817000", "184301.820000", "184301.823000", "184301.825000", "184301.828000", "184301.831000", "184301.833000", "184301.836000", "184301.839000", "184301.841000", "184301.844000", "184301.847000", "184301.849000", "184301.852000", "184301.854000", "184301.857000", "184301.860000", "184301.862000", "184301.865000", "184301.868000", "184301.870000", "184301.873000", "184301.875000", "184301.878000", "184301.881000", "184341.791000", "184341.815000", "184341.818000", "184341.820000", "184341.823000", "184341.825000", "184341.828000", "184341.830000", "184341.833000", "184341.835000", "184341.838000", "184341.841000", "184341.843000", "184341.846000", "184341.848000", "184341.851000", "184341.853000", "184341.856000", "184341.860000", "184341.863000", "184341.865000", "184341.868000", "184341.870000", "184341.873000", "184341.875000", "184341.878000", "184341.881000", "184421.828000", "184421.831000", "184421.844000", "184421.847000", "184421.849000", "184421.852000", "184421.854000", "184421.857000", "184421.860000", "184421.862000", "184421.865000", "184421.867000", "184421.870000", "184421.872000", "184421.875000", "184421.878000", "184421.880000", "184421.883000", "184421.885000", "184421.888000", "184421.891000", "184421.893000", "184421.896000", "184421.898000", "184421.901000", "184421.904000", "184421.906000", "184501.790000", "184501.793000", "184501.795000", "184501.798000", "184501.800000", "184501.803000", "184501.809000", "184501.812000", "184501.814000", "184501.817000", "184501.820000", "184501.822000", "184501.825000", "184501.828000", "184501.830000", "184501.833000", "184501.835000", "184501.838000", "184501.841000", "184501.843000", "184501.846000", "184501.849000", "184501.851000", "184501.854000", "184501.856000", "184501.859000", "184501.861000", "184541.816000", "184541.819000", "184541.821000", "184541.824000", "184541.826000", "184541.829000", "184541.832000", "184541.834000", "184541.837000", "184541.839000", "184541.842000", "184541.844000", "184541.847000", "184541.850000", "184541.852000", "184541.855000", "184541.857000", "184541.860000", "184541.862000", "184541.865000", "184541.867000", "184541.870000", "184541.873000", "184541.875000", "184541.878000", "184541.880000", "184541.883000", "184559.670000", "184559.673000", "184559.675000", "184559.678000", "184559.680000", "184559.683000", "184559.685000", "184559.688000", "184559.691000", "184559.694000", "184559.696000", "184559.699000"],
      "InstanceCreationTime": ["183941.882000", "183941.885000", "183941.887000", "183941.890000", "183941.892000", "183941.895000", "183941.898000", "183941.900000", "183941.903000", "183941.905000", "183941.908000", "183941.910000", "183941.917000", "183941.920000", "183941.922000", "183941.925000", "183941.928000", "183941.930000", "183941.933000", "183941.935000", "183941.938000", "183941.940000", "183941.943000", "183941.946000", "183941.948000", "183941.951000", "183941.953000", "183941.956000", "183941.958000", "183941.961000", "183941.963000", "183941.966000", "183941.969000", "183941.971000", "183941.975000", "183941.977000", "183941.980000", "184001.753000", "184001.756000", "184001.759000", "184001.761000", "184001.764000", "184001.772000", "184001.775000", "184001.777000", "184001.780000", "184001.782000", "184001.785000", "184001.787000", "184001.790000", "184001.793000", "184001.795000", "184001.798000", "184001.800000", "184001.803000", "184001.805000", "184001.808000", "184021.758000", "184021.761000", "184021.763000", "184021.766000", "184021.769000", "184021.772000", "184021.775000", "184021.777000", "184021.780000", "184021.782000", "184021.785000", "184021.787000", "184021.790000", "184021.793000", "184021.795000", "184021.798000", "184021.800000", "184021.803000", "184021.805000", "184021.808000", "184101.823000", "184101.826000", "184101.829000", "184101.831000", "184101.834000", "184101.837000", "184101.839000", "184101.842000", "184101.844000", "184101.847000", "184101.849000", "184101.852000", "184101.854000", "184101.857000", "184101.860000", "184101.862000", "184101.865000", "184101.867000", "184101.870000", "184101.872000", "184101.875000", "184101.878000", "184101.880000", "184101.883000", "184101.885000", "184101.888000", "184101.891000", "184101.893000", "184101.896000", "184101.898000", "184101.901000", "184101.904000", "184101.906000", "184141.796000", "184141.799000", "184141.802000", "184141.810000", "184141.813000", "184141.816000", "184141.818000", "184141.821000", "184141.823000", "184141.826000", "184141.829000", "184141.831000", "184141.834000", "184141.836000", "184141.839000", "184141.842000", "184141.844000", "184141.847000", "184141.850000", "184141.852000", "184141.855000", "184141.857000", "184141.860000", "184141.862000", "184141.865000", "184141.868000", "184141.870000", "184221.813000", "184221.816000", "184221.818000", "184221.821000", "184221.823000", "184221.826000", "184221.829000", "184221.831000", "184221.834000", "184221.837000", "184221.839000", "184221.842000", "184221.845000", "184221.847000", "184221.850000", "184221.853000", "184221.855000", "184221.858000", "184221.860000", "184221.863000", "184221.865000", "184221.868000", "184221.870000", "184221.873000", "184221.876000", "184221.878000", "184221.881000", "184301.815000", "184301.817000", "184301.820000", "184301.823000", "184301.825000", "184301.828000", "184301.831000", "184301.833000", "184301.836000", "184301.839000", "184301.841000", "184301.844000", "184301.847000", "184301.849000", "184301.852000", "184301.854000", "184301.857000", "184301.860000", "184301.862000", "184301.865000", "184301.868000", "184301.870000", "184301.873000", "184301.875000", "184301.878000", "184301.881000", "184341.791000", "184341.815000", "184341.818000", "184341.820000", "184341.823000", "184341.825000", "184341.828000", "184341.830000", "184341.833000", "184341.835000", "184341.838000", "184341.841000", "184341.843000", "184341.846000", "184341.848000", "184341.851000", "184341.853000", "184341.856000", "184341.860000", "184341.863000", "184341.865000", "184341.868000", "184341.870000", "184341.873000", "184341.875000", "184341.878000", "184341.881000", "184421.828000", "184421.831000", "184421.844000", "184421.847000", "184421.849000", "184421.852000", "184421.854000", "184421.857000", "184421.860000", "184421.862000", "184421.865000", "184421.867000", "184421.870000", "184421.872000", "184421.875000", "184421.878000", "184421.880000", "184421.883000", "184421.885000", "184421.888000", "184421.891000", "184421.893000", "184421.896000", "184421.898000", "184421.901000", "184421.904000", "184421.906000", "184501.790000", "184501.793000", "184501.795000", "184501.798000", "184501.800000", "184501.803000", "184501.809000", "184501.812000", "184501.814000", "184501.817000", "184501.820000", "184501.822000", "184501.825000", "184501.828000", "184501.830000", "184501.833000", "184501.835000", "184501.838000", "184501.841000", "184501.843000", "184501.846000", "184501.849000", "184501.851000", "184501.854000", "184501.856000", "184501.859000", "184501.861000", "184541.816000", "184541.819000", "184541.821000", "184541.824000", "184541.826000", "184541.829000", "184541.832000", "184541.834000", "184541.837000", "184541.839000", "184541.842000", "184541.844000", "184541.847000", "184541.850000", "184541.852000", "184541.855000", "184541.857000", "184541.860000", "184541.862000", "184541.865000", "184541.867000", "184541.870000", "184541.873000", "184541.875000", "184541.878000", "184541.880000", "184541.883000", "184559.670000", "184559.673000", "184559.675000", "184559.678000", "184559.680000", "184559.683000", "184559.685000", "184559.688000", "184559.691000", "184559.694000", "184559.696000", "184559.699000"],
      "InstanceNumber": [1, 2, 3, 4, 5, 6, 7, 8, 9, 10, 11, 12, 13, 14, 15, 16, 17, 18, 19, 20, 21, 22, 23, 24, 25, 26, 27, 28, 29, 30, 31, 32, 33, 34, 35, 36, 37, 38, 39, 40, 41, 42, 43, 44, 45, 46, 47, 48, 49, 50, 51, 52, 53, 54, 55, 56, 57, 58, 59, 60, 61, 62, 63, 64, 65, 66, 67, 68, 69, 70, 71, 72, 73, 74, 75, 76, 77, 78, 79, 80, 81, 82, 83, 84, 85, 86, 87, 88, 89, 90, 91, 92, 93, 94, 95, 96, 97, 98, 99, 100, 101, 102, 103, 104, 105, 106, 107, 108, 109, 110, 111, 112, 113, 114, 115, 116, 117, 118, 119, 120, 121, 122, 123, 124, 125, 126, 127, 128, 129, 130, 131, 132, 133, 134, 135, 136, 137, 138, 139, 140, 141, 142, 143, 144, 145, 146, 147, 148, 149, 150, 151, 152, 153, 154, 155, 156, 157, 158, 159, 160, 161, 162, 163, 164, 165, 166, 167, 168, 169, 170, 171, 172, 173, 174, 175, 176, 177, 178, 179, 180, 181, 182, 183, 184, 185, 186, 187, 188, 189, 190, 191, 192, 193, 194, 195, 196, 197, 198, 199, 200, 201, 202, 203, 204, 205, 206, 207, 208, 209, 210, 211, 212, 213, 214, 215, 216, 217, 218, 219, 220, 221, 222, 223, 224, 225, 226, 227, 228, 229, 230, 231, 232, 233, 234, 235, 236, 237, 238, 239, 240, 241, 242, 243, 244, 245, 246, 247, 248, 249, 250, 251, 252, 253, 254, 255, 256, 257, 258, 259, 260, 261, 262, 263, 264, 265, 266, 267, 268, 269, 270, 271, 272, 273, 274, 275, 276, 277, 278, 279, 280, 281, 282, 283, 284, 285, 286, 287, 288, 289, 290, 291, 292, 293, 294, 295, 296, 297, 298, 299, 300, 301, 302, 303, 304, 305, 306, 307, 308, 309, 310],
      "WindowCenter": [4850.0, 4854.0, 4854.0, 4856.0, 4852.0, 4852.0, 4854.0, 4856.0, 4852.0, 4858.0, 4852.0, 4852.0, 4852.0, 4854.0, 4854.0, 4852.0, 4856.0, 4854.0, 4852.0, 4852.0, 4854.0, 4854.0, 4852.0, 4854.0, 4854.0, 4852.0, 4856.0, 4854.0, 4854.0, 4860.0, 4852.0, 4854.0, 4854.0, 4854.0, 4854.0, 4854.0, 4858.0, 4852.0, 4854.0, 4852.0, 4856.0, 4858.0, 4852.0, 4856.0, 4856.0, 4852.0, 4858.0, 4856.0, 4856.0, 4852.0, 4854.0, 4856.0, 4854.0, 4854.0, 4854.0, 4854.0, 4856.0, 4854.0, 4854.0, 4856.0, 4852.0, 4852.0, 4854.0, 4854.0, 4854.0, 4852.0, 4856.0, 4854.0, 4854.0, 4856.0, 4854.0, 4852.0, 4856.0, 4854.0, 4850.0, 4856.0, 4854.0, 4854.0, 4858.0, 4854.0, 4878.0, 4854.0, 4854.0, 4856.0, 4856.0, 4854.0, 4856.0, 4852.0, 4854.0, 4856.0, 4856.0, 4852.0, 4856.0, 4856.0, 4854.0, 4856.0, 4856.0, 4854.0, 4852.0, 4856.0, 4878.0, 4854.0, 4854.0, 4852.0, 4856.0, 4854.0, 4856.0, 4878.0, 4856.0, 4854.0, 4856.0, 4856.0, 4856.0, 4854.0, 4878.0, 4858.0, 4858.0, 4876.0, 4856.0, 4856.0, 4876.0, 4856.0, 4854.0, 4854.0, 4854.0, 4854.0, 4856.0, 4852.0, 4856.0, 4854.0, 4854.0, 4858.0, 4856.0, 4856.0, 4854.0, 4856.0, 4856.0, 4854.0, 4852.0, 4880.0, 4878.0, 4856.0, 4854.0, 4856.0, 4878.0, 4856.0, 4856.0, 4854.0, 4856.0, 4880.0, 4856.0, 4878.0, 4858.0, 4854.0, 4856.0, 4856.0, 4878.0, 4854.0, 4854.0, 4856.0, 4878.0, 4854.0, 4854.0, 4854.0, 4852.0, 4854.0, 4852.0, 4880.0, 4858.0, 4858.0, 4852.0, 4856.0, 4878.0, 4856.0, 4854.0, 4856.0, 4856.0, 4854.0, 4852.0, 4852.0, 4854.0, 4854.0, 4854.0, 4856.0, 4854.0, 4854.0, 4878.0, 4852.0, 4854.0, 4878.0, 4852.0, 4852.0, 4854.0, 4854.0, 4858.0, 4856.0, 4858.0, 4880.0, 4856.0, 4852.0, 4856.0, 4854.0, 4856.0, 4852.0, 4854.0, 4854.0, 4854.0, 4852.0, 4874.0, 4856.0, 4854.0, 4878.0, 4854.0, 4856.0, 4856.0, 4854.0, 4856.0, 4878.0, 4856.0, 4856.0, 4852.0, 4854.0, 4854.0, 4878.0, 4854.0, 4852.0, 4854.0, 4856.0, 4856.0, 4854.0, 4854.0, 4856.0, 4854.0, 4856.0, 4878.0, 4854.0, 4856.0, 4878.0, 4878.0, 4858.0, 4852.0, 4880.0, 4882.0, 4852.0, 4852.0, 4854.0, 4878.0, 4852.0, 4856.0, 4854.0, 4850.0, 4854.0, 4858.0, 4852.0, 4854.0, 4854.0, 4854.0, 4852.0, 4854.0, 4856.0, 4856.0, 4854.0, 4856.0, 4858.0, 4856.0, 4854.0, 4850.0, 4878.0, 4852.0, 4854.0, 4878.0, 4856.0, 4880.0, 4852.0, 4856.0, 4854.0, 4854.0, 4854.0, 4854.0, 4854.0, 4852.0, 4876.0, 4854.0, 4854.0, 4854.0, 4856.0, 4854.0, 4854.0, 4854.0, 4854.0, 4854.0, 4854.0, 4852.0, 4850.0, 4850.0, 4850.0, 4854.0, 4854.0, 4880.0, 4856.0, 4856.0, 4876.0, 4858.0, 4860.0, 4852.0, 4854.0, 4854.0, 4854.0, 4856.0, 4856.0],
