{
  "AcquisitionMatrixPE": 104,
  "AcquisitionNumber": 1,
  "AcquisitionTime": "18:16:34.927500",
  "BandwidthPerPixelPhaseEncode": 17.17,
  "BaseResolution": 104,
  "BodyPartExamined": "BRAIN",
  "CoilCombinationMethod": "Sum of Squares",
  "ConsistencyInfo": "N4_VE11C_LATEST_20160120",
  "ConversionSoftware": "dcm2niix",
  "ConversionSoftwareVersion": "v1.0.20220505",
  "DerivedVendorReportedEchoSpacing": 0.000560011,
  "DeviceSerialNumber": "167006",
  "DwellTime": 2.1e-06,
  "EchoTime": 0.037,
  "EchoTrainLength": 104,
  "EffectiveEchoSpacing": 0.000560011,
  "FlipAngle": 52,
  "HeudiconvVersion": "0.5.3.post811+g6206e14",
  "ImageComments": "Unaliased MB4/PE3/LB",
  "ImageOrientationPatientDICOM": [0.997578, 0.067888, 0.0151211, -0.056996, 0.922538, -0.381673],
  "ImageOrientationText": "Tra>Cor(-22.3)>Sag(2.3)",
  "ImageType": [
    "ORIGINAL",
    "PRIMARY",
    "M",
    "MB",
    "ND",
    "MOSAIC"
],
  "ImagingFrequency": 123.26,
  "InPlanePhaseEncodingDirectionDICOM": "COL",
  "InstitutionAddress": "Chemin Queen-Mary 4565,Montreal,District,CA,H3W 1W5",
  "InstitutionName": "IUGM",
  "InstitutionalDepartmentName": "Department",
  "MRAcquisitionType": "2D",
  "MagneticFieldStrength": 3,
  "Manufacturer": "Siemens",
  "ManufacturersModelName": "Prisma_fit",
  "MatrixCoilMode": "SENSE",
  "Modality": "MR",
  "MultibandAccelerationFactor": 4,
  "PartialFourier": 1,
  "PatientPosition": "HFS",
  "PercentPhaseFOV": 100,
  "PercentSampling": 100,
  "PhaseEncodingDirection": "j",
  "PhaseEncodingSteps": 104,
  "PhaseResolution": 1,
  "PixelBandwidth": 2290,
  "ProcedureStepDescription": "games^mario3",
  "ProtocolName": "func_task-mario3_run-01",
  "PulseSequenceDetails": "%CustomerSeq%\\cmrr_mbep2d_bold",
  "ReceiveCoilActiveElements": "HC1-7;NC1,2",
  "ReceiveCoilName": "HeadNeck_64",
  "ReconMatrixPE": 104,
  "RepetitionTime": 1.49,
  "SAR": 0.046411,
  "ScanOptions": "FS",
  "ScanningSequence": "EP",
  "SequenceName": "epfid2d1_104",
  "SequenceVariant": "SK\\SS",
  "SeriesDescription": "func_task-mario3_run-01",
  "SeriesNumber": 10,
  "ShimSetting": [622, -7203, -8817, 676, 124, -29, -72, 23],
  "SliceThickness": 2,
  "SliceTiming": [0, 0.7825, 0.0975, 0.88, 0.195, 0.98, 0.2925, 1.0775, 0.39, 1.175, 0.49, 1.2725, 0.5875, 1.37, 0.685, 0, 0.7825, 0.0975, 0.88, 0.195, 0.98, 0.2925, 1.0775, 0.39, 1.175, 0.49, 1.2725, 0.5875, 1.37, 0.685, 0, 0.7825, 0.0975, 0.88, 0.195, 0.98, 0.2925, 1.0775, 0.39, 1.175, 0.49, 1.2725, 0.5875, 1.37, 0.685, 0, 0.7825, 0.0975, 0.88, 0.195, 0.98, 0.2925, 1.0775, 0.39, 1.175, 0.49, 1.2725, 0.5875, 1.37, 0.685],
  "SoftwareVersions": "syngo MR E11",
  "SpacingBetweenSlices": 2,
  "StationName": "MRC35049",
  "TaskName": "mario3",
  "TotalReadoutTime": 0.0576811,
  "TxRefAmp": 248.751,
  "WipMemBlock": "9f8edea5-be4b-4a1f-8247-761ee8db1a85||Sequence: R017 ve11c/master r/75a17815+; Jun 28 2022 16:32:11 by eja",
  "dcmmeta_affine": [
    [-1.9951567649841309, -0.11399197578430176, 0.07972152531147003, 109.638671875],
    [-0.13577593863010406, 1.8450769186019897, -0.7597737908363342, -59.625244140625],
    [0.03024211712181568, 0.7633460164070129, 1.848347544670105, -69.02948760986328],
    [0.0, 0.0, 0.0, 1.0]
],
  "dcmmeta_reorient_transform": [
    [0.0, -1.0, 0.0, 103.0],
    [1.0, 0.0, 0.0, 0.0],
    [0.0, 0.0, 1.0, 0.0],
    [0.0, 0.0, 0.0, 1.0]
],
  "dcmmeta_shape": [104, 104, 60, 305],
  "dcmmeta_slice_dim": 2,
  "dcmmeta_version": 0.6,
  "global": {
    "const": {
      "AcquisitionMatrix": [104, 0, 0, 104],
      "AngioFlag": "N",
      "BitsAllocated": 16,
      "BitsStored": 16,
      "BodyPartExamined": "BRAIN",
      "Columns": 832,
      "EchoNumbers": 1,
      "EchoTime": 37.0,
      "EchoTrainLength": 104,
      "FlipAngle": 52.0,
      "HighBit": 15,
      "ImageOrientationPatient": [0.99757835636953, 0.06788797010093, 0.01512105878059, -0.0569959863409, 0.92253844302184, -0.3816729996841],
      "ImagePositionPatient": [-782.64146112012, -851.44810198157, 276.44496399251],
      "ImageType": [
        "ORIGINAL",
        "PRIMARY",
        "M",
        "MB",
        "ND",
        "MOSAIC"
],
      "ImagedNucleus": "1H",
      "ImagingFrequency": 123.260451,
      "InPlanePhaseEncodingDirection": "COL",
      "MRAcquisitionType": "2D",
      "MagneticFieldStrength": 3.0,
      "Manufacturer": "SIEMENS",
      "ManufacturerModelName": "Prisma_fit",
      "Modality": "MR",
      "NumberOfAverages": 1.0,
      "NumberOfPhaseEncodingSteps": 104,
      "PercentPhaseFieldOfView": 100.0,
      "PercentSampling": 100.0,
      "PerformedProcedureStepStartTime": "181309.293000",
      "PhotometricInterpretation": "MONOCHROME2",
      "PixelBandwidth": 2290.0,
      "PixelRepresentation": 0,
      "PixelSpacing": [2.0, 2.0],
      "ProtocolName": "func_task-mario3_run-01",
      "RepetitionTime": 1490.0,
      "Rows": 832,
      "SAR": 0.04641096392684,
      "SamplesPerPixel": 1,
      "ScanOptions": "FS",
      "ScanningSequence": "EP",
      "SequenceName": "epfid2d1_104",
      "SequenceVariant": [
        "SK",
        "SS"
],
      "SeriesDescription": "func_task-mario3_run-01",
      "SeriesNumber": 10,
      "SeriesTime": "181756.970000",
      "SliceLocation": -36.774108148871,
      "SliceThickness": 2.0,
      "SmallestImagePixelValue": 0,
      "SoftwareVersions": "syngo MR E11",
      "SpacingBetweenSlices": 2.000000063112,
      "SpecificCharacterSet": "ISO_IR 100",
      "StudyID": "1",
      "StudyTime": "181309.209000",
      "TransmitCoilName": "Body",
      "VariableFlipAngleFlag": "N",
      "WindowCenterWidthExplanation": "Algo1",
      "dBdt": 0.0},
    "slices": {}
  },
  "time": {
    "samples": {
      "AcquisitionNumber": [1, 2, 3, 4, 5, 6, 7, 8, 9, 10, 11, 12, 13, 14, 15, 16, 17, 18, 19, 20, 21, 22, 23, 24, 25, 26, 27, 28, 29, 30, 31, 32, 33, 34, 35, 36, 37, 38, 39, 40, 41, 42, 43, 44, 45, 46, 47, 48, 49, 50, 51, 52, 53, 54, 55, 56, 57, 58, 59, 60, 61, 62, 63, 64, 65, 66, 67, 68, 69, 70, 71, 72, 73, 74, 75, 76, 77, 78, 79, 80, 81, 82, 83, 84, 85, 86, 87, 88, 89, 90, 91, 92, 93, 94, 95, 96, 97, 98, 99, 100, 101, 102, 103, 104, 105, 106, 107, 108, 109, 110, 111, 112, 113, 114, 115, 116, 117, 118, 119, 120, 121, 122, 123, 124, 125, 126, 127, 128, 129, 130, 131, 132, 133, 134, 135, 136, 137, 138, 139, 140, 141, 142, 143, 144, 145, 146, 147, 148, 149, 150, 151, 152, 153, 154, 155, 156, 157, 158, 159, 160, 161, 162, 163, 164, 165, 166, 167, 168, 169, 170, 171, 172, 173, 174, 175, 176, 177, 178, 179, 180, 181, 182, 183, 184, 185, 186, 187, 188, 189, 190, 191, 192, 193, 194, 195, 196, 197, 198, 199, 200, 201, 202, 203, 204, 205, 206, 207, 208, 209, 210, 211, 212, 213, 214, 215, 216, 217, 218, 219, 220, 221, 222, 223, 224, 225, 226, 227, 228, 229, 230, 231, 232, 233, 234, 235, 236, 237, 238, 239, 240, 241, 242, 243, 244, 245, 246, 247, 248, 249, 250, 251, 252, 253, 254, 255, 256, 257, 258, 259, 260, 261, 262, 263, 264, 265, 266, 267, 268, 269, 270, 271, 272, 273, 274, 275, 276, 277, 278, 279, 280, 281, 282, 283, 284, 285, 286, 287, 288, 289, 290, 291, 292, 293, 294, 295, 296, 297, 298, 299, 300, 301, 302, 303, 304, 305],
      "AcquisitionTime": ["181634.927500", "181636.417500", "181637.907500", "181639.397500", "181640.887500", "181642.377500", "181643.867500", "181645.357500", "181646.847500", "181648.337500", "181649.827500", "181651.317500", "181652.807500", "181654.297500", "181655.787500", "181657.277500", "181658.767500", "181700.257500", "181701.747500", "181703.237500", "181704.727500", "181706.217500", "181707.707500", "181709.197500", "181710.687500", "181712.177500", "181713.667500", "181715.157500", "181716.647500", "181718.137500", "181719.627500", "181721.117500", "181722.607500", "181724.097500", "181725.587500", "181727.077500", "181728.567500", "181730.057500", "181731.547500", "181733.037500", "181734.527500", "181736.017500", "181737.507500", "181738.997500", "181740.487500", "181741.977500", "181743.467500", "181744.957500", "181746.447500", "181747.937500", "181749.427500", "181750.917500", "181752.407500", "181753.897500", "181755.387500", "181756.877500", "181758.367500", "181759.857500", "181801.347500", "181802.837500", "181804.327500", "181805.817500", "181807.307500", "181808.797500", "181810.287500", "181811.777500", "181813.267500", "181814.757500", "181816.247500", "181817.737500", "181819.227500", "181820.717500", "181822.207500", "181823.697500", "181825.187500", "181826.677500", "181828.167500", "181829.657500", "181831.147500", "181832.637500", "181834.127500", "181835.617500", "181837.107500", "181838.597500", "181840.087500", "181841.577500", "181843.067500", "181844.557500", "181846.047500", "181847.537500", "181849.027500", "181850.517500", "181852.007500", "181853.497500", "181854.987500", "181856.477500", "181857.967500", "181859.457500", "181900.947500", "181902.437500", "181903.927500", "181905.417500", "181906.907500", "181908.397500", "181909.887500", "181911.377500", "181912.867500", "181914.357500", "181915.847500", "181917.337500", "181918.827500", "181920.317500", "181921.807500", "181923.297500", "181924.787500", "181926.277500", "181927.767500", "181929.257500", "181930.747500", "181932.237500", "181933.727500", "181935.217500", "181936.707500", "181938.197500", "181939.687500", "181941.177500", "181942.667500", "181944.157500", "181945.647500", "181947.137500", "181948.627500", "181950.117500", "181951.607500", "181953.097500", "181954.587500", "181956.077500", "181957.567500", "181959.057500", "182000.547500", "182002.037500", "182003.527500", "182005.017500", "182006.507500", "182007.997500", "182009.487500", "182010.977500", "182012.467500", "182013.957500", "182015.447500", "182016.937500", "182018.427500", "182019.917500", "182021.407500", "182022.897500", "182024.387500", "182025.877500", "182027.367500", "182028.857500", "182030.347500", "182031.837500", "182033.327500", "182034.817500", "182036.307500", "182037.797500", "182039.287500", "182040.777500", "182042.267500", "182043.757500", "182045.247500", "182046.737500", "182048.227500", "182049.717500", "182051.207500", "182052.697500", "182054.187500", "182055.677500", "182057.167500", "182058.657500", "182100.147500", "182101.637500", "182103.127500", "182104.617500", "182106.107500", "182107.597500", "182109.087500", "182110.577500", "182112.067500", "182113.557500", "182115.047500", "182116.537500", "182118.027500", "182119.517500", "182121.007500", "182122.497500", "182123.987500", "182125.477500", "182126.967500", "182128.457500", "182129.947500", "182131.437500", "182132.927500", "182134.417500", "182135.907500", "182137.397500", "182138.887500", "182140.377500", "182141.867500", "182143.357500", "182144.847500", "182146.337500", "182147.827500", "182149.317500", "182150.807500", "182152.297500", "182153.787500", "182155.277500", "182156.767500", "182158.257500", "182159.747500", "182201.237500", "182202.727500", "182204.217500", "182205.707500", "182207.197500", "182208.687500", "182210.177500", "182211.667500", "182213.157500", "182214.647500", "182216.137500", "182217.627500", "182219.117500", "182220.607500", "182222.097500", "182223.587500", "182225.077500", "182226.567500", "182228.057500", "182229.547500", "182231.037500", "182232.527500", "182234.017500", "182235.507500", "182236.997500", "182238.487500", "182239.977500", "182241.467500", "182242.957500", "182244.447500", "182245.937500", "182247.427500", "182248.917500", "182250.407500", "182251.897500", "182253.387500", "182254.877500", "182256.367500", "182257.857500", "182259.347500", "182300.837500", "182302.327500", "182303.817500", "182305.307500", "182306.797500", "182308.287500", "182309.777500", "182311.267500", "182312.757500", "182314.247500", "182315.737500", "182317.227500", "182318.717500", "182320.207500", "182321.697500", "182323.187500", "182324.677500", "182326.167500", "182327.657500", "182329.147500", "182330.637500", "182332.127500", "182333.617500", "182335.107500", "182336.597500", "182338.087500", "182339.577500", "182341.067500", "182342.557500", "182344.047500", "182345.537500", "182347.027500", "182348.517500", "182350.007500", "182351.497500", "182352.987500", "182354.477500", "182355.967500", "182357.457500", "182358.947500", "182400.437500", "182401.927500", "182403.417500", "182404.907500", "182406.397500", "182407.887500"],
      "ContentTime": ["181756.974000", "181756.977000", "181756.981000", "181756.984000", "181756.992000", "181756.995000", "181757.000000", "181757.003000", "181757.007000", "181757.010000", "181757.014000", "181757.017000", "181757.021000", "181757.024000", "181757.028000", "181757.031000", "181757.034000", "181757.038000", "181757.041000", "181757.045000", "181757.048000", "181757.051000", "181757.055000", "181757.059000", "181757.062000", "181757.066000", "181757.069000", "181757.073000", "181757.087000", "181757.091000", "181757.094000", "181757.103000", "181757.106000", "181816.923000", "181816.927000", "181816.930000", "181816.934000", "181816.937000", "181816.941000", "181816.944000", "181816.947000", "181816.951000", "181816.954000", "181816.958000", "181816.961000", "181816.964000", "181816.968000", "181816.971000", "181816.975000", "181816.978000", "181816.981000", "181816.985000", "181816.988000", "181836.924000", "181836.928000", "181836.931000", "181836.935000", "181836.938000", "181836.942000", "181836.945000", "181836.948000", "181836.952000", "181836.955000", "181836.959000", "181836.962000", "181836.966000", "181836.969000", "181836.972000", "181836.976000", "181836.979000", "181836.983000", "181836.986000", "181836.989000", "181856.923000", "181856.927000", "181856.930000", "181856.934000", "181856.937000", "181856.941000", "181856.944000", "181856.948000", "181856.951000", "181856.954000", "181856.958000", "181856.962000", "181856.965000", "181856.969000", "181856.972000", "181856.975000", "181856.979000", "181856.982000", "181856.986000", "181856.989000", "181856.992000", "181936.923000", "181936.927000", "181936.931000", "181936.934000", "181936.938000", "181936.941000", "181936.955000", "181936.959000", "181936.962000", "181936.966000", "181936.969000", "181936.973000", "181936.976000", "181936.980000", "181936.983000", "181936.987000", "181936.990000", "181936.994000", "181936.997000", "181937.002000", "181937.005000", "181937.008000", "181937.012000", "181937.015000", "181937.019000", "181937.022000", "181937.026000", "182016.923000", "182016.937000", "182016.940000", "182016.944000", "182016.947000", "182016.951000", "182016.954000", "182016.957000", "182016.961000", "182016.964000", "182016.968000", "182016.971000", "182016.975000", "182016.978000", "182016.981000", "182016.985000", "182016.988000", "182016.992000", "182016.995000", "182017.000000", "182017.003000", "182017.006000", "182017.010000", "182017.013000", "182017.017000", "182017.020000", "182017.023000", "182056.924000", "182056.928000", "182056.932000", "182056.935000", "182056.938000", "182056.942000", "182056.945000", "182056.959000", "182056.962000", "182056.966000", "182056.969000", "182056.973000", "182056.976000", "182056.980000", "182056.983000", "182056.987000", "182056.990000", "182056.994000", "182057.001000", "182057.005000", "182057.008000", "182057.012000", "182057.015000", "182057.019000", "182057.022000", "182057.026000", "182057.029000", "182136.923000", "182136.927000", "182136.930000", "182136.934000", "182136.942000", "182136.945000", "182136.949000", "182136.952000", "182136.956000", "182136.959000", "182136.963000", "182136.966000", "182136.970000", "182136.974000", "182136.977000", "182136.980000", "182136.984000", "182136.987000", "182136.991000", "182136.994000", "182136.997000", "182137.002000", "182137.005000", "182137.009000", "182137.012000", "182137.016000", "182137.019000", "182216.924000", "182216.927000", "182216.931000", "182216.934000", "182216.937000", "182216.941000", "182216.944000", "182216.948000", "182216.951000", "182216.954000", "182216.959000", "182216.962000", "182216.966000", "182216.969000", "182216.973000", "182216.976000", "182216.980000", "182216.983000", "182216.987000", "182216.990000", "182217.007000", "182217.010000", "182217.014000", "182217.017000", "182217.021000", "182217.024000", "182256.924000", "182256.928000", "182256.932000", "182256.935000", "182256.938000", "182256.942000", "182256.945000", "182256.949000", "182256.952000", "182256.956000", "182256.959000", "182256.962000", "182256.966000", "182256.969000", "182256.973000", "182256.976000", "182256.980000", "182256.983000", "182256.986000", "182256.990000", "182256.993000", "182256.997000", "182257.000000", "182257.004000", "182257.007000", "182257.010000", "182257.014000", "182336.923000", "182336.927000", "182336.931000", "182336.934000", "182336.938000", "182336.941000", "182336.944000", "182336.948000", "182336.951000", "182336.955000", "182336.958000", "182336.961000", "182336.965000", "182336.968000", "182336.972000", "182336.975000", "182336.979000", "182336.982000", "182336.986000", "182336.989000", "182336.993000", "182336.996000", "182337.001000", "182337.004000", "182337.008000", "182337.011000", "182337.015000", "182411.435000", "182411.439000", "182411.443000", "182411.447000", "182411.451000", "182411.458000", "182411.463000", "182411.469000", "182411.473000", "182411.482000", "182411.487000", "182411.491000", "182411.495000", "182411.499000", "182411.502000", "182411.506000", "182411.510000", "182411.513000", "182411.517000", "182411.521000", "182411.524000", "182411.528000", "182411.532000"],
      "InstanceCreationTime": ["181756.974000", "181756.977000", "181756.981000", "181756.984000", "181756.992000", "181756.995000", "181757.000000", "181757.003000", "181757.007000", "181757.010000", "181757.014000", "181757.017000", "181757.021000", "181757.024000", "181757.028000", "181757.031000", "181757.034000", "181757.038000", "181757.041000", "181757.045000", "181757.048000", "181757.051000", "181757.055000", "181757.059000", "181757.062000", "181757.066000", "181757.069000", "181757.073000", "181757.087000", "181757.091000", "181757.094000", "181757.103000", "181757.106000", "181816.923000", "181816.927000", "181816.930000", "181816.934000", "181816.937000", "181816.941000", "181816.944000", "181816.947000", "181816.951000", "181816.954000", "181816.958000", "181816.961000", "181816.964000", "181816.968000", "181816.971000", "181816.975000", "181816.978000", "181816.981000", "181816.985000", "181816.988000", "181836.924000", "181836.928000", "181836.931000", "181836.935000", "181836.938000", "181836.942000", "181836.945000", "181836.948000", "181836.952000", "181836.955000", "181836.959000", "181836.962000", "181836.966000", "181836.969000", "181836.972000", "181836.976000", "181836.979000", "181836.983000", "181836.986000", "181836.989000", "181856.923000", "181856.927000", "181856.930000", "181856.934000", "181856.937000", "181856.941000", "181856.944000", "181856.948000", "181856.951000", "181856.954000", "181856.958000", "181856.962000", "181856.965000", "181856.969000", "181856.972000", "181856.975000", "181856.979000", "181856.982000", "181856.986000", "181856.989000", "181856.992000", "181936.923000", "181936.927000", "181936.931000", "181936.934000", "181936.938000", "181936.941000", "181936.955000", "181936.959000", "181936.962000", "181936.966000", "181936.969000", "181936.973000", "181936.976000", "181936.980000", "181936.983000", "181936.987000", "181936.990000", "181936.994000", "181936.997000", "181937.002000", "181937.005000", "181937.008000", "181937.012000", "181937.015000", "181937.019000", "181937.022000", "181937.026000", "182016.923000", "182016.937000", "182016.940000", "182016.944000", "182016.947000", "182016.951000", "182016.954000", "182016.957000", "182016.961000", "182016.964000", "182016.968000", "182016.971000", "182016.975000", "182016.978000", "182016.981000", "182016.985000", "182016.988000", "182016.992000", "182016.995000", "182017.000000", "182017.003000", "182017.006000", "182017.010000", "182017.013000", "182017.017000", "182017.020000", "182017.023000", "182056.924000", "182056.928000", "182056.932000", "182056.935000", "182056.938000", "182056.942000", "182056.945000", "182056.959000", "182056.962000", "182056.966000", "182056.969000", "182056.973000", "182056.976000", "182056.980000", "182056.983000", "182056.987000", "182056.990000", "182056.994000", "182057.001000", "182057.005000", "182057.008000", "182057.012000", "182057.015000", "182057.019000", "182057.022000", "182057.026000", "182057.029000", "182136.923000", "182136.927000", "182136.930000", "182136.934000", "182136.942000", "182136.945000", "182136.949000", "182136.952000", "182136.956000", "182136.959000", "182136.963000", "182136.966000", "182136.970000", "182136.974000", "182136.977000", "182136.980000", "182136.984000", "182136.987000", "182136.991000", "182136.994000", "182136.997000", "182137.002000", "182137.005000", "182137.009000", "182137.012000", "182137.016000", "182137.019000", "182216.924000", "182216.927000", "182216.931000", "182216.934000", "182216.937000", "182216.941000", "182216.944000", "182216.948000", "182216.951000", "182216.954000", "182216.959000", "182216.962000", "182216.966000", "182216.969000", "182216.973000", "182216.976000", "182216.980000", "182216.983000", "182216.987000", "182216.990000", "182217.007000", "182217.010000", "182217.014000", "182217.017000", "182217.021000", "182217.024000", "182256.924000", "182256.928000", "182256.932000", "182256.935000", "182256.938000", "182256.942000", "182256.945000", "182256.949000", "182256.952000", "182256.956000", "182256.959000", "182256.962000", "182256.966000", "182256.969000", "182256.973000", "182256.976000", "182256.980000", "182256.983000", "182256.986000", "182256.990000", "182256.993000", "182256.997000", "182257.000000", "182257.004000", "182257.007000", "182257.010000", "182257.014000", "182336.923000", "182336.927000", "182336.931000", "182336.934000", "182336.938000", "182336.941000", "182336.944000", "182336.948000", "182336.951000", "182336.955000", "182336.958000", "182336.961000", "182336.965000", "182336.968000", "182336.972000", "182336.975000", "182336.979000", "182336.982000", "182336.986000", "182336.989000", "182336.993000", "182336.996000", "182337.001000", "182337.004000", "182337.008000", "182337.011000", "182337.015000", "182411.435000", "182411.439000", "182411.443000", "182411.447000", "182411.451000", "182411.458000", "182411.463000", "182411.469000", "182411.473000", "182411.482000", "182411.487000", "182411.491000", "182411.495000", "182411.499000", "182411.502000", "182411.506000", "182411.510000", "182411.513000", "182411.517000", "182411.521000", "182411.524000", "182411.528000", "182411.532000"],
      "InstanceNumber": [1, 2, 3, 4, 5, 6, 7, 8, 9, 10, 11, 12, 13, 14, 15, 16, 17, 18, 19, 20, 21, 22, 23, 24, 25, 26, 27, 28, 29, 30, 31, 32, 33, 34, 35, 36, 37, 38, 39, 40, 41, 42, 43, 44, 45, 46, 47, 48, 49, 50, 51, 52, 53, 54, 55, 56, 57, 58, 59, 60, 61, 62, 63, 64, 65, 66, 67, 68, 69, 70, 71, 72, 73, 74, 75, 76, 77, 78, 79, 80, 81, 82, 83, 84, 85, 86, 87, 88, 89, 90, 91, 92, 93, 94, 95, 96, 97, 98, 99, 100, 101, 102, 103, 104, 105, 106, 107, 108, 109, 110, 111, 112, 113, 114, 115, 116, 117, 118, 119, 120, 121, 122, 123, 124, 125, 126, 127, 128, 129, 130, 131, 132, 133, 134, 135, 136, 137, 138, 139, 140, 141, 142, 143, 144, 145, 146, 147, 148, 149, 150, 151, 152, 153, 154, 155, 156, 157, 158, 159, 160, 161, 162, 163, 164, 165, 166, 167, 168, 169, 170, 171, 172, 173, 174, 175, 176, 177, 178, 179, 180, 181, 182, 183, 184, 185, 186, 187, 188, 189, 190, 191, 192, 193, 194, 195, 196, 197, 198, 199, 200, 201, 202, 203, 204, 205, 206, 207, 208, 209, 210, 211, 212, 213, 214, 215, 216, 217, 218, 219, 220, 221, 222, 223, 224, 225, 226, 227, 228, 229, 230, 231, 232, 233, 234, 235, 236, 237, 238, 239, 240, 241, 242, 243, 244, 245, 246, 247, 248, 249, 250, 251, 252, 253, 254, 255, 256, 257, 258, 259, 260, 261, 262, 263, 264, 265, 266, 267, 268, 269, 270, 271, 272, 273, 274, 275, 276, 277, 278, 279, 280, 281, 282, 283, 284, 285, 286, 287, 288, 289, 290, 291, 292, 293, 294, 295, 296, 297, 298, 299, 300, 301, 302, 303, 304, 305],
      "LargestImagePixelValue": [44483, 44228, 43089, 42506, 41321, 39857, 42370, 42169, 42561, 42997, 44361, 43354, 43418, 43821, 43639, 44229, 43829, 43865, 44058, 44283, 44239, 44454, 43969, 42462, 42449, 43154, 44174, 44297, 44080, 44166, 44698, 43268, 43550, 43610, 43976, 44017, 43989, 44143, 43742, 43902, 43575, 43657, 43052, 43250, 43160, 43210, 43315, 43324, 43481, 43401, 43011, 43653, 43257, 43556, 43851, 43264, 43408, 42924, 42783, 43160, 43288, 43381, 43665, 43398, 43200, 43773, 43322, 43878, 43279, 43301, 43701, 43535, 46563, 44931, 44302, 44418, 43797, 43745, 43172, 43622, 45053, 45348, 44471, 42612, 42728, 42978, 41939, 42121, 41961, 42426, 42968, 42954, 42178, 42553, 42490, 42296, 42832, 42584, 42886, 42835, 42911, 42791, 42607, 43248, 42760, 42755, 43886, 43242, 43045, 42888, 43529, 43244, 43108, 43088, 42798, 43355, 43272, 43139, 42922, 42410, 43376, 42081, 42928, 44468, 43086, 44214, 44298, 44607, 44322, 43722, 43451, 43738, 43458, 43240, 42567, 43423, 42954, 42863, 41630, 42505, 42061, 42657, 42938, 42949, 42418, 42688, 42321, 42275, 43672, 42864, 43619, 43001, 43455, 44516, 44792, 48370, 46176, 45263, 44046, 44157, 44630, 45525, 46219, 45815, 45663, 45172, 45635, 46425, 45384, 46466, 47059, 47370, 45694, 46432, 46934, 47324, 46810, 46123, 46240, 46837, 46709, 48281, 46684, 47062, 47342, 47858, 46772, 46599, 47997, 47876, 47760, 47475, 47825, 46014, 44403, 45548, 44258, 45065, 45437, 46450, 46477, 47112, 46769, 47319, 47907, 47190, 44943, 47020, 46239, 48545, 47888, 47644, 48430, 47467, 46957, 47222, 48216, 47750, 47644, 48046, 48254, 47695, 47622, 47194, 48055, 46226, 46564, 46884, 46704, 47161, 46268, 47410, 46473, 46538, 47277, 46515, 46441, 46101, 47572, 46541, 46645, 47369, 47008, 48183, 47672, 46478, 47075, 47614, 46999, 47215, 46762, 46790, 48377, 46753, 46864, 46016, 46477, 47483, 45992, 46282, 45457, 45989, 45857, 45699, 44959, 45677, 45263, 44997, 45837, 44982, 45066, 44136, 43625, 46760, 45141, 44869, 45601, 46385, 45572, 47342, 46556, 45997, 45968, 46443, 47026, 46151, 47558, 47074, 46024, 46974, 47891, 47556, 46728, 46346, 47096, 47022, 46713, 46910, 49119, 47718, 46954, 47337, 47026, 46551, 47189],
      "WindowCenter": [10579.0, 10543.0, 10519.0, 10512.0, 10493.0, 10472.0, 10501.0, 10498.0, 10513.0, 10513.0, 10536.0, 10527.0, 10535.0, 10534.0, 10526.0, 10514.0, 10503.0, 10495.0, 10486.0, 10491.0, 10492.0, 10499.0, 10509.0, 10504.0, 10512.0, 10519.0, 10532.0, 10542.0, 10540.0, 10532.0, 10528.0, 10497.0, 10491.0, 10482.0, 10494.0, 10507.0, 10511.0, 10517.0, 10513.0, 10521.0, 10517.0, 10513.0, 10508.0, 10500.0, 10500.0, 10512.0, 10506.0, 10509.0, 10522.0, 10523.0, 10518.0, 10515.0, 10510.0, 10504.0, 10515.0, 10508.0, 10506.0, 10493.0, 10482.0, 10494.0, 10495.0, 10495.0, 10504.0, 10505.0, 10499.0, 10501.0, 10490.0, 10487.0, 10490.0, 10499.0, 10518.0, 10530.0, 10567.0, 10579.0, 10556.0, 10535.0, 10500.0, 10481.0, 10472.0, 10465.0, 10476.0, 10485.0, 10478.0, 10474.0, 10466.0, 10484.0, 10482.0, 10473.0, 10472.0, 10476.0, 10483.0, 10493.0, 10497.0, 10498.0, 10497.0, 10489.0, 10484.0, 10486.0, 10494.0, 10511.0, 10508.0, 10499.0, 10498.0, 10511.0, 10514.0, 10508.0, 10519.0, 10523.0, 10522.0, 10516.0, 10519.0, 10505.0, 10495.0, 10493.0, 10503.0, 10511.0, 10528.0, 10558.0, 10562.0, 10540.0, 10521.0, 10482.0, 10474.0, 10507.0, 10490.0, 10490.0, 10489.0, 10507.0, 10506.0, 10493.0, 10492.0, 10507.0, 10513.0, 10519.0, 10516.0, 10506.0, 10491.0, 10474.0, 10467.0, 10471.0, 10475.0, 10493.0, 10492.0, 10491.0, 10485.0, 10475.0, 10476.0, 10483.0, 10501.0, 10497.0, 10502.0, 10507.0, 10511.0, 10525.0, 10532.0, 10564.0, 10547.0, 10544.0, 10551.0, 10541.0, 10539.0, 10499.0, 10488.0, 10488.0, 10503.0, 10510.0, 10526.0, 10530.0, 10525.0, 10524.0, 10526.0, 10530.0, 10524.0, 10522.0, 10531.0, 10537.0, 10543.0, 10548.0, 10539.0, 10515.0, 10494.0, 10501.0, 10490.0, 10497.0, 10505.0, 10519.0, 10520.0, 10528.0, 10547.0, 10553.0, 10549.0, 10548.0, 10556.0, 10530.0, 10511.0, 10551.0, 10550.0, 10549.0, 10513.0, 10503.0, 10479.0, 10475.0, 10459.0, 10462.0, 10474.0, 10492.0, 10466.0, 10459.0, 10468.0, 10516.0, 10499.0, 10490.0, 10491.0, 10491.0, 10509.0, 10519.0, 10524.0, 10517.0, 10516.0, 10524.0, 10546.0, 10560.0, 10562.0, 10559.0, 10575.0, 10561.0, 10562.0, 10567.0, 10569.0, 10569.0, 10574.0, 10583.0, 10564.0, 10555.0, 10564.0, 10545.0, 10543.0, 10542.0, 10568.0, 10560.0, 10564.0, 10567.0, 10548.0, 10545.0, 10536.0, 10517.0, 10518.0, 10533.0, 10547.0, 10555.0, 10551.0, 10542.0, 10549.0, 10532.0, 10530.0, 10532.0, 10534.0, 10543.0, 10527.0, 10523.0, 10521.0, 10535.0, 10554.0, 10563.0, 10547.0, 10546.0, 10538.0, 10548.0, 10562.0, 10562.0, 10553.0, 10526.0, 10511.0, 10546.0, 10558.0, 10549.0, 10544.0, 10536.0, 10508.0, 10529.0, 10541.0, 10546.0, 10556.0, 10571.0, 10581.0, 10559.0, 10542.0, 10524.0, 10489.0, 10490.0, 10514.0, 10519.0, 10499.0, 10482.0, 10487.0, 10499.0, 10493.0, 10489.0, 10514.0, 10518.0, 10501.0, 10504.0, 10513.0, 10502.0, 10496.0],
