{
  "AcquisitionMatrixPE": 104,
  "AcquisitionNumber": 1,
  "AcquisitionTime": "16:44:53.305000",
  "BandwidthPerPixelPhaseEncode": 17.17,
  "BaseResolution": 104,
  "BodyPartExamined": "BRAIN",
  "CoilCombinationMethod": "Sum of Squares",
  "ConsistencyInfo": "N4_VE11C_LATEST_20160120",
  "ConversionSoftware": "dcm2niix",
  "ConversionSoftwareVersion": "v1.0.20220505",
  "DerivedVendorReportedEchoSpacing": 0.000560011,
  "DeviceSerialNumber": "167006",
  "DwellTime": 2.1e-06,
  "EchoTime": 0.037,
  "EchoTime1": 0.037,
  "EchoTime2": 0.001,
  "EchoTrainLength": 104,
  "EffectiveEchoSpacing": 0.000560011,
  "FlipAngle": 52,
  "HeudiconvVersion": "0.5.3.post811+g6206e14",
  "ImageComments": "Unaliased MB4/PE3/LB",
  "ImageOrientationPatientDICOM": [0.998908, 0.0120328, 0.0451521, 0.0134252, 0.851635, -0.523964],
  "ImageOrientationText": "Tra>Cor(-31.6)>Sag(2.6)",
  "ImageType": [
    "ORIGINAL",
    "PRIMARY",
    "P",
    "MB",
    "ND",
    "MOSAIC",
    "PHASE"
],
  "ImagingFrequency": 123.259,
  "InPlanePhaseEncodingDirectionDICOM": "COL",
  "InstitutionAddress": "Chemin Queen-Mary 4565,Montreal,District,CA,H3W 1W5",
  "InstitutionName": "IUGM",
  "InstitutionalDepartmentName": "Department",
  "MRAcquisitionType": "2D",
  "MagneticFieldStrength": 3,
  "Manufacturer": "Siemens",
  "ManufacturersModelName": "Prisma_fit",
  "MatrixCoilMode": "SENSE",
  "Modality": "MR",
  "MultibandAccelerationFactor": 4,
  "PartialFourier": 1,
  "PatientPosition": "HFS",
  "PercentPhaseFOV": 100,
  "PercentSampling": 100,
  "PhaseEncodingDirection": "j",
  "PhaseEncodingSteps": 104,
  "PhaseResolution": 1,
  "PixelBandwidth": 2290,
  "ProcedureStepDescription": "games^mario3",
  "ProtocolName": "func_task-mario3_run-03",
  "PulseSequenceDetails": "%CustomerSeq%\\cmrr_mbep2d_bold",
  "ReceiveCoilActiveElements": "HC1-7;NC1,2",
  "ReceiveCoilName": "HeadNeck_64",
  "ReconMatrixPE": 104,
  "RepetitionTime": 1.49,
  "SAR": 0.0748159,
  "ScanOptions": "FS",
  "ScanningSequence": "EP",
  "SequenceName": "epfid2d1_104",
  "SequenceVariant": "SK\\SS",
  "SeriesDescription": "func_task-mario3_run-03",
  "SeriesNumber": 17,
  "ShimSetting": [625, -7179, -8882, 244, 24, -256, -10, 23],
  "SliceThickness": 2,
  "SliceTiming": [0, 0.7825, 0.0975, 0.88, 0.195, 0.9775, 0.2925, 1.0775, 0.39, 1.175, 0.49, 1.2725, 0.5875, 1.37, 0.685, 0, 0.7825, 0.0975, 0.88, 0.195, 0.9775, 0.2925, 1.0775, 0.39, 1.175, 0.49, 1.2725, 0.5875, 1.37, 0.685, 0, 0.7825, 0.0975, 0.88, 0.195, 0.9775, 0.2925, 1.0775, 0.39, 1.175, 0.49, 1.2725, 0.5875, 1.37, 0.685, 0, 0.7825, 0.0975, 0.88, 0.195, 0.9775, 0.2925, 1.0775, 0.39, 1.175, 0.49, 1.2725, 0.5875, 1.37, 0.685],
  "SoftwareVersions": "syngo MR E11",
  "SpacingBetweenSlices": 2,
  "StationName": "MRC35049",
  "TaskName": "mario3",
  "TotalReadoutTime": 0.0576811,
  "TxRefAmp": 307.387,
  "WipMemBlock": "18cc9765-82d8-4fee-b8d2-19ef738353c7||Sequence: R017 ve11c/master r/75a17815+; Jun 28 2022 16:32:11 by eja",
  "dcmmeta_affine": [
    [-1.9978152513504028, 0.02685035951435566, 0.08951578289270401, 103.31771850585938],
    [-0.024065645411610603, 1.7032694816589355, -1.0479952096939087, -47.87774658203125],
    [0.09030427038669586, 1.0479276180267334, 1.7010858058929443, -106.49052429199219],
    [0.0, 0.0, 0.0, 1.0]
],
  "dcmmeta_reorient_transform": [
    [0.0, -1.0, 0.0, 103.0],
    [1.0, 0.0, 0.0, 0.0],
    [0.0, 0.0, 1.0, 0.0],
    [0.0, 0.0, 0.0, 1.0]
],
  "dcmmeta_shape": [104, 104, 60, 317],
  "dcmmeta_slice_dim": 2,
  "dcmmeta_version": 0.6,
  "global": {
    "const": {
      "AcquisitionMatrix": [104, 0, 0, 104],
      "AngioFlag": "N",
      "BitsAllocated": 16,
      "BitsStored": 16,
      "BodyPartExamined": "BRAIN",
      "Columns": 832,
      "EchoNumbers": 1,
      "EchoTime": 37.0,
      "EchoTrainLength": 104,
      "FlipAngle": 52.0,
      "HighBit": 15,
      "ImageOrientationPatient": [0.99890765131408, 0.01203282262246, 0.04515213534191, 0.01342517935577, 0.85163472823928, -0.5239637909399],
      "ImagePositionPatient": [-843.06160803324, -756.30898547737, 350.02089844016],
      "ImageType": [
        "ORIGINAL",
        "PRIMARY",
        "P",
        "MB",
        "ND",
        "MOSAIC"
],
      "ImagedNucleus": "1H",
      "ImagingFrequency": 123.258979,
      "InPlanePhaseEncodingDirection": "COL",
      "LargestImagePixelValue": 4095,
      "MRAcquisitionType": "2D",
      "MagneticFieldStrength": 3.0,
      "Manufacturer": "SIEMENS",
      "ManufacturerModelName": "Prisma_fit",
      "Modality": "MR",
      "NumberOfAverages": 1.0,
      "NumberOfPhaseEncodingSteps": 104,
      "PercentPhaseFieldOfView": 100.0,
      "PercentSampling": 100.0,
      "PerformedProcedureStepStartTime": "161851.294000",
      "PhotometricInterpretation": "MONOCHROME2",
      "PixelBandwidth": 2290.0,
      "PixelRepresentation": 0,
      "PixelSpacing": [2.0, 2.0],
      "ProtocolName": "func_task-mario3_run-03",
      "RepetitionTime": 1490.0,
      "RescaleIntercept": -4096.0,
      "RescaleSlope": 2.0,
      "RescaleType": "US",
      "Rows": 832,
      "SAR": 0.07481588134423,
      "SamplesPerPixel": 1,
      "ScanOptions": "FS",
      "ScanningSequence": "EP",
      "SequenceName": "epfid2d1_104",
      "SequenceVariant": [
        "SK",
        "SS"
],
      "SeriesDescription": "func_task-mario3_run-03",
      "SeriesNumber": 17,
      "SeriesTime": "164611.132000",
      "SliceLocation": -60.862655016631,
      "SliceThickness": 2.0,
      "SmallestImagePixelValue": 0,
      "SoftwareVersions": "syngo MR E11",
      "SpacingBetweenSlices": 1.9999999873074,
      "SpecificCharacterSet": "ISO_IR 100",
      "StudyID": "1",
      "StudyTime": "161851.226000",
      "TransmitCoilName": "Body",
      "VariableFlipAngleFlag": "N",
      "WindowCenterWidthExplanation": "Algo1",
      "dBdt": 0.0},
    "slices": {}
  },
  "time": {
    "samples": {
      "AcquisitionNumber": [1, 2, 3, 4, 5, 6, 7, 8, 9, 10, 11, 12, 13, 14, 15, 16, 17, 18, 19, 20, 21, 22, 23, 24, 25, 26, 27, 28, 29, 30, 31, 32, 33, 34, 35, 36, 37, 38, 39, 40, 41, 42, 43, 44, 45, 46, 47, 48, 49, 50, 51, 52, 53, 54, 55, 56, 57, 58, 59, 60, 61, 62, 63, 64, 65, 66, 67, 68, 69, 70, 71, 72, 73, 74, 75, 76, 77, 78, 79, 80, 81, 82, 83, 84, 85, 86, 87, 88, 89, 90, 91, 92, 93, 94, 95, 96, 97, 98, 99, 100, 101, 102, 103, 104, 105, 106, 107, 108, 109, 110, 111, 112, 113, 114, 115, 116, 117, 118, 119, 120, 121, 122, 123, 124, 125, 126, 127, 128, 129, 130, 131, 132, 133, 134, 135, 136, 137, 138, 139, 140, 141, 142, 143, 144, 145, 146, 147, 148, 149, 150, 151, 152, 153, 154, 155, 156, 157, 158, 159, 160, 161, 162, 163, 164, 165, 166, 167, 168, 169, 170, 171, 172, 173, 174, 175, 176, 177, 178, 179, 180, 181, 182, 183, 184, 185, 186, 187, 188, 189, 190, 191, 192, 193, 194, 195, 196, 197, 198, 199, 200, 201, 202, 203, 204, 205, 206, 207, 208, 209, 210, 211, 212, 213, 214, 215, 216, 217, 218, 219, 220, 221, 222, 223, 224, 225, 226, 227, 228, 229, 230, 231, 232, 233, 234, 235, 236, 237, 238, 239, 240, 241, 242, 243, 244, 245, 246, 247, 248, 249, 250, 251, 252, 253, 254, 255, 256, 257, 258, 259, 260, 261, 262, 263, 264, 265, 266, 267, 268, 269, 270, 271, 272, 273, 274, 275, 276, 277, 278, 279, 280, 281, 282, 283, 284, 285, 286, 287, 288, 289, 290, 291, 292, 293, 294, 295, 296, 297, 298, 299, 300, 301, 302, 303, 304, 305, 306, 307, 308, 309, 310, 311, 312, 313, 314, 315, 316, 317],
      "AcquisitionTime": ["164453.305000", "164454.795000", "164456.285000", "164457.775000", "164459.265000", "164500.755000", "164502.245000", "164503.735000", "164505.225000", "164506.715000", "164508.205000", "164509.695000", "164511.185000", "164512.675000", "164514.165000", "164515.655000", "164517.145000", "164518.635000", "164520.125000", "164521.615000", "164523.105000", "164524.595000", "164526.085000", "164527.575000", "164529.065000", "164530.555000", "164532.045000", "164533.535000", "164535.025000", "164536.515000", "164538.005000", "164539.495000", "164540.985000", "164542.475000", "164543.965000", "164545.455000", "164546.945000", "164548.435000", "164549.925000", "164551.415000", "164552.905000", "164554.395000", "164555.885000", "164557.375000", "164558.865000", "164600.355000", "164601.845000", "164603.335000", "164604.825000", "164606.315000", "164607.805000", "164609.295000", "164610.785000", "164612.275000", "164613.765000", "164615.255000", "164616.745000", "164618.235000", "164619.725000", "164621.215000", "164622.705000", "164624.195000", "164625.685000", "164627.175000", "164628.665000", "164630.155000", "164631.645000", "164633.135000", "164634.625000", "164636.115000", "164637.605000", "164639.095000", "164640.585000", "164642.075000", "164643.565000", "164645.055000", "164646.545000", "164648.035000", "164649.525000", "164651.015000", "164652.505000", "164653.995000", "164655.485000", "164656.975000", "164658.465000", "164659.955000", "164701.445000", "164702.935000", "164704.425000", "164705.915000", "164707.405000", "164708.895000", "164710.385000", "164711.875000", "164713.365000", "164714.855000", "164716.345000", "164717.835000", "164719.325000", "164720.815000", "164722.305000", "164723.795000", "164725.285000", "164726.775000", "164728.265000", "164729.755000", "164731.245000", "164732.735000", "164734.225000", "164735.715000", "164737.205000", "164738.695000", "164740.185000", "164741.675000", "164743.165000", "164744.655000", "164746.145000", "164747.635000", "164749.125000", "164750.615000", "164752.105000", "164753.595000", "164755.085000", "164756.575000", "164758.065000", "164759.555000", "164801.045000", "164802.535000", "164804.025000", "164805.515000", "164807.005000", "164808.495000", "164809.985000", "164811.475000", "164812.965000", "164814.455000", "164815.945000", "164817.435000", "164818.925000", "164820.415000", "164821.905000", "164823.395000", "164824.885000", "164826.375000", "164827.865000", "164829.355000", "164830.845000", "164832.335000", "164833.825000", "164835.315000", "164836.805000", "164838.295000", "164839.785000", "164841.275000", "164842.765000", "164844.255000", "164845.745000", "164847.235000", "164848.725000", "164850.215000", "164851.705000", "164853.195000", "164854.685000", "164856.175000", "164857.665000", "164859.155000", "164900.645000", "164902.135000", "164903.625000", "164905.115000", "164906.605000", "164908.095000", "164909.585000", "164911.075000", "164912.565000", "164914.055000", "164915.545000", "164917.035000", "164918.525000", "164920.015000", "164921.505000", "164922.995000", "164924.485000", "164925.975000", "164927.465000", "164928.955000", "164930.445000", "164931.935000", "164933.425000", "164934.915000", "164936.405000", "164937.895000", "164939.385000", "164940.875000", "164942.365000", "164943.855000", "164945.345000", "164946.835000", "164948.325000", "164949.815000", "164951.305000", "164952.795000", "164954.285000", "164955.775000", "164957.265000", "164958.755000", "165000.245000", "165001.735000", "165003.225000", "165004.715000", "165006.205000", "165007.695000", "165009.185000", "165010.675000", "165012.165000", "165013.655000", "165015.145000", "165016.635000", "165018.125000", "165019.615000", "165021.105000", "165022.595000", "165024.085000", "165025.575000", "165027.065000", "165028.555000", "165030.045000", "165031.535000", "165033.025000", "165034.515000", "165036.005000", "165037.495000", "165038.985000", "165040.475000", "165041.965000", "165043.455000", "165044.945000", "165046.435000", "165047.925000", "165049.415000", "165050.905000", "165052.395000", "165053.885000", "165055.375000", "165056.865000", "165058.355000", "165059.845000", "165101.335000", "165102.825000", "165104.315000", "165105.805000", "165107.295000", "165108.785000", "165110.275000", "165111.765000", "165113.255000", "165114.745000", "165116.235000", "165117.725000", "165119.215000", "165120.705000", "165122.195000", "165123.685000", "165125.175000", "165126.665000", "165128.155000", "165129.645000", "165131.135000", "165132.625000", "165134.115000", "165135.605000", "165137.095000", "165138.585000", "165140.075000", "165141.565000", "165143.055000", "165144.545000", "165146.035000", "165147.525000", "165149.015000", "165150.505000", "165151.995000", "165153.485000", "165154.975000", "165156.465000", "165157.955000", "165159.445000", "165200.935000", "165202.425000", "165203.915000", "165205.405000", "165206.895000", "165208.385000", "165209.875000", "165211.365000", "165212.855000", "165214.345000", "165215.835000", "165217.325000", "165218.815000", "165220.305000", "165221.795000", "165223.285000", "165224.775000", "165226.265000", "165227.755000", "165229.245000", "165230.735000", "165232.225000", "165233.715000", "165235.205000", "165236.695000", "165238.185000", "165239.675000", "165241.165000", "165242.655000", "165244.145000"],
      "ContentTime": ["164611.134000", "164611.137000", "164611.139000", "164611.142000", "164611.144000", "164611.146000", "164611.149000", "164611.151000", "164611.154000", "164611.156000", "164611.159000", "164611.161000", "164611.164000", "164611.166000", "164611.169000", "164611.171000", "164611.174000", "164611.176000", "164611.179000", "164611.192000", "164611.195000", "164611.197000", "164611.200000", "164611.202000", "164611.204000", "164611.207000", "164611.209000", "164611.212000", "164611.214000", "164611.217000", "164611.219000", "164630.943000", "164630.945000", "164630.948000", "164630.950000", "164630.953000", "164630.955000", "164630.962000", "164630.965000", "164630.967000", "164630.970000", "164630.972000", "164630.974000", "164630.977000", "164630.979000", "164630.982000", "164630.984000", "164630.987000", "164630.989000", "164630.992000", "164630.994000", "164650.959000", "164650.962000", "164650.964000", "164650.967000", "164650.969000", "164650.972000", "164650.974000", "164650.977000", "164650.979000", "164650.982000", "164650.984000", "164650.986000", "164650.989000", "164650.991000", "164650.994000", "164650.996000", "164651.000000", "164651.002000", "164651.005000", "164651.007000", "164710.952000", "164710.955000", "164710.957000", "164710.960000", "164710.962000", "164710.965000", "164710.967000", "164710.970000", "164710.972000", "164710.975000", "164710.977000", "164710.980000", "164710.990000", "164710.992000", "164710.995000", "164710.997000", "164711.001000", "164711.004000", "164711.007000", "164711.009000", "164751.028000", "164751.037000", "164751.040000", "164751.042000", "164751.045000", "164751.047000", "164751.050000", "164751.052000", "164751.055000", "164751.057000", "164751.060000", "164751.062000", "164751.065000", "164751.067000", "164751.070000", "164751.072000", "164751.075000", "164751.077000", "164751.080000", "164751.082000", "164751.085000", "164751.087000", "164751.090000", "164751.092000", "164751.095000", "164751.097000", "164751.099000", "164830.991000", "164830.994000", "164830.996000", "164831.000000", "164831.002000", "164831.005000", "164831.007000", "164831.010000", "164831.013000", "164831.015000", "164831.018000", "164831.020000", "164831.022000", "164831.025000", "164831.027000", "164831.030000", "164831.032000", "164831.035000", "164831.038000", "164831.041000", "164831.044000", "164831.046000", "164831.049000", "164831.051000", "164831.054000", "164831.056000", "164831.059000", "164910.987000", "164910.990000", "164910.992000", "164910.995000", "164910.998000", "164911.001000", "164911.003000", "164911.006000", "164911.008000", "164911.011000", "164911.013000", "164911.016000", "164911.018000", "164911.021000", "164911.023000", "164911.026000", "164911.028000", "164911.031000", "164911.033000", "164911.036000", "164911.038000", "164911.041000", "164911.043000", "164911.045000", "164911.048000", "164911.050000", "164911.053000", "164930.917000", "164930.920000", "164930.922000", "164930.924000", "164930.927000", "164930.929000", "164930.932000", "164930.934000", "164930.937000", "164930.939000", "164930.942000", "164930.944000", "164930.947000", "164930.949000", "165010.987000", "165010.990000", "165010.993000", "165010.995000", "165010.998000", "165011.001000", "165011.005000", "165011.008000", "165011.010000", "165011.013000", "165011.016000", "165011.019000", "165011.021000", "165011.024000", "165011.026000", "165011.029000", "165011.031000", "165011.034000", "165011.036000", "165011.039000", "165011.041000", "165011.044000", "165011.046000", "165011.049000", "165011.051000", "165011.054000", "165050.989000", "165050.992000", "165050.995000", "165050.997000", "165051.001000", "165051.003000", "165051.006000", "165051.008000", "165051.011000", "165051.013000", "165051.016000", "165051.018000", "165051.021000", "165051.023000", "165051.026000", "165051.028000", "165051.031000", "165051.033000", "165051.036000", "165051.038000", "165051.041000", "165051.043000", "165051.045000", "165051.048000", "165051.050000", "165051.062000", "165051.064000", "165131.140000", "165131.142000", "165131.145000", "165131.147000", "165131.150000", "165131.152000", "165131.155000", "165131.157000", "165131.160000", "165131.162000", "165131.165000", "165131.167000", "165131.170000", "165131.172000", "165131.174000", "165131.177000", "165131.179000", "165131.182000", "165131.184000", "165131.187000", "165131.189000", "165131.192000", "165131.194000", "165131.197000", "165131.199000", "165131.202000", "165131.204000", "165210.982000", "165210.985000", "165210.987000", "165210.990000", "165210.992000", "165210.995000", "165210.997000", "165211.001000", "165211.003000", "165211.006000", "165211.008000", "165211.011000", "165211.013000", "165211.016000", "165211.018000", "165211.021000", "165211.023000", "165211.034000", "165211.037000", "165211.040000", "165211.042000", "165211.044000", "165211.047000", "165211.049000", "165211.052000", "165211.054000", "165211.057000", "165247.038000", "165247.041000", "165247.044000", "165247.046000", "165247.049000", "165247.052000", "165247.054000", "165247.057000", "165247.059000", "165247.062000", "165247.065000", "165247.067000", "165247.070000", "165247.073000", "165247.075000", "165247.078000", "165247.081000", "165247.086000", "165247.090000", "165247.093000", "165247.095000", "165247.098000", "165247.100000", "165247.103000"],
      "InstanceCreationTime": ["164611.134000", "164611.137000", "164611.139000", "164611.142000", "164611.144000", "164611.146000", "164611.149000", "164611.151000", "164611.154000", "164611.156000", "164611.159000", "164611.161000", "164611.164000", "164611.166000", "164611.169000", "164611.171000", "164611.174000", "164611.176000", "164611.179000", "164611.192000", "164611.195000", "164611.197000", "164611.200000", "164611.202000", "164611.204000", "164611.207000", "164611.209000", "164611.212000", "164611.214000", "164611.217000", "164611.219000", "164630.943000", "164630.945000", "164630.948000", "164630.950000", "164630.953000", "164630.955000", "164630.962000", "164630.965000", "164630.967000", "164630.970000", "164630.972000", "164630.974000", "164630.977000", "164630.979000", "164630.982000", "164630.984000", "164630.987000", "164630.989000", "164630.992000", "164630.994000", "164650.959000", "164650.962000", "164650.964000", "164650.967000", "164650.969000", "164650.972000", "164650.974000", "164650.977000", "164650.979000", "164650.982000", "164650.984000", "164650.986000", "164650.989000", "164650.991000", "164650.994000", "164650.996000", "164651.000000", "164651.002000", "164651.005000", "164651.007000", "164710.952000", "164710.955000", "164710.957000", "164710.960000", "164710.962000", "164710.965000", "164710.967000", "164710.970000", "164710.972000", "164710.975000", "164710.977000", "164710.980000", "164710.990000", "164710.992000", "164710.995000", "164710.997000", "164711.001000", "164711.004000", "164711.007000", "164711.009000", "164751.028000", "164751.037000", "164751.040000", "164751.042000", "164751.045000", "164751.047000", "164751.050000", "164751.052000", "164751.055000", "164751.057000", "164751.060000", "164751.062000", "164751.065000", "164751.067000", "164751.070000", "164751.072000", "164751.075000", "164751.077000", "164751.080000", "164751.082000", "164751.085000", "164751.087000", "164751.090000", "164751.092000", "164751.095000", "164751.097000", "164751.099000", "164830.991000", "164830.994000", "164830.996000", "164831.000000", "164831.002000", "164831.005000", "164831.007000", "164831.010000", "164831.013000", "164831.015000", "164831.018000", "164831.020000", "164831.022000", "164831.025000", "164831.027000", "164831.030000", "164831.032000", "164831.035000", "164831.038000", "164831.041000", "164831.044000", "164831.046000", "164831.049000", "164831.051000", "164831.054000", "164831.056000", "164831.059000", "164910.987000", "164910.990000", "164910.992000", "164910.995000", "164910.998000", "164911.001000", "164911.003000", "164911.006000", "164911.008000", "164911.011000", "164911.013000", "164911.016000", "164911.018000", "164911.021000", "164911.023000", "164911.026000", "164911.028000", "164911.031000", "164911.033000", "164911.036000", "164911.038000", "164911.041000", "164911.043000", "164911.045000", "164911.048000", "164911.050000", "164911.053000", "164930.917000", "164930.920000", "164930.922000", "164930.924000", "164930.927000", "164930.929000", "164930.932000", "164930.934000", "164930.937000", "164930.939000", "164930.942000", "164930.944000", "164930.947000", "164930.949000", "165010.987000", "165010.990000", "165010.993000", "165010.995000", "165010.998000", "165011.001000", "165011.005000", "165011.008000", "165011.010000", "165011.013000", "165011.016000", "165011.019000", "165011.021000", "165011.024000", "165011.026000", "165011.029000", "165011.031000", "165011.034000", "165011.036000", "165011.039000", "165011.041000", "165011.044000", "165011.046000", "165011.049000", "165011.051000", "165011.054000", "165050.989000", "165050.992000", "165050.995000", "165050.997000", "165051.001000", "165051.003000", "165051.006000", "165051.008000", "165051.011000", "165051.013000", "165051.016000", "165051.018000", "165051.021000", "165051.023000", "165051.026000", "165051.028000", "165051.031000", "165051.033000", "165051.036000", "165051.038000", "165051.041000", "165051.043000", "165051.045000", "165051.048000", "165051.050000", "165051.062000", "165051.064000", "165131.140000", "165131.142000", "165131.145000", "165131.147000", "165131.150000", "165131.152000", "165131.155000", "165131.157000", "165131.160000", "165131.162000", "165131.165000", "165131.167000", "165131.170000", "165131.172000", "165131.174000", "165131.177000", "165131.179000", "165131.182000", "165131.184000", "165131.187000", "165131.189000", "165131.192000", "165131.194000", "165131.197000", "165131.199000", "165131.202000", "165131.204000", "165210.982000", "165210.985000", "165210.987000", "165210.990000", "165210.992000", "165210.995000", "165210.997000", "165211.001000", "165211.003000", "165211.006000", "165211.008000", "165211.011000", "165211.013000", "165211.016000", "165211.018000", "165211.021000", "165211.023000", "165211.034000", "165211.037000", "165211.040000", "165211.042000", "165211.044000", "165211.047000", "165211.049000", "165211.052000", "165211.054000", "165211.057000", "165247.038000", "165247.041000", "165247.044000", "165247.046000", "165247.049000", "165247.052000", "165247.054000", "165247.057000", "165247.059000", "165247.062000", "165247.065000", "165247.067000", "165247.070000", "165247.073000", "165247.075000", "165247.078000", "165247.081000", "165247.086000", "165247.090000", "165247.093000", "165247.095000", "165247.098000", "165247.100000", "165247.103000"],
      "InstanceNumber": [1, 2, 3, 4, 5, 6, 7, 8, 9, 10, 11, 12, 13, 14, 15, 16, 17, 18, 19, 20, 21, 22, 23, 24, 25, 26, 27, 28, 29, 30, 31, 32, 33, 34, 35, 36, 37, 38, 39, 40, 41, 42, 43, 44, 45, 46, 47, 48, 49, 50, 51, 52, 53, 54, 55, 56, 57, 58, 59, 60, 61, 62, 63, 64, 65, 66, 67, 68, 69, 70, 71, 72, 73, 74, 75, 76, 77, 78, 79, 80, 81, 82, 83, 84, 85, 86, 87, 88, 89, 90, 91, 92, 93, 94, 95, 96, 97, 98, 99, 100, 101, 102, 103, 104, 105, 106, 107, 108, 109, 110, 111, 112, 113, 114, 115, 116, 117, 118, 119, 120, 121, 122, 123, 124, 125, 126, 127, 128, 129, 130, 131, 132, 133, 134, 135, 136, 137, 138, 139, 140, 141, 142, 143, 144, 145, 146, 147, 148, 149, 150, 151, 152, 153, 154, 155, 156, 157, 158, 159, 160, 161, 162, 163, 164, 165, 166, 167, 168, 169, 170, 171, 172, 173, 174, 175, 176, 177, 178, 179, 180, 181, 182, 183, 184, 185, 186, 187, 188, 189, 190, 191, 192, 193, 194, 195, 196, 197, 198, 199, 200, 201, 202, 203, 204, 205, 206, 207, 208, 209, 210, 211, 212, 213, 214, 215, 216, 217, 218, 219, 220, 221, 222, 223, 224, 225, 226, 227, 228, 229, 230, 231, 232, 233, 234, 235, 236, 237, 238, 239, 240, 241, 242, 243, 244, 245, 246, 247, 248, 249, 250, 251, 252, 253, 254, 255, 256, 257, 258, 259, 260, 261, 262, 263, 264, 265, 266, 267, 268, 269, 270, 271, 272, 273, 274, 275, 276, 277, 278, 279, 280, 281, 282, 283, 284, 285, 286, 287, 288, 289, 290, 291, 292, 293, 294, 295, 296, 297, 298, 299, 300, 301, 302, 303, 304, 305, 306, 307, 308, 309, 310, 311, 312, 313, 314, 315, 316, 317],
      "WindowCenter": [4872.0, 4864.0, 4872.0, 4864.0, 4798.0, 4802.0, 4826.0, 4836.0, 4840.0, 4864.0, 4864.0, 4864.0, 4830.0, 4830.0, 4840.0, 4844.0, 4874.0, 4876.0, 4866.0, 4804.0, 4800.0, 4828.0, 4832.0, 4836.0, 4840.0, 4864.0, 4874.0, 4870.0, 4828.0, 4836.0, 4874.0, 4842.0, 4868.0, 4836.0, 4836.0, 4830.0, 4832.0, 4836.0, 4868.0, 4840.0, 4830.0, 4832.0, 4830.0, 4802.0, 4802.0, 4802.0, 4828.0, 4838.0, 4804.0, 4864.0, 4840.0, 4870.0, 4840.0, 4870.0, 4828.0, 4840.0, 4832.0, 4836.0, 4868.0, 4870.0, 4838.0, 4840.0, 4804.0, 4866.0, 4828.0, 4872.0, 4842.0, 4876.0, 4872.0, 4870.0, 4842.0, 4838.0, 4806.0, 4812.0, 4802.0, 4878.0, 4852.0, 4854.0, 4878.0, 4876.0, 4842.0, 4832.0, 4830.0, 4828.0, 4806.0, 4832.0, 4838.0, 4872.0, 4874.0, 4874.0, 4874.0, 4842.0, 4806.0, 4806.0, 4804.0, 4804.0, 4804.0, 4868.0, 4834.0, 4842.0, 4870.0, 4878.0, 4874.0, 4868.0, 4840.0, 4806.0, 4806.0, 4806.0, 4830.0, 4834.0, 4868.0, 4876.0, 4806.0, 4806.0, 4878.0, 4878.0, 4876.0, 4868.0, 4840.0, 4834.0, 4806.0, 4804.0, 4806.0, 4864.0, 4866.0, 4870.0, 4870.0, 4868.0, 4878.0, 4876.0, 4864.0, 4832.0, 4830.0, 4830.0, 4832.0, 4832.0, 4836.0, 4840.0, 4864.0, 4838.0, 4868.0, 4832.0, 4836.0, 4838.0, 4830.0, 4828.0, 4842.0, 4842.0, 4840.0, 4868.0, 4872.0, 4844.0, 4840.0, 4838.0, 4836.0, 4834.0, 4834.0, 4838.0, 4840.0, 4842.0, 4840.0, 4840.0, 4842.0, 4836.0, 4844.0, 4838.0, 4840.0, 4846.0, 4836.0, 4840.0, 4832.0, 4836.0, 4836.0, 4834.0, 4800.0, 4806.0, 4864.0, 4872.0, 4876.0, 4876.0, 4870.0, 4872.0, 4840.0, 4834.0, 4832.0, 4840.0, 4834.0, 4836.0, 4832.0, 4834.0, 4840.0, 4872.0, 4844.0, 4838.0, 4832.0, 4802.0, 4808.0, 4838.0, 4804.0, 4842.0, 4834.0, 4802.0, 4830.0, 4834.0, 4844.0, 4850.0, 4832.0, 4832.0, 4828.0, 4838.0, 4840.0, 4804.0, 4782.0, 4804.0, 4840.0, 4802.0, 4834.0, 4878.0, 4874.0, 4878.0, 4836.0, 4830.0, 4808.0, 4802.0, 4834.0, 4842.0, 4832.0, 4804.0, 4830.0, 4864.0, 4876.0, 4880.0, 4878.0, 4872.0, 4786.0, 4786.0, 4778.0, 4806.0, 4800.0, 4834.0, 4870.0, 4880.0, 4880.0, 4880.0, 4880.0, 4830.0, 4832.0, 4804.0, 4804.0, 4834.0, 4832.0, 4876.0, 4874.0, 4876.0, 4878.0, 4878.0, 4868.0, 4834.0, 4828.0, 4832.0, 4834.0, 4808.0, 4842.0, 4870.0, 4880.0, 4874.0, 4878.0, 4872.0, 4832.0, 4806.0, 4808.0, 4778.0, 4866.0, 4880.0, 4878.0, 4878.0, 4878.0, 4878.0, 4868.0, 4832.0, 4830.0, 4808.0, 4806.0, 4862.0, 4836.0, 4876.0, 4872.0, 4878.0, 4876.0, 4872.0, 4876.0, 4862.0, 4830.0, 4834.0, 4834.0, 4840.0, 4870.0, 4876.0, 4878.0, 4874.0, 4874.0, 4864.0, 4806.0, 4802.0, 4830.0, 4808.0, 4778.0, 4868.0, 4852.0, 4826.0, 4852.0, 4878.0, 4870.0, 4834.0, 4808.0, 4830.0, 4832.0],
