{
  "AcquisitionMatrixPE": 104,
  "AcquisitionNumber": 1,
  "AcquisitionTime": "16:22:8.480000",
  "BandwidthPerPixelPhaseEncode": 17.17,
  "BaseResolution": 104,
  "BodyPartExamined": "BRAIN",
  "CoilCombinationMethod": "Sum of Squares",
  "ConsistencyInfo": "N4_VE11C_LATEST_20160120",
  "ConversionSoftware": "dcm2niix",
  "ConversionSoftwareVersion": "v1.0.20220505",
  "DerivedVendorReportedEchoSpacing": 0.000560011,
  "DeviceSerialNumber": "167006",
  "DwellTime": 2.1e-06,
  "EchoTime": 0.037,
  "EchoTrainLength": 104,
  "EffectiveEchoSpacing": 0.000560011,
  "FlipAngle": 52,
  "HeudiconvVersion": "0.5.3.post811+g6206e14",
  "ImageComments": "Unaliased MB4/PE3/LB",
  "ImageOrientationPatientDICOM": [0.998908, 0.0120328, 0.0451521, 0.0134252, 0.851635, -0.523964],
  "ImageOrientationText": "Tra>Cor(-31.6)>Sag(2.6)",
  "ImageType": [
    "ORIGINAL",
    "PRIMARY",
    "M",
    "MB",
    "ND",
    "MOSAIC"
],
  "ImagingFrequency": 123.259,
  "InPlanePhaseEncodingDirectionDICOM": "COL",
  "InstitutionAddress": "Chemin Queen-Mary 4565,Montreal,District,CA,H3W 1W5",
  "InstitutionName": "IUGM",
  "InstitutionalDepartmentName": "Department",
  "MRAcquisitionType": "2D",
  "MagneticFieldStrength": 3,
  "Manufacturer": "Siemens",
  "ManufacturersModelName": "Prisma_fit",
  "MatrixCoilMode": "SENSE",
  "Modality": "MR",
  "MultibandAccelerationFactor": 4,
  "PartialFourier": 1,
  "PatientPosition": "HFS",
  "PercentPhaseFOV": 100,
  "PercentSampling": 100,
  "PhaseEncodingDirection": "j",
  "PhaseEncodingSteps": 104,
  "PhaseResolution": 1,
  "PixelBandwidth": 2290,
  "ProcedureStepDescription": "games^mario3",
  "ProtocolName": "func_task-mario3_run-01",
  "PulseSequenceDetails": "%CustomerSeq%\\cmrr_mbep2d_bold",
  "ReceiveCoilActiveElements": "HC1-7;NC1,2",
  "ReceiveCoilName": "HeadNeck_64",
  "ReconMatrixPE": 104,
  "RepetitionTime": 1.49,
  "SAR": 0.0748159,
  "ScanOptions": "FS",
  "ScanningSequence": "EP",
  "SequenceName": "epfid2d1_104",
  "SequenceVariant": "SK\\SS",
  "SeriesDescription": "func_task-mario3_run-01",
  "SeriesNumber": 10,
  "ShimSetting": [625, -7179, -8882, 244, 24, -256, -10, 23],
  "SliceThickness": 2,
  "SliceTiming": [0, 0.7825, 0.0975, 0.8825, 0.195, 0.98, 0.2925, 1.0775, 0.3925, 1.175, 0.49, 1.2725, 0.5875, 1.3725, 0.685, 0, 0.7825, 0.0975, 0.8825, 0.195, 0.98, 0.2925, 1.0775, 0.3925, 1.175, 0.49, 1.2725, 0.5875, 1.3725, 0.685, 0, 0.7825, 0.0975, 0.8825, 0.195, 0.98, 0.2925, 1.0775, 0.3925, 1.175, 0.49, 1.2725, 0.5875, 1.3725, 0.685, 0, 0.7825, 0.0975, 0.8825, 0.195, 0.98, 0.2925, 1.0775, 0.3925, 1.175, 0.49, 1.2725, 0.5875, 1.3725, 0.685],
  "SoftwareVersions": "syngo MR E11",
  "SpacingBetweenSlices": 2,
  "StationName": "MRC35049",
  "TaskName": "mario3",
  "TotalReadoutTime": 0.0576811,
  "TxRefAmp": 307.387,
  "WipMemBlock": "4d39bbbc-c337-4699-b5c5-ba0899657433||Sequence: R017 ve11c/master r/75a17815+; Jun 28 2022 16:32:11 by eja",
  "dcmmeta_affine": [
    [-1.9978152513504028, 0.02685035951435566, 0.08951578289270401, 103.31771850585938],
    [-0.024065645411610603, 1.7032694816589355, -1.0479952096939087, -47.87774658203125],
    [0.09030427038669586, 1.0479276180267334, 1.7010858058929443, -106.49052429199219],
    [0.0, 0.0, 0.0, 1.0]
],
  "dcmmeta_reorient_transform": [
    [0.0, -1.0, 0.0, 103.0],
    [1.0, 0.0, 0.0, 0.0],
    [0.0, 0.0, 1.0, 0.0],
    [0.0, 0.0, 0.0, 1.0]
],
  "dcmmeta_shape": [104, 104, 60, 423],
  "dcmmeta_slice_dim": 2,
  "dcmmeta_version": 0.6,
  "global": {
    "const": {
      "AcquisitionMatrix": [104, 0, 0, 104],
      "AngioFlag": "N",
      "BitsAllocated": 16,
      "BitsStored": 16,
      "BodyPartExamined": "BRAIN",
      "Columns": 832,
      "EchoNumbers": 1,
      "EchoTime": 37.0,
      "EchoTrainLength": 104,
      "FlipAngle": 52.0,
      "HighBit": 15,
      "ImageOrientationPatient": [0.99890765131408, 0.01203282262246, 0.04515213534191, 0.01342517935577, 0.85163472823928, -0.5239637909399],
      "ImagePositionPatient": [-843.06160803324, -756.30898547737, 350.02089844016],
      "ImageType": [
        "ORIGINAL",
        "PRIMARY",
        "M",
        "MB",
        "ND",
        "MOSAIC"
],
      "ImagedNucleus": "1H",
      "ImagingFrequency": 123.258965,
      "InPlanePhaseEncodingDirection": "COL",
      "MRAcquisitionType": "2D",
      "MagneticFieldStrength": 3.0,
      "Manufacturer": "SIEMENS",
      "ManufacturerModelName": "Prisma_fit",
      "Modality": "MR",
      "NumberOfAverages": 1.0,
      "NumberOfPhaseEncodingSteps": 104,
      "PercentPhaseFieldOfView": 100.0,
      "PercentSampling": 100.0,
      "PerformedProcedureStepStartTime": "161851.294000",
      "PhotometricInterpretation": "MONOCHROME2",
      "PixelBandwidth": 2290.0,
      "PixelRepresentation": 0,
      "PixelSpacing": [2.0, 2.0],
      "ProtocolName": "func_task-mario3_run-01",
      "RepetitionTime": 1490.0,
      "Rows": 832,
      "SAR": 0.07481588134423,
      "SamplesPerPixel": 1,
      "ScanOptions": "FS",
      "ScanningSequence": "EP",
      "SequenceName": "epfid2d1_104",
      "SequenceVariant": [
        "SK",
        "SS"
],
      "SeriesDescription": "func_task-mario3_run-01",
      "SeriesNumber": 10,
      "SeriesTime": "162335.482000",
      "SliceLocation": -60.862655016631,
      "SliceThickness": 2.0,
      "SmallestImagePixelValue": 0,
      "SoftwareVersions": "syngo MR E11",
      "SpacingBetweenSlices": 1.9999999873074,
      "SpecificCharacterSet": "ISO_IR 100",
      "StudyID": "1",
      "StudyTime": "161851.226000",
      "TransmitCoilName": "Body",
      "VariableFlipAngleFlag": "N",
      "WindowCenterWidthExplanation": "Algo1",
      "dBdt": 0.0},
    "slices": {}
  },
  "time": {
    "samples": {
      "AcquisitionNumber": [1, 2, 3, 4, 5, 6, 7, 8, 9, 10, 11, 12, 13, 14, 15, 16, 17, 18, 19, 20, 21, 22, 23, 24, 25, 26, 27, 28, 29, 30, 31, 32, 33, 34, 35, 36, 37, 38, 39, 40, 41, 42, 43, 44, 45, 46, 47, 48, 49, 50, 51, 52, 53, 54, 55, 56, 57, 58, 59, 60, 61, 62, 63, 64, 65, 66, 67, 68, 69, 70, 71, 72, 73, 74, 75, 76, 77, 78, 79, 80, 81, 82, 83, 84, 85, 86, 87, 88, 89, 90, 91, 92, 93, 94, 95, 96, 97, 98, 99, 100, 101, 102, 103, 104, 105, 106, 107, 108, 109, 110, 111, 112, 113, 114, 115, 116, 117, 118, 119, 120, 121, 122, 123, 124, 125, 126, 127, 128, 129, 130, 131, 132, 133, 134, 135, 136, 137, 138, 139, 140, 141, 142, 143, 144, 145, 146, 147, 148, 149, 150, 151, 152, 153, 154, 155, 156, 157, 158, 159, 160, 161, 162, 163, 164, 165, 166, 167, 168, 169, 170, 171, 172, 173, 174, 175, 176, 177, 178, 179, 180, 181, 182, 183, 184, 185, 186, 187, 188, 189, 190, 191, 192, 193, 194, 195, 196, 197, 198, 199, 200, 201, 202, 203, 204, 205, 206, 207, 208, 209, 210, 211, 212, 213, 214, 215, 216, 217, 218, 219, 220, 221, 222, 223, 224, 225, 226, 227, 228, 229, 230, 231, 232, 233, 234, 235, 236, 237, 238, 239, 240, 241, 242, 243, 244, 245, 246, 247, 248, 249, 250, 251, 252, 253, 254, 255, 256, 257, 258, 259, 260, 261, 262, 263, 264, 265, 266, 267, 268, 269, 270, 271, 272, 273, 274, 275, 276, 277, 278, 279, 280, 281, 282, 283, 284, 285, 286, 287, 288, 289, 290, 291, 292, 293, 294, 295, 296, 297, 298, 299, 300, 301, 302, 303, 304, 305, 306, 307, 308, 309, 310, 311, 312, 313, 314, 315, 316, 317, 318, 319, 320, 321, 322, 323, 324, 325, 326, 327, 328, 329, 330, 331, 332, 333, 334, 335, 336, 337, 338, 339, 340, 341, 342, 343, 344, 345, 346, 347, 348, 349, 350, 351, 352, 353, 354, 355, 356, 357, 358, 359, 360, 361, 362, 363, 364, 365, 366, 367, 368, 369, 370, 371, 372, 373, 374, 375, 376, 377, 378, 379, 380, 381, 382, 383, 384, 385, 386, 387, 388, 389, 390, 391, 392, 393, 394, 395, 396, 397, 398, 399, 400, 401, 402, 403, 404, 405, 406, 407, 408, 409, 410, 411, 412, 413, 414, 415, 416, 417, 418, 419, 420, 421, 422, 423],
      "AcquisitionTime": ["162208.480000", "162209.970000", "162211.460000", "162212.950000", "162214.440000", "162215.930000", "162217.420000", "162218.910000", "162220.400000", "162221.890000", "162223.380000", "162224.870000", "162226.360000", "162227.850000", "162229.340000", "162230.830000", "162232.320000", "162233.810000", "162235.300000", "162236.790000", "162238.280000", "162239.770000", "162241.260000", "162242.750000", "162244.240000", "162245.730000", "162247.220000", "162248.710000", "162250.200000", "162251.690000", "162253.180000", "162254.670000", "162256.160000", "162257.650000", "162259.140000", "162300.630000", "162302.120000", "162303.610000", "162305.100000", "162306.590000", "162308.080000", "162309.570000", "162311.060000", "162312.550000", "162314.040000", "162315.530000", "162317.020000", "162318.510000", "162320.000000", "162321.490000", "162322.980000", "162324.470000", "162325.960000", "162327.450000", "162328.940000", "162330.430000", "162331.920000", "162333.410000", "162334.900000", "162336.390000", "162337.880000", "162339.370000", "162340.860000", "162342.350000", "162343.840000", "162345.330000", "162346.820000", "162348.310000", "162349.800000", "162351.290000", "162352.780000", "162354.270000", "162355.760000", "162357.250000", "162358.740000", "162400.230000", "162401.720000", "162403.210000", "162404.700000", "162406.190000", "162407.680000", "162409.170000", "162410.660000", "162412.150000", "162413.640000", "162415.130000", "162416.620000", "162418.110000", "162419.600000", "162421.090000", "162422.580000", "162424.070000", "162425.560000", "162427.050000", "162428.540000", "162430.030000", "162431.520000", "162433.010000", "162434.500000", "162435.990000", "162437.480000", "162438.970000", "162440.460000", "162441.950000", "162443.440000", "162444.930000", "162446.420000", "162447.910000", "162449.400000", "162450.890000", "162452.380000", "162453.870000", "162455.360000", "162456.850000", "162458.340000", "162459.830000", "162501.320000", "162502.810000", "162504.300000", "162505.790000", "162507.280000", "162508.770000", "162510.260000", "162511.750000", "162513.240000", "162514.730000", "162516.220000", "162517.710000", "162519.200000", "162520.690000", "162522.180000", "162523.670000", "162525.160000", "162526.650000", "162528.140000", "162529.630000", "162531.120000", "162532.610000", "162534.100000", "162535.590000", "162537.080000", "162538.570000", "162540.060000", "162541.550000", "162543.040000", "162544.530000", "162546.020000", "162547.510000", "162549.000000", "162550.490000", "162551.980000", "162553.470000", "162554.960000", "162556.450000", "162557.940000", "162559.430000", "162600.920000", "162602.410000", "162603.900000", "162605.390000", "162606.880000", "162608.370000", "162609.860000", "162611.350000", "162612.840000", "162614.330000", "162615.820000", "162617.310000", "162618.800000", "162620.290000", "162621.780000", "162623.270000", "162624.760000", "162626.250000", "162627.740000", "162629.230000", "162630.720000", "162632.210000", "162633.700000", "162635.190000", "162636.680000", "162638.170000", "162639.660000", "162641.150000", "162642.640000", "162644.130000", "162645.620000", "162647.110000", "162648.600000", "162650.090000", "162651.580000", "162653.070000", "162654.560000", "162656.050000", "162657.540000", "162659.030000", "162700.520000", "162702.010000", "162703.500000", "162704.990000", "162706.480000", "162707.970000", "162709.460000", "162710.950000", "162712.440000", "162713.930000", "162715.420000", "162716.910000", "162718.400000", "162719.890000", "162721.380000", "162722.870000", "162724.360000", "162725.850000", "162727.340000", "162728.830000", "162730.320000", "162731.810000", "162733.300000", "162734.790000", "162736.280000", "162737.770000", "162739.260000", "162740.750000", "162742.240000", "162743.730000", "162745.220000", "162746.710000", "162748.200000", "162749.690000", "162751.180000", "162752.670000", "162754.160000", "162755.650000", "162757.140000", "162758.630000", "162800.120000", "162801.610000", "162803.100000", "162804.590000", "162806.080000", "162807.570000", "162809.060000", "162810.550000", "162812.040000", "162813.530000", "162815.020000", "162816.510000", "162818.000000", "162819.490000", "162820.980000", "162822.470000", "162823.960000", "162825.450000", "162826.940000", "162828.430000", "162829.920000", "162831.410000", "162832.900000", "162834.390000", "162835.880000", "162837.370000", "162838.860000", "162840.350000", "162841.840000", "162843.330000", "162844.820000", "162846.310000", "162847.800000", "162849.290000", "162850.780000", "162852.270000", "162853.760000", "162855.250000", "162856.740000", "162858.230000", "162859.720000", "162901.210000", "162902.700000", "162904.190000", "162905.680000", "162907.170000", "162908.660000", "162910.150000", "162911.640000", "162913.130000", "162914.620000", "162916.110000", "162917.600000", "162919.090000", "162920.580000", "162922.070000", "162923.560000", "162925.050000", "162926.540000", "162928.030000", "162929.520000", "162931.010000", "162932.500000", "162933.990000", "162935.480000", "162936.970000", "162938.460000", "162939.950000", "162941.440000", "162942.930000", "162944.420000", "162945.910000", "162947.400000", "162948.890000", "162950.380000", "162951.870000", "162953.360000", "162954.850000", "162956.340000", "162957.830000", "162959.320000", "163000.810000", "163002.300000", "163003.790000", "163005.280000", "163006.770000", "163008.260000", "163009.750000", "163011.240000", "163012.730000", "163014.220000", "163015.710000", "163017.200000", "163018.690000", "163020.180000", "163021.670000", "163023.160000", "163024.650000", "163026.140000", "163027.630000", "163029.120000", "163030.610000", "163032.100000", "163033.590000", "163035.080000", "163036.570000", "163038.060000", "163039.550000", "163041.040000", "163042.530000", "163044.020000", "163045.510000", "163047.000000", "163048.490000", "163049.980000", "163051.470000", "163052.960000", "163054.450000", "163055.940000", "163057.430000", "163058.920000", "163100.410000", "163101.900000", "163103.390000", "163104.880000", "163106.370000", "163107.860000", "163109.350000", "163110.840000", "163112.330000", "163113.820000", "163115.310000", "163116.800000", "163118.290000", "163119.780000", "163121.270000", "163122.760000", "163124.250000", "163125.740000", "163127.230000", "163128.720000", "163130.210000", "163131.700000", "163133.190000", "163134.680000", "163136.170000", "163137.660000", "163139.150000", "163140.640000", "163142.130000", "163143.620000", "163145.110000", "163146.600000", "163148.090000", "163149.580000", "163151.070000", "163152.560000", "163154.050000", "163155.540000", "163157.030000", "163158.520000", "163200.010000", "163201.500000", "163202.990000", "163204.480000", "163205.970000", "163207.460000", "163208.950000", "163210.440000", "163211.930000", "163213.420000", "163214.910000", "163216.400000", "163217.890000", "163219.380000", "163220.870000", "163222.360000", "163223.850000", "163225.340000", "163226.830000", "163228.320000", "163229.810000", "163231.300000", "163232.790000", "163234.280000", "163235.770000", "163237.260000"],
      "ContentTime": ["162335.485000", "162335.489000", "162335.492000", "162335.496000", "162335.499000", "162335.502000", "162335.506000", "162335.509000", "162335.518000", "162335.522000", "162335.525000", "162335.528000", "162335.531000", "162335.535000", "162335.539000", "162335.543000", "162335.547000", "162335.550000", "162335.554000", "162335.557000", "162335.560000", "162335.564000", "162335.567000", "162335.570000", "162335.574000", "162335.577000", "162335.580000", "162335.584000", "162335.599000", "162335.603000", "162335.606000", "162335.609000", "162335.612000", "162335.616000", "162335.619000", "162335.622000", "162335.626000", "162335.629000", "162335.632000", "162355.457000", "162355.461000", "162355.464000", "162355.467000", "162355.470000", "162355.474000", "162355.477000", "162355.480000", "162355.483000", "162355.487000", "162355.490000", "162355.499000", "162355.503000", "162355.506000", "162355.509000", "162355.513000", "162355.516000", "162355.519000", "162355.522000", "162355.525000", "162415.457000", "162415.461000", "162415.464000", "162415.468000", "162415.471000", "162415.474000", "162415.478000", "162415.481000", "162415.484000", "162415.487000", "162415.491000", "162415.494000", "162415.497000", "162415.500000", "162415.504000", "162415.507000", "162415.510000", "162415.514000", "162415.517000", "162415.520000", "162455.457000", "162455.461000", "162455.469000", "162455.472000", "162455.475000", "162455.478000", "162455.482000", "162455.485000", "162455.488000", "162455.491000", "162455.495000", "162455.498000", "162455.501000", "162455.505000", "162455.508000", "162455.511000", "162455.514000", "162455.518000", "162455.521000", "162455.524000", "162455.528000", "162455.531000", "162455.534000", "162455.537000", "162455.540000", "162455.544000", "162455.547000", "162455.550000", "162455.554000", "162455.557000", "162455.560000", "162455.563000", "162535.457000", "162535.465000", "162535.468000", "162535.472000", "162535.475000", "162535.491000", "162535.494000", "162535.498000", "162535.501000", "162535.504000", "162535.508000", "162535.511000", "162535.514000", "162535.517000", "162535.521000", "162535.524000", "162535.527000", "162535.531000", "162535.534000", "162535.537000", "162535.540000", "162535.544000", "162535.547000", "162535.550000", "162535.553000", "162535.557000", "162535.560000", "162615.457000", "162615.461000", "162615.464000", "162615.467000", "162615.470000", "162615.481000", "162615.484000", "162615.487000", "162615.491000", "162615.494000", "162615.497000", "162615.500000", "162615.504000", "162615.507000", "162615.510000", "162615.514000", "162615.517000", "162615.520000", "162615.524000", "162615.527000", "162615.530000", "162615.534000", "162615.537000", "162615.540000", "162615.544000", "162615.547000", "162615.550000", "162655.457000", "162655.472000", "162655.475000", "162655.479000", "162655.482000", "162655.486000", "162655.489000", "162655.492000", "162655.496000", "162655.499000", "162655.503000", "162655.506000", "162655.509000", "162655.513000", "162655.516000", "162655.519000", "162655.523000", "162655.527000", "162655.530000", "162655.534000", "162655.537000", "162655.540000", "162655.543000", "162655.547000", "162655.550000", "162655.553000", "162655.557000", "162735.457000", "162735.461000", "162735.464000", "162735.467000", "162735.471000", "162735.474000", "162735.477000", "162735.480000", "162735.484000", "162735.487000", "162735.490000", "162735.493000", "162735.497000", "162735.500000", "162735.503000", "162735.506000", "162735.510000", "162735.513000", "162735.516000", "162735.520000", "162735.523000", "162735.526000", "162735.529000", "162735.532000", "162735.544000", "162735.547000", "162735.550000", "162815.457000", "162815.461000", "162815.464000", "162815.467000", "162815.471000", "162815.474000", "162815.479000", "162815.482000", "162815.486000", "162815.489000", "162815.498000", "162815.501000", "162815.505000", "162815.508000", "162815.511000", "162815.514000", "162815.518000", "162815.521000", "162815.538000", "162815.542000", "162815.545000", "162815.548000", "162815.551000", "162815.554000", "162815.558000", "162815.561000", "162855.457000", "162855.461000", "162855.464000", "162855.468000", "162855.471000", "162855.474000", "162855.477000", "162855.481000", "162855.484000", "162855.487000", "162855.491000", "162855.494000", "162855.497000", "162855.500000", "162855.504000", "162855.507000", "162855.510000", "162855.514000", "162855.517000", "162855.520000", "162855.524000", "162855.527000", "162855.530000", "162855.533000", "162855.543000", "162855.546000", "162855.550000", "162935.457000", "162935.461000", "162935.464000", "162935.468000", "162935.471000", "162935.474000", "162935.477000", "162935.481000", "162935.484000", "162935.487000", "162935.490000", "162935.494000", "162935.497000", "162935.500000", "162935.503000", "162935.516000", "162935.519000", "162935.522000", "162935.525000", "162935.529000", "162935.532000", "162935.535000", "162935.538000", "162935.542000", "162935.545000", "162935.548000", "162935.552000", "163015.457000", "163015.461000", "163015.464000", "163015.467000", "163015.471000", "163015.474000", "163015.493000", "163015.497000", "163015.500000", "163015.503000", "163015.506000", "163015.510000", "163015.513000", "163015.516000", "163015.519000", "163015.523000", "163015.540000", "163015.543000", "163015.546000", "163015.549000", "163015.553000", "163015.556000", "163015.559000", "163015.563000", "163015.566000", "163015.569000", "163015.573000", "163055.457000", "163055.461000", "163055.464000", "163055.467000", "163055.471000", "163055.474000", "163055.477000", "163055.499000", "163055.502000", "163055.506000", "163055.509000", "163055.512000", "163055.515000", "163055.519000", "163055.522000", "163055.525000", "163055.529000", "163055.532000", "163055.535000", "163055.539000", "163055.542000", "163055.545000", "163055.548000", "163055.552000", "163055.555000", "163055.558000", "163055.561000", "163135.457000", "163135.461000", "163135.464000", "163135.468000", "163135.471000", "163135.474000", "163135.478000", "163135.481000", "163135.484000", "163135.487000", "163135.491000", "163135.494000", "163135.497000", "163135.501000", "163135.504000", "163135.507000", "163135.510000", "163135.514000", "163135.517000", "163135.520000", "163135.524000", "163135.527000", "163135.530000", "163135.534000", "163135.537000", "163135.540000", "163135.543000", "163215.457000", "163215.461000", "163215.464000", "163215.467000", "163215.471000", "163215.474000", "163215.477000", "163215.485000", "163215.488000", "163215.492000", "163215.495000", "163215.498000", "163215.501000", "163215.505000", "163215.508000", "163215.511000", "163215.514000", "163215.518000", "163215.530000", "163215.534000", "163215.537000", "163215.540000", "163215.543000", "163215.547000", "163215.550000", "163215.553000", "163215.557000", "163240.425000", "163240.428000", "163240.432000", "163240.436000", "163240.440000", "163240.443000", "163240.447000", "163240.451000", "163240.454000", "163240.458000", "163240.462000", "163240.466000", "163240.470000", "163240.474000", "163240.478000", "163240.481000"],
      "InstanceCreationTime": ["162335.485000", "162335.489000", "162335.492000", "162335.496000", "162335.499000", "162335.502000", "162335.506000", "162335.509000", "162335.518000", "162335.522000", "162335.525000", "162335.528000", "162335.531000", "162335.535000", "162335.539000", "162335.543000", "162335.547000", "162335.550000", "162335.554000", "162335.557000", "162335.560000", "162335.564000", "162335.567000", "162335.570000", "162335.574000", "162335.577000", "162335.580000", "162335.584000", "162335.599000", "162335.603000", "162335.606000", "162335.609000", "162335.612000", "162335.616000", "162335.619000", "162335.622000", "162335.626000", "162335.629000", "162335.632000", "162355.457000", "162355.461000", "162355.464000", "162355.467000", "162355.470000", "162355.474000", "162355.477000", "162355.480000", "162355.483000", "162355.487000", "162355.490000", "162355.499000", "162355.503000", "162355.506000", "162355.509000", "162355.513000", "162355.516000", "162355.519000", "162355.522000", "162355.525000", "162415.457000", "162415.461000", "162415.464000", "162415.468000", "162415.471000", "162415.474000", "162415.478000", "162415.481000", "162415.484000", "162415.487000", "162415.491000", "162415.494000", "162415.497000", "162415.500000", "162415.504000", "162415.507000", "162415.510000", "162415.514000", "162415.517000", "162415.520000", "162455.457000", "162455.461000", "162455.469000", "162455.472000", "162455.475000", "162455.478000", "162455.482000", "162455.485000", "162455.488000", "162455.491000", "162455.495000", "162455.498000", "162455.501000", "162455.505000", "162455.508000", "162455.511000", "162455.514000", "162455.518000", "162455.521000", "162455.524000", "162455.528000", "162455.531000", "162455.534000", "162455.537000", "162455.540000", "162455.544000", "162455.547000", "162455.550000", "162455.554000", "162455.557000", "162455.560000", "162455.563000", "162535.457000", "162535.465000", "162535.468000", "162535.472000", "162535.475000", "162535.491000", "162535.494000", "162535.498000", "162535.501000", "162535.504000", "162535.508000", "162535.511000", "162535.514000", "162535.517000", "162535.521000", "162535.524000", "162535.527000", "162535.531000", "162535.534000", "162535.537000", "162535.540000", "162535.544000", "162535.547000", "162535.550000", "162535.553000", "162535.557000", "162535.560000", "162615.457000", "162615.461000", "162615.464000", "162615.467000", "162615.470000", "162615.481000", "162615.484000", "162615.487000", "162615.491000", "162615.494000", "162615.497000", "162615.500000", "162615.504000", "162615.507000", "162615.510000", "162615.514000", "162615.517000", "162615.520000", "162615.524000", "162615.527000", "162615.530000", "162615.534000", "162615.537000", "162615.540000", "162615.544000", "162615.547000", "162615.550000", "162655.457000", "162655.472000", "162655.475000", "162655.479000", "162655.482000", "162655.486000", "162655.489000", "162655.492000", "162655.496000", "162655.499000", "162655.503000", "162655.506000", "162655.509000", "162655.513000", "162655.516000", "162655.519000", "162655.523000", "162655.527000", "162655.530000", "162655.534000", "162655.537000", "162655.540000", "162655.543000", "162655.547000", "162655.550000", "162655.553000", "162655.557000", "162735.457000", "162735.461000", "162735.464000", "162735.467000", "162735.471000", "162735.474000", "162735.477000", "162735.480000", "162735.484000", "162735.487000", "162735.490000", "162735.493000", "162735.497000", "162735.500000", "162735.503000", "162735.506000", "162735.510000", "162735.513000", "162735.516000", "162735.520000", "162735.523000", "162735.526000", "162735.529000", "162735.532000", "162735.544000", "162735.547000", "162735.550000", "162815.457000", "162815.461000", "162815.464000", "162815.467000", "162815.471000", "162815.474000", "162815.479000", "162815.482000", "162815.486000", "162815.489000", "162815.498000", "162815.501000", "162815.505000", "162815.508000", "162815.511000", "162815.514000", "162815.518000", "162815.521000", "162815.538000", "162815.542000", "162815.545000", "162815.548000", "162815.551000", "162815.554000", "162815.558000", "162815.561000", "162855.457000", "162855.461000", "162855.464000", "162855.468000", "162855.471000", "162855.474000", "162855.477000", "162855.481000", "162855.484000", "162855.487000", "162855.491000", "162855.494000", "162855.497000", "162855.500000", "162855.504000", "162855.507000", "162855.510000", "162855.514000", "162855.517000", "162855.520000", "162855.524000", "162855.527000", "162855.530000", "162855.533000", "162855.543000", "162855.546000", "162855.550000", "162935.457000", "162935.461000", "162935.464000", "162935.468000", "162935.471000", "162935.474000", "162935.477000", "162935.481000", "162935.484000", "162935.487000", "162935.490000", "162935.494000", "162935.497000", "162935.500000", "162935.503000", "162935.516000", "162935.519000", "162935.522000", "162935.525000", "162935.529000", "162935.532000", "162935.535000", "162935.538000", "162935.542000", "162935.545000", "162935.548000", "162935.552000", "163015.457000", "163015.461000", "163015.464000", "163015.467000", "163015.471000", "163015.474000", "163015.493000", "163015.497000", "163015.500000", "163015.503000", "163015.506000", "163015.510000", "163015.513000", "163015.516000", "163015.519000", "163015.523000", "163015.540000", "163015.543000", "163015.546000", "163015.549000", "163015.553000", "163015.556000", "163015.559000", "163015.563000", "163015.566000", "163015.569000", "163015.573000", "163055.457000", "163055.461000", "163055.464000", "163055.467000", "163055.471000", "163055.474000", "163055.477000", "163055.499000", "163055.502000", "163055.506000", "163055.509000", "163055.512000", "163055.515000", "163055.519000", "163055.522000", "163055.525000", "163055.529000", "163055.532000", "163055.535000", "163055.539000", "163055.542000", "163055.545000", "163055.548000", "163055.552000", "163055.555000", "163055.558000", "163055.561000", "163135.457000", "163135.461000", "163135.464000", "163135.468000", "163135.471000", "163135.474000", "163135.478000", "163135.481000", "163135.484000", "163135.487000", "163135.491000", "163135.494000", "163135.497000", "163135.501000", "163135.504000", "163135.507000", "163135.510000", "163135.514000", "163135.517000", "163135.520000", "163135.524000", "163135.527000", "163135.530000", "163135.534000", "163135.537000", "163135.540000", "163135.543000", "163215.457000", "163215.461000", "163215.464000", "163215.467000", "163215.471000", "163215.474000", "163215.477000", "163215.485000", "163215.488000", "163215.492000", "163215.495000", "163215.498000", "163215.501000", "163215.505000", "163215.508000", "163215.511000", "163215.514000", "163215.518000", "163215.530000", "163215.534000", "163215.537000", "163215.540000", "163215.543000", "163215.547000", "163215.550000", "163215.553000", "163215.557000", "163240.425000", "163240.428000", "163240.432000", "163240.436000", "163240.440000", "163240.443000", "163240.447000", "163240.451000", "163240.454000", "163240.458000", "163240.462000", "163240.466000", "163240.470000", "163240.474000", "163240.478000", "163240.481000"],
