{
  "AcquisitionMatrixPE": 104,
  "AcquisitionNumber": 1,
  "AcquisitionTime": "18:14:12.395000",
  "BandwidthPerPixelPhaseEncode": 17.17,
  "BaseResolution": 104,
  "BodyPartExamined": "BRAIN",
  "CoilCombinationMethod": "Sum of Squares",
  "ConsistencyInfo": "N4_VE11C_LATEST_20160120",
  "ConversionSoftware": "dcm2niix",
  "ConversionSoftwareVersion": "v1.0.20220505",
  "DerivedVendorReportedEchoSpacing": 0.000560011,
  "DeviceSerialNumber": "167006",
  "DwellTime": 2.1e-06,
  "EchoTime": 0.037,
  "EchoTrainLength": 104,
  "EffectiveEchoSpacing": 0.000560011,
  "FlipAngle": 52,
  "HeudiconvVersion": "0.5.3.post811+g6206e14",
  "ImageComments": "Unaliased MB4/PE3/LB",
  "ImageOrientationPatientDICOM": [0.999909, 0.0020059, -0.0133584, -0.0055846, 0.961829, -0.273593],
  "ImageOrientationText": "Tra>Cor(-15.9)>Sag(-0.7)",
  "ImageType": [
    "ORIGINAL",
    "PRIMARY",
    "M",
    "MB",
    "ND",
    "MOSAIC"
],
  "ImagingFrequency": 123.26,
  "InPlanePhaseEncodingDirectionDICOM": "COL",
  "InstitutionAddress": "Chemin Queen-Mary 4565,Montreal,District,CA,H3W 1W5",
  "InstitutionName": "IUGM",
  "InstitutionalDepartmentName": "Department",
  "MRAcquisitionType": "2D",
  "MagneticFieldStrength": 3,
  "Manufacturer": "Siemens",
  "ManufacturersModelName": "Prisma_fit",
  "MatrixCoilMode": "SENSE",
  "Modality": "MR",
  "MultibandAccelerationFactor": 4,
  "PartialFourier": 1,
  "PatientPosition": "HFS",
  "PercentPhaseFOV": 100,
  "PercentSampling": 100,
  "PhaseEncodingDirection": "j",
  "PhaseEncodingSteps": 104,
  "PhaseResolution": 1,
  "PixelBandwidth": 2290,
  "ProcedureStepDescription": "games^mario3",
  "ProtocolName": "func_task-mario3_run-02",
  "PulseSequenceDetails": "%CustomerSeq%\\cmrr_mbep2d_bold",
  "ReceiveCoilActiveElements": "HC1-7;NC1,2",
  "ReceiveCoilName": "HeadNeck_64",
  "ReconMatrixPE": 104,
  "RepetitionTime": 1.49,
  "SAR": 0.0564883,
  "ScanOptions": "FS",
  "ScanningSequence": "EP",
  "SequenceName": "epfid2d1_104",
  "SequenceVariant": "SK\\SS",
  "SeriesDescription": "func_task-mario3_run-02",
  "SeriesNumber": 13,
  "ShimSetting": [602, -7219, -8777, 689, 27, 10, 34, -18],
  "SliceThickness": 2,
  "SliceTiming": [0, 0.7825, 0.0975, 0.8825, 0.195, 0.98, 0.295, 1.0775, 0.3925, 1.175, 0.49, 1.2725, 0.5875, 1.3725, 0.685, 0, 0.7825, 0.0975, 0.8825, 0.195, 0.98, 0.295, 1.0775, 0.3925, 1.175, 0.49, 1.2725, 0.5875, 1.3725, 0.685, 0, 0.7825, 0.0975, 0.8825, 0.195, 0.98, 0.295, 1.0775, 0.3925, 1.175, 0.49, 1.2725, 0.5875, 1.3725, 0.685, 0, 0.7825, 0.0975, 0.8825, 0.195, 0.98, 0.295, 1.0775, 0.3925, 1.175, 0.49, 1.2725, 0.5875, 1.3725, 0.685],
  "SoftwareVersions": "syngo MR E11",
  "SpacingBetweenSlices": 2,
  "StationName": "MRC35049",
  "TaskName": "mario3",
  "TotalReadoutTime": 0.0576811,
  "TxRefAmp": 234.167,
  "WipMemBlock": "897b20a5-adb7-4231-b128-478d2adf901d||Sequence: R017 ve11c/master r/75a17815+; Jun 28 2022 16:32:11 by eja",
  "dcmmeta_affine": [
    [-1.9998174905776978, -0.011169209145009518, -0.02459939382970333, 110.04737854003906],
    [-0.0040117911994457245, 1.9236586093902588, -0.5472856163978577, -73.24537658691406],
    [-0.026716792955994606, 0.5471863746643066, 1.923505425453186, -53.760643005371094],
    [0.0, 0.0, 0.0, 1.0]
],
  "dcmmeta_reorient_transform": [
    [0.0, -1.0, 0.0, 103.0],
    [1.0, 0.0, 0.0, 0.0],
    [0.0, 0.0, 1.0, 0.0],
    [0.0, 0.0, 0.0, 1.0]
],
  "dcmmeta_shape": [104, 104, 60, 347],
  "dcmmeta_slice_dim": 2,
  "dcmmeta_version": 0.6,
  "global": {
    "const": {
      "AcquisitionMatrix": [104, 0, 0, 104],
      "AngioFlag": "N",
      "BitsAllocated": 16,
      "BitsStored": 16,
      "BodyPartExamined": "BRAIN",
      "Columns": 832,
      "EchoNumbers": 1,
      "EchoTime": 37.0,
      "EchoTrainLength": 104,
      "FlipAngle": 52.0,
      "HighBit": 15,
      "ImageOrientationPatient": [0.99990876065557, 0.00200589549804, -0.0133583961422, -0.0055846046157, 0.96182929146982, -0.2735931765632],
      "ImagePositionPatient": [-832.76493384816, -826.56347298463, 211.50029647311],
      "ImageType": [
        "ORIGINAL",
        "PRIMARY",
        "M",
        "MB",
        "ND",
        "MOSAIC"
],
      "ImagedNucleus": "1H",
      "ImagingFrequency": 123.260276,
      "InPlanePhaseEncodingDirection": "COL",
      "MRAcquisitionType": "2D",
      "MagneticFieldStrength": 3.0,
      "Manufacturer": "SIEMENS",
      "ManufacturerModelName": "Prisma_fit",
      "Modality": "MR",
      "NumberOfAverages": 1.0,
      "NumberOfPhaseEncodingSteps": 104,
      "PercentPhaseFieldOfView": 100.0,
      "PercentSampling": 100.0,
      "PerformedProcedureStepStartTime": "180028.315000",
      "PhotometricInterpretation": "MONOCHROME2",
      "PixelBandwidth": 2290.0,
      "PixelRepresentation": 0,
      "PixelSpacing": [2.0, 2.0],
      "ProtocolName": "func_task-mario3_run-02",
      "RepetitionTime": 1490.0,
      "Rows": 832,
      "SAR": 0.05648833043071,
      "SamplesPerPixel": 1,
      "ScanOptions": "FS",
      "ScanningSequence": "EP",
      "SequenceName": "epfid2d1_104",
      "SequenceVariant": [
        "SK",
        "SS"
],
      "SeriesDescription": "func_task-mario3_run-02",
      "SeriesNumber": 13,
      "SeriesTime": "181526.139000",
      "SliceLocation": -33.014923582411,
      "SliceThickness": 2.0,
      "SmallestImagePixelValue": 0,
      "SoftwareVersions": "syngo MR E11",
      "SpacingBetweenSlices": 1.9999999638027,
      "SpecificCharacterSet": "ISO_IR 100",
      "StudyID": "1",
      "StudyTime": "180028.254000",
      "TransmitCoilName": "Body",
      "VariableFlipAngleFlag": "N",
      "WindowCenterWidthExplanation": "Algo1",
      "dBdt": 0.0},
    "slices": {}
  },
  "time": {
    "samples": {
      "AcquisitionNumber": [1, 2, 3, 4, 5, 6, 7, 8, 9, 10, 11, 12, 13, 14, 15, 16, 17, 18, 19, 20, 21, 22, 23, 24, 25, 26, 27, 28, 29, 30, 31, 32, 33, 34, 35, 36, 37, 38, 39, 40, 41, 42, 43, 44, 45, 46, 47, 48, 49, 50, 51, 52, 53, 54, 55, 56, 57, 58, 59, 60, 61, 62, 63, 64, 65, 66, 67, 68, 69, 70, 71, 72, 73, 74, 75, 76, 77, 78, 79, 80, 81, 82, 83, 84, 85, 86, 87, 88, 89, 90, 91, 92, 93, 94, 95, 96, 97, 98, 99, 100, 101, 102, 103, 104, 105, 106, 107, 108, 109, 110, 111, 112, 113, 114, 115, 116, 117, 118, 119, 120, 121, 122, 123, 124, 125, 126, 127, 128, 129, 130, 131, 132, 133, 134, 135, 136, 137, 138, 139, 140, 141, 142, 143, 144, 145, 146, 147, 148, 149, 150, 151, 152, 153, 154, 155, 156, 157, 158, 159, 160, 161, 162, 163, 164, 165, 166, 167, 168, 169, 170, 171, 172, 173, 174, 175, 176, 177, 178, 179, 180, 181, 182, 183, 184, 185, 186, 187, 188, 189, 190, 191, 192, 193, 194, 195, 196, 197, 198, 199, 200, 201, 202, 203, 204, 205, 206, 207, 208, 209, 210, 211, 212, 213, 214, 215, 216, 217, 218, 219, 220, 221, 222, 223, 224, 225, 226, 227, 228, 229, 230, 231, 232, 233, 234, 235, 236, 237, 238, 239, 240, 241, 242, 243, 244, 245, 246, 247, 248, 249, 250, 251, 252, 253, 254, 255, 256, 257, 258, 259, 260, 261, 262, 263, 264, 265, 266, 267, 268, 269, 270, 271, 272, 273, 274, 275, 276, 277, 278, 279, 280, 281, 282, 283, 284, 285, 286, 287, 288, 289, 290, 291, 292, 293, 294, 295, 296, 297, 298, 299, 300, 301, 302, 303, 304, 305, 306, 307, 308, 309, 310, 311, 312, 313, 314, 315, 316, 317, 318, 319, 320, 321, 322, 323, 324, 325, 326, 327, 328, 329, 330, 331, 332, 333, 334, 335, 336, 337, 338, 339, 340, 341, 342, 343, 344, 345, 346, 347],
      "AcquisitionTime": ["181412.395000", "181413.885000", "181415.375000", "181416.865000", "181418.355000", "181419.845000", "181421.335000", "181422.825000", "181424.315000", "181425.805000", "181427.295000", "181428.785000", "181430.275000", "181431.765000", "181433.255000", "181434.745000", "181436.235000", "181437.725000", "181439.215000", "181440.705000", "181442.195000", "181443.685000", "181445.175000", "181446.665000", "181448.155000", "181449.645000", "181451.135000", "181452.625000", "181454.115000", "181455.605000", "181457.095000", "181458.585000", "181500.075000", "181501.565000", "181503.055000", "181504.545000", "181506.035000", "181507.525000", "181509.015000", "181510.505000", "181511.995000", "181513.485000", "181514.975000", "181516.465000", "181517.955000", "181519.445000", "181520.935000", "181522.425000", "181523.915000", "181525.405000", "181526.895000", "181528.385000", "181529.875000", "181531.365000", "181532.855000", "181534.345000", "181535.835000", "181537.325000", "181538.815000", "181540.305000", "181541.795000", "181543.285000", "181544.775000", "181546.265000", "181547.755000", "181549.245000", "181550.735000", "181552.225000", "181553.715000", "181555.205000", "181556.695000", "181558.185000", "181559.675000", "181601.165000", "181602.655000", "181604.145000", "181605.635000", "181607.125000", "181608.615000", "181610.105000", "181611.595000", "181613.085000", "181614.575000", "181616.065000", "181617.555000", "181619.045000", "181620.535000", "181622.025000", "181623.515000", "181625.005000", "181626.495000", "181627.985000", "181629.475000", "181630.965000", "181632.455000", "181633.945000", "181635.435000", "181636.925000", "181638.415000", "181639.905000", "181641.395000", "181642.885000", "181644.375000", "181645.865000", "181647.355000", "181648.845000", "181650.335000", "181651.825000", "181653.315000", "181654.805000", "181656.295000", "181657.785000", "181659.275000", "181700.765000", "181702.255000", "181703.745000", "181705.235000", "181706.725000", "181708.215000", "181709.705000", "181711.195000", "181712.685000", "181714.175000", "181715.665000", "181717.155000", "181718.645000", "181720.135000", "181721.625000", "181723.115000", "181724.605000", "181726.095000", "181727.585000", "181729.075000", "181730.565000", "181732.055000", "181733.545000", "181735.035000", "181736.525000", "181738.015000", "181739.505000", "181740.995000", "181742.485000", "181743.975000", "181745.465000", "181746.955000", "181748.445000", "181749.935000", "181751.425000", "181752.915000", "181754.405000", "181755.895000", "181757.385000", "181758.875000", "181800.365000", "181801.855000", "181803.345000", "181804.835000", "181806.325000", "181807.815000", "181809.305000", "181810.795000", "181812.285000", "181813.775000", "181815.265000", "181816.755000", "181818.245000", "181819.735000", "181821.225000", "181822.715000", "181824.205000", "181825.695000", "181827.185000", "181828.675000", "181830.165000", "181831.655000", "181833.145000", "181834.635000", "181836.125000", "181837.615000", "181839.105000", "181840.595000", "181842.085000", "181843.575000", "181845.065000", "181846.555000", "181848.045000", "181849.535000", "181851.025000", "181852.515000", "181854.005000", "181855.495000", "181856.985000", "181858.475000", "181859.965000", "181901.455000", "181902.945000", "181904.435000", "181905.925000", "181907.415000", "181908.905000", "181910.395000", "181911.885000", "181913.375000", "181914.865000", "181916.355000", "181917.845000", "181919.335000", "181920.825000", "181922.315000", "181923.805000", "181925.295000", "181926.785000", "181928.275000", "181929.765000", "181931.255000", "181932.745000", "181934.235000", "181935.725000", "181937.215000", "181938.705000", "181940.195000", "181941.685000", "181943.175000", "181944.665000", "181946.155000", "181947.645000", "181949.135000", "181950.625000", "181952.115000", "181953.605000", "181955.095000", "181956.585000", "181958.075000", "181959.565000", "182001.055000", "182002.545000", "182004.035000", "182005.525000", "182007.015000", "182008.505000", "182009.995000", "182011.485000", "182012.975000", "182014.465000", "182015.955000", "182017.445000", "182018.935000", "182020.425000", "182021.915000", "182023.405000", "182024.895000", "182026.385000", "182027.875000", "182029.365000", "182030.855000", "182032.345000", "182033.835000", "182035.325000", "182036.815000", "182038.305000", "182039.795000", "182041.285000", "182042.775000", "182044.265000", "182045.755000", "182047.245000", "182048.735000", "182050.225000", "182051.715000", "182053.205000", "182054.695000", "182056.185000", "182057.675000", "182059.165000", "182100.655000", "182102.145000", "182103.635000", "182105.125000", "182106.615000", "182108.105000", "182109.595000", "182111.085000", "182112.575000", "182114.065000", "182115.555000", "182117.045000", "182118.535000", "182120.025000", "182121.515000", "182123.005000", "182124.495000", "182125.985000", "182127.475000", "182128.965000", "182130.455000", "182131.945000", "182133.435000", "182134.925000", "182136.415000", "182137.905000", "182139.395000", "182140.885000", "182142.375000", "182143.865000", "182145.355000", "182146.845000", "182148.335000", "182149.825000", "182151.315000", "182152.805000", "182154.295000", "182155.785000", "182157.275000", "182158.765000", "182200.255000", "182201.745000", "182203.235000", "182204.725000", "182206.215000", "182207.705000", "182209.195000", "182210.685000", "182212.175000", "182213.665000", "182215.155000", "182216.645000", "182218.135000", "182219.625000", "182221.115000", "182222.605000", "182224.095000", "182225.585000", "182227.075000", "182228.565000", "182230.055000", "182231.545000", "182233.035000", "182234.525000", "182236.015000", "182237.505000", "182238.995000", "182240.485000", "182241.975000", "182243.465000", "182244.955000", "182246.445000", "182247.935000"],
      "ContentTime": ["181526.142000", "181526.146000", "181526.149000", "181526.152000", "181526.156000", "181526.159000", "181526.162000", "181526.165000", "181526.169000", "181526.172000", "181526.175000", "181526.178000", "181526.182000", "181526.185000", "181526.188000", "181526.191000", "181526.195000", "181526.198000", "181526.201000", "181526.204000", "181526.207000", "181526.211000", "181526.214000", "181526.217000", "181546.105000", "181546.109000", "181546.112000", "181546.115000", "181546.118000", "181546.122000", "181546.125000", "181546.128000", "181546.143000", "181546.146000", "181546.149000", "181546.152000", "181546.155000", "181546.159000", "181546.162000", "181546.165000", "181546.168000", "181546.172000", "181546.175000", "181546.178000", "181606.105000", "181606.109000", "181606.112000", "181606.115000", "181606.118000", "181606.122000", "181606.125000", "181606.128000", "181606.131000", "181606.135000", "181606.138000", "181606.141000", "181606.145000", "181606.148000", "181606.151000", "181606.155000", "181606.158000", "181606.161000", "181606.165000", "181606.168000", "181626.105000", "181626.109000", "181626.112000", "181626.115000", "181626.118000", "181626.121000", "181626.125000", "181626.128000", "181626.131000", "181626.134000", "181626.138000", "181626.141000", "181626.144000", "181626.147000", "181626.151000", "181626.165000", "181626.168000", "181626.171000", "181626.174000", "181626.178000", "181626.181000", "181706.105000", "181706.109000", "181706.112000", "181706.115000", "181706.118000", "181706.122000", "181706.125000", "181706.128000", "181706.131000", "181706.135000", "181706.138000", "181706.141000", "181706.144000", "181706.148000", "181706.151000", "181706.154000", "181706.157000", "181706.161000", "181706.164000", "181706.168000", "181706.171000", "181706.174000", "181706.178000", "181706.181000", "181706.184000", "181706.187000", "181706.191000", "181706.194000", "181706.197000", "181706.200000", "181706.204000", "181746.104000", "181746.108000", "181746.111000", "181746.114000", "181746.117000", "181746.121000", "181746.125000", "181746.129000", "181746.132000", "181746.135000", "181746.138000", "181746.142000", "181746.145000", "181746.148000", "181746.151000", "181746.155000", "181746.158000", "181746.161000", "181746.164000", "181746.168000", "181746.171000", "181746.174000", "181746.188000", "181746.191000", "181746.195000", "181746.198000", "181826.105000", "181826.109000", "181826.112000", "181826.115000", "181826.119000", "181826.122000", "181826.125000", "181826.128000", "181826.132000", "181826.135000", "181826.138000", "181826.141000", "181826.145000", "181826.148000", "181826.151000", "181826.154000", "181826.158000", "181826.161000", "181826.164000", "181826.167000", "181826.171000", "181826.174000", "181826.177000", "181826.180000", "181826.184000", "181826.187000", "181826.190000", "181906.105000", "181906.109000", "181906.112000", "181906.115000", "181906.118000", "181906.122000", "181906.125000", "181906.128000", "181906.132000", "181906.135000", "181906.139000", "181906.142000", "181906.145000", "181906.148000", "181906.152000", "181906.155000", "181906.158000", "181906.161000", "181906.165000", "181906.168000", "181906.171000", "181906.174000", "181906.178000", "181906.181000", "181906.184000", "181906.187000", "181906.191000", "181946.104000", "181946.108000", "181946.111000", "181946.114000", "181946.118000", "181946.121000", "181946.124000", "181946.127000", "181946.131000", "181946.134000", "181946.137000", "181946.140000", "181946.144000", "181946.147000", "181946.150000", "181946.154000", "181946.157000", "181946.160000", "181946.163000", "181946.166000", "181946.170000", "181946.173000", "181946.176000", "181946.180000", "181946.183000", "181946.186000", "181946.189000", "182026.105000", "182026.109000", "182026.112000", "182026.115000", "182026.135000", "182026.138000", "182026.141000", "182026.145000", "182026.148000", "182026.151000", "182026.154000", "182026.158000", "182026.161000", "182026.164000", "182026.168000", "182026.171000", "182026.174000", "182026.177000", "182026.181000", "182026.184000", "182026.187000", "182026.191000", "182026.194000", "182026.197000", "182026.200000", "182026.204000", "182026.207000", "182106.105000", "182106.109000", "182106.112000", "182106.115000", "182106.119000", "182106.122000", "182106.125000", "182106.128000", "182106.131000", "182106.135000", "182106.138000", "182106.141000", "182106.145000", "182106.148000", "182106.151000", "182106.154000", "182106.158000", "182106.161000", "182106.164000", "182106.167000", "182106.171000", "182106.174000", "182106.177000", "182106.180000", "182106.184000", "182106.187000", "182106.190000", "182146.105000", "182146.109000", "182146.112000", "182146.115000", "182146.119000", "182146.122000", "182146.126000", "182146.129000", "182146.132000", "182146.136000", "182146.139000", "182146.143000", "182146.146000", "182146.149000", "182146.153000", "182146.156000", "182146.159000", "182146.162000", "182146.166000", "182146.169000", "182146.172000", "182146.176000", "182146.179000", "182146.182000", "182146.185000", "182146.189000", "182226.104000", "182226.108000", "182226.111000", "182226.114000", "182226.118000", "182226.121000", "182226.124000", "182226.127000", "182226.131000", "182226.134000", "182226.137000", "182226.141000", "182226.144000", "182226.147000", "182226.151000", "182226.154000", "182226.157000", "182226.160000", "182226.164000", "182226.167000", "182226.170000", "182226.173000", "182226.177000", "182226.180000", "182226.192000", "182226.195000", "182226.199000", "182251.404000", "182251.408000", "182251.412000", "182251.415000", "182251.418000", "182251.421000", "182251.425000", "182251.428000", "182251.431000", "182251.434000", "182251.438000", "182251.441000", "182251.444000", "182251.447000", "182251.451000", "182251.469000", "182251.472000"],
      "InstanceCreationTime": ["181526.142000", "181526.146000", "181526.149000", "181526.152000", "181526.156000", "181526.159000", "181526.162000", "181526.165000", "181526.169000", "181526.172000", "181526.175000", "181526.178000", "181526.182000", "181526.185000", "181526.188000", "181526.191000", "181526.195000", "181526.198000", "181526.201000", "181526.204000", "181526.207000", "181526.211000", "181526.214000", "181526.217000", "181546.105000", "181546.109000", "181546.112000", "181546.115000", "181546.118000", "181546.122000", "181546.125000", "181546.128000", "181546.143000", "181546.146000", "181546.149000", "181546.152000", "181546.155000", "181546.159000", "181546.162000", "181546.165000", "181546.168000", "181546.172000", "181546.175000", "181546.178000", "181606.105000", "181606.109000", "181606.112000", "181606.115000", "181606.118000", "181606.122000", "181606.125000", "181606.128000", "181606.131000", "181606.135000", "181606.138000", "181606.141000", "181606.145000", "181606.148000", "181606.151000", "181606.155000", "181606.158000", "181606.161000", "181606.165000", "181606.168000", "181626.105000", "181626.109000", "181626.112000", "181626.115000", "181626.118000", "181626.121000", "181626.125000", "181626.128000", "181626.131000", "181626.134000", "181626.138000", "181626.141000", "181626.144000", "181626.147000", "181626.151000", "181626.165000", "181626.168000", "181626.171000", "181626.174000", "181626.178000", "181626.181000", "181706.105000", "181706.109000", "181706.112000", "181706.115000", "181706.118000", "181706.122000", "181706.125000", "181706.128000", "181706.131000", "181706.135000", "181706.138000", "181706.141000", "181706.144000", "181706.148000", "181706.151000", "181706.154000", "181706.157000", "181706.161000", "181706.164000", "181706.168000", "181706.171000", "181706.174000", "181706.178000", "181706.181000", "181706.184000", "181706.187000", "181706.191000", "181706.194000", "181706.197000", "181706.200000", "181706.204000", "181746.104000", "181746.108000", "181746.111000", "181746.114000", "181746.117000", "181746.121000", "181746.125000", "181746.129000", "181746.132000", "181746.135000", "181746.138000", "181746.142000", "181746.145000", "181746.148000", "181746.151000", "181746.155000", "181746.158000", "181746.161000", "181746.164000", "181746.168000", "181746.171000", "181746.174000", "181746.188000", "181746.191000", "181746.195000", "181746.198000", "181826.105000", "181826.109000", "181826.112000", "181826.115000", "181826.119000", "181826.122000", "181826.125000", "181826.128000", "181826.132000", "181826.135000", "181826.138000", "181826.141000", "181826.145000", "181826.148000", "181826.151000", "181826.154000", "181826.158000", "181826.161000", "181826.164000", "181826.167000", "181826.171000", "181826.174000", "181826.177000", "181826.180000", "181826.184000", "181826.187000", "181826.190000", "181906.105000", "181906.109000", "181906.112000", "181906.115000", "181906.118000", "181906.122000", "181906.125000", "181906.128000", "181906.132000", "181906.135000", "181906.139000", "181906.142000", "181906.145000", "181906.148000", "181906.152000", "181906.155000", "181906.158000", "181906.161000", "181906.165000", "181906.168000", "181906.171000", "181906.174000", "181906.178000", "181906.181000", "181906.184000", "181906.187000", "181906.191000", "181946.104000", "181946.108000", "181946.111000", "181946.114000", "181946.118000", "181946.121000", "181946.124000", "181946.127000", "181946.131000", "181946.134000", "181946.137000", "181946.140000", "181946.144000", "181946.147000", "181946.150000", "181946.154000", "181946.157000", "181946.160000", "181946.163000", "181946.166000", "181946.170000", "181946.173000", "181946.176000", "181946.180000", "181946.183000", "181946.186000", "181946.189000", "182026.105000", "182026.109000", "182026.112000", "182026.115000", "182026.135000", "182026.138000", "182026.141000", "182026.145000", "182026.148000", "182026.151000", "182026.154000", "182026.158000", "182026.161000", "182026.164000", "182026.168000", "182026.171000", "182026.174000", "182026.177000", "182026.181000", "182026.184000", "182026.187000", "182026.191000", "182026.194000", "182026.197000", "182026.200000", "182026.204000", "182026.207000", "182106.105000", "182106.109000", "182106.112000", "182106.115000", "182106.119000", "182106.122000", "182106.125000", "182106.128000", "182106.131000", "182106.135000", "182106.138000", "182106.141000", "182106.145000", "182106.148000", "182106.151000", "182106.154000", "182106.158000", "182106.161000", "182106.164000", "182106.167000", "182106.171000", "182106.174000", "182106.177000", "182106.180000", "182106.184000", "182106.187000", "182106.190000", "182146.105000", "182146.109000", "182146.112000", "182146.115000", "182146.119000", "182146.122000", "182146.126000", "182146.129000", "182146.132000", "182146.136000", "182146.139000", "182146.143000", "182146.146000", "182146.149000", "182146.153000", "182146.156000", "182146.159000", "182146.162000", "182146.166000", "182146.169000", "182146.172000", "182146.176000", "182146.179000", "182146.182000", "182146.185000", "182146.189000", "182226.104000", "182226.108000", "182226.111000", "182226.114000", "182226.118000", "182226.121000", "182226.124000", "182226.127000", "182226.131000", "182226.134000", "182226.137000", "182226.141000", "182226.144000", "182226.147000", "182226.151000", "182226.154000", "182226.157000", "182226.160000", "182226.164000", "182226.167000", "182226.170000", "182226.173000", "182226.177000", "182226.180000", "182226.192000", "182226.195000", "182226.199000", "182251.404000", "182251.408000", "182251.412000", "182251.415000", "182251.418000", "182251.421000", "182251.425000", "182251.428000", "182251.431000", "182251.434000", "182251.438000", "182251.441000", "182251.444000", "182251.447000", "182251.451000", "182251.469000", "182251.472000"],
      "InstanceNumber": [1, 2, 3, 4, 5, 6, 7, 8, 9, 10, 11, 12, 13, 14, 15, 16, 17, 18, 19, 20, 21, 22, 23, 24, 25, 26, 27, 28, 29, 30, 31, 32, 33, 34, 35, 36, 37, 38, 39, 40, 41, 42, 43, 44, 45, 46, 47, 48, 49, 50, 51, 52, 53, 54, 55, 56, 57, 58, 59, 60, 61, 62, 63, 64, 65, 66, 67, 68, 69, 70, 71, 72, 73, 74, 75, 76, 77, 78, 79, 80, 81, 82, 83, 84, 85, 86, 87, 88, 89, 90, 91, 92, 93, 94, 95, 96, 97, 98, 99, 100, 101, 102, 103, 104, 105, 106, 107, 108, 109, 110, 111, 112, 113, 114, 115, 116, 117, 118, 119, 120, 121, 122, 123, 124, 125, 126, 127, 128, 129, 130, 131, 132, 133, 134, 135, 136, 137, 138, 139, 140, 141, 142, 143, 144, 145, 146, 147, 148, 149, 150, 151, 152, 153, 154, 155, 156, 157, 158, 159, 160, 161, 162, 163, 164, 165, 166, 167, 168, 169, 170, 171, 172, 173, 174, 175, 176, 177, 178, 179, 180, 181, 182, 183, 184, 185, 186, 187, 188, 189, 190, 191, 192, 193, 194, 195, 196, 197, 198, 199, 200, 201, 202, 203, 204, 205, 206, 207, 208, 209, 210, 211, 212, 213, 214, 215, 216, 217, 218, 219, 220, 221, 222, 223, 224, 225, 226, 227, 228, 229, 230, 231, 232, 233, 234, 235, 236, 237, 238, 239, 240, 241, 242, 243, 244, 245, 246, 247, 248, 249, 250, 251, 252, 253, 254, 255, 256, 257, 258, 259, 260, 261, 262, 263, 264, 265, 266, 267, 268, 269, 270, 271, 272, 273, 274, 275, 276, 277, 278, 279, 280, 281, 282, 283, 284, 285, 286, 287, 288, 289, 290, 291, 292, 293, 294, 295, 296, 297, 298, 299, 300, 301, 302, 303, 304, 305, 306, 307, 308, 309, 310, 311, 312, 313, 314, 315, 316, 317, 318, 319, 320, 321, 322, 323, 324, 325, 326, 327, 328, 329, 330, 331, 332, 333, 334, 335, 336, 337, 338, 339, 340, 341, 342, 343, 344, 345, 346, 347],
      "LargestImagePixelValue": [42433, 40869, 40068, 39499, 39644, 40311, 40018, 39545, 40080, 39196, 39520, 39296, 39443, 39503, 39564, 39671, 39161, 40042, 39927, 39542, 39940, 39784, 39893, 39766, 40059, 39598, 40363, 39078, 39514, 38993, 40657, 39679, 40284, 39501, 38776, 40225, 39690, 40371, 38850, 39972, 40068, 39495, 39286, 39250, 39539, 38403, 39561, 39670, 39813, 40093, 39449, 39405, 39349, 39534, 39529, 39759, 39104, 39566, 40809, 39332, 40045, 37790, 40329, 39313, 39384, 38621, 39552, 40914, 39132, 39309, 40172, 38656, 39242, 38810, 39464, 38794, 39436, 39533, 39033, 39459, 38679, 39815, 39915, 39985, 39376, 39066, 39594, 38782, 39016, 40455, 39185, 38391, 39002, 38056, 37992, 38589, 38236, 37866, 38860, 37874, 39487, 38363, 37991, 38604, 38027, 38485, 38667, 38705, 38518, 39002, 38260, 38515, 38847, 38527, 38387, 38998, 38534, 39561, 38986, 39255, 39271, 38174, 38860, 38423, 39223, 38794, 38204, 40583, 39813, 40471, 40256, 39007, 38443, 39046, 38375, 39093, 38340, 38257, 38122, 38338, 38934, 38324, 39336, 39173, 38014, 38477, 38209, 38988, 38951, 39263, 38766, 39234, 38390, 38542, 38910, 38199, 38346, 38615, 38380, 38728, 38456, 37885, 38311, 38683, 39792, 39546, 37482, 38568, 38402, 38247, 39120, 39088, 38735, 37869, 39440, 38663, 37879, 38565, 38807, 38434, 38802, 38836, 38556, 39518, 38808, 38745, 38385, 38728, 38140, 39300, 38852, 38658, 38476, 41429, 38830, 38841, 38615, 38782, 38722, 38525, 38476, 38147, 39246, 39166, 39168, 38351, 39402, 39486, 38821, 38950, 38708, 38940, 39470, 39289, 38797, 39099, 38843, 39260, 38808, 39457, 38800, 38956, 38776, 39060, 38798, 39368, 38478, 39122, 38865, 38536, 38654, 38577, 38657, 38940, 38389, 38705, 39133, 39199, 39012, 39467, 39364, 39712, 38914, 39578, 39328, 39396, 39694, 38503, 38289, 38605, 39090, 38838, 38827, 38731, 38816, 39330, 38866, 38838, 38612, 39514, 39502, 38578, 38603, 38657, 38788, 39895, 39670, 38617, 38788, 38683, 38968, 39031, 38953, 38934, 38709, 38775, 39283, 39116, 39946, 39171, 39520, 38889, 38722, 39749, 38952, 39008, 39078, 38633, 38887, 38506, 40257, 39626, 39646, 39060, 38573, 38701, 39107, 38874, 38886, 38867, 38748, 39134, 38913, 39261, 38378, 36852, 40068, 38916, 38977, 38376, 38121, 38496, 38229, 38918, 38581, 39131, 38772, 38565, 38344, 38216, 38964, 38505, 38478, 39016, 39227, 37501, 39241, 39190, 38356, 38692, 38609, 38313, 38075, 38499, 38278, 38207, 38588, 38406, 38134, 38337, 38171, 37860, 38253, 37845, 37847, 38213, 37958],
