{
  "AcquisitionMatrixPE": 104,
  "AcquisitionNumber": 1,
  "AcquisitionTime": "18:14:12.395000",
  "BandwidthPerPixelPhaseEncode": 17.17,
  "BaseResolution": 104,
  "BodyPartExamined": "BRAIN",
  "CoilCombinationMethod": "Sum of Squares",
  "ConsistencyInfo": "N4_VE11C_LATEST_20160120",
  "ConversionSoftware": "dcm2niix",
  "ConversionSoftwareVersion": "v1.0.20220505",
  "DerivedVendorReportedEchoSpacing": 0.000560011,
  "DeviceSerialNumber": "167006",
  "DwellTime": 2.1e-06,
  "EchoTime": 0.037,
  "EchoTime1": 0.037,
  "EchoTime2": 0.001,
  "EchoTrainLength": 104,
  "EffectiveEchoSpacing": 0.000560011,
  "FlipAngle": 52,
  "HeudiconvVersion": "0.5.3.post811+g6206e14",
  "ImageComments": "Unaliased MB4/PE3/LB",
  "ImageOrientationPatientDICOM": [0.999909, 0.0020059, -0.0133584, -0.0055846, 0.961829, -0.273593],
  "ImageOrientationText": "Tra>Cor(-15.9)>Sag(-0.7)",
  "ImageType": [
    "ORIGINAL",
    "PRIMARY",
    "P",
    "MB",
    "ND",
    "MOSAIC",
    "PHASE"
],
  "ImagingFrequency": 123.26,
  "InPlanePhaseEncodingDirectionDICOM": "COL",
  "InstitutionAddress": "Chemin Queen-Mary 4565,Montreal,District,CA,H3W 1W5",
  "InstitutionName": "IUGM",
  "InstitutionalDepartmentName": "Department",
  "MRAcquisitionType": "2D",
  "MagneticFieldStrength": 3,
  "Manufacturer": "Siemens",
  "ManufacturersModelName": "Prisma_fit",
  "MatrixCoilMode": "SENSE",
  "Modality": "MR",
  "MultibandAccelerationFactor": 4,
  "PartialFourier": 1,
  "PatientPosition": "HFS",
  "PercentPhaseFOV": 100,
  "PercentSampling": 100,
  "PhaseEncodingDirection": "j",
  "PhaseEncodingSteps": 104,
  "PhaseResolution": 1,
  "PixelBandwidth": 2290,
  "ProcedureStepDescription": "games^mario3",
  "ProtocolName": "func_task-mario3_run-02",
  "PulseSequenceDetails": "%CustomerSeq%\\cmrr_mbep2d_bold",
  "ReceiveCoilActiveElements": "HC1-7;NC1,2",
  "ReceiveCoilName": "HeadNeck_64",
  "ReconMatrixPE": 104,
  "RepetitionTime": 1.49,
  "SAR": 0.0564883,
  "ScanOptions": "FS",
  "ScanningSequence": "EP",
  "SequenceName": "epfid2d1_104",
  "SequenceVariant": "SK\\SS",
  "SeriesDescription": "func_task-mario3_run-02",
  "SeriesNumber": 14,
  "ShimSetting": [602, -7219, -8777, 689, 27, 10, 34, -18],
  "SliceThickness": 2,
  "SliceTiming": [0, 0.7825, 0.0975, 0.8825, 0.195, 0.98, 0.295, 1.0775, 0.3925, 1.175, 0.49, 1.2725, 0.5875, 1.3725, 0.685, 0, 0.7825, 0.0975, 0.8825, 0.195, 0.98, 0.295, 1.0775, 0.3925, 1.175, 0.49, 1.2725, 0.5875, 1.3725, 0.685, 0, 0.7825, 0.0975, 0.8825, 0.195, 0.98, 0.295, 1.0775, 0.3925, 1.175, 0.49, 1.2725, 0.5875, 1.3725, 0.685, 0, 0.7825, 0.0975, 0.8825, 0.195, 0.98, 0.295, 1.0775, 0.3925, 1.175, 0.49, 1.2725, 0.5875, 1.3725, 0.685],
  "SoftwareVersions": "syngo MR E11",
  "SpacingBetweenSlices": 2,
  "StationName": "MRC35049",
  "TaskName": "mario3",
  "TotalReadoutTime": 0.0576811,
  "TxRefAmp": 234.167,
  "WipMemBlock": "897b20a5-adb7-4231-b128-478d2adf901d||Sequence: R017 ve11c/master r/75a17815+; Jun 28 2022 16:32:11 by eja",
  "dcmmeta_affine": [
    [-1.9998174905776978, -0.011169209145009518, -0.02459939382970333, 110.04737854003906],
    [-0.0040117911994457245, 1.9236586093902588, -0.5472856163978577, -73.24537658691406],
    [-0.026716792955994606, 0.5471863746643066, 1.923505425453186, -53.760643005371094],
    [0.0, 0.0, 0.0, 1.0]
],
  "dcmmeta_reorient_transform": [
    [0.0, -1.0, 0.0, 103.0],
    [1.0, 0.0, 0.0, 0.0],
    [0.0, 0.0, 1.0, 0.0],
    [0.0, 0.0, 0.0, 1.0]
],
  "dcmmeta_shape": [104, 104, 60, 347],
  "dcmmeta_slice_dim": 2,
  "dcmmeta_version": 0.6,
  "global": {
    "const": {
      "AcquisitionMatrix": [104, 0, 0, 104],
      "AngioFlag": "N",
      "BitsAllocated": 16,
      "BitsStored": 16,
      "BodyPartExamined": "BRAIN",
      "Columns": 832,
      "EchoNumbers": 1,
      "EchoTime": 37.0,
      "EchoTrainLength": 104,
      "FlipAngle": 52.0,
      "HighBit": 15,
      "ImageOrientationPatient": [0.99990876065557, 0.00200589549804, -0.0133583961422, -0.0055846046157, 0.96182929146982, -0.2735931765632],
      "ImagePositionPatient": [-832.76493384816, -826.56347298463, 211.50029647311],
      "ImageType": [
        "ORIGINAL",
        "PRIMARY",
        "P",
        "MB",
        "ND",
        "MOSAIC"
],
      "ImagedNucleus": "1H",
      "ImagingFrequency": 123.260276,
      "InPlanePhaseEncodingDirection": "COL",
      "LargestImagePixelValue": 4095,
      "MRAcquisitionType": "2D",
      "MagneticFieldStrength": 3.0,
      "Manufacturer": "SIEMENS",
      "ManufacturerModelName": "Prisma_fit",
      "Modality": "MR",
      "NumberOfAverages": 1.0,
      "NumberOfPhaseEncodingSteps": 104,
      "PercentPhaseFieldOfView": 100.0,
      "PercentSampling": 100.0,
      "PerformedProcedureStepStartTime": "180028.315000",
      "PhotometricInterpretation": "MONOCHROME2",
      "PixelBandwidth": 2290.0,
      "PixelRepresentation": 0,
      "PixelSpacing": [2.0, 2.0],
      "ProtocolName": "func_task-mario3_run-02",
      "RepetitionTime": 1490.0,
      "RescaleIntercept": -4096.0,
      "RescaleSlope": 2.0,
      "RescaleType": "US",
      "Rows": 832,
      "SAR": 0.05648833043071,
      "SamplesPerPixel": 1,
      "ScanOptions": "FS",
      "ScanningSequence": "EP",
      "SequenceName": "epfid2d1_104",
      "SequenceVariant": [
        "SK",
        "SS"
],
      "SeriesDescription": "func_task-mario3_run-02",
      "SeriesNumber": 14,
      "SeriesTime": "181526.262000",
      "SliceLocation": -33.014923582411,
      "SliceThickness": 2.0,
      "SmallestImagePixelValue": 0,
      "SoftwareVersions": "syngo MR E11",
      "SpacingBetweenSlices": 1.9999999638027,
      "SpecificCharacterSet": "ISO_IR 100",
      "StudyID": "1",
      "StudyTime": "180028.254000",
      "TransmitCoilName": "Body",
      "VariableFlipAngleFlag": "N",
      "WindowCenterWidthExplanation": "Algo1",
      "dBdt": 0.0},
    "slices": {}
  },
  "time": {
    "samples": {
      "AcquisitionNumber": [1, 2, 3, 4, 5, 6, 7, 8, 9, 10, 11, 12, 13, 14, 15, 16, 17, 18, 19, 20, 21, 22, 23, 24, 25, 26, 27, 28, 29, 30, 31, 32, 33, 34, 35, 36, 37, 38, 39, 40, 41, 42, 43, 44, 45, 46, 47, 48, 49, 50, 51, 52, 53, 54, 55, 56, 57, 58, 59, 60, 61, 62, 63, 64, 65, 66, 67, 68, 69, 70, 71, 72, 73, 74, 75, 76, 77, 78, 79, 80, 81, 82, 83, 84, 85, 86, 87, 88, 89, 90, 91, 92, 93, 94, 95, 96, 97, 98, 99, 100, 101, 102, 103, 104, 105, 106, 107, 108, 109, 110, 111, 112, 113, 114, 115, 116, 117, 118, 119, 120, 121, 122, 123, 124, 125, 126, 127, 128, 129, 130, 131, 132, 133, 134, 135, 136, 137, 138, 139, 140, 141, 142, 143, 144, 145, 146, 147, 148, 149, 150, 151, 152, 153, 154, 155, 156, 157, 158, 159, 160, 161, 162, 163, 164, 165, 166, 167, 168, 169, 170, 171, 172, 173, 174, 175, 176, 177, 178, 179, 180, 181, 182, 183, 184, 185, 186, 187, 188, 189, 190, 191, 192, 193, 194, 195, 196, 197, 198, 199, 200, 201, 202, 203, 204, 205, 206, 207, 208, 209, 210, 211, 212, 213, 214, 215, 216, 217, 218, 219, 220, 221, 222, 223, 224, 225, 226, 227, 228, 229, 230, 231, 232, 233, 234, 235, 236, 237, 238, 239, 240, 241, 242, 243, 244, 245, 246, 247, 248, 249, 250, 251, 252, 253, 254, 255, 256, 257, 258, 259, 260, 261, 262, 263, 264, 265, 266, 267, 268, 269, 270, 271, 272, 273, 274, 275, 276, 277, 278, 279, 280, 281, 282, 283, 284, 285, 286, 287, 288, 289, 290, 291, 292, 293, 294, 295, 296, 297, 298, 299, 300, 301, 302, 303, 304, 305, 306, 307, 308, 309, 310, 311, 312, 313, 314, 315, 316, 317, 318, 319, 320, 321, 322, 323, 324, 325, 326, 327, 328, 329, 330, 331, 332, 333, 334, 335, 336, 337, 338, 339, 340, 341, 342, 343, 344, 345, 346, 347],
      "AcquisitionTime": ["181412.395000", "181413.885000", "181415.375000", "181416.865000", "181418.355000", "181419.845000", "181421.335000", "181422.825000", "181424.315000", "181425.805000", "181427.295000", "181428.785000", "181430.275000", "181431.765000", "181433.255000", "181434.745000", "181436.235000", "181437.725000", "181439.215000", "181440.705000", "181442.195000", "181443.685000", "181445.175000", "181446.665000", "181448.155000", "181449.645000", "181451.135000", "181452.625000", "181454.115000", "181455.605000", "181457.095000", "181458.585000", "181500.075000", "181501.565000", "181503.055000", "181504.545000", "181506.035000", "181507.525000", "181509.015000", "181510.505000", "181511.995000", "181513.485000", "181514.975000", "181516.465000", "181517.955000", "181519.445000", "181520.935000", "181522.425000", "181523.915000", "181525.405000", "181526.895000", "181528.385000", "181529.875000", "181531.365000", "181532.855000", "181534.345000", "181535.835000", "181537.325000", "181538.815000", "181540.305000", "181541.795000", "181543.285000", "181544.775000", "181546.265000", "181547.755000", "181549.245000", "181550.735000", "181552.225000", "181553.715000", "181555.205000", "181556.695000", "181558.185000", "181559.675000", "181601.165000", "181602.655000", "181604.145000", "181605.635000", "181607.125000", "181608.615000", "181610.105000", "181611.595000", "181613.085000", "181614.575000", "181616.065000", "181617.555000", "181619.045000", "181620.535000", "181622.025000", "181623.515000", "181625.005000", "181626.495000", "181627.985000", "181629.475000", "181630.965000", "181632.455000", "181633.945000", "181635.435000", "181636.925000", "181638.415000", "181639.905000", "181641.395000", "181642.885000", "181644.375000", "181645.865000", "181647.355000", "181648.845000", "181650.335000", "181651.825000", "181653.315000", "181654.805000", "181656.295000", "181657.785000", "181659.275000", "181700.765000", "181702.255000", "181703.745000", "181705.235000", "181706.725000", "181708.215000", "181709.705000", "181711.195000", "181712.685000", "181714.175000", "181715.665000", "181717.155000", "181718.645000", "181720.135000", "181721.625000", "181723.115000", "181724.605000", "181726.095000", "181727.585000", "181729.075000", "181730.565000", "181732.055000", "181733.545000", "181735.035000", "181736.525000", "181738.015000", "181739.505000", "181740.995000", "181742.485000", "181743.975000", "181745.465000", "181746.955000", "181748.445000", "181749.935000", "181751.425000", "181752.915000", "181754.405000", "181755.895000", "181757.385000", "181758.875000", "181800.365000", "181801.855000", "181803.345000", "181804.835000", "181806.325000", "181807.815000", "181809.305000", "181810.795000", "181812.285000", "181813.775000", "181815.265000", "181816.755000", "181818.245000", "181819.735000", "181821.225000", "181822.715000", "181824.205000", "181825.695000", "181827.185000", "181828.675000", "181830.165000", "181831.655000", "181833.145000", "181834.635000", "181836.125000", "181837.615000", "181839.105000", "181840.595000", "181842.085000", "181843.575000", "181845.065000", "181846.555000", "181848.045000", "181849.535000", "181851.025000", "181852.515000", "181854.005000", "181855.495000", "181856.985000", "181858.475000", "181859.965000", "181901.455000", "181902.945000", "181904.435000", "181905.925000", "181907.415000", "181908.905000", "181910.395000", "181911.885000", "181913.375000", "181914.865000", "181916.355000", "181917.845000", "181919.335000", "181920.825000", "181922.315000", "181923.805000", "181925.295000", "181926.785000", "181928.275000", "181929.765000", "181931.255000", "181932.745000", "181934.235000", "181935.725000", "181937.215000", "181938.705000", "181940.195000", "181941.685000", "181943.175000", "181944.665000", "181946.155000", "181947.645000", "181949.135000", "181950.625000", "181952.115000", "181953.605000", "181955.095000", "181956.585000", "181958.075000", "181959.565000", "182001.055000", "182002.545000", "182004.035000", "182005.525000", "182007.015000", "182008.505000", "182009.995000", "182011.485000", "182012.975000", "182014.465000", "182015.955000", "182017.445000", "182018.935000", "182020.425000", "182021.915000", "182023.405000", "182024.895000", "182026.385000", "182027.875000", "182029.365000", "182030.855000", "182032.345000", "182033.835000", "182035.325000", "182036.815000", "182038.305000", "182039.795000", "182041.285000", "182042.775000", "182044.265000", "182045.755000", "182047.245000", "182048.735000", "182050.225000", "182051.715000", "182053.205000", "182054.695000", "182056.185000", "182057.675000", "182059.165000", "182100.655000", "182102.145000", "182103.635000", "182105.125000", "182106.615000", "182108.105000", "182109.595000", "182111.085000", "182112.575000", "182114.065000", "182115.555000", "182117.045000", "182118.535000", "182120.025000", "182121.515000", "182123.005000", "182124.495000", "182125.985000", "182127.475000", "182128.965000", "182130.455000", "182131.945000", "182133.435000", "182134.925000", "182136.415000", "182137.905000", "182139.395000", "182140.885000", "182142.375000", "182143.865000", "182145.355000", "182146.845000", "182148.335000", "182149.825000", "182151.315000", "182152.805000", "182154.295000", "182155.785000", "182157.275000", "182158.765000", "182200.255000", "182201.745000", "182203.235000", "182204.725000", "182206.215000", "182207.705000", "182209.195000", "182210.685000", "182212.175000", "182213.665000", "182215.155000", "182216.645000", "182218.135000", "182219.625000", "182221.115000", "182222.605000", "182224.095000", "182225.585000", "182227.075000", "182228.565000", "182230.055000", "182231.545000", "182233.035000", "182234.525000", "182236.015000", "182237.505000", "182238.995000", "182240.485000", "182241.975000", "182243.465000", "182244.955000", "182246.445000", "182247.935000"],
      "ContentTime": ["181526.264000", "181526.267000", "181526.269000", "181526.272000", "181526.274000", "181526.277000", "181526.279000", "181526.282000", "181526.284000", "181526.287000", "181526.289000", "181526.292000", "181526.294000", "181526.296000", "181526.299000", "181526.309000", "181526.311000", "181526.313000", "181526.316000", "181526.318000", "181526.321000", "181526.323000", "181526.326000", "181526.328000", "181546.217000", "181546.219000", "181546.222000", "181546.224000", "181546.227000", "181546.229000", "181546.232000", "181546.234000", "181546.237000", "181546.239000", "181546.242000", "181546.244000", "181546.246000", "181546.249000", "181546.251000", "181546.254000", "181546.256000", "181546.259000", "181546.261000", "181546.264000", "181606.227000", "181606.230000", "181606.232000", "181606.235000", "181606.237000", "181606.240000", "181606.242000", "181606.245000", "181606.247000", "181606.250000", "181606.252000", "181606.255000", "181606.262000", "181606.265000", "181606.267000", "181606.269000", "181606.272000", "181606.274000", "181606.277000", "181606.279000", "181626.237000", "181626.240000", "181626.242000", "181626.245000", "181626.247000", "181626.249000", "181626.252000", "181626.254000", "181626.257000", "181626.259000", "181626.262000", "181626.264000", "181626.267000", "181626.270000", "181626.272000", "181626.275000", "181626.277000", "181626.280000", "181626.282000", "181626.285000", "181626.287000", "181706.262000", "181706.265000", "181706.267000", "181706.270000", "181706.272000", "181706.275000", "181706.277000", "181706.279000", "181706.282000", "181706.284000", "181706.287000", "181706.289000", "181706.292000", "181706.294000", "181706.297000", "181706.299000", "181706.302000", "181706.304000", "181706.307000", "181706.309000", "181706.312000", "181706.314000", "181706.317000", "181706.319000", "181706.321000", "181706.324000", "181706.326000", "181706.329000", "181706.331000", "181706.334000", "181706.336000", "181746.241000", "181746.244000", "181746.246000", "181746.249000", "181746.251000", "181746.254000", "181746.256000", "181746.259000", "181746.261000", "181746.264000", "181746.266000", "181746.269000", "181746.271000", "181746.274000", "181746.276000", "181746.279000", "181746.281000", "181746.284000", "181746.286000", "181746.289000", "181746.291000", "181746.293000", "181746.296000", "181746.298000", "181746.301000", "181746.303000", "181826.249000", "181826.252000", "181826.254000", "181826.257000", "181826.269000", "181826.272000", "181826.274000", "181826.276000", "181826.279000", "181826.281000", "181826.284000", "181826.286000", "181826.289000", "181826.291000", "181826.294000", "181826.296000", "181826.299000", "181826.301000", "181826.304000", "181826.306000", "181826.309000", "181826.311000", "181826.314000", "181826.316000", "181826.319000", "181826.321000", "181826.324000", "181906.240000", "181906.242000", "181906.245000", "181906.247000", "181906.250000", "181906.252000", "181906.255000", "181906.257000", "181906.260000", "181906.262000", "181906.265000", "181906.267000", "181906.270000", "181906.272000", "181906.275000", "181906.277000", "181906.279000", "181906.282000", "181906.284000", "181906.287000", "181906.289000", "181906.292000", "181906.294000", "181906.297000", "181906.299000", "181906.302000", "181906.304000", "181946.236000", "181946.239000", "181946.241000", "181946.244000", "181946.246000", "181946.249000", "181946.251000", "181946.254000", "181946.256000", "181946.258000", "181946.261000", "181946.263000", "181946.266000", "181946.268000", "181946.271000", "181946.273000", "181946.276000", "181946.278000", "181946.281000", "181946.283000", "181946.286000", "181946.288000", "181946.291000", "181946.293000", "181946.295000", "181946.298000", "181946.300000", "182026.256000", "182026.259000", "182026.261000", "182026.264000", "182026.266000", "182026.269000", "182026.271000", "182026.274000", "182026.276000", "182026.279000", "182026.281000", "182026.283000", "182026.286000", "182026.288000", "182026.291000", "182026.293000", "182026.296000", "182026.298000", "182026.301000", "182026.303000", "182026.306000", "182026.308000", "182026.311000", "182026.313000", "182026.316000", "182026.318000", "182026.321000", "182106.241000", "182106.244000", "182106.246000", "182106.249000", "182106.251000", "182106.254000", "182106.256000", "182106.259000", "182106.261000", "182106.263000", "182106.266000", "182106.268000", "182106.271000", "182106.273000", "182106.276000", "182106.278000", "182106.281000", "182106.283000", "182106.286000", "182106.288000", "182106.291000", "182106.293000", "182106.296000", "182106.299000", "182106.301000", "182106.304000", "182106.306000", "182146.237000", "182146.240000", "182146.243000", "182146.245000", "182146.248000", "182146.250000", "182146.252000", "182146.255000", "182146.257000", "182146.260000", "182146.262000", "182146.265000", "182146.267000", "182146.270000", "182146.272000", "182146.275000", "182146.277000", "182146.280000", "182146.282000", "182146.285000", "182146.287000", "182146.290000", "182146.292000", "182146.295000", "182146.297000", "182146.300000", "182226.269000", "182226.271000", "182226.274000", "182226.276000", "182226.279000", "182226.281000", "182226.284000", "182226.286000", "182226.296000", "182226.299000", "182226.301000", "182226.304000", "182226.306000", "182226.309000", "182226.311000", "182226.314000", "182226.316000", "182226.319000", "182226.321000", "182226.324000", "182226.326000", "182226.328000", "182226.331000", "182226.333000", "182226.336000", "182226.338000", "182226.341000", "182252.125000", "182252.128000", "182252.130000", "182252.133000", "182252.135000", "182252.138000", "182252.140000", "182252.143000", "182252.145000", "182252.148000", "182252.150000", "182252.153000", "182252.155000", "182252.158000", "182252.160000", "182252.163000", "182252.165000"],
      "InstanceCreationTime": ["181526.264000", "181526.267000", "181526.269000", "181526.272000", "181526.274000", "181526.277000", "181526.279000", "181526.282000", "181526.284000", "181526.287000", "181526.289000", "181526.292000", "181526.294000", "181526.296000", "181526.299000", "181526.309000", "181526.311000", "181526.313000", "181526.316000", "181526.318000", "181526.321000", "181526.323000", "181526.326000", "181526.328000", "181546.217000", "181546.219000", "181546.222000", "181546.224000", "181546.227000", "181546.229000", "181546.232000", "181546.234000", "181546.237000", "181546.239000", "181546.242000", "181546.244000", "181546.246000", "181546.249000", "181546.251000", "181546.254000", "181546.256000", "181546.259000", "181546.261000", "181546.264000", "181606.227000", "181606.230000", "181606.232000", "181606.235000", "181606.237000", "181606.240000", "181606.242000", "181606.245000", "181606.247000", "181606.250000", "181606.252000", "181606.255000", "181606.262000", "181606.265000", "181606.267000", "181606.269000", "181606.272000", "181606.274000", "181606.277000", "181606.279000", "181626.237000", "181626.240000", "181626.242000", "181626.245000", "181626.247000", "181626.249000", "181626.252000", "181626.254000", "181626.257000", "181626.259000", "181626.262000", "181626.264000", "181626.267000", "181626.270000", "181626.272000", "181626.275000", "181626.277000", "181626.280000", "181626.282000", "181626.285000", "181626.287000", "181706.262000", "181706.265000", "181706.267000", "181706.270000", "181706.272000", "181706.275000", "181706.277000", "181706.279000", "181706.282000", "181706.284000", "181706.287000", "181706.289000", "181706.292000", "181706.294000", "181706.297000", "181706.299000", "181706.302000", "181706.304000", "181706.307000", "181706.309000", "181706.312000", "181706.314000", "181706.317000", "181706.319000", "181706.321000", "181706.324000", "181706.326000", "181706.329000", "181706.331000", "181706.334000", "181706.336000", "181746.241000", "181746.244000", "181746.246000", "181746.249000", "181746.251000", "181746.254000", "181746.256000", "181746.259000", "181746.261000", "181746.264000", "181746.266000", "181746.269000", "181746.271000", "181746.274000", "181746.276000", "181746.279000", "181746.281000", "181746.284000", "181746.286000", "181746.289000", "181746.291000", "181746.293000", "181746.296000", "181746.298000", "181746.301000", "181746.303000", "181826.249000", "181826.252000", "181826.254000", "181826.257000", "181826.269000", "181826.272000", "181826.274000", "181826.276000", "181826.279000", "181826.281000", "181826.284000", "181826.286000", "181826.289000", "181826.291000", "181826.294000", "181826.296000", "181826.299000", "181826.301000", "181826.304000", "181826.306000", "181826.309000", "181826.311000", "181826.314000", "181826.316000", "181826.319000", "181826.321000", "181826.324000", "181906.240000", "181906.242000", "181906.245000", "181906.247000", "181906.250000", "181906.252000", "181906.255000", "181906.257000", "181906.260000", "181906.262000", "181906.265000", "181906.267000", "181906.270000", "181906.272000", "181906.275000", "181906.277000", "181906.279000", "181906.282000", "181906.284000", "181906.287000", "181906.289000", "181906.292000", "181906.294000", "181906.297000", "181906.299000", "181906.302000", "181906.304000", "181946.236000", "181946.239000", "181946.241000", "181946.244000", "181946.246000", "181946.249000", "181946.251000", "181946.254000", "181946.256000", "181946.258000", "181946.261000", "181946.263000", "181946.266000", "181946.268000", "181946.271000", "181946.273000", "181946.276000", "181946.278000", "181946.281000", "181946.283000", "181946.286000", "181946.288000", "181946.291000", "181946.293000", "181946.295000", "181946.298000", "181946.300000", "182026.256000", "182026.259000", "182026.261000", "182026.264000", "182026.266000", "182026.269000", "182026.271000", "182026.274000", "182026.276000", "182026.279000", "182026.281000", "182026.283000", "182026.286000", "182026.288000", "182026.291000", "182026.293000", "182026.296000", "182026.298000", "182026.301000", "182026.303000", "182026.306000", "182026.308000", "182026.311000", "182026.313000", "182026.316000", "182026.318000", "182026.321000", "182106.241000", "182106.244000", "182106.246000", "182106.249000", "182106.251000", "182106.254000", "182106.256000", "182106.259000", "182106.261000", "182106.263000", "182106.266000", "182106.268000", "182106.271000", "182106.273000", "182106.276000", "182106.278000", "182106.281000", "182106.283000", "182106.286000", "182106.288000", "182106.291000", "182106.293000", "182106.296000", "182106.299000", "182106.301000", "182106.304000", "182106.306000", "182146.237000", "182146.240000", "182146.243000", "182146.245000", "182146.248000", "182146.250000", "182146.252000", "182146.255000", "182146.257000", "182146.260000", "182146.262000", "182146.265000", "182146.267000", "182146.270000", "182146.272000", "182146.275000", "182146.277000", "182146.280000", "182146.282000", "182146.285000", "182146.287000", "182146.290000", "182146.292000", "182146.295000", "182146.297000", "182146.300000", "182226.269000", "182226.271000", "182226.274000", "182226.276000", "182226.279000", "182226.281000", "182226.284000", "182226.286000", "182226.296000", "182226.299000", "182226.301000", "182226.304000", "182226.306000", "182226.309000", "182226.311000", "182226.314000", "182226.316000", "182226.319000", "182226.321000", "182226.324000", "182226.326000", "182226.328000", "182226.331000", "182226.333000", "182226.336000", "182226.338000", "182226.341000", "182252.125000", "182252.128000", "182252.130000", "182252.133000", "182252.135000", "182252.138000", "182252.140000", "182252.143000", "182252.145000", "182252.148000", "182252.150000", "182252.153000", "182252.155000", "182252.158000", "182252.160000", "182252.163000", "182252.165000"],
      "InstanceNumber": [1, 2, 3, 4, 5, 6, 7, 8, 9, 10, 11, 12, 13, 14, 15, 16, 17, 18, 19, 20, 21, 22, 23, 24, 25, 26, 27, 28, 29, 30, 31, 32, 33, 34, 35, 36, 37, 38, 39, 40, 41, 42, 43, 44, 45, 46, 47, 48, 49, 50, 51, 52, 53, 54, 55, 56, 57, 58, 59, 60, 61, 62, 63, 64, 65, 66, 67, 68, 69, 70, 71, 72, 73, 74, 75, 76, 77, 78, 79, 80, 81, 82, 83, 84, 85, 86, 87, 88, 89, 90, 91, 92, 93, 94, 95, 96, 97, 98, 99, 100, 101, 102, 103, 104, 105, 106, 107, 108, 109, 110, 111, 112, 113, 114, 115, 116, 117, 118, 119, 120, 121, 122, 123, 124, 125, 126, 127, 128, 129, 130, 131, 132, 133, 134, 135, 136, 137, 138, 139, 140, 141, 142, 143, 144, 145, 146, 147, 148, 149, 150, 151, 152, 153, 154, 155, 156, 157, 158, 159, 160, 161, 162, 163, 164, 165, 166, 167, 168, 169, 170, 171, 172, 173, 174, 175, 176, 177, 178, 179, 180, 181, 182, 183, 184, 185, 186, 187, 188, 189, 190, 191, 192, 193, 194, 195, 196, 197, 198, 199, 200, 201, 202, 203, 204, 205, 206, 207, 208, 209, 210, 211, 212, 213, 214, 215, 216, 217, 218, 219, 220, 221, 222, 223, 224, 225, 226, 227, 228, 229, 230, 231, 232, 233, 234, 235, 236, 237, 238, 239, 240, 241, 242, 243, 244, 245, 246, 247, 248, 249, 250, 251, 252, 253, 254, 255, 256, 257, 258, 259, 260, 261, 262, 263, 264, 265, 266, 267, 268, 269, 270, 271, 272, 273, 274, 275, 276, 277, 278, 279, 280, 281, 282, 283, 284, 285, 286, 287, 288, 289, 290, 291, 292, 293, 294, 295, 296, 297, 298, 299, 300, 301, 302, 303, 304, 305, 306, 307, 308, 309, 310, 311, 312, 313, 314, 315, 316, 317, 318, 319, 320, 321, 322, 323, 324, 325, 326, 327, 328, 329, 330, 331, 332, 333, 334, 335, 336, 337, 338, 339, 340, 341, 342, 343, 344, 345, 346, 347],
      "WindowCenter": [4864.0, 4860.0, 4834.0, 4864.0, 4862.0, 4862.0, 4858.0, 4860.0, 4862.0, 4864.0, 4862.0, 4866.0, 4862.0, 4862.0, 4860.0, 4868.0, 4864.0, 4862.0, 4860.0, 4864.0, 4864.0, 4866.0, 4862.0, 4862.0, 4892.0, 4870.0, 4866.0, 4868.0, 4866.0, 4868.0, 4864.0, 4866.0, 4868.0, 4866.0, 4866.0, 4866.0, 4864.0, 4864.0, 4890.0, 4866.0, 4866.0, 4864.0, 4866.0, 4866.0, 4868.0, 4868.0, 4866.0, 4866.0, 4866.0, 4868.0, 4864.0, 4866.0, 4868.0, 4868.0, 4864.0, 4864.0, 4864.0, 4870.0, 4892.0, 4892.0, 4890.0, 4868.0, 4892.0, 4892.0, 4888.0, 4868.0, 4866.0, 4862.0, 4866.0, 4892.0, 4870.0, 4894.0, 4888.0, 4868.0, 4870.0, 4890.0, 4890.0, 4890.0, 4864.0, 4890.0, 4892.0, 4892.0, 4866.0, 4868.0, 4866.0, 4868.0, 4886.0, 4882.0, 4884.0, 4888.0, 4886.0, 4864.0, 4866.0, 4864.0, 4864.0, 4864.0, 4864.0, 4862.0, 4864.0, 4886.0, 4862.0, 4884.0, 4864.0, 4866.0, 4868.0, 4866.0, 4864.0, 4866.0, 4886.0, 4858.0, 4864.0, 4862.0, 4886.0, 4864.0, 4866.0, 4866.0, 4870.0, 4868.0, 4864.0, 4888.0, 4888.0, 4888.0, 4886.0, 4868.0, 4868.0, 4868.0, 4892.0, 4870.0, 4870.0, 4886.0, 4882.0, 4904.0, 4904.0, 4888.0, 4868.0, 4862.0, 4864.0, 4864.0, 4864.0, 4886.0, 4862.0, 4884.0, 4882.0, 4886.0, 4866.0, 4864.0, 4864.0, 4862.0, 4864.0, 4866.0, 4864.0, 4864.0, 4862.0, 4864.0, 4866.0, 4862.0, 4866.0, 4866.0, 4866.0, 4866.0, 4866.0, 4860.0, 4890.0, 4888.0, 4888.0, 4860.0, 4862.0, 4864.0, 4862.0, 4864.0, 4888.0, 4888.0, 4866.0, 4864.0, 4890.0, 4888.0, 4886.0, 4888.0, 4864.0, 4864.0, 4886.0, 4866.0, 4862.0, 4888.0, 4888.0, 4890.0, 4866.0, 4862.0, 4894.0, 4890.0, 4864.0, 4860.0, 4860.0, 4884.0, 4882.0, 4882.0, 4888.0, 4884.0, 4864.0, 4888.0, 4862.0, 4888.0, 4864.0, 4864.0, 4862.0, 4864.0, 4858.0, 4860.0, 4864.0, 4864.0, 4866.0, 4886.0, 4888.0, 4886.0, 4864.0, 4864.0, 4892.0, 4868.0, 4864.0, 4866.0, 4866.0, 4890.0, 4864.0, 4864.0, 4862.0, 4864.0, 4864.0, 4864.0, 4864.0, 4862.0, 4866.0, 4862.0, 4862.0, 4862.0, 4886.0, 4862.0, 4888.0, 4884.0, 4894.0, 4862.0, 4840.0, 4868.0, 4868.0, 4870.0, 4866.0, 4892.0, 4886.0, 4864.0, 4866.0, 4866.0, 4866.0, 4866.0, 4862.0, 4860.0, 4864.0, 4860.0, 4884.0, 4864.0, 4882.0, 4886.0, 4884.0, 4864.0, 4868.0, 4866.0, 4866.0, 4864.0, 4888.0, 4866.0, 4864.0, 4890.0, 4860.0, 4882.0, 4864.0, 4836.0, 4858.0, 4862.0, 4862.0, 4860.0, 4884.0, 4862.0, 4862.0, 4888.0, 4862.0, 4864.0, 4860.0, 4858.0, 4864.0, 4860.0, 4862.0, 4860.0, 4866.0, 4860.0, 4860.0, 4860.0, 4862.0, 4862.0, 4862.0, 4862.0, 4862.0, 4836.0, 4862.0, 4858.0, 4862.0, 4864.0, 4862.0, 4862.0, 4862.0, 4864.0, 4860.0, 4862.0, 4862.0, 4864.0, 4860.0, 4862.0, 4860.0, 4862.0, 4860.0, 4860.0, 4862.0, 4862.0, 4860.0, 4860.0, 4860.0, 4862.0, 4860.0, 4862.0, 4862.0, 4862.0, 4862.0, 4858.0, 4860.0, 4862.0, 4864.0, 4864.0, 4864.0, 4862.0, 4864.0, 4864.0, 4862.0, 4860.0, 4860.0, 4860.0, 4860.0, 4862.0, 4864.0, 4864.0, 4860.0],
