{
  "AcquisitionMatrixPE": 104,
  "AcquisitionNumber": 1,
  "AcquisitionTime": "16:28:18.692500",
  "BandwidthPerPixelPhaseEncode": 17.17,
  "BaseResolution": 104,
  "BodyPartExamined": "BRAIN",
  "CoilCombinationMethod": "Sum of Squares",
  "ConsistencyInfo": "N4_VE11C_LATEST_20160120",
  "ConversionSoftware": "dcm2niix",
  "ConversionSoftwareVersion": "v1.0.20220505",
  "DerivedVendorReportedEchoSpacing": 0.000560011,
  "DeviceSerialNumber": "167006",
  "DwellTime": 2.1e-06,
  "EchoTime": 0.037,
  "EchoTime1": 0.037,
  "EchoTime2": 0.001,
  "EchoTrainLength": 104,
  "EffectiveEchoSpacing": 0.000560011,
  "FlipAngle": 52,
  "HeudiconvVersion": "0.5.3.post811+g6206e14",
  "ImageComments": "Unaliased MB4/PE3/LB",
  "ImageOrientationPatientDICOM": [0.99869, 0.00632776, 0.0507711, 0.0223146, 0.8391, -0.543519],
  "ImageOrientationText": "Tra>Cor(-33.0)>Sag(2.6)",
  "ImageType": [
    "ORIGINAL",
    "PRIMARY",
    "P",
    "MB",
    "ND",
    "MOSAIC",
    "PHASE"
],
  "ImagingFrequency": 123.259,
  "InPlanePhaseEncodingDirectionDICOM": "COL",
  "InstitutionAddress": "Chemin Queen-Mary 4565,Montreal,District,CA,H3W 1W5",
  "InstitutionName": "IUGM",
  "InstitutionalDepartmentName": "Department",
  "MRAcquisitionType": "2D",
  "MagneticFieldStrength": 3,
  "Manufacturer": "Siemens",
  "ManufacturersModelName": "Prisma_fit",
  "MatrixCoilMode": "SENSE",
  "Modality": "MR",
  "MultibandAccelerationFactor": 4,
  "PartialFourier": 1,
  "PatientPosition": "HFS",
  "PercentPhaseFOV": 100,
  "PercentSampling": 100,
  "PhaseEncodingDirection": "j",
  "PhaseEncodingSteps": 104,
  "PhaseResolution": 1,
  "PixelBandwidth": 2290,
  "ProcedureStepDescription": "games^mario3",
  "ProtocolName": "func_task-mario3_run-01",
  "PulseSequenceDetails": "%CustomerSeq%\\cmrr_mbep2d_bold",
  "ReceiveCoilActiveElements": "HC1-7;NC1,2",
  "ReceiveCoilName": "HeadNeck_64",
  "ReconMatrixPE": 104,
  "RepetitionTime": 1.49,
  "SAR": 0.0958155,
  "ScanOptions": "FS",
  "ScanningSequence": "EP",
  "SequenceName": "epfid2d1_104",
  "SequenceVariant": "SK\\SS",
  "SeriesDescription": "func_task-mario3_run-01",
  "SeriesNumber": 11,
  "ShimSetting": [628, -7193, -8870, 224, 50, -216, -39, 58],
  "SliceThickness": 2,
  "SliceTiming": [0, 0.7825, 0.0975, 0.8825, 0.195, 0.98, 0.2925, 1.0775, 0.3925, 1.175, 0.49, 1.2725, 0.5875, 1.3725, 0.685, 0, 0.7825, 0.0975, 0.8825, 0.195, 0.98, 0.2925, 1.0775, 0.3925, 1.175, 0.49, 1.2725, 0.5875, 1.3725, 0.685, 0, 0.7825, 0.0975, 0.8825, 0.195, 0.98, 0.2925, 1.0775, 0.3925, 1.175, 0.49, 1.2725, 0.5875, 1.3725, 0.685, 0, 0.7825, 0.0975, 0.8825, 0.195, 0.98, 0.2925, 1.0775, 0.3925, 1.175, 0.49, 1.2725, 0.5875, 1.3725, 0.685],
  "SoftwareVersions": "syngo MR E11",
  "SpacingBetweenSlices": 2,
  "StationName": "MRC35049",
  "TaskName": "mario3",
  "TotalReadoutTime": 0.0576811,
  "TxRefAmp": 321.071,
  "WipMemBlock": "d5784be4-4700-4642-b18d-d00a2116952f||Sequence: R017 ve11c/master r/75a17815+; Jun 28 2022 16:32:11 by eja",
  "dcmmeta_affine": [
    [-1.9973804950714111, 0.0446292906999588, 0.09208263456821442, 102.88335418701172],
    [-0.01265551708638668, 1.6782008409500122, -1.0878794193267822, -46.65126419067383],
    [0.10154221951961517, 1.087037205696106, 1.6757205724716187, -95.35989379882812],
    [0.0, 0.0, 0.0, 1.0]
],
  "dcmmeta_reorient_transform": [
    [0.0, -1.0, 0.0, 103.0],
    [1.0, 0.0, 0.0, 0.0],
    [0.0, 0.0, 1.0, 0.0],
    [0.0, 0.0, 0.0, 1.0]
],
  "dcmmeta_shape": [104, 104, 60, 333],
  "dcmmeta_slice_dim": 2,
  "dcmmeta_version": 0.6,
  "global": {
    "const": {
      "AcquisitionMatrix": [104, 0, 0, 104],
      "AngioFlag": "N",
      "BitsAllocated": 16,
      "BitsStored": 16,
      "BodyPartExamined": "BRAIN",
      "Columns": 832,
      "EchoNumbers": 1,
      "EchoTime": 37.0,
      "EchoTrainLength": 104,
      "FlipAngle": 52.0,
      "HighBit": 15,
      "ImageOrientationPatient": [0.99869026926487, 0.00632775836548, 0.05077110940018, 0.022314644916, 0.83910044691734, -0.5435186258128],
      "ImagePositionPatient": [-850.77175052476, -741.6751631271, 375.3251369939],
      "ImageType": [
        "ORIGINAL",
        "PRIMARY",
        "P",
        "MB",
        "ND",
        "MOSAIC"
],
      "ImagedNucleus": "1H",
      "ImagingFrequency": 123.258785,
      "InPlanePhaseEncodingDirection": "COL",
      "LargestImagePixelValue": 4095,
      "MRAcquisitionType": "2D",
      "MagneticFieldStrength": 3.0,
      "Manufacturer": "SIEMENS",
      "ManufacturerModelName": "Prisma_fit",
      "Modality": "MR",
      "NumberOfAverages": 1.0,
      "NumberOfPhaseEncodingSteps": 104,
      "PercentPhaseFieldOfView": 100.0,
      "PercentSampling": 100.0,
      "PerformedProcedureStepStartTime": "162500.322000",
      "PhotometricInterpretation": "MONOCHROME2",
      "PixelBandwidth": 2290.0,
      "PixelRepresentation": 0,
      "PixelSpacing": [2.0, 2.0],
      "ProtocolName": "func_task-mario3_run-01",
      "RepetitionTime": 1490.0,
      "RescaleIntercept": -4096.0,
      "RescaleSlope": 2.0,
      "RescaleType": "US",
      "Rows": 832,
      "SAR": 0.09581549816711,
      "SamplesPerPixel": 1,
      "ScanOptions": "FS",
      "ScanningSequence": "EP",
      "SequenceName": "epfid2d1_104",
      "SequenceVariant": [
        "SK",
        "SS"
],
      "SeriesDescription": "func_task-mario3_run-01",
      "SeriesNumber": 11,
      "SeriesTime": "162945.578000",
      "SliceLocation": -49.785904022897,
      "SliceThickness": 2.0,
      "SmallestImagePixelValue": 0,
      "SoftwareVersions": "syngo MR E11",
      "SpacingBetweenSlices": 2.0000000343028,
      "SpecificCharacterSet": "ISO_IR 100",
      "StudyID": "1",
      "StudyTime": "162500.245000",
      "TransmitCoilName": "Body",
      "VariableFlipAngleFlag": "N",
      "WindowCenterWidthExplanation": "Algo1",
      "dBdt": 0.0},
    "slices": {}
  },
  "time": {
    "samples": {
      "AcquisitionNumber": [1, 2, 3, 4, 5, 6, 7, 8, 9, 10, 11, 12, 13, 14, 15, 16, 17, 18, 19, 20, 21, 22, 23, 24, 25, 26, 27, 28, 29, 30, 31, 32, 33, 34, 35, 36, 37, 38, 39, 40, 41, 42, 43, 44, 45, 46, 47, 48, 49, 50, 51, 52, 53, 54, 55, 56, 57, 58, 59, 60, 61, 62, 63, 64, 65, 66, 67, 68, 69, 70, 71, 72, 73, 74, 75, 76, 77, 78, 79, 80, 81, 82, 83, 84, 85, 86, 87, 88, 89, 90, 91, 92, 93, 94, 95, 96, 97, 98, 99, 100, 101, 102, 103, 104, 105, 106, 107, 108, 109, 110, 111, 112, 113, 114, 115, 116, 117, 118, 119, 120, 121, 122, 123, 124, 125, 126, 127, 128, 129, 130, 131, 132, 133, 134, 135, 136, 137, 138, 139, 140, 141, 142, 143, 144, 145, 146, 147, 148, 149, 150, 151, 152, 153, 154, 155, 156, 157, 158, 159, 160, 161, 162, 163, 164, 165, 166, 167, 168, 169, 170, 171, 172, 173, 174, 175, 176, 177, 178, 179, 180, 181, 182, 183, 184, 185, 186, 187, 188, 189, 190, 191, 192, 193, 194, 195, 196, 197, 198, 199, 200, 201, 202, 203, 204, 205, 206, 207, 208, 209, 210, 211, 212, 213, 214, 215, 216, 217, 218, 219, 220, 221, 222, 223, 224, 225, 226, 227, 228, 229, 230, 231, 232, 233, 234, 235, 236, 237, 238, 239, 240, 241, 242, 243, 244, 245, 246, 247, 248, 249, 250, 251, 252, 253, 254, 255, 256, 257, 258, 259, 260, 261, 262, 263, 264, 265, 266, 267, 268, 269, 270, 271, 272, 273, 274, 275, 276, 277, 278, 279, 280, 281, 282, 283, 284, 285, 286, 287, 288, 289, 290, 291, 292, 293, 294, 295, 296, 297, 298, 299, 300, 301, 302, 303, 304, 305, 306, 307, 308, 309, 310, 311, 312, 313, 314, 315, 316, 317, 318, 319, 320, 321, 322, 323, 324, 325, 326, 327, 328, 329, 330, 331, 332, 333],
      "AcquisitionTime": ["162818.692500", "162820.182500", "162821.672500", "162823.162500", "162824.652500", "162826.142500", "162827.632500", "162829.122500", "162830.612500", "162832.102500", "162833.592500", "162835.082500", "162836.572500", "162838.062500", "162839.552500", "162841.042500", "162842.532500", "162844.022500", "162845.512500", "162847.002500", "162848.492500", "162849.982500", "162851.472500", "162852.962500", "162854.452500", "162855.942500", "162857.432500", "162858.922500", "162900.412500", "162901.902500", "162903.392500", "162904.882500", "162906.372500", "162907.862500", "162909.352500", "162910.842500", "162912.332500", "162913.822500", "162915.312500", "162916.802500", "162918.292500", "162919.782500", "162921.272500", "162922.762500", "162924.252500", "162925.742500", "162927.232500", "162928.722500", "162930.212500", "162931.702500", "162933.192500", "162934.682500", "162936.172500", "162937.662500", "162939.152500", "162940.642500", "162942.132500", "162943.622500", "162945.112500", "162946.602500", "162948.092500", "162949.582500", "162951.072500", "162952.562500", "162954.052500", "162955.542500", "162957.032500", "162958.522500", "163000.012500", "163001.502500", "163002.992500", "163004.482500", "163005.972500", "163007.462500", "163008.952500", "163010.442500", "163011.932500", "163013.422500", "163014.912500", "163016.402500", "163017.892500", "163019.382500", "163020.872500", "163022.362500", "163023.852500", "163025.342500", "163026.832500", "163028.322500", "163029.812500", "163031.302500", "163032.792500", "163034.282500", "163035.772500", "163037.262500", "163038.752500", "163040.242500", "163041.732500", "163043.222500", "163044.712500", "163046.202500", "163047.692500", "163049.182500", "163050.672500", "163052.162500", "163053.652500", "163055.142500", "163056.632500", "163058.122500", "163059.612500", "163101.102500", "163102.592500", "163104.082500", "163105.572500", "163107.062500", "163108.552500", "163110.042500", "163111.532500", "163113.022500", "163114.512500", "163116.002500", "163117.492500", "163118.982500", "163120.472500", "163121.962500", "163123.452500", "163124.942500", "163126.432500", "163127.922500", "163129.412500", "163130.902500", "163132.392500", "163133.882500", "163135.372500", "163136.862500", "163138.352500", "163139.842500", "163141.332500", "163142.822500", "163144.312500", "163145.802500", "163147.292500", "163148.782500", "163150.272500", "163151.762500", "163153.252500", "163154.742500", "163156.232500", "163157.722500", "163159.212500", "163200.702500", "163202.192500", "163203.682500", "163205.172500", "163206.662500", "163208.152500", "163209.642500", "163211.132500", "163212.622500", "163214.112500", "163215.602500", "163217.092500", "163218.582500", "163220.072500", "163221.562500", "163223.052500", "163224.542500", "163226.032500", "163227.522500", "163229.012500", "163230.502500", "163231.992500", "163233.482500", "163234.972500", "163236.462500", "163237.952500", "163239.442500", "163240.932500", "163242.422500", "163243.912500", "163245.402500", "163246.892500", "163248.382500", "163249.872500", "163251.362500", "163252.852500", "163254.342500", "163255.832500", "163257.322500", "163258.812500", "163300.302500", "163301.792500", "163303.282500", "163304.772500", "163306.262500", "163307.752500", "163309.242500", "163310.732500", "163312.222500", "163313.712500", "163315.202500", "163316.692500", "163318.182500", "163319.672500", "163321.162500", "163322.652500", "163324.142500", "163325.632500", "163327.122500", "163328.612500", "163330.102500", "163331.592500", "163333.082500", "163334.572500", "163336.062500", "163337.552500", "163339.042500", "163340.532500", "163342.022500", "163343.512500", "163345.002500", "163346.492500", "163347.982500", "163349.472500", "163350.962500", "163352.452500", "163353.942500", "163355.432500", "163356.922500", "163358.412500", "163359.902500", "163401.392500", "163402.882500", "163404.372500", "163405.862500", "163407.352500", "163408.842500", "163410.332500", "163411.822500", "163413.312500", "163414.802500", "163416.292500", "163417.782500", "163419.272500", "163420.762500", "163422.252500", "163423.742500", "163425.232500", "163426.722500", "163428.212500", "163429.702500", "163431.192500", "163432.682500", "163434.172500", "163435.662500", "163437.152500", "163438.642500", "163440.132500", "163441.622500", "163443.112500", "163444.602500", "163446.092500", "163447.582500", "163449.072500", "163450.562500", "163452.052500", "163453.542500", "163455.032500", "163456.522500", "163458.012500", "163459.502500", "163500.992500", "163502.482500", "163503.972500", "163505.462500", "163506.952500", "163508.442500", "163509.932500", "163511.422500", "163512.912500", "163514.402500", "163515.892500", "163517.382500", "163518.872500", "163520.362500", "163521.852500", "163523.342500", "163524.832500", "163526.322500", "163527.812500", "163529.302500", "163530.792500", "163532.282500", "163533.772500", "163535.262500", "163536.752500", "163538.242500", "163539.732500", "163541.222500", "163542.712500", "163544.202500", "163545.692500", "163547.182500", "163548.672500", "163550.162500", "163551.652500", "163553.142500", "163554.632500", "163556.122500", "163557.612500", "163559.102500", "163600.592500", "163602.082500", "163603.572500", "163605.062500", "163606.552500", "163608.042500", "163609.532500", "163611.022500", "163612.512500", "163614.002500", "163615.492500", "163616.982500", "163618.472500", "163619.962500", "163621.452500", "163622.942500", "163624.432500", "163625.922500", "163627.412500", "163628.902500", "163630.392500", "163631.882500", "163633.372500"],
      "ContentTime": ["162945.580000", "162945.583000", "162945.586000", "162945.588000", "162945.591000", "162945.593000", "162945.596000", "162945.598000", "162945.601000", "162945.603000", "162945.606000", "162945.608000", "162945.611000", "162945.614000", "162945.616000", "162945.619000", "162945.622000", "162945.624000", "162945.627000", "162945.630000", "162945.632000", "162945.635000", "162945.638000", "162945.640000", "162945.643000", "162945.645000", "162945.648000", "162945.650000", "162945.653000", "162945.655000", "162945.658000", "162945.660000", "162945.663000", "162945.666000", "162945.668000", "162945.680000", "162945.683000", "163005.480000", "163005.483000", "163005.485000", "163005.488000", "163005.491000", "163005.493000", "163005.496000", "163005.498000", "163005.501000", "163005.503000", "163005.506000", "163005.508000", "163005.511000", "163005.513000", "163005.516000", "163005.518000", "163005.521000", "163005.524000", "163005.526000", "163005.529000", "163005.531000", "163025.457000", "163025.459000", "163025.462000", "163025.464000", "163025.499000", "163025.501000", "163025.504000", "163025.506000", "163025.509000", "163025.511000", "163025.514000", "163025.517000", "163025.519000", "163025.522000", "163025.524000", "163025.527000", "163025.529000", "163025.532000", "163025.534000", "163025.537000", "163105.534000", "163105.536000", "163105.539000", "163105.542000", "163105.544000", "163105.547000", "163105.549000", "163105.552000", "163105.555000", "163105.557000", "163105.560000", "163105.562000", "163105.565000", "163105.568000", "163105.570000", "163105.573000", "163105.576000", "163105.579000", "163105.581000", "163105.584000", "163105.586000", "163105.589000", "163105.592000", "163105.594000", "163105.597000", "163105.599000", "163105.602000", "163105.604000", "163105.607000", "163105.610000", "163105.621000", "163105.623000", "163105.626000", "163145.497000", "163145.499000", "163145.502000", "163145.504000", "163145.507000", "163145.509000", "163145.512000", "163145.515000", "163145.517000", "163145.520000", "163145.522000", "163145.525000", "163145.528000", "163145.530000", "163145.533000", "163145.535000", "163145.538000", "163145.540000", "163145.543000", "163145.545000", "163145.548000", "163145.550000", "163145.553000", "163145.556000", "163145.559000", "163145.561000", "163145.564000", "163225.487000", "163225.490000", "163225.493000", "163225.495000", "163225.498000", "163225.501000", "163225.504000", "163225.507000", "163225.510000", "163225.513000", "163225.516000", "163225.519000", "163225.522000", "163225.525000", "163225.528000", "163225.531000", "163225.533000", "163225.536000", "163225.538000", "163225.541000", "163225.543000", "163225.546000", "163225.549000", "163225.552000", "163225.554000", "163225.557000", "163305.506000", "163305.509000", "163305.512000", "163305.514000", "163305.517000", "163305.519000", "163305.522000", "163305.525000", "163305.527000", "163305.530000", "163305.532000", "163305.535000", "163305.537000", "163305.540000", "163305.542000", "163305.545000", "163305.547000", "163305.550000", "163305.553000", "163305.555000", "163305.558000", "163305.560000", "163305.563000", "163305.565000", "163305.568000", "163305.570000", "163305.573000", "163345.497000", "163345.500000", "163345.503000", "163345.506000", "163345.508000", "163345.511000", "163345.513000", "163345.516000", "163345.518000", "163345.521000", "163345.523000", "163345.526000", "163345.529000", "163345.531000", "163345.534000", "163345.536000", "163345.539000", "163345.541000", "163345.544000", "163345.547000", "163345.549000", "163345.552000", "163345.554000", "163345.557000", "163345.559000", "163345.562000", "163345.564000", "163425.501000", "163425.503000", "163425.506000", "163425.509000", "163425.511000", "163425.514000", "163425.516000", "163425.519000", "163425.521000", "163425.524000", "163425.526000", "163425.529000", "163425.532000", "163425.534000", "163425.537000", "163425.539000", "163425.542000", "163425.544000", "163425.547000", "163425.549000", "163425.552000", "163425.554000", "163425.557000", "163425.559000", "163425.562000", "163425.565000", "163425.567000", "163505.480000", "163505.483000", "163505.486000", "163505.488000", "163505.491000", "163505.493000", "163505.496000", "163505.498000", "163505.501000", "163505.503000", "163505.506000", "163505.509000", "163505.511000", "163505.514000", "163505.516000", "163505.519000", "163505.521000", "163505.524000", "163505.526000", "163505.529000", "163505.531000", "163505.534000", "163505.536000", "163505.539000", "163505.541000", "163505.547000", "163505.550000", "163545.523000", "163545.525000", "163545.528000", "163545.531000", "163545.533000", "163545.536000", "163545.538000", "163545.541000", "163545.543000", "163545.546000", "163545.548000", "163545.551000", "163545.553000", "163545.556000", "163545.558000", "163545.561000", "163545.563000", "163545.566000", "163545.569000", "163545.571000", "163545.574000", "163545.576000", "163545.579000", "163545.581000", "163545.584000", "163545.587000", "163545.589000", "163625.486000", "163625.489000", "163625.491000", "163625.494000", "163625.496000", "163625.499000", "163625.501000", "163625.504000", "163625.507000", "163625.509000", "163625.512000", "163625.514000", "163625.517000", "163625.519000", "163625.522000", "163625.524000", "163625.527000", "163625.529000", "163625.532000", "163625.535000", "163625.537000", "163625.540000", "163625.542000", "163625.545000", "163625.548000", "163625.551000", "163636.904000", "163636.908000", "163636.910000", "163636.913000", "163636.915000", "163636.918000", "163636.920000", "163636.923000"],
      "InstanceCreationTime": ["162945.580000", "162945.583000", "162945.586000", "162945.588000", "162945.591000", "162945.593000", "162945.596000", "162945.598000", "162945.601000", "162945.603000", "162945.606000", "162945.608000", "162945.611000", "162945.614000", "162945.616000", "162945.619000", "162945.622000", "162945.624000", "162945.627000", "162945.630000", "162945.632000", "162945.635000", "162945.638000", "162945.640000", "162945.643000", "162945.645000", "162945.648000", "162945.650000", "162945.653000", "162945.655000", "162945.658000", "162945.660000", "162945.663000", "162945.666000", "162945.668000", "162945.680000", "162945.683000", "163005.480000", "163005.483000", "163005.485000", "163005.488000", "163005.491000", "163005.493000", "163005.496000", "163005.498000", "163005.501000", "163005.503000", "163005.506000", "163005.508000", "163005.511000", "163005.513000", "163005.516000", "163005.518000", "163005.521000", "163005.524000", "163005.526000", "163005.529000", "163005.531000", "163025.457000", "163025.459000", "163025.462000", "163025.464000", "163025.499000", "163025.501000", "163025.504000", "163025.506000", "163025.509000", "163025.511000", "163025.514000", "163025.517000", "163025.519000", "163025.522000", "163025.524000", "163025.527000", "163025.529000", "163025.532000", "163025.534000", "163025.537000", "163105.534000", "163105.536000", "163105.539000", "163105.542000", "163105.544000", "163105.547000", "163105.549000", "163105.552000", "163105.555000", "163105.557000", "163105.560000", "163105.562000", "163105.565000", "163105.568000", "163105.570000", "163105.573000", "163105.576000", "163105.579000", "163105.581000", "163105.584000", "163105.586000", "163105.589000", "163105.592000", "163105.594000", "163105.597000", "163105.599000", "163105.602000", "163105.604000", "163105.607000", "163105.610000", "163105.621000", "163105.623000", "163105.626000", "163145.497000", "163145.499000", "163145.502000", "163145.504000", "163145.507000", "163145.509000", "163145.512000", "163145.515000", "163145.517000", "163145.520000", "163145.522000", "163145.525000", "163145.528000", "163145.530000", "163145.533000", "163145.535000", "163145.538000", "163145.540000", "163145.543000", "163145.545000", "163145.548000", "163145.550000", "163145.553000", "163145.556000", "163145.559000", "163145.561000", "163145.564000", "163225.487000", "163225.490000", "163225.493000", "163225.495000", "163225.498000", "163225.501000", "163225.504000", "163225.507000", "163225.510000", "163225.513000", "163225.516000", "163225.519000", "163225.522000", "163225.525000", "163225.528000", "163225.531000", "163225.533000", "163225.536000", "163225.538000", "163225.541000", "163225.543000", "163225.546000", "163225.549000", "163225.552000", "163225.554000", "163225.557000", "163305.506000", "163305.509000", "163305.512000", "163305.514000", "163305.517000", "163305.519000", "163305.522000", "163305.525000", "163305.527000", "163305.530000", "163305.532000", "163305.535000", "163305.537000", "163305.540000", "163305.542000", "163305.545000", "163305.547000", "163305.550000", "163305.553000", "163305.555000", "163305.558000", "163305.560000", "163305.563000", "163305.565000", "163305.568000", "163305.570000", "163305.573000", "163345.497000", "163345.500000", "163345.503000", "163345.506000", "163345.508000", "163345.511000", "163345.513000", "163345.516000", "163345.518000", "163345.521000", "163345.523000", "163345.526000", "163345.529000", "163345.531000", "163345.534000", "163345.536000", "163345.539000", "163345.541000", "163345.544000", "163345.547000", "163345.549000", "163345.552000", "163345.554000", "163345.557000", "163345.559000", "163345.562000", "163345.564000", "163425.501000", "163425.503000", "163425.506000", "163425.509000", "163425.511000", "163425.514000", "163425.516000", "163425.519000", "163425.521000", "163425.524000", "163425.526000", "163425.529000", "163425.532000", "163425.534000", "163425.537000", "163425.539000", "163425.542000", "163425.544000", "163425.547000", "163425.549000", "163425.552000", "163425.554000", "163425.557000", "163425.559000", "163425.562000", "163425.565000", "163425.567000", "163505.480000", "163505.483000", "163505.486000", "163505.488000", "163505.491000", "163505.493000", "163505.496000", "163505.498000", "163505.501000", "163505.503000", "163505.506000", "163505.509000", "163505.511000", "163505.514000", "163505.516000", "163505.519000", "163505.521000", "163505.524000", "163505.526000", "163505.529000", "163505.531000", "163505.534000", "163505.536000", "163505.539000", "163505.541000", "163505.547000", "163505.550000", "163545.523000", "163545.525000", "163545.528000", "163545.531000", "163545.533000", "163545.536000", "163545.538000", "163545.541000", "163545.543000", "163545.546000", "163545.548000", "163545.551000", "163545.553000", "163545.556000", "163545.558000", "163545.561000", "163545.563000", "163545.566000", "163545.569000", "163545.571000", "163545.574000", "163545.576000", "163545.579000", "163545.581000", "163545.584000", "163545.587000", "163545.589000", "163625.486000", "163625.489000", "163625.491000", "163625.494000", "163625.496000", "163625.499000", "163625.501000", "163625.504000", "163625.507000", "163625.509000", "163625.512000", "163625.514000", "163625.517000", "163625.519000", "163625.522000", "163625.524000", "163625.527000", "163625.529000", "163625.532000", "163625.535000", "163625.537000", "163625.540000", "163625.542000", "163625.545000", "163625.548000", "163625.551000", "163636.904000", "163636.908000", "163636.910000", "163636.913000", "163636.915000", "163636.918000", "163636.920000", "163636.923000"],
      "InstanceNumber": [1, 2, 3, 4, 5, 6, 7, 8, 9, 10, 11, 12, 13, 14, 15, 16, 17, 18, 19, 20, 21, 22, 23, 24, 25, 26, 27, 28, 29, 30, 31, 32, 33, 34, 35, 36, 37, 38, 39, 40, 41, 42, 43, 44, 45, 46, 47, 48, 49, 50, 51, 52, 53, 54, 55, 56, 57, 58, 59, 60, 61, 62, 63, 64, 65, 66, 67, 68, 69, 70, 71, 72, 73, 74, 75, 76, 77, 78, 79, 80, 81, 82, 83, 84, 85, 86, 87, 88, 89, 90, 91, 92, 93, 94, 95, 96, 97, 98, 99, 100, 101, 102, 103, 104, 105, 106, 107, 108, 109, 110, 111, 112, 113, 114, 115, 116, 117, 118, 119, 120, 121, 122, 123, 124, 125, 126, 127, 128, 129, 130, 131, 132, 133, 134, 135, 136, 137, 138, 139, 140, 141, 142, 143, 144, 145, 146, 147, 148, 149, 150, 151, 152, 153, 154, 155, 156, 157, 158, 159, 160, 161, 162, 163, 164, 165, 166, 167, 168, 169, 170, 171, 172, 173, 174, 175, 176, 177, 178, 179, 180, 181, 182, 183, 184, 185, 186, 187, 188, 189, 190, 191, 192, 193, 194, 195, 196, 197, 198, 199, 200, 201, 202, 203, 204, 205, 206, 207, 208, 209, 210, 211, 212, 213, 214, 215, 216, 217, 218, 219, 220, 221, 222, 223, 224, 225, 226, 227, 228, 229, 230, 231, 232, 233, 234, 235, 236, 237, 238, 239, 240, 241, 242, 243, 244, 245, 246, 247, 248, 249, 250, 251, 252, 253, 254, 255, 256, 257, 258, 259, 260, 261, 262, 263, 264, 265, 266, 267, 268, 269, 270, 271, 272, 273, 274, 275, 276, 277, 278, 279, 280, 281, 282, 283, 284, 285, 286, 287, 288, 289, 290, 291, 292, 293, 294, 295, 296, 297, 298, 299, 300, 301, 302, 303, 304, 305, 306, 307, 308, 309, 310, 311, 312, 313, 314, 315, 316, 317, 318, 319, 320, 321, 322, 323, 324, 325, 326, 327, 328, 329, 330, 331, 332, 333],
      "WindowCenter": [4870.0, 4876.0, 4872.0, 4872.0, 4874.0, 4868.0, 4830.0, 4828.0, 4808.0, 4838.0, 4870.0, 4878.0, 4856.0, 4858.0, 4872.0, 4868.0, 4840.0, 4836.0, 4832.0, 4834.0, 4870.0, 4872.0, 4872.0, 4854.0, 4850.0, 4874.0, 4872.0, 4876.0, 4866.0, 4860.0, 4868.0, 4864.0, 4872.0, 4872.0, 4874.0, 4852.0, 4876.0, 4852.0, 4874.0, 4874.0, 4872.0, 4870.0, 4872.0, 4868.0, 4874.0, 4872.0, 4872.0, 4868.0, 4874.0, 4872.0, 4876.0, 4870.0, 4874.0, 4874.0, 4878.0, 4876.0, 4878.0, 4876.0, 4874.0, 4878.0, 4876.0, 4872.0, 4876.0, 4872.0, 4870.0, 4870.0, 4872.0, 4872.0, 4874.0, 4872.0, 4874.0, 4876.0, 4872.0, 4872.0, 4858.0, 4830.0, 4828.0, 4828.0, 4864.0, 4872.0, 4876.0, 4872.0, 4870.0, 4862.0, 4834.0, 4806.0, 4806.0, 4804.0, 4832.0, 4874.0, 4856.0, 4856.0, 4854.0, 4874.0, 4874.0, 4864.0, 4838.0, 4860.0, 4858.0, 4826.0, 4844.0, 4872.0, 4850.0, 4876.0, 4874.0, 4868.0, 4842.0, 4834.0, 4828.0, 4802.0, 4844.0, 4874.0, 4852.0, 4852.0, 4854.0, 4874.0, 4876.0, 4870.0, 4864.0, 4866.0, 4872.0, 4840.0, 4842.0, 4868.0, 4872.0, 4854.0, 4850.0, 4872.0, 4842.0, 4836.0, 4834.0, 4842.0, 4874.0, 4872.0, 4874.0, 4874.0, 4878.0, 4854.0, 4874.0, 4874.0, 4830.0, 4830.0, 4832.0, 4844.0, 4868.0, 4872.0, 4872.0, 4868.0, 4870.0, 4842.0, 4842.0, 4834.0, 4830.0, 4834.0, 4840.0, 4870.0, 4872.0, 4850.0, 4872.0, 4874.0, 4870.0, 4870.0, 4846.0, 4832.0, 4838.0, 4842.0, 4874.0, 4850.0, 4852.0, 4874.0, 4874.0, 4874.0, 4862.0, 4840.0, 4866.0, 4876.0, 4866.0, 4876.0, 4872.0, 4874.0, 4872.0, 4872.0, 4870.0, 4874.0, 4876.0, 4872.0, 4876.0, 4876.0, 4876.0, 4876.0, 4866.0, 4832.0, 4874.0, 4876.0, 4852.0, 4854.0, 4874.0, 4872.0, 4874.0, 4872.0, 4862.0, 4874.0, 4868.0, 4878.0, 4878.0, 4876.0, 4876.0, 4874.0, 4872.0, 4876.0, 4876.0, 4872.0, 4878.0, 4870.0, 4874.0, 4876.0, 4874.0, 4870.0, 4874.0, 4874.0, 4872.0, 4832.0, 4804.0, 4808.0, 4842.0, 4866.0, 4870.0, 4870.0, 4868.0, 4874.0, 4854.0, 4850.0, 4874.0, 4870.0, 4830.0, 4834.0, 4836.0, 4848.0, 4872.0, 4872.0, 4848.0, 4850.0, 4844.0, 4842.0, 4874.0, 4870.0, 4848.0, 4872.0, 4846.0, 4870.0, 4844.0, 4870.0, 4846.0, 4870.0, 4870.0, 4846.0, 4870.0, 4872.0, 4842.0, 4838.0, 4874.0, 4870.0, 4872.0, 4870.0, 4868.0, 4874.0, 4872.0, 4872.0, 4874.0, 4874.0, 4866.0, 4864.0, 4870.0, 4868.0, 4870.0, 4876.0, 4872.0, 4872.0, 4870.0, 4870.0, 4872.0, 4872.0, 4870.0, 4874.0, 4870.0, 4878.0, 4838.0, 4838.0, 4844.0, 4844.0, 4844.0, 4868.0, 4846.0, 4842.0, 4844.0, 4846.0, 4844.0, 4874.0, 4870.0, 4872.0, 4840.0, 4850.0, 4874.0, 4874.0, 4844.0, 4838.0, 4874.0, 4852.0, 4874.0, 4874.0, 4868.0, 4868.0, 4870.0, 4866.0, 4874.0, 4870.0, 4870.0, 4828.0, 4834.0, 4840.0, 4868.0, 4866.0, 4868.0, 4866.0, 4838.0, 4834.0, 4832.0, 4810.0, 4830.0, 4834.0, 4848.0, 4852.0, 4870.0],
