{
  "AcquisitionMatrixPE": 104,
  "AcquisitionNumber": 1,
  "AcquisitionTime": "16:51:20.457500",
  "BandwidthPerPixelPhaseEncode": 17.17,
  "BaseResolution": 104,
  "BodyPartExamined": "BRAIN",
  "CoilCombinationMethod": "Sum of Squares",
  "ConsistencyInfo": "N4_VE11C_LATEST_20160120",
  "ConversionSoftware": "dcm2niix",
  "ConversionSoftwareVersion": "v1.0.20220505",
  "DerivedVendorReportedEchoSpacing": 0.000560011,
  "DeviceSerialNumber": "167006",
  "DwellTime": 2.1e-06,
  "EchoTime": 0.037,
  "EchoTime1": 0.037,
  "EchoTime2": 0.001,
  "EchoTrainLength": 104,
  "EffectiveEchoSpacing": 0.000560011,
  "FlipAngle": 52,
  "HeudiconvVersion": "0.5.3.post811+g6206e14",
  "ImageComments": "Unaliased MB4/PE3/LB",
  "ImageOrientationPatientDICOM": [0.99869, 0.00632776, 0.0507711, 0.0223146, 0.8391, -0.543519],
  "ImageOrientationText": "Tra>Cor(-33.0)>Sag(2.6)",
  "ImageType": [
    "ORIGINAL",
    "PRIMARY",
    "P",
    "MB",
    "ND",
    "MOSAIC",
    "PHASE"
],
  "ImagingFrequency": 123.259,
  "InPlanePhaseEncodingDirectionDICOM": "COL",
  "InstitutionAddress": "Chemin Queen-Mary 4565,Montreal,District,CA,H3W 1W5",
  "InstitutionName": "IUGM",
  "InstitutionalDepartmentName": "Department",
  "MRAcquisitionType": "2D",
  "MagneticFieldStrength": 3,
  "Manufacturer": "Siemens",
  "ManufacturersModelName": "Prisma_fit",
  "MatrixCoilMode": "SENSE",
  "Modality": "MR",
  "MultibandAccelerationFactor": 4,
  "PartialFourier": 1,
  "PatientPosition": "HFS",
  "PercentPhaseFOV": 100,
  "PercentSampling": 100,
  "PhaseEncodingDirection": "j",
  "PhaseEncodingSteps": 104,
  "PhaseResolution": 1,
  "PixelBandwidth": 2290,
  "ProcedureStepDescription": "games^mario3",
  "ProtocolName": "func_task-mario3_run-03",
  "PulseSequenceDetails": "%CustomerSeq%\\cmrr_mbep2d_bold",
  "ReceiveCoilActiveElements": "HC1-7;NC1,2",
  "ReceiveCoilName": "HeadNeck_64",
  "ReconMatrixPE": 104,
  "RepetitionTime": 1.49,
  "SAR": 0.0958155,
  "ScanOptions": "FS",
  "ScanningSequence": "EP",
  "SequenceName": "epfid2d1_104",
  "SequenceVariant": "SK\\SS",
  "SeriesDescription": "func_task-mario3_run-03",
  "SeriesNumber": 17,
  "ShimSetting": [628, -7193, -8870, 224, 50, -216, -39, 58],
  "SliceThickness": 2,
  "SliceTiming": [0, 0.785, 0.0975, 0.8825, 0.1975, 0.98, 0.295, 1.0775, 0.3925, 1.1775, 0.49, 1.275, 0.5875, 1.3725, 0.6875, 0, 0.785, 0.0975, 0.8825, 0.1975, 0.98, 0.295, 1.0775, 0.3925, 1.1775, 0.49, 1.275, 0.5875, 1.3725, 0.6875, 0, 0.785, 0.0975, 0.8825, 0.1975, 0.98, 0.295, 1.0775, 0.3925, 1.1775, 0.49, 1.275, 0.5875, 1.3725, 0.6875, 0, 0.785, 0.0975, 0.8825, 0.1975, 0.98, 0.295, 1.0775, 0.3925, 1.1775, 0.49, 1.275, 0.5875, 1.3725, 0.6875],
  "SoftwareVersions": "syngo MR E11",
  "SpacingBetweenSlices": 2,
  "StationName": "MRC35049",
  "TaskName": "mario3",
  "TotalReadoutTime": 0.0576811,
  "TxRefAmp": 321.071,
  "WipMemBlock": "b69d67e6-6dcd-44fa-8a88-634ec215c66c||Sequence: R017 ve11c/master r/75a17815+; Jun 28 2022 16:32:11 by eja",
  "dcmmeta_affine": [
    [-1.9973804950714111, 0.0446292906999588, 0.09208263456821442, 102.88335418701172],
    [-0.01265551708638668, 1.6782008409500122, -1.0878794193267822, -46.65126419067383],
    [0.10154221951961517, 1.087037205696106, 1.6757205724716187, -95.35989379882812],
    [0.0, 0.0, 0.0, 1.0]
],
  "dcmmeta_reorient_transform": [
    [0.0, -1.0, 0.0, 103.0],
    [1.0, 0.0, 0.0, 0.0],
    [0.0, 0.0, 1.0, 0.0],
    [0.0, 0.0, 0.0, 1.0]
],
  "dcmmeta_shape": [104, 104, 60, 371],
  "dcmmeta_slice_dim": 2,
  "dcmmeta_version": 0.6,
  "global": {
    "const": {
      "AcquisitionMatrix": [104, 0, 0, 104],
      "AngioFlag": "N",
      "BitsAllocated": 16,
      "BitsStored": 16,
      "BodyPartExamined": "BRAIN",
      "Columns": 832,
      "EchoNumbers": 1,
      "EchoTime": 37.0,
      "EchoTrainLength": 104,
      "FlipAngle": 52.0,
      "HighBit": 15,
      "ImageOrientationPatient": [0.99869026926487, 0.00632775836548, 0.05077110940018, 0.022314644916, 0.83910044691734, -0.5435186258128],
      "ImagePositionPatient": [-850.77175052476, -741.6751631271, 375.3251369939],
      "ImageType": [
        "ORIGINAL",
        "PRIMARY",
        "P",
        "MB",
        "ND",
        "MOSAIC"
],
      "ImagedNucleus": "1H",
      "ImagingFrequency": 123.25879,
      "InPlanePhaseEncodingDirection": "COL",
      "LargestImagePixelValue": 4095,
      "MRAcquisitionType": "2D",
      "MagneticFieldStrength": 3.0,
      "Manufacturer": "SIEMENS",
      "ManufacturerModelName": "Prisma_fit",
      "Modality": "MR",
      "NumberOfAverages": 1.0,
      "NumberOfPhaseEncodingSteps": 104,
      "PercentPhaseFieldOfView": 100.0,
      "PercentSampling": 100.0,
      "PerformedProcedureStepStartTime": "162500.322000",
      "PhotometricInterpretation": "MONOCHROME2",
      "PixelBandwidth": 2290.0,
      "PixelRepresentation": 0,
      "PixelSpacing": [2.0, 2.0],
      "ProtocolName": "func_task-mario3_run-03",
      "RepetitionTime": 1490.0,
      "RescaleIntercept": -4096.0,
      "RescaleSlope": 2.0,
      "RescaleType": "US",
      "Rows": 832,
      "SAR": 0.09581549816711,
      "SamplesPerPixel": 1,
      "ScanOptions": "FS",
      "ScanningSequence": "EP",
      "SequenceName": "epfid2d1_104",
      "SequenceVariant": [
        "SK",
        "SS"
],
      "SeriesDescription": "func_task-mario3_run-03",
      "SeriesNumber": 17,
      "SeriesTime": "165223.753000",
      "SliceLocation": -49.785904022897,
      "SliceThickness": 2.0,
      "SmallestImagePixelValue": 0,
      "SoftwareVersions": "syngo MR E11",
      "SpacingBetweenSlices": 2.0000000343028,
      "SpecificCharacterSet": "ISO_IR 100",
      "StudyID": "1",
      "StudyTime": "162500.245000",
      "TransmitCoilName": "Body",
      "VariableFlipAngleFlag": "N",
      "WindowCenterWidthExplanation": "Algo1",
      "dBdt": 0.0},
    "slices": {}
  },
  "time": {
    "samples": {
      "AcquisitionNumber": [1, 2, 3, 4, 5, 6, 7, 8, 9, 10, 11, 12, 13, 14, 15, 16, 17, 18, 19, 20, 21, 22, 23, 24, 25, 26, 27, 28, 29, 30, 31, 32, 33, 34, 35, 36, 37, 38, 39, 40, 41, 42, 43, 44, 45, 46, 47, 48, 49, 50, 51, 52, 53, 54, 55, 56, 57, 58, 59, 60, 61, 62, 63, 64, 65, 66, 67, 68, 69, 70, 71, 72, 73, 74, 75, 76, 77, 78, 79, 80, 81, 82, 83, 84, 85, 86, 87, 88, 89, 90, 91, 92, 93, 94, 95, 96, 97, 98, 99, 100, 101, 102, 103, 104, 105, 106, 107, 108, 109, 110, 111, 112, 113, 114, 115, 116, 117, 118, 119, 120, 121, 122, 123, 124, 125, 126, 127, 128, 129, 130, 131, 132, 133, 134, 135, 136, 137, 138, 139, 140, 141, 142, 143, 144, 145, 146, 147, 148, 149, 150, 151, 152, 153, 154, 155, 156, 157, 158, 159, 160, 161, 162, 163, 164, 165, 166, 167, 168, 169, 170, 171, 172, 173, 174, 175, 176, 177, 178, 179, 180, 181, 182, 183, 184, 185, 186, 187, 188, 189, 190, 191, 192, 193, 194, 195, 196, 197, 198, 199, 200, 201, 202, 203, 204, 205, 206, 207, 208, 209, 210, 211, 212, 213, 214, 215, 216, 217, 218, 219, 220, 221, 222, 223, 224, 225, 226, 227, 228, 229, 230, 231, 232, 233, 234, 235, 236, 237, 238, 239, 240, 241, 242, 243, 244, 245, 246, 247, 248, 249, 250, 251, 252, 253, 254, 255, 256, 257, 258, 259, 260, 261, 262, 263, 264, 265, 266, 267, 268, 269, 270, 271, 272, 273, 274, 275, 276, 277, 278, 279, 280, 281, 282, 283, 284, 285, 286, 287, 288, 289, 290, 291, 292, 293, 294, 295, 296, 297, 298, 299, 300, 301, 302, 303, 304, 305, 306, 307, 308, 309, 310, 311, 312, 313, 314, 315, 316, 317, 318, 319, 320, 321, 322, 323, 324, 325, 326, 327, 328, 329, 330, 331, 332, 333, 334, 335, 336, 337, 338, 339, 340, 341, 342, 343, 344, 345, 346, 347, 348, 349, 350, 351, 352, 353, 354, 355, 356, 357, 358, 359, 360, 361, 362, 363, 364, 365, 366, 367, 368, 369, 370, 371],
      "AcquisitionTime": ["165120.457500", "165121.947500", "165123.437500", "165124.927500", "165126.417500", "165127.907500", "165129.397500", "165130.887500", "165132.377500", "165133.867500", "165135.357500", "165136.847500", "165138.337500", "165139.827500", "165141.317500", "165142.807500", "165144.297500", "165145.787500", "165147.277500", "165148.767500", "165150.257500", "165151.747500", "165153.237500", "165154.727500", "165156.217500", "165157.707500", "165159.197500", "165200.687500", "165202.177500", "165203.667500", "165205.157500", "165206.647500", "165208.137500", "165209.627500", "165211.117500", "165212.607500", "165214.097500", "165215.587500", "165217.077500", "165218.567500", "165220.057500", "165221.547500", "165223.037500", "165224.527500", "165226.017500", "165227.507500", "165228.997500", "165230.487500", "165231.977500", "165233.467500", "165234.957500", "165236.447500", "165237.937500", "165239.427500", "165240.917500", "165242.407500", "165243.897500", "165245.387500", "165246.877500", "165248.367500", "165249.857500", "165251.347500", "165252.837500", "165254.327500", "165255.817500", "165257.307500", "165258.797500", "165300.287500", "165301.777500", "165303.267500", "165304.757500", "165306.247500", "165307.737500", "165309.227500", "165310.717500", "165312.207500", "165313.697500", "165315.187500", "165316.677500", "165318.167500", "165319.657500", "165321.147500", "165322.637500", "165324.127500", "165325.617500", "165327.107500", "165328.597500", "165330.087500", "165331.577500", "165333.067500", "165334.557500", "165336.047500", "165337.537500", "165339.027500", "165340.517500", "165342.007500", "165343.497500", "165344.987500", "165346.477500", "165347.967500", "165349.457500", "165350.947500", "165352.437500", "165353.927500", "165355.417500", "165356.907500", "165358.397500", "165359.887500", "165401.377500", "165402.867500", "165404.357500", "165405.847500", "165407.337500", "165408.827500", "165410.317500", "165411.807500", "165413.297500", "165414.787500", "165416.277500", "165417.767500", "165419.257500", "165420.747500", "165422.237500", "165423.727500", "165425.217500", "165426.707500", "165428.197500", "165429.687500", "165431.177500", "165432.667500", "165434.157500", "165435.647500", "165437.137500", "165438.627500", "165440.117500", "165441.607500", "165443.097500", "165444.587500", "165446.077500", "165447.567500", "165449.057500", "165450.547500", "165452.037500", "165453.527500", "165455.017500", "165456.507500", "165457.997500", "165459.487500", "165500.977500", "165502.467500", "165503.957500", "165505.447500", "165506.937500", "165508.427500", "165509.917500", "165511.407500", "165512.897500", "165514.387500", "165515.877500", "165517.367500", "165518.857500", "165520.347500", "165521.837500", "165523.327500", "165524.817500", "165526.307500", "165527.797500", "165529.287500", "165530.777500", "165532.267500", "165533.757500", "165535.247500", "165536.737500", "165538.227500", "165539.717500", "165541.207500", "165542.697500", "165544.187500", "165545.677500", "165547.167500", "165548.657500", "165550.147500", "165551.637500", "165553.127500", "165554.617500", "165556.107500", "165557.597500", "165559.087500", "165600.577500", "165602.067500", "165603.557500", "165605.047500", "165606.537500", "165608.027500", "165609.517500", "165611.007500", "165612.497500", "165613.987500", "165615.477500", "165616.967500", "165618.457500", "165619.947500", "165621.437500", "165622.927500", "165624.417500", "165625.907500", "165627.397500", "165628.887500", "165630.377500", "165631.867500", "165633.357500", "165634.847500", "165636.337500", "165637.827500", "165639.317500", "165640.807500", "165642.297500", "165643.787500", "165645.277500", "165646.767500", "165648.257500", "165649.747500", "165651.237500", "165652.727500", "165654.217500", "165655.707500", "165657.197500", "165658.687500", "165700.177500", "165701.667500", "165703.157500", "165704.647500", "165706.137500", "165707.627500", "165709.117500", "165710.607500", "165712.097500", "165713.587500", "165715.077500", "165716.567500", "165718.057500", "165719.547500", "165721.037500", "165722.527500", "165724.017500", "165725.507500", "165726.997500", "165728.487500", "165729.977500", "165731.467500", "165732.957500", "165734.447500", "165735.937500", "165737.427500", "165738.917500", "165740.407500", "165741.897500", "165743.387500", "165744.877500", "165746.367500", "165747.857500", "165749.347500", "165750.837500", "165752.327500", "165753.817500", "165755.307500", "165756.797500", "165758.287500", "165759.777500", "165801.267500", "165802.757500", "165804.247500", "165805.737500", "165807.227500", "165808.717500", "165810.207500", "165811.697500", "165813.187500", "165814.677500", "165816.167500", "165817.657500", "165819.147500", "165820.637500", "165822.127500", "165823.617500", "165825.107500", "165826.597500", "165828.087500", "165829.577500", "165831.067500", "165832.557500", "165834.047500", "165835.537500", "165837.027500", "165838.517500", "165840.007500", "165841.497500", "165842.987500", "165844.477500", "165845.967500", "165847.457500", "165848.947500", "165850.437500", "165851.927500", "165853.417500", "165854.907500", "165856.397500", "165857.887500", "165859.377500", "165900.867500", "165902.357500", "165903.847500", "165905.337500", "165906.827500", "165908.317500", "165909.807500", "165911.297500", "165912.787500", "165914.277500", "165915.767500", "165917.257500", "165918.747500", "165920.237500", "165921.727500", "165923.217500", "165924.707500", "165926.197500", "165927.687500", "165929.177500", "165930.667500", "165932.157500", "165933.647500", "165935.137500", "165936.627500", "165938.117500", "165939.607500", "165941.097500", "165942.587500", "165944.077500", "165945.567500", "165947.057500", "165948.547500", "165950.037500", "165951.527500", "165953.017500", "165954.507500", "165955.997500", "165957.487500", "165958.977500", "170000.467500", "170001.957500", "170003.447500", "170004.937500", "170006.427500", "170007.917500", "170009.407500", "170010.897500", "170012.387500", "170013.877500", "170015.367500", "170016.857500", "170018.347500", "170019.837500", "170021.327500", "170022.817500", "170024.307500", "170025.797500", "170027.287500", "170028.777500", "170030.267500", "170031.757500"],
      "ContentTime": ["165223.755000", "165223.758000", "165223.760000", "165223.763000", "165223.765000", "165223.768000", "165223.770000", "165223.773000", "165223.776000", "165223.778000", "165223.781000", "165223.783000", "165223.786000", "165243.753000", "165243.759000", "165243.761000", "165243.764000", "165243.766000", "165243.769000", "165243.771000", "165243.774000", "165243.776000", "165243.779000", "165243.782000", "165243.784000", "165243.787000", "165243.789000", "165243.792000", "165243.794000", "165243.797000", "165243.799000", "165243.802000", "165243.804000", "165303.739000", "165303.742000", "165303.751000", "165303.754000", "165303.756000", "165303.759000", "165303.761000", "165303.764000", "165303.766000", "165303.769000", "165303.772000", "165303.774000", "165303.777000", "165303.779000", "165303.782000", "165303.784000", "165303.787000", "165303.790000", "165303.792000", "165303.795000", "165323.744000", "165323.747000", "165323.749000", "165323.752000", "165323.754000", "165323.757000", "165323.760000", "165323.762000", "165323.765000", "165323.767000", "165323.770000", "165323.773000", "165323.775000", "165323.778000", "165323.780000", "165323.783000", "165323.785000", "165323.788000", "165323.790000", "165323.793000", "165343.732000", "165343.735000", "165343.737000", "165343.740000", "165343.742000", "165343.745000", "165343.747000", "165343.750000", "165343.752000", "165343.755000", "165343.757000", "165343.760000", "165343.762000", "165343.765000", "165343.768000", "165343.771000", "165343.773000", "165343.776000", "165343.778000", "165343.781000", "165343.783000", "165423.780000", "165423.783000", "165423.785000", "165423.788000", "165423.790000", "165423.793000", "165423.796000", "165423.798000", "165423.801000", "165423.803000", "165423.806000", "165423.808000", "165423.811000", "165423.813000", "165423.816000", "165423.818000", "165423.821000", "165423.824000", "165423.826000", "165423.829000", "165423.831000", "165423.834000", "165423.836000", "165423.839000", "165423.841000", "165423.844000", "165423.846000", "165423.849000", "165503.771000", "165503.774000", "165503.776000", "165503.779000", "165503.782000", "165503.784000", "165503.787000", "165503.789000", "165503.792000", "165503.794000", "165503.797000", "165503.800000", "165503.802000", "165503.805000", "165503.807000", "165503.810000", "165503.812000", "165503.815000", "165503.817000", "165503.820000", "165503.822000", "165503.825000", "165503.828000", "165503.830000", "165503.833000", "165503.835000", "165503.838000", "165543.807000", "165543.809000", "165543.812000", "165543.814000", "165543.817000", "165543.820000", "165543.822000", "165543.825000", "165543.827000", "165543.830000", "165543.832000", "165543.835000", "165543.837000", "165543.840000", "165543.843000", "165543.845000", "165543.848000", "165543.850000", "165543.853000", "165543.855000", "165543.858000", "165543.860000", "165543.863000", "165543.866000", "165543.868000", "165543.871000", "165623.775000", "165623.778000", "165623.780000", "165623.783000", "165623.785000", "165623.788000", "165623.790000", "165623.793000", "165623.795000", "165623.798000", "165623.801000", "165623.803000", "165623.806000", "165623.808000", "165623.811000", "165623.814000", "165623.816000", "165623.819000", "165623.821000", "165623.824000", "165623.826000", "165623.829000", "165623.831000", "165623.834000", "165623.836000", "165623.839000", "165623.842000", "165703.759000", "165703.762000", "165703.765000", "165703.767000", "165703.770000", "165703.772000", "165703.775000", "165703.778000", "165703.780000", "165703.783000", "165703.785000", "165703.788000", "165703.790000", "165703.793000", "165703.796000", "165703.798000", "165703.801000", "165703.803000", "165703.806000", "165703.808000", "165703.811000", "165703.814000", "165703.816000", "165703.819000", "165703.821000", "165703.824000", "165703.826000", "165744.190000", "165744.193000", "165744.205000", "165744.208000", "165744.210000", "165744.213000", "165744.215000", "165744.218000", "165744.220000", "165744.223000", "165744.226000", "165744.228000", "165744.231000", "165744.233000", "165744.236000", "165744.239000", "165744.241000", "165744.244000", "165744.246000", "165744.249000", "165744.251000", "165744.254000", "165744.257000", "165744.259000", "165744.262000", "165744.264000", "165744.267000", "165823.782000", "165823.785000", "165823.787000", "165823.790000", "165823.792000", "165823.795000", "165823.798000", "165823.800000", "165823.803000", "165823.805000", "165823.808000", "165823.810000", "165823.813000", "165823.816000", "165823.818000", "165823.821000", "165823.823000", "165823.826000", "165823.828000", "165823.831000", "165823.834000", "165823.836000", "165823.839000", "165823.841000", "165823.844000", "165823.846000", "165823.849000", "165903.773000", "165903.776000", "165903.779000", "165903.781000", "165903.784000", "165903.787000", "165903.789000", "165903.792000", "165903.795000", "165903.797000", "165903.800000", "165903.802000", "165903.805000", "165903.808000", "165903.810000", "165903.813000", "165903.816000", "165903.818000", "165903.821000", "165903.824000", "165903.826000", "165903.829000", "165903.832000", "165903.834000", "165903.837000", "165903.840000", "165903.842000", "165943.776000", "165943.778000", "165943.781000", "165943.784000", "165943.786000", "165943.789000", "165943.791000", "165943.794000", "165943.796000", "165943.799000", "165943.801000", "165943.804000", "165943.807000", "165943.809000", "165943.812000", "165943.814000", "165943.817000", "165943.819000", "165943.822000", "165943.825000", "165943.827000", "165943.830000", "165943.832000", "165943.835000", "165943.838000", "165943.840000", "165943.843000", "170023.761000", "170023.764000", "170023.767000", "170023.770000", "170023.772000", "170023.775000", "170023.778000", "170023.780000", "170023.783000", "170023.785000", "170023.788000", "170023.791000", "170023.793000", "170023.796000", "170023.798000", "170023.801000", "170023.803000", "170023.806000", "170023.808000", "170023.811000", "170023.814000", "170023.816000", "170023.819000", "170023.821000", "170023.824000", "170023.826000", "170035.248000", "170035.251000", "170035.254000", "170035.256000", "170035.259000", "170035.262000", "170035.264000", "170035.267000"],
      "InstanceCreationTime": ["165223.755000", "165223.758000", "165223.760000", "165223.763000", "165223.765000", "165223.768000", "165223.770000", "165223.773000", "165223.776000", "165223.778000", "165223.781000", "165223.783000", "165223.786000", "165243.753000", "165243.759000", "165243.761000", "165243.764000", "165243.766000", "165243.769000", "165243.771000", "165243.774000", "165243.776000", "165243.779000", "165243.782000", "165243.784000", "165243.787000", "165243.789000", "165243.792000", "165243.794000", "165243.797000", "165243.799000", "165243.802000", "165243.804000", "165303.739000", "165303.742000", "165303.751000", "165303.754000", "165303.756000", "165303.759000", "165303.761000", "165303.764000", "165303.766000", "165303.769000", "165303.772000", "165303.774000", "165303.777000", "165303.779000", "165303.782000", "165303.784000", "165303.787000", "165303.790000", "165303.792000", "165303.795000", "165323.744000", "165323.747000", "165323.749000", "165323.752000", "165323.754000", "165323.757000", "165323.760000", "165323.762000", "165323.765000", "165323.767000", "165323.770000", "165323.773000", "165323.775000", "165323.778000", "165323.780000", "165323.783000", "165323.785000", "165323.788000", "165323.790000", "165323.793000", "165343.732000", "165343.735000", "165343.737000", "165343.740000", "165343.742000", "165343.745000", "165343.747000", "165343.750000", "165343.752000", "165343.755000", "165343.757000", "165343.760000", "165343.762000", "165343.765000", "165343.768000", "165343.771000", "165343.773000", "165343.776000", "165343.778000", "165343.781000", "165343.783000", "165423.780000", "165423.783000", "165423.785000", "165423.788000", "165423.790000", "165423.793000", "165423.796000", "165423.798000", "165423.801000", "165423.803000", "165423.806000", "165423.808000", "165423.811000", "165423.813000", "165423.816000", "165423.818000", "165423.821000", "165423.824000", "165423.826000", "165423.829000", "165423.831000", "165423.834000", "165423.836000", "165423.839000", "165423.841000", "165423.844000", "165423.846000", "165423.849000", "165503.771000", "165503.774000", "165503.776000", "165503.779000", "165503.782000", "165503.784000", "165503.787000", "165503.789000", "165503.792000", "165503.794000", "165503.797000", "165503.800000", "165503.802000", "165503.805000", "165503.807000", "165503.810000", "165503.812000", "165503.815000", "165503.817000", "165503.820000", "165503.822000", "165503.825000", "165503.828000", "165503.830000", "165503.833000", "165503.835000", "165503.838000", "165543.807000", "165543.809000", "165543.812000", "165543.814000", "165543.817000", "165543.820000", "165543.822000", "165543.825000", "165543.827000", "165543.830000", "165543.832000", "165543.835000", "165543.837000", "165543.840000", "165543.843000", "165543.845000", "165543.848000", "165543.850000", "165543.853000", "165543.855000", "165543.858000", "165543.860000", "165543.863000", "165543.866000", "165543.868000", "165543.871000", "165623.775000", "165623.778000", "165623.780000", "165623.783000", "165623.785000", "165623.788000", "165623.790000", "165623.793000", "165623.795000", "165623.798000", "165623.801000", "165623.803000", "165623.806000", "165623.808000", "165623.811000", "165623.814000", "165623.816000", "165623.819000", "165623.821000", "165623.824000", "165623.826000", "165623.829000", "165623.831000", "165623.834000", "165623.836000", "165623.839000", "165623.842000", "165703.759000", "165703.762000", "165703.765000", "165703.767000", "165703.770000", "165703.772000", "165703.775000", "165703.778000", "165703.780000", "165703.783000", "165703.785000", "165703.788000", "165703.790000", "165703.793000", "165703.796000", "165703.798000", "165703.801000", "165703.803000", "165703.806000", "165703.808000", "165703.811000", "165703.814000", "165703.816000", "165703.819000", "165703.821000", "165703.824000", "165703.826000", "165744.190000", "165744.193000", "165744.205000", "165744.208000", "165744.210000", "165744.213000", "165744.215000", "165744.218000", "165744.220000", "165744.223000", "165744.226000", "165744.228000", "165744.231000", "165744.233000", "165744.236000", "165744.239000", "165744.241000", "165744.244000", "165744.246000", "165744.249000", "165744.251000", "165744.254000", "165744.257000", "165744.259000", "165744.262000", "165744.264000", "165744.267000", "165823.782000", "165823.785000", "165823.787000", "165823.790000", "165823.792000", "165823.795000", "165823.798000", "165823.800000", "165823.803000", "165823.805000", "165823.808000", "165823.810000", "165823.813000", "165823.816000", "165823.818000", "165823.821000", "165823.823000", "165823.826000", "165823.828000", "165823.831000", "165823.834000", "165823.836000", "165823.839000", "165823.841000", "165823.844000", "165823.846000", "165823.849000", "165903.773000", "165903.776000", "165903.779000", "165903.781000", "165903.784000", "165903.787000", "165903.789000", "165903.792000", "165903.795000", "165903.797000", "165903.800000", "165903.802000", "165903.805000", "165903.808000", "165903.810000", "165903.813000", "165903.816000", "165903.818000", "165903.821000", "165903.824000", "165903.826000", "165903.829000", "165903.832000", "165903.834000", "165903.837000", "165903.840000", "165903.842000", "165943.776000", "165943.778000", "165943.781000", "165943.784000", "165943.786000", "165943.789000", "165943.791000", "165943.794000", "165943.796000", "165943.799000", "165943.801000", "165943.804000", "165943.807000", "165943.809000", "165943.812000", "165943.814000", "165943.817000", "165943.819000", "165943.822000", "165943.825000", "165943.827000", "165943.830000", "165943.832000", "165943.835000", "165943.838000", "165943.840000", "165943.843000", "170023.761000", "170023.764000", "170023.767000", "170023.770000", "170023.772000", "170023.775000", "170023.778000", "170023.780000", "170023.783000", "170023.785000", "170023.788000", "170023.791000", "170023.793000", "170023.796000", "170023.798000", "170023.801000", "170023.803000", "170023.806000", "170023.808000", "170023.811000", "170023.814000", "170023.816000", "170023.819000", "170023.821000", "170023.824000", "170023.826000", "170035.248000", "170035.251000", "170035.254000", "170035.256000", "170035.259000", "170035.262000", "170035.264000", "170035.267000"],
      "InstanceNumber": [1, 2, 3, 4, 5, 6, 7, 8, 9, 10, 11, 12, 13, 14, 15, 16, 17, 18, 19, 20, 21, 22, 23, 24, 25, 26, 27, 28, 29, 30, 31, 32, 33, 34, 35, 36, 37, 38, 39, 40, 41, 42, 43, 44, 45, 46, 47, 48, 49, 50, 51, 52, 53, 54, 55, 56, 57, 58, 59, 60, 61, 62, 63, 64, 65, 66, 67, 68, 69, 70, 71, 72, 73, 74, 75, 76, 77, 78, 79, 80, 81, 82, 83, 84, 85, 86, 87, 88, 89, 90, 91, 92, 93, 94, 95, 96, 97, 98, 99, 100, 101, 102, 103, 104, 105, 106, 107, 108, 109, 110, 111, 112, 113, 114, 115, 116, 117, 118, 119, 120, 121, 122, 123, 124, 125, 126, 127, 128, 129, 130, 131, 132, 133, 134, 135, 136, 137, 138, 139, 140, 141, 142, 143, 144, 145, 146, 147, 148, 149, 150, 151, 152, 153, 154, 155, 156, 157, 158, 159, 160, 161, 162, 163, 164, 165, 166, 167, 168, 169, 170, 171, 172, 173, 174, 175, 176, 177, 178, 179, 180, 181, 182, 183, 184, 185, 186, 187, 188, 189, 190, 191, 192, 193, 194, 195, 196, 197, 198, 199, 200, 201, 202, 203, 204, 205, 206, 207, 208, 209, 210, 211, 212, 213, 214, 215, 216, 217, 218, 219, 220, 221, 222, 223, 224, 225, 226, 227, 228, 229, 230, 231, 232, 233, 234, 235, 236, 237, 238, 239, 240, 241, 242, 243, 244, 245, 246, 247, 248, 249, 250, 251, 252, 253, 254, 255, 256, 257, 258, 259, 260, 261, 262, 263, 264, 265, 266, 267, 268, 269, 270, 271, 272, 273, 274, 275, 276, 277, 278, 279, 280, 281, 282, 283, 284, 285, 286, 287, 288, 289, 290, 291, 292, 293, 294, 295, 296, 297, 298, 299, 300, 301, 302, 303, 304, 305, 306, 307, 308, 309, 310, 311, 312, 313, 314, 315, 316, 317, 318, 319, 320, 321, 322, 323, 324, 325, 326, 327, 328, 329, 330, 331, 332, 333, 334, 335, 336, 337, 338, 339, 340, 341, 342, 343, 344, 345, 346, 347, 348, 349, 350, 351, 352, 353, 354, 355, 356, 357, 358, 359, 360, 361, 362, 363, 364, 365, 366, 367, 368, 369, 370, 371],
