{
  "AcquisitionMatrixPE": 104,
  "AcquisitionNumber": 1,
  "AcquisitionTime": "16:28:18.692500",
  "BandwidthPerPixelPhaseEncode": 17.17,
  "BaseResolution": 104,
  "BodyPartExamined": "BRAIN",
  "CoilCombinationMethod": "Sum of Squares",
  "ConsistencyInfo": "N4_VE11C_LATEST_20160120",
  "ConversionSoftware": "dcm2niix",
  "ConversionSoftwareVersion": "v1.0.20220505",
  "DerivedVendorReportedEchoSpacing": 0.000560011,
  "DeviceSerialNumber": "167006",
  "DwellTime": 2.1e-06,
  "EchoTime": 0.037,
  "EchoTrainLength": 104,
  "EffectiveEchoSpacing": 0.000560011,
  "FlipAngle": 52,
  "HeudiconvVersion": "0.5.3.post811+g6206e14",
  "ImageComments": "Unaliased MB4/PE3/LB",
  "ImageOrientationPatientDICOM": [0.99869, 0.00632776, 0.0507711, 0.0223146, 0.8391, -0.543519],
  "ImageOrientationText": "Tra>Cor(-33.0)>Sag(2.6)",
  "ImageType": [
    "ORIGINAL",
    "PRIMARY",
    "M",
    "MB",
    "ND",
    "MOSAIC"
],
  "ImagingFrequency": 123.259,
  "InPlanePhaseEncodingDirectionDICOM": "COL",
  "InstitutionAddress": "Chemin Queen-Mary 4565,Montreal,District,CA,H3W 1W5",
  "InstitutionName": "IUGM",
  "InstitutionalDepartmentName": "Department",
  "MRAcquisitionType": "2D",
  "MagneticFieldStrength": 3,
  "Manufacturer": "Siemens",
  "ManufacturersModelName": "Prisma_fit",
  "MatrixCoilMode": "SENSE",
  "Modality": "MR",
  "MultibandAccelerationFactor": 4,
  "PartialFourier": 1,
  "PatientPosition": "HFS",
  "PercentPhaseFOV": 100,
  "PercentSampling": 100,
  "PhaseEncodingDirection": "j",
  "PhaseEncodingSteps": 104,
  "PhaseResolution": 1,
  "PixelBandwidth": 2290,
  "ProcedureStepDescription": "games^mario3",
  "ProtocolName": "func_task-mario3_run-01",
  "PulseSequenceDetails": "%CustomerSeq%\\cmrr_mbep2d_bold",
  "ReceiveCoilActiveElements": "HC1-7;NC1,2",
  "ReceiveCoilName": "HeadNeck_64",
  "ReconMatrixPE": 104,
  "RepetitionTime": 1.49,
  "SAR": 0.0958155,
  "ScanOptions": "FS",
  "ScanningSequence": "EP",
  "SequenceName": "epfid2d1_104",
  "SequenceVariant": "SK\\SS",
  "SeriesDescription": "func_task-mario3_run-01",
  "SeriesNumber": 10,
  "ShimSetting": [628, -7193, -8870, 224, 50, -216, -39, 58],
  "SliceThickness": 2,
  "SliceTiming": [0, 0.7825, 0.0975, 0.8825, 0.195, 0.98, 0.2925, 1.0775, 0.3925, 1.175, 0.49, 1.2725, 0.5875, 1.3725, 0.685, 0, 0.7825, 0.0975, 0.8825, 0.195, 0.98, 0.2925, 1.0775, 0.3925, 1.175, 0.49, 1.2725, 0.5875, 1.3725, 0.685, 0, 0.7825, 0.0975, 0.8825, 0.195, 0.98, 0.2925, 1.0775, 0.3925, 1.175, 0.49, 1.2725, 0.5875, 1.3725, 0.685, 0, 0.7825, 0.0975, 0.8825, 0.195, 0.98, 0.2925, 1.0775, 0.3925, 1.175, 0.49, 1.2725, 0.5875, 1.3725, 0.685],
  "SoftwareVersions": "syngo MR E11",
  "SpacingBetweenSlices": 2,
  "StationName": "MRC35049",
  "TaskName": "mario3",
  "TotalReadoutTime": 0.0576811,
  "TxRefAmp": 321.071,
  "WipMemBlock": "d5784be4-4700-4642-b18d-d00a2116952f||Sequence: R017 ve11c/master r/75a17815+; Jun 28 2022 16:32:11 by eja",
  "dcmmeta_affine": [
    [-1.9973804950714111, 0.0446292906999588, 0.09208263456821442, 102.88335418701172],
    [-0.01265551708638668, 1.6782008409500122, -1.0878794193267822, -46.65126419067383],
    [0.10154221951961517, 1.087037205696106, 1.6757205724716187, -95.35989379882812],
    [0.0, 0.0, 0.0, 1.0]
],
  "dcmmeta_reorient_transform": [
    [0.0, -1.0, 0.0, 103.0],
    [1.0, 0.0, 0.0, 0.0],
    [0.0, 0.0, 1.0, 0.0],
    [0.0, 0.0, 0.0, 1.0]
],
  "dcmmeta_shape": [104, 104, 60, 333],
  "dcmmeta_slice_dim": 2,
  "dcmmeta_version": 0.6,
  "global": {
    "const": {
      "AcquisitionMatrix": [104, 0, 0, 104],
      "AngioFlag": "N",
      "BitsAllocated": 16,
      "BitsStored": 16,
      "BodyPartExamined": "BRAIN",
      "Columns": 832,
      "EchoNumbers": 1,
      "EchoTime": 37.0,
      "EchoTrainLength": 104,
      "FlipAngle": 52.0,
      "HighBit": 15,
      "ImageOrientationPatient": [0.99869026926487, 0.00632775836548, 0.05077110940018, 0.022314644916, 0.83910044691734, -0.5435186258128],
      "ImagePositionPatient": [-850.77175052476, -741.6751631271, 375.3251369939],
      "ImageType": [
        "ORIGINAL",
        "PRIMARY",
        "M",
        "MB",
        "ND",
        "MOSAIC"
],
      "ImagedNucleus": "1H",
      "ImagingFrequency": 123.258785,
      "InPlanePhaseEncodingDirection": "COL",
      "MRAcquisitionType": "2D",
      "MagneticFieldStrength": 3.0,
      "Manufacturer": "SIEMENS",
      "ManufacturerModelName": "Prisma_fit",
      "Modality": "MR",
      "NumberOfAverages": 1.0,
      "NumberOfPhaseEncodingSteps": 104,
      "PercentPhaseFieldOfView": 100.0,
      "PercentSampling": 100.0,
      "PerformedProcedureStepStartTime": "162500.322000",
      "PhotometricInterpretation": "MONOCHROME2",
      "PixelBandwidth": 2290.0,
      "PixelRepresentation": 0,
      "PixelSpacing": [2.0, 2.0],
      "ProtocolName": "func_task-mario3_run-01",
      "RepetitionTime": 1490.0,
      "Rows": 832,
      "SAR": 0.09581549816711,
      "SamplesPerPixel": 1,
      "ScanOptions": "FS",
      "ScanningSequence": "EP",
      "SequenceName": "epfid2d1_104",
      "SequenceVariant": [
        "SK",
        "SS"
],
      "SeriesDescription": "func_task-mario3_run-01",
      "SeriesNumber": 10,
      "SeriesTime": "162945.396000",
      "SliceLocation": -49.785904022897,
      "SliceThickness": 2.0,
      "SmallestImagePixelValue": 0,
      "SoftwareVersions": "syngo MR E11",
      "SpacingBetweenSlices": 2.0000000343028,
      "SpecificCharacterSet": "ISO_IR 100",
      "StudyID": "1",
      "StudyTime": "162500.245000",
      "TransmitCoilName": "Body",
      "VariableFlipAngleFlag": "N",
      "WindowCenterWidthExplanation": "Algo1",
      "dBdt": 0.0},
    "slices": {}
  },
  "time": {
    "samples": {
      "AcquisitionNumber": [1, 2, 3, 4, 5, 6, 7, 8, 9, 10, 11, 12, 13, 14, 15, 16, 17, 18, 19, 20, 21, 22, 23, 24, 25, 26, 27, 28, 29, 30, 31, 32, 33, 34, 35, 36, 37, 38, 39, 40, 41, 42, 43, 44, 45, 46, 47, 48, 49, 50, 51, 52, 53, 54, 55, 56, 57, 58, 59, 60, 61, 62, 63, 64, 65, 66, 67, 68, 69, 70, 71, 72, 73, 74, 75, 76, 77, 78, 79, 80, 81, 82, 83, 84, 85, 86, 87, 88, 89, 90, 91, 92, 93, 94, 95, 96, 97, 98, 99, 100, 101, 102, 103, 104, 105, 106, 107, 108, 109, 110, 111, 112, 113, 114, 115, 116, 117, 118, 119, 120, 121, 122, 123, 124, 125, 126, 127, 128, 129, 130, 131, 132, 133, 134, 135, 136, 137, 138, 139, 140, 141, 142, 143, 144, 145, 146, 147, 148, 149, 150, 151, 152, 153, 154, 155, 156, 157, 158, 159, 160, 161, 162, 163, 164, 165, 166, 167, 168, 169, 170, 171, 172, 173, 174, 175, 176, 177, 178, 179, 180, 181, 182, 183, 184, 185, 186, 187, 188, 189, 190, 191, 192, 193, 194, 195, 196, 197, 198, 199, 200, 201, 202, 203, 204, 205, 206, 207, 208, 209, 210, 211, 212, 213, 214, 215, 216, 217, 218, 219, 220, 221, 222, 223, 224, 225, 226, 227, 228, 229, 230, 231, 232, 233, 234, 235, 236, 237, 238, 239, 240, 241, 242, 243, 244, 245, 246, 247, 248, 249, 250, 251, 252, 253, 254, 255, 256, 257, 258, 259, 260, 261, 262, 263, 264, 265, 266, 267, 268, 269, 270, 271, 272, 273, 274, 275, 276, 277, 278, 279, 280, 281, 282, 283, 284, 285, 286, 287, 288, 289, 290, 291, 292, 293, 294, 295, 296, 297, 298, 299, 300, 301, 302, 303, 304, 305, 306, 307, 308, 309, 310, 311, 312, 313, 314, 315, 316, 317, 318, 319, 320, 321, 322, 323, 324, 325, 326, 327, 328, 329, 330, 331, 332, 333],
      "AcquisitionTime": ["162818.692500", "162820.182500", "162821.672500", "162823.162500", "162824.652500", "162826.142500", "162827.632500", "162829.122500", "162830.612500", "162832.102500", "162833.592500", "162835.082500", "162836.572500", "162838.062500", "162839.552500", "162841.042500", "162842.532500", "162844.022500", "162845.512500", "162847.002500", "162848.492500", "162849.982500", "162851.472500", "162852.962500", "162854.452500", "162855.942500", "162857.432500", "162858.922500", "162900.412500", "162901.902500", "162903.392500", "162904.882500", "162906.372500", "162907.862500", "162909.352500", "162910.842500", "162912.332500", "162913.822500", "162915.312500", "162916.802500", "162918.292500", "162919.782500", "162921.272500", "162922.762500", "162924.252500", "162925.742500", "162927.232500", "162928.722500", "162930.212500", "162931.702500", "162933.192500", "162934.682500", "162936.172500", "162937.662500", "162939.152500", "162940.642500", "162942.132500", "162943.622500", "162945.112500", "162946.602500", "162948.092500", "162949.582500", "162951.072500", "162952.562500", "162954.052500", "162955.542500", "162957.032500", "162958.522500", "163000.012500", "163001.502500", "163002.992500", "163004.482500", "163005.972500", "163007.462500", "163008.952500", "163010.442500", "163011.932500", "163013.422500", "163014.912500", "163016.402500", "163017.892500", "163019.382500", "163020.872500", "163022.362500", "163023.852500", "163025.342500", "163026.832500", "163028.322500", "163029.812500", "163031.302500", "163032.792500", "163034.282500", "163035.772500", "163037.262500", "163038.752500", "163040.242500", "163041.732500", "163043.222500", "163044.712500", "163046.202500", "163047.692500", "163049.182500", "163050.672500", "163052.162500", "163053.652500", "163055.142500", "163056.632500", "163058.122500", "163059.612500", "163101.102500", "163102.592500", "163104.082500", "163105.572500", "163107.062500", "163108.552500", "163110.042500", "163111.532500", "163113.022500", "163114.512500", "163116.002500", "163117.492500", "163118.982500", "163120.472500", "163121.962500", "163123.452500", "163124.942500", "163126.432500", "163127.922500", "163129.412500", "163130.902500", "163132.392500", "163133.882500", "163135.372500", "163136.862500", "163138.352500", "163139.842500", "163141.332500", "163142.822500", "163144.312500", "163145.802500", "163147.292500", "163148.782500", "163150.272500", "163151.762500", "163153.252500", "163154.742500", "163156.232500", "163157.722500", "163159.212500", "163200.702500", "163202.192500", "163203.682500", "163205.172500", "163206.662500", "163208.152500", "163209.642500", "163211.132500", "163212.622500", "163214.112500", "163215.602500", "163217.092500", "163218.582500", "163220.072500", "163221.562500", "163223.052500", "163224.542500", "163226.032500", "163227.522500", "163229.012500", "163230.502500", "163231.992500", "163233.482500", "163234.972500", "163236.462500", "163237.952500", "163239.442500", "163240.932500", "163242.422500", "163243.912500", "163245.402500", "163246.892500", "163248.382500", "163249.872500", "163251.362500", "163252.852500", "163254.342500", "163255.832500", "163257.322500", "163258.812500", "163300.302500", "163301.792500", "163303.282500", "163304.772500", "163306.262500", "163307.752500", "163309.242500", "163310.732500", "163312.222500", "163313.712500", "163315.202500", "163316.692500", "163318.182500", "163319.672500", "163321.162500", "163322.652500", "163324.142500", "163325.632500", "163327.122500", "163328.612500", "163330.102500", "163331.592500", "163333.082500", "163334.572500", "163336.062500", "163337.552500", "163339.042500", "163340.532500", "163342.022500", "163343.512500", "163345.002500", "163346.492500", "163347.982500", "163349.472500", "163350.962500", "163352.452500", "163353.942500", "163355.432500", "163356.922500", "163358.412500", "163359.902500", "163401.392500", "163402.882500", "163404.372500", "163405.862500", "163407.352500", "163408.842500", "163410.332500", "163411.822500", "163413.312500", "163414.802500", "163416.292500", "163417.782500", "163419.272500", "163420.762500", "163422.252500", "163423.742500", "163425.232500", "163426.722500", "163428.212500", "163429.702500", "163431.192500", "163432.682500", "163434.172500", "163435.662500", "163437.152500", "163438.642500", "163440.132500", "163441.622500", "163443.112500", "163444.602500", "163446.092500", "163447.582500", "163449.072500", "163450.562500", "163452.052500", "163453.542500", "163455.032500", "163456.522500", "163458.012500", "163459.502500", "163500.992500", "163502.482500", "163503.972500", "163505.462500", "163506.952500", "163508.442500", "163509.932500", "163511.422500", "163512.912500", "163514.402500", "163515.892500", "163517.382500", "163518.872500", "163520.362500", "163521.852500", "163523.342500", "163524.832500", "163526.322500", "163527.812500", "163529.302500", "163530.792500", "163532.282500", "163533.772500", "163535.262500", "163536.752500", "163538.242500", "163539.732500", "163541.222500", "163542.712500", "163544.202500", "163545.692500", "163547.182500", "163548.672500", "163550.162500", "163551.652500", "163553.142500", "163554.632500", "163556.122500", "163557.612500", "163559.102500", "163600.592500", "163602.082500", "163603.572500", "163605.062500", "163606.552500", "163608.042500", "163609.532500", "163611.022500", "163612.512500", "163614.002500", "163615.492500", "163616.982500", "163618.472500", "163619.962500", "163621.452500", "163622.942500", "163624.432500", "163625.922500", "163627.412500", "163628.902500", "163630.392500", "163631.882500", "163633.372500"],
      "ContentTime": ["162945.399000", "162945.406000", "162945.409000", "162945.413000", "162945.416000", "162945.420000", "162945.423000", "162945.427000", "162945.430000", "162945.433000", "162945.437000", "162945.440000", "162945.444000", "162945.447000", "162945.450000", "162945.454000", "162945.457000", "162945.461000", "162945.464000", "162945.467000", "162945.471000", "162945.474000", "162945.477000", "162945.481000", "162945.484000", "162945.488000", "162945.491000", "162945.495000", "162945.498000", "162945.501000", "162945.505000", "162945.508000", "162945.512000", "162945.515000", "162945.518000", "162945.522000", "162945.525000", "163005.347000", "163005.351000", "163005.363000", "163005.366000", "163005.370000", "163005.373000", "163005.377000", "163005.381000", "163005.384000", "163005.388000", "163005.391000", "163005.395000", "163005.398000", "163005.401000", "163005.405000", "163005.408000", "163005.412000", "163005.415000", "163005.419000", "163005.422000", "163005.425000", "163025.347000", "163025.351000", "163025.354000", "163025.358000", "163025.361000", "163025.365000", "163025.368000", "163025.371000", "163025.375000", "163025.378000", "163025.382000", "163025.385000", "163025.388000", "163025.392000", "163025.395000", "163025.399000", "163025.402000", "163025.405000", "163025.409000", "163025.412000", "163105.346000", "163105.350000", "163105.353000", "163105.357000", "163105.360000", "163105.364000", "163105.367000", "163105.371000", "163105.374000", "163105.377000", "163105.381000", "163105.384000", "163105.388000", "163105.391000", "163105.394000", "163105.398000", "163105.401000", "163105.405000", "163105.408000", "163105.411000", "163105.415000", "163105.418000", "163105.422000", "163105.425000", "163105.429000", "163105.432000", "163105.436000", "163105.439000", "163105.457000", "163105.460000", "163105.463000", "163105.467000", "163105.470000", "163145.347000", "163145.351000", "163145.355000", "163145.358000", "163145.361000", "163145.365000", "163145.368000", "163145.372000", "163145.375000", "163145.379000", "163145.382000", "163145.385000", "163145.389000", "163145.392000", "163145.396000", "163145.399000", "163145.402000", "163145.406000", "163145.417000", "163145.421000", "163145.424000", "163145.428000", "163145.431000", "163145.435000", "163145.438000", "163145.441000", "163145.445000", "163225.347000", "163225.351000", "163225.354000", "163225.358000", "163225.361000", "163225.365000", "163225.368000", "163225.372000", "163225.376000", "163225.379000", "163225.383000", "163225.386000", "163225.390000", "163225.393000", "163225.397000", "163225.400000", "163225.403000", "163225.407000", "163225.410000", "163225.414000", "163225.417000", "163225.421000", "163225.424000", "163225.433000", "163225.436000", "163225.440000", "163305.346000", "163305.350000", "163305.353000", "163305.357000", "163305.360000", "163305.364000", "163305.367000", "163305.371000", "163305.374000", "163305.385000", "163305.389000", "163305.392000", "163305.396000", "163305.399000", "163305.402000", "163305.406000", "163305.409000", "163305.413000", "163305.416000", "163305.419000", "163305.423000", "163305.426000", "163305.430000", "163305.433000", "163305.437000", "163305.440000", "163305.443000", "163345.346000", "163345.350000", "163345.354000", "163345.370000", "163345.374000", "163345.377000", "163345.380000", "163345.384000", "163345.387000", "163345.391000", "163345.395000", "163345.399000", "163345.402000", "163345.405000", "163345.409000", "163345.412000", "163345.416000", "163345.419000", "163345.423000", "163345.426000", "163345.429000", "163345.433000", "163345.441000", "163345.444000", "163345.447000", "163345.451000", "163345.454000", "163425.347000", "163425.351000", "163425.355000", "163425.358000", "163425.361000", "163425.365000", "163425.368000", "163425.384000", "163425.387000", "163425.391000", "163425.394000", "163425.398000", "163425.401000", "163425.405000", "163425.408000", "163425.411000", "163425.415000", "163425.418000", "163425.422000", "163425.425000", "163425.429000", "163425.432000", "163425.436000", "163425.439000", "163425.442000", "163425.446000", "163425.449000", "163505.347000", "163505.351000", "163505.354000", "163505.358000", "163505.361000", "163505.365000", "163505.368000", "163505.371000", "163505.375000", "163505.378000", "163505.382000", "163505.385000", "163505.389000", "163505.392000", "163505.396000", "163505.399000", "163505.402000", "163505.406000", "163505.409000", "163505.413000", "163505.416000", "163505.420000", "163505.423000", "163505.426000", "163505.430000", "163505.433000", "163505.437000", "163545.347000", "163545.350000", "163545.354000", "163545.357000", "163545.361000", "163545.364000", "163545.367000", "163545.371000", "163545.374000", "163545.378000", "163545.381000", "163545.385000", "163545.388000", "163545.392000", "163545.395000", "163545.418000", "163545.422000", "163545.425000", "163545.429000", "163545.432000", "163545.435000", "163545.439000", "163545.442000", "163545.446000", "163545.449000", "163545.452000", "163545.456000", "163625.347000", "163625.351000", "163625.355000", "163625.358000", "163625.361000", "163625.365000", "163625.369000", "163625.372000", "163625.376000", "163625.379000", "163625.383000", "163625.387000", "163625.391000", "163625.395000", "163625.399000", "163625.402000", "163625.406000", "163625.410000", "163625.414000", "163625.418000", "163625.422000", "163625.425000", "163625.429000", "163625.432000", "163625.436000", "163625.439000", "163636.841000", "163636.845000", "163636.848000", "163636.852000", "163636.855000", "163636.859000", "163636.862000", "163636.866000"],
      "InstanceCreationTime": ["162945.399000", "162945.406000", "162945.409000", "162945.413000", "162945.416000", "162945.420000", "162945.423000", "162945.427000", "162945.430000", "162945.433000", "162945.437000", "162945.440000", "162945.444000", "162945.447000", "162945.450000", "162945.454000", "162945.457000", "162945.461000", "162945.464000", "162945.467000", "162945.471000", "162945.474000", "162945.477000", "162945.481000", "162945.484000", "162945.488000", "162945.491000", "162945.495000", "162945.498000", "162945.501000", "162945.505000", "162945.508000", "162945.512000", "162945.515000", "162945.518000", "162945.522000", "162945.525000", "163005.347000", "163005.351000", "163005.363000", "163005.366000", "163005.370000", "163005.373000", "163005.377000", "163005.381000", "163005.384000", "163005.388000", "163005.391000", "163005.395000", "163005.398000", "163005.401000", "163005.405000", "163005.408000", "163005.412000", "163005.415000", "163005.419000", "163005.422000", "163005.425000", "163025.347000", "163025.351000", "163025.354000", "163025.358000", "163025.361000", "163025.365000", "163025.368000", "163025.371000", "163025.375000", "163025.378000", "163025.382000", "163025.385000", "163025.388000", "163025.392000", "163025.395000", "163025.399000", "163025.402000", "163025.405000", "163025.409000", "163025.412000", "163105.346000", "163105.350000", "163105.353000", "163105.357000", "163105.360000", "163105.364000", "163105.367000", "163105.371000", "163105.374000", "163105.377000", "163105.381000", "163105.384000", "163105.388000", "163105.391000", "163105.394000", "163105.398000", "163105.401000", "163105.405000", "163105.408000", "163105.411000", "163105.415000", "163105.418000", "163105.422000", "163105.425000", "163105.429000", "163105.432000", "163105.436000", "163105.439000", "163105.457000", "163105.460000", "163105.463000", "163105.467000", "163105.470000", "163145.347000", "163145.351000", "163145.355000", "163145.358000", "163145.361000", "163145.365000", "163145.368000", "163145.372000", "163145.375000", "163145.379000", "163145.382000", "163145.385000", "163145.389000", "163145.392000", "163145.396000", "163145.399000", "163145.402000", "163145.406000", "163145.417000", "163145.421000", "163145.424000", "163145.428000", "163145.431000", "163145.435000", "163145.438000", "163145.441000", "163145.445000", "163225.347000", "163225.351000", "163225.354000", "163225.358000", "163225.361000", "163225.365000", "163225.368000", "163225.372000", "163225.376000", "163225.379000", "163225.383000", "163225.386000", "163225.390000", "163225.393000", "163225.397000", "163225.400000", "163225.403000", "163225.407000", "163225.410000", "163225.414000", "163225.417000", "163225.421000", "163225.424000", "163225.433000", "163225.436000", "163225.440000", "163305.346000", "163305.350000", "163305.353000", "163305.357000", "163305.360000", "163305.364000", "163305.367000", "163305.371000", "163305.374000", "163305.385000", "163305.389000", "163305.392000", "163305.396000", "163305.399000", "163305.402000", "163305.406000", "163305.409000", "163305.413000", "163305.416000", "163305.419000", "163305.423000", "163305.426000", "163305.430000", "163305.433000", "163305.437000", "163305.440000", "163305.443000", "163345.346000", "163345.350000", "163345.354000", "163345.370000", "163345.374000", "163345.377000", "163345.380000", "163345.384000", "163345.387000", "163345.391000", "163345.395000", "163345.399000", "163345.402000", "163345.405000", "163345.409000", "163345.412000", "163345.416000", "163345.419000", "163345.423000", "163345.426000", "163345.429000", "163345.433000", "163345.441000", "163345.444000", "163345.447000", "163345.451000", "163345.454000", "163425.347000", "163425.351000", "163425.355000", "163425.358000", "163425.361000", "163425.365000", "163425.368000", "163425.384000", "163425.387000", "163425.391000", "163425.394000", "163425.398000", "163425.401000", "163425.405000", "163425.408000", "163425.411000", "163425.415000", "163425.418000", "163425.422000", "163425.425000", "163425.429000", "163425.432000", "163425.436000", "163425.439000", "163425.442000", "163425.446000", "163425.449000", "163505.347000", "163505.351000", "163505.354000", "163505.358000", "163505.361000", "163505.365000", "163505.368000", "163505.371000", "163505.375000", "163505.378000", "163505.382000", "163505.385000", "163505.389000", "163505.392000", "163505.396000", "163505.399000", "163505.402000", "163505.406000", "163505.409000", "163505.413000", "163505.416000", "163505.420000", "163505.423000", "163505.426000", "163505.430000", "163505.433000", "163505.437000", "163545.347000", "163545.350000", "163545.354000", "163545.357000", "163545.361000", "163545.364000", "163545.367000", "163545.371000", "163545.374000", "163545.378000", "163545.381000", "163545.385000", "163545.388000", "163545.392000", "163545.395000", "163545.418000", "163545.422000", "163545.425000", "163545.429000", "163545.432000", "163545.435000", "163545.439000", "163545.442000", "163545.446000", "163545.449000", "163545.452000", "163545.456000", "163625.347000", "163625.351000", "163625.355000", "163625.358000", "163625.361000", "163625.365000", "163625.369000", "163625.372000", "163625.376000", "163625.379000", "163625.383000", "163625.387000", "163625.391000", "163625.395000", "163625.399000", "163625.402000", "163625.406000", "163625.410000", "163625.414000", "163625.418000", "163625.422000", "163625.425000", "163625.429000", "163625.432000", "163625.436000", "163625.439000", "163636.841000", "163636.845000", "163636.848000", "163636.852000", "163636.855000", "163636.859000", "163636.862000", "163636.866000"],
      "InstanceNumber": [1, 2, 3, 4, 5, 6, 7, 8, 9, 10, 11, 12, 13, 14, 15, 16, 17, 18, 19, 20, 21, 22, 23, 24, 25, 26, 27, 28, 29, 30, 31, 32, 33, 34, 35, 36, 37, 38, 39, 40, 41, 42, 43, 44, 45, 46, 47, 48, 49, 50, 51, 52, 53, 54, 55, 56, 57, 58, 59, 60, 61, 62, 63, 64, 65, 66, 67, 68, 69, 70, 71, 72, 73, 74, 75, 76, 77, 78, 79, 80, 81, 82, 83, 84, 85, 86, 87, 88, 89, 90, 91, 92, 93, 94, 95, 96, 97, 98, 99, 100, 101, 102, 103, 104, 105, 106, 107, 108, 109, 110, 111, 112, 113, 114, 115, 116, 117, 118, 119, 120, 121, 122, 123, 124, 125, 126, 127, 128, 129, 130, 131, 132, 133, 134, 135, 136, 137, 138, 139, 140, 141, 142, 143, 144, 145, 146, 147, 148, 149, 150, 151, 152, 153, 154, 155, 156, 157, 158, 159, 160, 161, 162, 163, 164, 165, 166, 167, 168, 169, 170, 171, 172, 173, 174, 175, 176, 177, 178, 179, 180, 181, 182, 183, 184, 185, 186, 187, 188, 189, 190, 191, 192, 193, 194, 195, 196, 197, 198, 199, 200, 201, 202, 203, 204, 205, 206, 207, 208, 209, 210, 211, 212, 213, 214, 215, 216, 217, 218, 219, 220, 221, 222, 223, 224, 225, 226, 227, 228, 229, 230, 231, 232, 233, 234, 235, 236, 237, 238, 239, 240, 241, 242, 243, 244, 245, 246, 247, 248, 249, 250, 251, 252, 253, 254, 255, 256, 257, 258, 259, 260, 261, 262, 263, 264, 265, 266, 267, 268, 269, 270, 271, 272, 273, 274, 275, 276, 277, 278, 279, 280, 281, 282, 283, 284, 285, 286, 287, 288, 289, 290, 291, 292, 293, 294, 295, 296, 297, 298, 299, 300, 301, 302, 303, 304, 305, 306, 307, 308, 309, 310, 311, 312, 313, 314, 315, 316, 317, 318, 319, 320, 321, 322, 323, 324, 325, 326, 327, 328, 329, 330, 331, 332, 333],
      "LargestImagePixelValue": [47929, 46618, 45977, 45571, 45694, 46185, 44539, 44344, 44326, 45285, 46000, 46078, 45596, 45179, 43173, 45476, 47150, 44927, 46363, 47070, 47105, 47404, 47605, 47230, 46940, 46218, 46683, 45794, 47258, 47622, 46701, 48086, 45567, 47101, 47567, 46978, 47325, 47515, 47672, 45299, 45982, 45967, 43511, 46563, 47686, 47131, 47799, 47470, 47218, 46496, 46182, 46812, 45287, 47413, 47204, 46783, 47099, 45426, 44971, 45287, 44887, 44765, 46361, 45396, 44916, 46210, 45386, 46380, 46558, 42680, 46582, 46985, 46610, 44923, 43513, 43877, 47016, 47185, 46570, 45857, 45245, 43604, 42931, 41880, 41560, 41656, 43619, 44638, 45397, 52657, 47913, 45153, 47172, 45509, 46558, 45583, 47222, 45994, 46821, 46609, 45708, 44619, 45478, 46084, 46250, 45488, 44221, 45740, 46806, 44551, 46631, 45413, 44971, 45436, 46324, 45811, 45325, 44777, 44056, 44100, 44400, 43455, 49692, 47167, 46893, 46298, 47383, 44480, 45075, 46770, 45353, 45411, 46646, 45695, 46093, 45071, 46447, 45651, 45565, 45326, 44432, 45613, 45526, 44805, 43882, 44958, 45282, 44030, 44112, 43511, 43643, 43252, 43837, 43749, 43429, 43359, 43299, 43937, 41944, 42345, 42520, 42446, 45923, 42494, 42625, 42455, 43437, 44253, 43989, 43047, 43497, 43327, 43268, 45522, 45540, 45544, 43858, 44189, 44112, 43891, 43207, 43939, 44569, 44384, 44713, 44980, 44705, 43772, 44792, 44163, 44234, 44078, 46790, 44381, 45879, 45257, 44176, 44361, 45065, 44916, 44461, 46269, 44697, 45823, 45717, 44048, 44249, 44801, 44323, 43355, 44321, 43923, 45774, 44233, 45438, 44438, 44873, 46270, 45398, 44109, 44778, 41939, 43825, 44617, 44239, 44901, 44466, 42996, 42608, 43141, 43897, 42044, 42464, 43224, 42472, 43598, 44144, 43583, 44366, 42538, 45161, 44620, 43450, 44143, 43646, 43512, 43954, 43577, 42453, 42365, 42631, 43113, 42763, 42818, 42062, 42514, 40894, 41546, 41281, 41392, 41821, 41568, 42306, 42182, 42026, 43184, 44347, 44359, 43180, 43820, 44152, 44217, 43456, 42673, 43084, 43704, 43412, 41714, 42008, 43396, 42468, 41860, 41665, 41411, 43177, 44581, 42964, 44179, 42891, 43275, 42513, 43343, 42461, 42843, 43426, 43562, 42953, 43285, 43771, 43764, 43124, 42836, 43023, 41787, 42990, 44182, 43005, 43441, 42416, 43041, 41722, 42718, 42460, 43730, 42842, 42949, 43007, 41835, 45787, 44122, 44529, 43816, 43547, 42595, 42958, 43233, 42783, 42499, 43117, 43309, 43269, 43505, 42276],
