{
  "AcquisitionMatrixPE": 104,
  "AcquisitionNumber": 1,
  "AcquisitionTime": "16:38:54.412500",
  "BandwidthPerPixelPhaseEncode": 17.17,
  "BaseResolution": 104,
  "BodyPartExamined": "BRAIN",
  "CoilCombinationMethod": "Sum of Squares",
  "ConsistencyInfo": "N4_VE11C_LATEST_20160120",
  "ConversionSoftware": "dcm2niix",
  "ConversionSoftwareVersion": "v1.0.20220505",
  "DerivedVendorReportedEchoSpacing": 0.000560011,
  "DeviceSerialNumber": "167006",
  "DwellTime": 2.1e-06,
  "EchoTime": 0.037,
  "EchoTime1": 0.037,
  "EchoTime2": 0.001,
  "EchoTrainLength": 104,
  "EffectiveEchoSpacing": 0.000560011,
  "FlipAngle": 52,
  "HeudiconvVersion": "0.5.3.post811+g6206e14",
  "ImageComments": "Unaliased MB4/PE3/LB",
  "ImageOrientationPatientDICOM": [0.99869, 0.00632776, 0.0507711, 0.0223146, 0.8391, -0.543519],
  "ImageOrientationText": "Tra>Cor(-33.0)>Sag(2.6)",
  "ImageType": [
    "ORIGINAL",
    "PRIMARY",
    "P",
    "MB",
    "ND",
    "MOSAIC",
    "PHASE"
],
  "ImagingFrequency": 123.259,
  "InPlanePhaseEncodingDirectionDICOM": "COL",
  "InstitutionAddress": "Chemin Queen-Mary 4565,Montreal,District,CA,H3W 1W5",
  "InstitutionName": "IUGM",
  "InstitutionalDepartmentName": "Department",
  "MRAcquisitionType": "2D",
  "MagneticFieldStrength": 3,
  "Manufacturer": "Siemens",
  "ManufacturersModelName": "Prisma_fit",
  "MatrixCoilMode": "SENSE",
  "Modality": "MR",
  "MultibandAccelerationFactor": 4,
  "PartialFourier": 1,
  "PatientPosition": "HFS",
  "PercentPhaseFOV": 100,
  "PercentSampling": 100,
  "PhaseEncodingDirection": "j",
  "PhaseEncodingSteps": 104,
  "PhaseResolution": 1,
  "PixelBandwidth": 2290,
  "ProcedureStepDescription": "games^mario3",
  "ProtocolName": "func_task-mario3_run-02",
  "PulseSequenceDetails": "%CustomerSeq%\\cmrr_mbep2d_bold",
  "ReceiveCoilActiveElements": "HC1-7;NC1,2",
  "ReceiveCoilName": "HeadNeck_64",
  "ReconMatrixPE": 104,
  "RepetitionTime": 1.49,
  "SAR": 0.0958155,
  "ScanOptions": "FS",
  "ScanningSequence": "EP",
  "SequenceName": "epfid2d1_104",
  "SequenceVariant": "SK\\SS",
  "SeriesDescription": "func_task-mario3_run-02",
  "SeriesNumber": 14,
  "ShimSetting": [628, -7193, -8870, 224, 50, -216, -39, 58],
  "SliceThickness": 2,
  "SliceTiming": [0, 0.785, 0.1, 0.8825, 0.1975, 0.98, 0.295, 1.08, 0.3925, 1.1775, 0.49, 1.275, 0.59, 1.3725, 0.6875, 0, 0.785, 0.1, 0.8825, 0.1975, 0.98, 0.295, 1.08, 0.3925, 1.1775, 0.49, 1.275, 0.59, 1.3725, 0.6875, 0, 0.785, 0.1, 0.8825, 0.1975, 0.98, 0.295, 1.08, 0.3925, 1.1775, 0.49, 1.275, 0.59, 1.3725, 0.6875, 0, 0.785, 0.1, 0.8825, 0.1975, 0.98, 0.295, 1.08, 0.3925, 1.1775, 0.49, 1.275, 0.59, 1.3725, 0.6875],
  "SoftwareVersions": "syngo MR E11",
  "SpacingBetweenSlices": 2,
  "StationName": "MRC35049",
  "TaskName": "mario3",
  "TotalReadoutTime": 0.0576811,
  "TxRefAmp": 321.071,
  "WipMemBlock": "f1fc65e8-0691-46d7-acb6-7455c85f0cdd||Sequence: R017 ve11c/master r/75a17815+; Jun 28 2022 16:32:11 by eja",
  "dcmmeta_affine": [
    [-1.9973804950714111, 0.0446292906999588, 0.09208263456821442, 102.88335418701172],
    [-0.01265551708638668, 1.6782008409500122, -1.0878794193267822, -46.65126419067383],
    [0.10154221951961517, 1.087037205696106, 1.6757205724716187, -95.35989379882812],
    [0.0, 0.0, 0.0, 1.0]
],
  "dcmmeta_reorient_transform": [
    [0.0, -1.0, 0.0, 103.0],
    [1.0, 0.0, 0.0, 0.0],
    [0.0, 0.0, 1.0, 0.0],
    [0.0, 0.0, 0.0, 1.0]
],
  "dcmmeta_shape": [104, 104, 60, 346],
  "dcmmeta_slice_dim": 2,
  "dcmmeta_version": 0.6,
  "global": {
    "const": {
      "AcquisitionMatrix": [104, 0, 0, 104],
      "AngioFlag": "N",
      "BitsAllocated": 16,
      "BitsStored": 16,
      "BodyPartExamined": "BRAIN",
      "Columns": 832,
      "EchoNumbers": 1,
      "EchoTime": 37.0,
      "EchoTrainLength": 104,
      "FlipAngle": 52.0,
      "HighBit": 15,
      "ImageOrientationPatient": [0.99869026926487, 0.00632775836548, 0.05077110940018, 0.022314644916, 0.83910044691734, -0.5435186258128],
      "ImagePositionPatient": [-850.77175052476, -741.6751631271, 375.3251369939],
      "ImageType": [
        "ORIGINAL",
        "PRIMARY",
        "P",
        "MB",
        "ND",
        "MOSAIC"
],
      "ImagedNucleus": "1H",
      "ImagingFrequency": 123.258786,
      "InPlanePhaseEncodingDirection": "COL",
      "LargestImagePixelValue": 4095,
      "MRAcquisitionType": "2D",
      "MagneticFieldStrength": 3.0,
      "Manufacturer": "SIEMENS",
      "ManufacturerModelName": "Prisma_fit",
      "Modality": "MR",
      "NumberOfAverages": 1.0,
      "NumberOfPhaseEncodingSteps": 104,
      "PercentPhaseFieldOfView": 100.0,
      "PercentSampling": 100.0,
      "PerformedProcedureStepStartTime": "162500.322000",
      "PhotometricInterpretation": "MONOCHROME2",
      "PixelBandwidth": 2290.0,
      "PixelRepresentation": 0,
      "PixelSpacing": [2.0, 2.0],
      "ProtocolName": "func_task-mario3_run-02",
      "RepetitionTime": 1490.0,
      "RescaleIntercept": -4096.0,
      "RescaleSlope": 2.0,
      "RescaleType": "US",
      "Rows": 832,
      "SAR": 0.09581549816711,
      "SamplesPerPixel": 1,
      "ScanOptions": "FS",
      "ScanningSequence": "EP",
      "SequenceName": "epfid2d1_104",
      "SequenceVariant": [
        "SK",
        "SS"
],
      "SeriesDescription": "func_task-mario3_run-02",
      "SeriesNumber": 14,
      "SeriesTime": "164004.951000",
      "SliceLocation": -49.785904022897,
      "SliceThickness": 2.0,
      "SmallestImagePixelValue": 0,
      "SoftwareVersions": "syngo MR E11",
      "SpacingBetweenSlices": 2.0000000343028,
      "SpecificCharacterSet": "ISO_IR 100",
      "StudyID": "1",
      "StudyTime": "162500.245000",
      "TransmitCoilName": "Body",
      "VariableFlipAngleFlag": "N",
      "WindowCenterWidthExplanation": "Algo1",
      "dBdt": 0.0},
    "slices": {}
  },
  "time": {
    "samples": {
      "AcquisitionNumber": [1, 2, 3, 4, 5, 6, 7, 8, 9, 10, 11, 12, 13, 14, 15, 16, 17, 18, 19, 20, 21, 22, 23, 24, 25, 26, 27, 28, 29, 30, 31, 32, 33, 34, 35, 36, 37, 38, 39, 40, 41, 42, 43, 44, 45, 46, 47, 48, 49, 50, 51, 52, 53, 54, 55, 56, 57, 58, 59, 60, 61, 62, 63, 64, 65, 66, 67, 68, 69, 70, 71, 72, 73, 74, 75, 76, 77, 78, 79, 80, 81, 82, 83, 84, 85, 86, 87, 88, 89, 90, 91, 92, 93, 94, 95, 96, 97, 98, 99, 100, 101, 102, 103, 104, 105, 106, 107, 108, 109, 110, 111, 112, 113, 114, 115, 116, 117, 118, 119, 120, 121, 122, 123, 124, 125, 126, 127, 128, 129, 130, 131, 132, 133, 134, 135, 136, 137, 138, 139, 140, 141, 142, 143, 144, 145, 146, 147, 148, 149, 150, 151, 152, 153, 154, 155, 156, 157, 158, 159, 160, 161, 162, 163, 164, 165, 166, 167, 168, 169, 170, 171, 172, 173, 174, 175, 176, 177, 178, 179, 180, 181, 182, 183, 184, 185, 186, 187, 188, 189, 190, 191, 192, 193, 194, 195, 196, 197, 198, 199, 200, 201, 202, 203, 204, 205, 206, 207, 208, 209, 210, 211, 212, 213, 214, 215, 216, 217, 218, 219, 220, 221, 222, 223, 224, 225, 226, 227, 228, 229, 230, 231, 232, 233, 234, 235, 236, 237, 238, 239, 240, 241, 242, 243, 244, 245, 246, 247, 248, 249, 250, 251, 252, 253, 254, 255, 256, 257, 258, 259, 260, 261, 262, 263, 264, 265, 266, 267, 268, 269, 270, 271, 272, 273, 274, 275, 276, 277, 278, 279, 280, 281, 282, 283, 284, 285, 286, 287, 288, 289, 290, 291, 292, 293, 294, 295, 296, 297, 298, 299, 300, 301, 302, 303, 304, 305, 306, 307, 308, 309, 310, 311, 312, 313, 314, 315, 316, 317, 318, 319, 320, 321, 322, 323, 324, 325, 326, 327, 328, 329, 330, 331, 332, 333, 334, 335, 336, 337, 338, 339, 340, 341, 342, 343, 344, 345, 346],
      "AcquisitionTime": ["163854.412500", "163855.902500", "163857.392500", "163858.882500", "163900.372500", "163901.862500", "163903.352500", "163904.842500", "163906.332500", "163907.822500", "163909.312500", "163910.802500", "163912.292500", "163913.782500", "163915.272500", "163916.762500", "163918.252500", "163919.742500", "163921.232500", "163922.722500", "163924.212500", "163925.702500", "163927.192500", "163928.682500", "163930.172500", "163931.662500", "163933.152500", "163934.642500", "163936.132500", "163937.622500", "163939.112500", "163940.602500", "163942.092500", "163943.582500", "163945.072500", "163946.562500", "163948.052500", "163949.542500", "163951.032500", "163952.522500", "163954.012500", "163955.502500", "163956.992500", "163958.482500", "163959.972500", "164001.462500", "164002.952500", "164004.442500", "164005.932500", "164007.422500", "164008.912500", "164010.402500", "164011.892500", "164013.382500", "164014.872500", "164016.362500", "164017.852500", "164019.342500", "164020.832500", "164022.322500", "164023.812500", "164025.302500", "164026.792500", "164028.282500", "164029.772500", "164031.262500", "164032.752500", "164034.242500", "164035.732500", "164037.222500", "164038.712500", "164040.202500", "164041.692500", "164043.182500", "164044.672500", "164046.162500", "164047.652500", "164049.142500", "164050.632500", "164052.122500", "164053.612500", "164055.102500", "164056.592500", "164058.082500", "164059.572500", "164101.062500", "164102.552500", "164104.042500", "164105.532500", "164107.022500", "164108.512500", "164110.002500", "164111.492500", "164112.982500", "164114.472500", "164115.962500", "164117.452500", "164118.942500", "164120.432500", "164121.922500", "164123.412500", "164124.902500", "164126.392500", "164127.882500", "164129.372500", "164130.862500", "164132.352500", "164133.842500", "164135.332500", "164136.822500", "164138.312500", "164139.802500", "164141.292500", "164142.782500", "164144.272500", "164145.762500", "164147.252500", "164148.742500", "164150.232500", "164151.722500", "164153.212500", "164154.702500", "164156.192500", "164157.682500", "164159.172500", "164200.662500", "164202.152500", "164203.642500", "164205.132500", "164206.622500", "164208.112500", "164209.602500", "164211.092500", "164212.582500", "164214.072500", "164215.562500", "164217.052500", "164218.542500", "164220.032500", "164221.522500", "164223.012500", "164224.502500", "164225.992500", "164227.482500", "164228.972500", "164230.462500", "164231.952500", "164233.442500", "164234.932500", "164236.422500", "164237.912500", "164239.402500", "164240.892500", "164242.382500", "164243.872500", "164245.362500", "164246.852500", "164248.342500", "164249.832500", "164251.322500", "164252.812500", "164254.302500", "164255.792500", "164257.282500", "164258.772500", "164300.262500", "164301.752500", "164303.242500", "164304.732500", "164306.222500", "164307.712500", "164309.202500", "164310.692500", "164312.182500", "164313.672500", "164315.162500", "164316.652500", "164318.142500", "164319.632500", "164321.122500", "164322.612500", "164324.102500", "164325.592500", "164327.082500", "164328.572500", "164330.062500", "164331.552500", "164333.042500", "164334.532500", "164336.022500", "164337.512500", "164339.002500", "164340.492500", "164341.982500", "164343.472500", "164344.962500", "164346.452500", "164347.942500", "164349.432500", "164350.922500", "164352.412500", "164353.902500", "164355.392500", "164356.882500", "164358.372500", "164359.862500", "164401.352500", "164402.842500", "164404.332500", "164405.822500", "164407.312500", "164408.802500", "164410.292500", "164411.782500", "164413.272500", "164414.762500", "164416.252500", "164417.742500", "164419.232500", "164420.722500", "164422.212500", "164423.702500", "164425.192500", "164426.682500", "164428.172500", "164429.662500", "164431.152500", "164432.642500", "164434.132500", "164435.622500", "164437.112500", "164438.602500", "164440.092500", "164441.582500", "164443.072500", "164444.562500", "164446.052500", "164447.542500", "164449.032500", "164450.522500", "164452.012500", "164453.502500", "164454.992500", "164456.482500", "164457.972500", "164459.462500", "164500.952500", "164502.442500", "164503.932500", "164505.422500", "164506.912500", "164508.402500", "164509.892500", "164511.382500", "164512.872500", "164514.362500", "164515.852500", "164517.342500", "164518.832500", "164520.322500", "164521.812500", "164523.302500", "164524.792500", "164526.282500", "164527.772500", "164529.262500", "164530.752500", "164532.242500", "164533.732500", "164535.222500", "164536.712500", "164538.202500", "164539.692500", "164541.182500", "164542.672500", "164544.162500", "164545.652500", "164547.142500", "164548.632500", "164550.122500", "164551.612500", "164553.102500", "164554.592500", "164556.082500", "164557.572500", "164559.062500", "164600.552500", "164602.042500", "164603.532500", "164605.022500", "164606.512500", "164608.002500", "164609.492500", "164610.982500", "164612.472500", "164613.962500", "164615.452500", "164616.942500", "164618.432500", "164619.922500", "164621.412500", "164622.902500", "164624.392500", "164625.882500", "164627.372500", "164628.862500", "164630.352500", "164631.842500", "164633.332500", "164634.822500", "164636.312500", "164637.802500", "164639.292500", "164640.782500", "164642.272500", "164643.762500", "164645.252500", "164646.742500", "164648.232500", "164649.722500", "164651.212500", "164652.702500", "164654.192500", "164655.682500", "164657.172500", "164658.662500", "164700.152500", "164701.642500", "164703.132500", "164704.622500", "164706.112500", "164707.602500", "164709.092500", "164710.582500", "164712.072500", "164713.562500", "164715.052500", "164716.542500", "164718.032500", "164719.522500", "164721.012500", "164722.502500", "164723.992500", "164725.482500", "164726.972500", "164728.462500"],
      "ContentTime": ["164004.953000", "164004.967000", "164004.969000", "164004.972000", "164004.975000", "164004.977000", "164004.980000", "164004.982000", "164004.985000", "164004.987000", "164004.990000", "164004.992000", "164004.995000", "164004.997000", "164005.001000", "164005.004000", "164005.007000", "164005.010000", "164005.012000", "164005.015000", "164005.017000", "164005.020000", "164024.933000", "164024.936000", "164024.939000", "164024.941000", "164024.944000", "164024.947000", "164024.949000", "164024.952000", "164024.954000", "164024.957000", "164024.959000", "164024.962000", "164024.964000", "164024.967000", "164024.969000", "164024.972000", "164024.974000", "164024.977000", "164024.980000", "164024.982000", "164044.909000", "164044.912000", "164044.914000", "164044.917000", "164044.919000", "164044.922000", "164044.924000", "164044.927000", "164044.930000", "164044.932000", "164044.935000", "164044.937000", "164044.940000", "164044.942000", "164044.945000", "164044.955000", "164044.958000", "164044.960000", "164044.963000", "164044.966000", "164104.903000", "164104.906000", "164104.909000", "164104.911000", "164104.914000", "164104.916000", "164104.919000", "164104.922000", "164104.924000", "164104.927000", "164104.929000", "164104.932000", "164104.934000", "164104.941000", "164104.944000", "164104.947000", "164104.949000", "164104.952000", "164104.954000", "164104.957000", "164104.959000", "164144.950000", "164144.952000", "164144.955000", "164144.958000", "164144.960000", "164144.963000", "164144.967000", "164144.969000", "164144.972000", "164144.980000", "164144.983000", "164144.986000", "164144.988000", "164144.991000", "164144.994000", "164144.997000", "164145.001000", "164145.003000", "164145.006000", "164145.009000", "164145.011000", "164145.014000", "164145.016000", "164145.019000", "164145.022000", "164145.024000", "164145.027000", "164145.029000", "164145.032000", "164145.034000", "164224.924000", "164224.927000", "164224.933000", "164224.935000", "164224.938000", "164224.940000", "164224.943000", "164224.945000", "164224.948000", "164224.950000", "164224.953000", "164224.956000", "164224.958000", "164224.961000", "164224.963000", "164224.966000", "164224.968000", "164224.971000", "164224.973000", "164224.976000", "164224.978000", "164224.981000", "164224.983000", "164224.986000", "164224.989000", "164224.991000", "164224.994000", "164305.384000", "164305.387000", "164305.389000", "164305.392000", "164305.395000", "164305.397000", "164305.400000", "164305.402000", "164305.405000", "164305.407000", "164305.410000", "164305.413000", "164305.416000", "164305.419000", "164305.421000", "164305.424000", "164305.429000", "164305.432000", "164305.436000", "164305.440000", "164305.443000", "164305.446000", "164305.448000", "164305.451000", "164305.454000", "164305.456000", "164305.459000", "164344.941000", "164344.944000", "164344.946000", "164344.949000", "164344.951000", "164344.954000", "164344.956000", "164344.959000", "164344.962000", "164344.964000", "164344.967000", "164344.969000", "164344.972000", "164344.974000", "164344.977000", "164344.979000", "164344.982000", "164344.984000", "164344.987000", "164344.990000", "164344.992000", "164344.995000", "164344.997000", "164345.000000", "164345.002000", "164345.005000", "164345.007000", "164424.931000", "164424.934000", "164424.936000", "164424.939000", "164424.942000", "164424.944000", "164424.947000", "164424.949000", "164424.952000", "164424.954000", "164424.957000", "164424.960000", "164424.962000", "164424.965000", "164424.967000", "164424.976000", "164424.979000", "164424.981000", "164424.984000", "164424.986000", "164424.989000", "164424.992000", "164424.994000", "164424.997000", "164425.000000", "164425.003000", "164425.005000", "164504.939000", "164504.942000", "164504.944000", "164504.947000", "164504.949000", "164504.952000", "164504.955000", "164504.957000", "164504.960000", "164504.962000", "164504.965000", "164504.967000", "164504.970000", "164504.972000", "164504.975000", "164504.977000", "164504.980000", "164504.983000", "164504.985000", "164504.988000", "164504.990000", "164504.993000", "164504.995000", "164504.998000", "164505.001000", "164505.003000", "164505.006000", "164544.965000", "164544.967000", "164544.970000", "164544.972000", "164544.975000", "164544.978000", "164544.980000", "164544.983000", "164544.985000", "164544.988000", "164544.990000", "164544.993000", "164544.995000", "164544.998000", "164545.002000", "164545.004000", "164545.007000", "164545.009000", "164545.012000", "164545.014000", "164545.017000", "164545.019000", "164545.022000", "164545.025000", "164545.027000", "164545.030000", "164624.927000", "164624.930000", "164624.932000", "164624.935000", "164624.937000", "164624.940000", "164624.943000", "164624.945000", "164624.948000", "164624.951000", "164624.954000", "164624.956000", "164624.959000", "164624.961000", "164624.969000", "164624.971000", "164624.974000", "164624.976000", "164624.979000", "164624.981000", "164624.984000", "164624.986000", "164624.989000", "164624.991000", "164624.994000", "164624.996000", "164625.000000", "164704.941000", "164704.943000", "164704.946000", "164704.949000", "164704.951000", "164704.954000", "164704.956000", "164704.959000", "164704.961000", "164704.964000", "164704.966000", "164704.969000", "164704.971000", "164704.974000", "164704.977000", "164704.979000", "164704.982000", "164704.984000", "164704.987000", "164704.996000", "164705.000000", "164705.002000", "164705.005000", "164705.007000", "164705.010000", "164705.012000", "164705.015000", "164732.081000", "164732.084000", "164732.087000", "164732.089000", "164732.092000", "164732.094000", "164732.097000", "164732.100000", "164732.103000", "164732.105000", "164732.108000", "164732.110000", "164732.113000", "164732.115000", "164732.118000", "164732.121000", "164732.123000", "164732.126000"],
      "InstanceCreationTime": ["164004.953000", "164004.967000", "164004.969000", "164004.972000", "164004.975000", "164004.977000", "164004.980000", "164004.982000", "164004.985000", "164004.987000", "164004.990000", "164004.992000", "164004.995000", "164004.997000", "164005.001000", "164005.004000", "164005.007000", "164005.010000", "164005.012000", "164005.015000", "164005.017000", "164005.020000", "164024.933000", "164024.936000", "164024.939000", "164024.941000", "164024.944000", "164024.947000", "164024.949000", "164024.952000", "164024.954000", "164024.957000", "164024.959000", "164024.962000", "164024.964000", "164024.967000", "164024.969000", "164024.972000", "164024.974000", "164024.977000", "164024.980000", "164024.982000", "164044.909000", "164044.912000", "164044.914000", "164044.917000", "164044.919000", "164044.922000", "164044.924000", "164044.927000", "164044.930000", "164044.932000", "164044.935000", "164044.937000", "164044.940000", "164044.942000", "164044.945000", "164044.955000", "164044.958000", "164044.960000", "164044.963000", "164044.966000", "164104.903000", "164104.906000", "164104.909000", "164104.911000", "164104.914000", "164104.916000", "164104.919000", "164104.922000", "164104.924000", "164104.927000", "164104.929000", "164104.932000", "164104.934000", "164104.941000", "164104.944000", "164104.947000", "164104.949000", "164104.952000", "164104.954000", "164104.957000", "164104.959000", "164144.950000", "164144.952000", "164144.955000", "164144.958000", "164144.960000", "164144.963000", "164144.967000", "164144.969000", "164144.972000", "164144.980000", "164144.983000", "164144.986000", "164144.988000", "164144.991000", "164144.994000", "164144.997000", "164145.001000", "164145.003000", "164145.006000", "164145.009000", "164145.011000", "164145.014000", "164145.016000", "164145.019000", "164145.022000", "164145.024000", "164145.027000", "164145.029000", "164145.032000", "164145.034000", "164224.924000", "164224.927000", "164224.933000", "164224.935000", "164224.938000", "164224.940000", "164224.943000", "164224.945000", "164224.948000", "164224.950000", "164224.953000", "164224.956000", "164224.958000", "164224.961000", "164224.963000", "164224.966000", "164224.968000", "164224.971000", "164224.973000", "164224.976000", "164224.978000", "164224.981000", "164224.983000", "164224.986000", "164224.989000", "164224.991000", "164224.994000", "164305.384000", "164305.387000", "164305.389000", "164305.392000", "164305.395000", "164305.397000", "164305.400000", "164305.402000", "164305.405000", "164305.407000", "164305.410000", "164305.413000", "164305.416000", "164305.419000", "164305.421000", "164305.424000", "164305.429000", "164305.432000", "164305.436000", "164305.440000", "164305.443000", "164305.446000", "164305.448000", "164305.451000", "164305.454000", "164305.456000", "164305.459000", "164344.941000", "164344.944000", "164344.946000", "164344.949000", "164344.951000", "164344.954000", "164344.956000", "164344.959000", "164344.962000", "164344.964000", "164344.967000", "164344.969000", "164344.972000", "164344.974000", "164344.977000", "164344.979000", "164344.982000", "164344.984000", "164344.987000", "164344.990000", "164344.992000", "164344.995000", "164344.997000", "164345.000000", "164345.002000", "164345.005000", "164345.007000", "164424.931000", "164424.934000", "164424.936000", "164424.939000", "164424.942000", "164424.944000", "164424.947000", "164424.949000", "164424.952000", "164424.954000", "164424.957000", "164424.960000", "164424.962000", "164424.965000", "164424.967000", "164424.976000", "164424.979000", "164424.981000", "164424.984000", "164424.986000", "164424.989000", "164424.992000", "164424.994000", "164424.997000", "164425.000000", "164425.003000", "164425.005000", "164504.939000", "164504.942000", "164504.944000", "164504.947000", "164504.949000", "164504.952000", "164504.955000", "164504.957000", "164504.960000", "164504.962000", "164504.965000", "164504.967000", "164504.970000", "164504.972000", "164504.975000", "164504.977000", "164504.980000", "164504.983000", "164504.985000", "164504.988000", "164504.990000", "164504.993000", "164504.995000", "164504.998000", "164505.001000", "164505.003000", "164505.006000", "164544.965000", "164544.967000", "164544.970000", "164544.972000", "164544.975000", "164544.978000", "164544.980000", "164544.983000", "164544.985000", "164544.988000", "164544.990000", "164544.993000", "164544.995000", "164544.998000", "164545.002000", "164545.004000", "164545.007000", "164545.009000", "164545.012000", "164545.014000", "164545.017000", "164545.019000", "164545.022000", "164545.025000", "164545.027000", "164545.030000", "164624.927000", "164624.930000", "164624.932000", "164624.935000", "164624.937000", "164624.940000", "164624.943000", "164624.945000", "164624.948000", "164624.951000", "164624.954000", "164624.956000", "164624.959000", "164624.961000", "164624.969000", "164624.971000", "164624.974000", "164624.976000", "164624.979000", "164624.981000", "164624.984000", "164624.986000", "164624.989000", "164624.991000", "164624.994000", "164624.996000", "164625.000000", "164704.941000", "164704.943000", "164704.946000", "164704.949000", "164704.951000", "164704.954000", "164704.956000", "164704.959000", "164704.961000", "164704.964000", "164704.966000", "164704.969000", "164704.971000", "164704.974000", "164704.977000", "164704.979000", "164704.982000", "164704.984000", "164704.987000", "164704.996000", "164705.000000", "164705.002000", "164705.005000", "164705.007000", "164705.010000", "164705.012000", "164705.015000", "164732.081000", "164732.084000", "164732.087000", "164732.089000", "164732.092000", "164732.094000", "164732.097000", "164732.100000", "164732.103000", "164732.105000", "164732.108000", "164732.110000", "164732.113000", "164732.115000", "164732.118000", "164732.121000", "164732.123000", "164732.126000"],
      "InstanceNumber": [1, 2, 3, 4, 5, 6, 7, 8, 9, 10, 11, 12, 13, 14, 15, 16, 17, 18, 19, 20, 21, 22, 23, 24, 25, 26, 27, 28, 29, 30, 31, 32, 33, 34, 35, 36, 37, 38, 39, 40, 41, 42, 43, 44, 45, 46, 47, 48, 49, 50, 51, 52, 53, 54, 55, 56, 57, 58, 59, 60, 61, 62, 63, 64, 65, 66, 67, 68, 69, 70, 71, 72, 73, 74, 75, 76, 77, 78, 79, 80, 81, 82, 83, 84, 85, 86, 87, 88, 89, 90, 91, 92, 93, 94, 95, 96, 97, 98, 99, 100, 101, 102, 103, 104, 105, 106, 107, 108, 109, 110, 111, 112, 113, 114, 115, 116, 117, 118, 119, 120, 121, 122, 123, 124, 125, 126, 127, 128, 129, 130, 131, 132, 133, 134, 135, 136, 137, 138, 139, 140, 141, 142, 143, 144, 145, 146, 147, 148, 149, 150, 151, 152, 153, 154, 155, 156, 157, 158, 159, 160, 161, 162, 163, 164, 165, 166, 167, 168, 169, 170, 171, 172, 173, 174, 175, 176, 177, 178, 179, 180, 181, 182, 183, 184, 185, 186, 187, 188, 189, 190, 191, 192, 193, 194, 195, 196, 197, 198, 199, 200, 201, 202, 203, 204, 205, 206, 207, 208, 209, 210, 211, 212, 213, 214, 215, 216, 217, 218, 219, 220, 221, 222, 223, 224, 225, 226, 227, 228, 229, 230, 231, 232, 233, 234, 235, 236, 237, 238, 239, 240, 241, 242, 243, 244, 245, 246, 247, 248, 249, 250, 251, 252, 253, 254, 255, 256, 257, 258, 259, 260, 261, 262, 263, 264, 265, 266, 267, 268, 269, 270, 271, 272, 273, 274, 275, 276, 277, 278, 279, 280, 281, 282, 283, 284, 285, 286, 287, 288, 289, 290, 291, 292, 293, 294, 295, 296, 297, 298, 299, 300, 301, 302, 303, 304, 305, 306, 307, 308, 309, 310, 311, 312, 313, 314, 315, 316, 317, 318, 319, 320, 321, 322, 323, 324, 325, 326, 327, 328, 329, 330, 331, 332, 333, 334, 335, 336, 337, 338, 339, 340, 341, 342, 343, 344, 345, 346],
      "WindowCenter": [4860.0, 4856.0, 4858.0, 4864.0, 4862.0, 4866.0, 4864.0, 4864.0, 4860.0, 4858.0, 4856.0, 4860.0, 4860.0, 4866.0, 4866.0, 4834.0, 4834.0, 4832.0, 4832.0, 4834.0, 4832.0, 4836.0, 4838.0, 4840.0, 4834.0, 4832.0, 4832.0, 4808.0, 4834.0, 4870.0, 4874.0, 4878.0, 4868.0, 4858.0, 4832.0, 4850.0, 4828.0, 4832.0, 4828.0, 4832.0, 4840.0, 4844.0, 4842.0, 4866.0, 4866.0, 4864.0, 4860.0, 4854.0, 4834.0, 4834.0, 4856.0, 4856.0, 4866.0, 4866.0, 4870.0, 4868.0, 4860.0, 4830.0, 4830.0, 4836.0, 4876.0, 4872.0, 4868.0, 4860.0, 4832.0, 4854.0, 4864.0, 4860.0, 4830.0, 4830.0, 4856.0, 4896.0, 4902.0, 4872.0, 4866.0, 4864.0, 4834.0, 4828.0, 4854.0, 4856.0, 4854.0, 4830.0, 4828.0, 4832.0, 4834.0, 4838.0, 4840.0, 4836.0, 4832.0, 4834.0, 4864.0, 4868.0, 4860.0, 4830.0, 4828.0, 4866.0, 4864.0, 4860.0, 4864.0, 4860.0, 4874.0, 4898.0, 4892.0, 4854.0, 4856.0, 4854.0, 4858.0, 4856.0, 4858.0, 4868.0, 4854.0, 4870.0, 4876.0, 4866.0, 4868.0, 4874.0, 4876.0, 4862.0, 4856.0, 4830.0, 4832.0, 4858.0, 4862.0, 4868.0, 4876.0, 4894.0, 4866.0, 4866.0, 4856.0, 4802.0, 4860.0, 4894.0, 4832.0, 4830.0, 4834.0, 4842.0, 4842.0, 4840.0, 4836.0, 4830.0, 4810.0, 4828.0, 4828.0, 4828.0, 4832.0, 4868.0, 4876.0, 4858.0, 4874.0, 4864.0, 4866.0, 4862.0, 4858.0, 4854.0, 4856.0, 4856.0, 4830.0, 4826.0, 4830.0, 4836.0, 4868.0, 4872.0, 4876.0, 4874.0, 4868.0, 4858.0, 4854.0, 4806.0, 4830.0, 4834.0, 4808.0, 4866.0, 4876.0, 4842.0, 4868.0, 4856.0, 4828.0, 4830.0, 4828.0, 4808.0, 4830.0, 4832.0, 4844.0, 4872.0, 4874.0, 4832.0, 4828.0, 4856.0, 4870.0, 4874.0, 4876.0, 4870.0, 4866.0, 4860.0, 4832.0, 4832.0, 4856.0, 4830.0, 4828.0, 4838.0, 4874.0, 4876.0, 4836.0, 4830.0, 4830.0, 4828.0, 4806.0, 4830.0, 4832.0, 4812.0, 4832.0, 4808.0, 4808.0, 4804.0, 4830.0, 4832.0, 4864.0, 4876.0, 4870.0, 4870.0, 4832.0, 4854.0, 4832.0, 4854.0, 4830.0, 4832.0, 4836.0, 4838.0, 4868.0, 4874.0, 4866.0, 4870.0, 4852.0, 4828.0, 4834.0, 4830.0, 4830.0, 4834.0, 4872.0, 4830.0, 4864.0, 4874.0, 4872.0, 4868.0, 4858.0, 4836.0, 4832.0, 4856.0, 4862.0, 4828.0, 4860.0, 4854.0, 4870.0, 4870.0, 4830.0, 4826.0, 4866.0, 4872.0, 4876.0, 4874.0, 4888.0, 4860.0, 4828.0, 4830.0, 4830.0, 4826.0, 4832.0, 4864.0, 4844.0, 4864.0, 4840.0, 4834.0, 4860.0, 4856.0, 4832.0, 4830.0, 4828.0, 4834.0, 4862.0, 4840.0, 4842.0, 4836.0, 4874.0, 4900.0, 4862.0, 4856.0, 4856.0, 4830.0, 4830.0, 4858.0, 4832.0, 4830.0, 4834.0, 4868.0, 4866.0, 4872.0, 4844.0, 4836.0, 4838.0, 4860.0, 4858.0, 4856.0, 4830.0, 4828.0, 4830.0, 4828.0, 4830.0, 4870.0, 4876.0, 4872.0, 4866.0, 4858.0, 4832.0, 4856.0, 4858.0, 4858.0, 4856.0, 4832.0, 4830.0, 4862.0, 4870.0, 4870.0, 4870.0, 4872.0, 4870.0, 4868.0, 4860.0, 4858.0, 4854.0, 4860.0, 4830.0, 4832.0, 4860.0, 4870.0, 4826.0, 4834.0, 4876.0, 4874.0, 4864.0, 4838.0, 4832.0, 4830.0, 4830.0, 4832.0, 4832.0, 4828.0],
