{
  "AcquisitionMatrixPE": 104,
  "AcquisitionNumber": 1,
  "AcquisitionTime": "16:38:54.412500",
  "BandwidthPerPixelPhaseEncode": 17.17,
  "BaseResolution": 104,
  "BodyPartExamined": "BRAIN",
  "CoilCombinationMethod": "Sum of Squares",
  "ConsistencyInfo": "N4_VE11C_LATEST_20160120",
  "ConversionSoftware": "dcm2niix",
  "ConversionSoftwareVersion": "v1.0.20220505",
  "DerivedVendorReportedEchoSpacing": 0.000560011,
  "DeviceSerialNumber": "167006",
  "DwellTime": 2.1e-06,
  "EchoTime": 0.037,
  "EchoTrainLength": 104,
  "EffectiveEchoSpacing": 0.000560011,
  "FlipAngle": 52,
  "HeudiconvVersion": "0.5.3.post811+g6206e14",
  "ImageComments": "Unaliased MB4/PE3/LB",
  "ImageOrientationPatientDICOM": [0.99869, 0.00632776, 0.0507711, 0.0223146, 0.8391, -0.543519],
  "ImageOrientationText": "Tra>Cor(-33.0)>Sag(2.6)",
  "ImageType": [
    "ORIGINAL",
    "PRIMARY",
    "M",
    "MB",
    "ND",
    "MOSAIC"
],
  "ImagingFrequency": 123.259,
  "InPlanePhaseEncodingDirectionDICOM": "COL",
  "InstitutionAddress": "Chemin Queen-Mary 4565,Montreal,District,CA,H3W 1W5",
  "InstitutionName": "IUGM",
  "InstitutionalDepartmentName": "Department",
  "MRAcquisitionType": "2D",
  "MagneticFieldStrength": 3,
  "Manufacturer": "Siemens",
  "ManufacturersModelName": "Prisma_fit",
  "MatrixCoilMode": "SENSE",
  "Modality": "MR",
  "MultibandAccelerationFactor": 4,
  "PartialFourier": 1,
  "PatientPosition": "HFS",
  "PercentPhaseFOV": 100,
  "PercentSampling": 100,
  "PhaseEncodingDirection": "j",
  "PhaseEncodingSteps": 104,
  "PhaseResolution": 1,
  "PixelBandwidth": 2290,
  "ProcedureStepDescription": "games^mario3",
  "ProtocolName": "func_task-mario3_run-02",
  "PulseSequenceDetails": "%CustomerSeq%\\cmrr_mbep2d_bold",
  "ReceiveCoilActiveElements": "HC1-7;NC1,2",
  "ReceiveCoilName": "HeadNeck_64",
  "ReconMatrixPE": 104,
  "RepetitionTime": 1.49,
  "SAR": 0.0958155,
  "ScanOptions": "FS",
  "ScanningSequence": "EP",
  "SequenceName": "epfid2d1_104",
  "SequenceVariant": "SK\\SS",
  "SeriesDescription": "func_task-mario3_run-02",
  "SeriesNumber": 13,
  "ShimSetting": [628, -7193, -8870, 224, 50, -216, -39, 58],
  "SliceThickness": 2,
  "SliceTiming": [0, 0.785, 0.1, 0.8825, 0.1975, 0.98, 0.295, 1.08, 0.3925, 1.1775, 0.49, 1.275, 0.59, 1.3725, 0.6875, 0, 0.785, 0.1, 0.8825, 0.1975, 0.98, 0.295, 1.08, 0.3925, 1.1775, 0.49, 1.275, 0.59, 1.3725, 0.6875, 0, 0.785, 0.1, 0.8825, 0.1975, 0.98, 0.295, 1.08, 0.3925, 1.1775, 0.49, 1.275, 0.59, 1.3725, 0.6875, 0, 0.785, 0.1, 0.8825, 0.1975, 0.98, 0.295, 1.08, 0.3925, 1.1775, 0.49, 1.275, 0.59, 1.3725, 0.6875],
  "SoftwareVersions": "syngo MR E11",
  "SpacingBetweenSlices": 2,
  "StationName": "MRC35049",
  "TaskName": "mario3",
  "TotalReadoutTime": 0.0576811,
  "TxRefAmp": 321.071,
  "WipMemBlock": "f1fc65e8-0691-46d7-acb6-7455c85f0cdd||Sequence: R017 ve11c/master r/75a17815+; Jun 28 2022 16:32:11 by eja",
  "dcmmeta_affine": [
    [-1.9973804950714111, 0.0446292906999588, 0.09208263456821442, 102.88335418701172],
    [-0.01265551708638668, 1.6782008409500122, -1.0878794193267822, -46.65126419067383],
    [0.10154221951961517, 1.087037205696106, 1.6757205724716187, -95.35989379882812],
    [0.0, 0.0, 0.0, 1.0]
],
  "dcmmeta_reorient_transform": [
    [0.0, -1.0, 0.0, 103.0],
    [1.0, 0.0, 0.0, 0.0],
    [0.0, 0.0, 1.0, 0.0],
    [0.0, 0.0, 0.0, 1.0]
],
  "dcmmeta_shape": [104, 104, 60, 346],
  "dcmmeta_slice_dim": 2,
  "dcmmeta_version": 0.6,
  "global": {
    "const": {
      "AcquisitionMatrix": [104, 0, 0, 104],
      "AngioFlag": "N",
      "BitsAllocated": 16,
      "BitsStored": 16,
      "BodyPartExamined": "BRAIN",
      "Columns": 832,
      "EchoNumbers": 1,
      "EchoTime": 37.0,
      "EchoTrainLength": 104,
      "FlipAngle": 52.0,
      "HighBit": 15,
      "ImageOrientationPatient": [0.99869026926487, 0.00632775836548, 0.05077110940018, 0.022314644916, 0.83910044691734, -0.5435186258128],
      "ImagePositionPatient": [-850.77175052476, -741.6751631271, 375.3251369939],
      "ImageType": [
        "ORIGINAL",
        "PRIMARY",
        "M",
        "MB",
        "ND",
        "MOSAIC"
],
      "ImagedNucleus": "1H",
      "ImagingFrequency": 123.258786,
      "InPlanePhaseEncodingDirection": "COL",
      "MRAcquisitionType": "2D",
      "MagneticFieldStrength": 3.0,
      "Manufacturer": "SIEMENS",
      "ManufacturerModelName": "Prisma_fit",
      "Modality": "MR",
      "NumberOfAverages": 1.0,
      "NumberOfPhaseEncodingSteps": 104,
      "PercentPhaseFieldOfView": 100.0,
      "PercentSampling": 100.0,
      "PerformedProcedureStepStartTime": "162500.322000",
      "PhotometricInterpretation": "MONOCHROME2",
      "PixelBandwidth": 2290.0,
      "PixelRepresentation": 0,
      "PixelSpacing": [2.0, 2.0],
      "ProtocolName": "func_task-mario3_run-02",
      "RepetitionTime": 1490.0,
      "Rows": 832,
      "SAR": 0.09581549816711,
      "SamplesPerPixel": 1,
      "ScanOptions": "FS",
      "ScanningSequence": "EP",
      "SequenceName": "epfid2d1_104",
      "SequenceVariant": [
        "SK",
        "SS"
],
      "SeriesDescription": "func_task-mario3_run-02",
      "SeriesNumber": 13,
      "SeriesTime": "164004.822000",
      "SliceLocation": -49.785904022897,
      "SliceThickness": 2.0,
      "SmallestImagePixelValue": 0,
      "SoftwareVersions": "syngo MR E11",
      "SpacingBetweenSlices": 2.0000000343028,
      "SpecificCharacterSet": "ISO_IR 100",
      "StudyID": "1",
      "StudyTime": "162500.245000",
      "TransmitCoilName": "Body",
      "VariableFlipAngleFlag": "N",
      "WindowCenterWidthExplanation": "Algo1",
      "dBdt": 0.0},
    "slices": {}
  },
  "time": {
    "samples": {
      "AcquisitionNumber": [1, 2, 3, 4, 5, 6, 7, 8, 9, 10, 11, 12, 13, 14, 15, 16, 17, 18, 19, 20, 21, 22, 23, 24, 25, 26, 27, 28, 29, 30, 31, 32, 33, 34, 35, 36, 37, 38, 39, 40, 41, 42, 43, 44, 45, 46, 47, 48, 49, 50, 51, 52, 53, 54, 55, 56, 57, 58, 59, 60, 61, 62, 63, 64, 65, 66, 67, 68, 69, 70, 71, 72, 73, 74, 75, 76, 77, 78, 79, 80, 81, 82, 83, 84, 85, 86, 87, 88, 89, 90, 91, 92, 93, 94, 95, 96, 97, 98, 99, 100, 101, 102, 103, 104, 105, 106, 107, 108, 109, 110, 111, 112, 113, 114, 115, 116, 117, 118, 119, 120, 121, 122, 123, 124, 125, 126, 127, 128, 129, 130, 131, 132, 133, 134, 135, 136, 137, 138, 139, 140, 141, 142, 143, 144, 145, 146, 147, 148, 149, 150, 151, 152, 153, 154, 155, 156, 157, 158, 159, 160, 161, 162, 163, 164, 165, 166, 167, 168, 169, 170, 171, 172, 173, 174, 175, 176, 177, 178, 179, 180, 181, 182, 183, 184, 185, 186, 187, 188, 189, 190, 191, 192, 193, 194, 195, 196, 197, 198, 199, 200, 201, 202, 203, 204, 205, 206, 207, 208, 209, 210, 211, 212, 213, 214, 215, 216, 217, 218, 219, 220, 221, 222, 223, 224, 225, 226, 227, 228, 229, 230, 231, 232, 233, 234, 235, 236, 237, 238, 239, 240, 241, 242, 243, 244, 245, 246, 247, 248, 249, 250, 251, 252, 253, 254, 255, 256, 257, 258, 259, 260, 261, 262, 263, 264, 265, 266, 267, 268, 269, 270, 271, 272, 273, 274, 275, 276, 277, 278, 279, 280, 281, 282, 283, 284, 285, 286, 287, 288, 289, 290, 291, 292, 293, 294, 295, 296, 297, 298, 299, 300, 301, 302, 303, 304, 305, 306, 307, 308, 309, 310, 311, 312, 313, 314, 315, 316, 317, 318, 319, 320, 321, 322, 323, 324, 325, 326, 327, 328, 329, 330, 331, 332, 333, 334, 335, 336, 337, 338, 339, 340, 341, 342, 343, 344, 345, 346],
      "AcquisitionTime": ["163854.412500", "163855.902500", "163857.392500", "163858.882500", "163900.372500", "163901.862500", "163903.352500", "163904.842500", "163906.332500", "163907.822500", "163909.312500", "163910.802500", "163912.292500", "163913.782500", "163915.272500", "163916.762500", "163918.252500", "163919.742500", "163921.232500", "163922.722500", "163924.212500", "163925.702500", "163927.192500", "163928.682500", "163930.172500", "163931.662500", "163933.152500", "163934.642500", "163936.132500", "163937.622500", "163939.112500", "163940.602500", "163942.092500", "163943.582500", "163945.072500", "163946.562500", "163948.052500", "163949.542500", "163951.032500", "163952.522500", "163954.012500", "163955.502500", "163956.992500", "163958.482500", "163959.972500", "164001.462500", "164002.952500", "164004.442500", "164005.932500", "164007.422500", "164008.912500", "164010.402500", "164011.892500", "164013.382500", "164014.872500", "164016.362500", "164017.852500", "164019.342500", "164020.832500", "164022.322500", "164023.812500", "164025.302500", "164026.792500", "164028.282500", "164029.772500", "164031.262500", "164032.752500", "164034.242500", "164035.732500", "164037.222500", "164038.712500", "164040.202500", "164041.692500", "164043.182500", "164044.672500", "164046.162500", "164047.652500", "164049.142500", "164050.632500", "164052.122500", "164053.612500", "164055.102500", "164056.592500", "164058.082500", "164059.572500", "164101.062500", "164102.552500", "164104.042500", "164105.532500", "164107.022500", "164108.512500", "164110.002500", "164111.492500", "164112.982500", "164114.472500", "164115.962500", "164117.452500", "164118.942500", "164120.432500", "164121.922500", "164123.412500", "164124.902500", "164126.392500", "164127.882500", "164129.372500", "164130.862500", "164132.352500", "164133.842500", "164135.332500", "164136.822500", "164138.312500", "164139.802500", "164141.292500", "164142.782500", "164144.272500", "164145.762500", "164147.252500", "164148.742500", "164150.232500", "164151.722500", "164153.212500", "164154.702500", "164156.192500", "164157.682500", "164159.172500", "164200.662500", "164202.152500", "164203.642500", "164205.132500", "164206.622500", "164208.112500", "164209.602500", "164211.092500", "164212.582500", "164214.072500", "164215.562500", "164217.052500", "164218.542500", "164220.032500", "164221.522500", "164223.012500", "164224.502500", "164225.992500", "164227.482500", "164228.972500", "164230.462500", "164231.952500", "164233.442500", "164234.932500", "164236.422500", "164237.912500", "164239.402500", "164240.892500", "164242.382500", "164243.872500", "164245.362500", "164246.852500", "164248.342500", "164249.832500", "164251.322500", "164252.812500", "164254.302500", "164255.792500", "164257.282500", "164258.772500", "164300.262500", "164301.752500", "164303.242500", "164304.732500", "164306.222500", "164307.712500", "164309.202500", "164310.692500", "164312.182500", "164313.672500", "164315.162500", "164316.652500", "164318.142500", "164319.632500", "164321.122500", "164322.612500", "164324.102500", "164325.592500", "164327.082500", "164328.572500", "164330.062500", "164331.552500", "164333.042500", "164334.532500", "164336.022500", "164337.512500", "164339.002500", "164340.492500", "164341.982500", "164343.472500", "164344.962500", "164346.452500", "164347.942500", "164349.432500", "164350.922500", "164352.412500", "164353.902500", "164355.392500", "164356.882500", "164358.372500", "164359.862500", "164401.352500", "164402.842500", "164404.332500", "164405.822500", "164407.312500", "164408.802500", "164410.292500", "164411.782500", "164413.272500", "164414.762500", "164416.252500", "164417.742500", "164419.232500", "164420.722500", "164422.212500", "164423.702500", "164425.192500", "164426.682500", "164428.172500", "164429.662500", "164431.152500", "164432.642500", "164434.132500", "164435.622500", "164437.112500", "164438.602500", "164440.092500", "164441.582500", "164443.072500", "164444.562500", "164446.052500", "164447.542500", "164449.032500", "164450.522500", "164452.012500", "164453.502500", "164454.992500", "164456.482500", "164457.972500", "164459.462500", "164500.952500", "164502.442500", "164503.932500", "164505.422500", "164506.912500", "164508.402500", "164509.892500", "164511.382500", "164512.872500", "164514.362500", "164515.852500", "164517.342500", "164518.832500", "164520.322500", "164521.812500", "164523.302500", "164524.792500", "164526.282500", "164527.772500", "164529.262500", "164530.752500", "164532.242500", "164533.732500", "164535.222500", "164536.712500", "164538.202500", "164539.692500", "164541.182500", "164542.672500", "164544.162500", "164545.652500", "164547.142500", "164548.632500", "164550.122500", "164551.612500", "164553.102500", "164554.592500", "164556.082500", "164557.572500", "164559.062500", "164600.552500", "164602.042500", "164603.532500", "164605.022500", "164606.512500", "164608.002500", "164609.492500", "164610.982500", "164612.472500", "164613.962500", "164615.452500", "164616.942500", "164618.432500", "164619.922500", "164621.412500", "164622.902500", "164624.392500", "164625.882500", "164627.372500", "164628.862500", "164630.352500", "164631.842500", "164633.332500", "164634.822500", "164636.312500", "164637.802500", "164639.292500", "164640.782500", "164642.272500", "164643.762500", "164645.252500", "164646.742500", "164648.232500", "164649.722500", "164651.212500", "164652.702500", "164654.192500", "164655.682500", "164657.172500", "164658.662500", "164700.152500", "164701.642500", "164703.132500", "164704.622500", "164706.112500", "164707.602500", "164709.092500", "164710.582500", "164712.072500", "164713.562500", "164715.052500", "164716.542500", "164718.032500", "164719.522500", "164721.012500", "164722.502500", "164723.992500", "164725.482500", "164726.972500", "164728.462500"],
      "ContentTime": ["164004.825000", "164004.829000", "164004.833000", "164004.836000", "164004.840000", "164004.843000", "164004.847000", "164004.850000", "164004.854000", "164004.857000", "164004.860000", "164004.864000", "164004.867000", "164004.871000", "164004.874000", "164004.877000", "164004.881000", "164004.884000", "164004.887000", "164004.891000", "164004.894000", "164004.898000", "164024.787000", "164024.792000", "164024.796000", "164024.799000", "164024.803000", "164024.806000", "164024.809000", "164024.813000", "164024.816000", "164024.820000", "164024.823000", "164024.826000", "164024.830000", "164024.833000", "164024.837000", "164024.840000", "164024.844000", "164024.847000", "164024.870000", "164024.873000", "164044.788000", "164044.793000", "164044.809000", "164044.812000", "164044.817000", "164044.820000", "164044.824000", "164044.827000", "164044.830000", "164044.834000", "164044.838000", "164044.841000", "164044.844000", "164044.848000", "164044.851000", "164044.855000", "164044.858000", "164044.862000", "164044.865000", "164044.868000", "164104.788000", "164104.792000", "164104.795000", "164104.799000", "164104.802000", "164104.805000", "164104.809000", "164104.812000", "164104.815000", "164104.819000", "164104.822000", "164104.826000", "164104.829000", "164104.833000", "164104.836000", "164104.839000", "164104.843000", "164104.846000", "164104.849000", "164104.853000", "164104.856000", "164144.788000", "164144.792000", "164144.796000", "164144.799000", "164144.802000", "164144.806000", "164144.809000", "164144.813000", "164144.816000", "164144.820000", "164144.823000", "164144.827000", "164144.830000", "164144.834000", "164144.838000", "164144.841000", "164144.845000", "164144.848000", "164144.851000", "164144.855000", "164144.858000", "164144.862000", "164144.865000", "164144.873000", "164144.877000", "164144.880000", "164144.883000", "164144.887000", "164144.891000", "164144.894000", "164224.788000", "164224.792000", "164224.795000", "164224.799000", "164224.802000", "164224.806000", "164224.809000", "164224.813000", "164224.816000", "164224.819000", "164224.823000", "164224.826000", "164224.830000", "164224.833000", "164224.836000", "164224.840000", "164224.843000", "164224.847000", "164224.850000", "164224.854000", "164224.857000", "164224.861000", "164224.864000", "164224.867000", "164224.871000", "164224.874000", "164224.878000", "164304.787000", "164304.791000", "164304.811000", "164304.814000", "164304.818000", "164304.821000", "164304.824000", "164304.828000", "164304.831000", "164304.835000", "164304.838000", "164304.841000", "164304.845000", "164304.848000", "164304.852000", "164304.855000", "164304.859000", "164304.863000", "164304.874000", "164304.878000", "164304.881000", "164304.884000", "164304.888000", "164304.891000", "164304.895000", "164304.898000", "164304.901000", "164344.788000", "164344.792000", "164344.795000", "164344.799000", "164344.802000", "164344.806000", "164344.809000", "164344.813000", "164344.816000", "164344.820000", "164344.823000", "164344.826000", "164344.830000", "164344.833000", "164344.837000", "164344.840000", "164344.843000", "164344.847000", "164344.850000", "164344.854000", "164344.857000", "164344.861000", "164344.864000", "164344.867000", "164344.880000", "164344.883000", "164344.887000", "164424.788000", "164424.792000", "164424.796000", "164424.799000", "164424.803000", "164424.806000", "164424.809000", "164424.813000", "164424.816000", "164424.820000", "164424.823000", "164424.827000", "164424.830000", "164424.834000", "164424.837000", "164424.840000", "164424.844000", "164424.847000", "164424.851000", "164424.854000", "164424.857000", "164424.861000", "164424.864000", "164424.868000", "164424.871000", "164424.875000", "164424.878000", "164504.787000", "164504.791000", "164504.795000", "164504.798000", "164504.802000", "164504.805000", "164504.808000", "164504.812000", "164504.815000", "164504.819000", "164504.822000", "164504.826000", "164504.829000", "164504.832000", "164504.849000", "164504.852000", "164504.855000", "164504.859000", "164504.862000", "164504.866000", "164504.869000", "164504.872000", "164504.876000", "164504.879000", "164504.883000", "164504.886000", "164504.890000", "164544.788000", "164544.814000", "164544.818000", "164544.821000", "164544.824000", "164544.828000", "164544.831000", "164544.835000", "164544.838000", "164544.841000", "164544.845000", "164544.849000", "164544.852000", "164544.867000", "164544.872000", "164544.876000", "164544.880000", "164544.884000", "164544.887000", "164544.891000", "164544.894000", "164544.898000", "164544.901000", "164544.905000", "164544.908000", "164544.911000", "164624.788000", "164624.792000", "164624.795000", "164624.799000", "164624.802000", "164624.806000", "164624.809000", "164624.813000", "164624.816000", "164624.820000", "164624.823000", "164624.826000", "164624.830000", "164624.833000", "164624.837000", "164624.840000", "164624.843000", "164624.847000", "164624.850000", "164624.854000", "164624.857000", "164624.860000", "164624.864000", "164624.867000", "164624.871000", "164624.874000", "164624.877000", "164704.788000", "164704.792000", "164704.796000", "164704.799000", "164704.803000", "164704.806000", "164704.809000", "164704.813000", "164704.816000", "164704.820000", "164704.823000", "164704.826000", "164704.830000", "164704.833000", "164704.837000", "164704.840000", "164704.844000", "164704.847000", "164704.850000", "164704.854000", "164704.857000", "164704.861000", "164704.865000", "164704.868000", "164704.871000", "164704.875000", "164704.878000", "164731.962000", "164731.966000", "164731.970000", "164731.975000", "164731.979000", "164731.983000", "164731.989000", "164731.993000", "164731.997000", "164732.001000", "164732.005000", "164732.009000", "164732.013000", "164732.016000", "164732.020000", "164732.024000", "164732.027000", "164732.031000"],
      "InstanceCreationTime": ["164004.825000", "164004.829000", "164004.833000", "164004.836000", "164004.840000", "164004.843000", "164004.847000", "164004.850000", "164004.854000", "164004.857000", "164004.860000", "164004.864000", "164004.867000", "164004.871000", "164004.874000", "164004.877000", "164004.881000", "164004.884000", "164004.887000", "164004.891000", "164004.894000", "164004.898000", "164024.787000", "164024.792000", "164024.796000", "164024.799000", "164024.803000", "164024.806000", "164024.809000", "164024.813000", "164024.816000", "164024.820000", "164024.823000", "164024.826000", "164024.830000", "164024.833000", "164024.837000", "164024.840000", "164024.844000", "164024.847000", "164024.870000", "164024.873000", "164044.788000", "164044.793000", "164044.809000", "164044.812000", "164044.817000", "164044.820000", "164044.824000", "164044.827000", "164044.830000", "164044.834000", "164044.838000", "164044.841000", "164044.844000", "164044.848000", "164044.851000", "164044.855000", "164044.858000", "164044.862000", "164044.865000", "164044.868000", "164104.788000", "164104.792000", "164104.795000", "164104.799000", "164104.802000", "164104.805000", "164104.809000", "164104.812000", "164104.815000", "164104.819000", "164104.822000", "164104.826000", "164104.829000", "164104.833000", "164104.836000", "164104.839000", "164104.843000", "164104.846000", "164104.849000", "164104.853000", "164104.856000", "164144.788000", "164144.792000", "164144.796000", "164144.799000", "164144.802000", "164144.806000", "164144.809000", "164144.813000", "164144.816000", "164144.820000", "164144.823000", "164144.827000", "164144.830000", "164144.834000", "164144.838000", "164144.841000", "164144.845000", "164144.848000", "164144.851000", "164144.855000", "164144.858000", "164144.862000", "164144.865000", "164144.873000", "164144.877000", "164144.880000", "164144.883000", "164144.887000", "164144.891000", "164144.894000", "164224.788000", "164224.792000", "164224.795000", "164224.799000", "164224.802000", "164224.806000", "164224.809000", "164224.813000", "164224.816000", "164224.819000", "164224.823000", "164224.826000", "164224.830000", "164224.833000", "164224.836000", "164224.840000", "164224.843000", "164224.847000", "164224.850000", "164224.854000", "164224.857000", "164224.861000", "164224.864000", "164224.867000", "164224.871000", "164224.874000", "164224.878000", "164304.787000", "164304.791000", "164304.811000", "164304.814000", "164304.818000", "164304.821000", "164304.824000", "164304.828000", "164304.831000", "164304.835000", "164304.838000", "164304.841000", "164304.845000", "164304.848000", "164304.852000", "164304.855000", "164304.859000", "164304.863000", "164304.874000", "164304.878000", "164304.881000", "164304.884000", "164304.888000", "164304.891000", "164304.895000", "164304.898000", "164304.901000", "164344.788000", "164344.792000", "164344.795000", "164344.799000", "164344.802000", "164344.806000", "164344.809000", "164344.813000", "164344.816000", "164344.820000", "164344.823000", "164344.826000", "164344.830000", "164344.833000", "164344.837000", "164344.840000", "164344.843000", "164344.847000", "164344.850000", "164344.854000", "164344.857000", "164344.861000", "164344.864000", "164344.867000", "164344.880000", "164344.883000", "164344.887000", "164424.788000", "164424.792000", "164424.796000", "164424.799000", "164424.803000", "164424.806000", "164424.809000", "164424.813000", "164424.816000", "164424.820000", "164424.823000", "164424.827000", "164424.830000", "164424.834000", "164424.837000", "164424.840000", "164424.844000", "164424.847000", "164424.851000", "164424.854000", "164424.857000", "164424.861000", "164424.864000", "164424.868000", "164424.871000", "164424.875000", "164424.878000", "164504.787000", "164504.791000", "164504.795000", "164504.798000", "164504.802000", "164504.805000", "164504.808000", "164504.812000", "164504.815000", "164504.819000", "164504.822000", "164504.826000", "164504.829000", "164504.832000", "164504.849000", "164504.852000", "164504.855000", "164504.859000", "164504.862000", "164504.866000", "164504.869000", "164504.872000", "164504.876000", "164504.879000", "164504.883000", "164504.886000", "164504.890000", "164544.788000", "164544.814000", "164544.818000", "164544.821000", "164544.824000", "164544.828000", "164544.831000", "164544.835000", "164544.838000", "164544.841000", "164544.845000", "164544.849000", "164544.852000", "164544.867000", "164544.872000", "164544.876000", "164544.880000", "164544.884000", "164544.887000", "164544.891000", "164544.894000", "164544.898000", "164544.901000", "164544.905000", "164544.908000", "164544.911000", "164624.788000", "164624.792000", "164624.795000", "164624.799000", "164624.802000", "164624.806000", "164624.809000", "164624.813000", "164624.816000", "164624.820000", "164624.823000", "164624.826000", "164624.830000", "164624.833000", "164624.837000", "164624.840000", "164624.843000", "164624.847000", "164624.850000", "164624.854000", "164624.857000", "164624.860000", "164624.864000", "164624.867000", "164624.871000", "164624.874000", "164624.877000", "164704.788000", "164704.792000", "164704.796000", "164704.799000", "164704.803000", "164704.806000", "164704.809000", "164704.813000", "164704.816000", "164704.820000", "164704.823000", "164704.826000", "164704.830000", "164704.833000", "164704.837000", "164704.840000", "164704.844000", "164704.847000", "164704.850000", "164704.854000", "164704.857000", "164704.861000", "164704.865000", "164704.868000", "164704.871000", "164704.875000", "164704.878000", "164731.962000", "164731.966000", "164731.970000", "164731.975000", "164731.979000", "164731.983000", "164731.989000", "164731.993000", "164731.997000", "164732.001000", "164732.005000", "164732.009000", "164732.013000", "164732.016000", "164732.020000", "164732.024000", "164732.027000", "164732.031000"],
      "InstanceNumber": [1, 2, 3, 4, 5, 6, 7, 8, 9, 10, 11, 12, 13, 14, 15, 16, 17, 18, 19, 20, 21, 22, 23, 24, 25, 26, 27, 28, 29, 30, 31, 32, 33, 34, 35, 36, 37, 38, 39, 40, 41, 42, 43, 44, 45, 46, 47, 48, 49, 50, 51, 52, 53, 54, 55, 56, 57, 58, 59, 60, 61, 62, 63, 64, 65, 66, 67, 68, 69, 70, 71, 72, 73, 74, 75, 76, 77, 78, 79, 80, 81, 82, 83, 84, 85, 86, 87, 88, 89, 90, 91, 92, 93, 94, 95, 96, 97, 98, 99, 100, 101, 102, 103, 104, 105, 106, 107, 108, 109, 110, 111, 112, 113, 114, 115, 116, 117, 118, 119, 120, 121, 122, 123, 124, 125, 126, 127, 128, 129, 130, 131, 132, 133, 134, 135, 136, 137, 138, 139, 140, 141, 142, 143, 144, 145, 146, 147, 148, 149, 150, 151, 152, 153, 154, 155, 156, 157, 158, 159, 160, 161, 162, 163, 164, 165, 166, 167, 168, 169, 170, 171, 172, 173, 174, 175, 176, 177, 178, 179, 180, 181, 182, 183, 184, 185, 186, 187, 188, 189, 190, 191, 192, 193, 194, 195, 196, 197, 198, 199, 200, 201, 202, 203, 204, 205, 206, 207, 208, 209, 210, 211, 212, 213, 214, 215, 216, 217, 218, 219, 220, 221, 222, 223, 224, 225, 226, 227, 228, 229, 230, 231, 232, 233, 234, 235, 236, 237, 238, 239, 240, 241, 242, 243, 244, 245, 246, 247, 248, 249, 250, 251, 252, 253, 254, 255, 256, 257, 258, 259, 260, 261, 262, 263, 264, 265, 266, 267, 268, 269, 270, 271, 272, 273, 274, 275, 276, 277, 278, 279, 280, 281, 282, 283, 284, 285, 286, 287, 288, 289, 290, 291, 292, 293, 294, 295, 296, 297, 298, 299, 300, 301, 302, 303, 304, 305, 306, 307, 308, 309, 310, 311, 312, 313, 314, 315, 316, 317, 318, 319, 320, 321, 322, 323, 324, 325, 326, 327, 328, 329, 330, 331, 332, 333, 334, 335, 336, 337, 338, 339, 340, 341, 342, 343, 344, 345, 346],
      "LargestImagePixelValue": [45052, 44948, 44161, 43827, 43656, 42663, 41831, 41654, 41077, 41578, 41399, 41837, 42216, 41510, 41599, 41122, 41936, 41832, 41197, 41512, 41202, 40837, 42735, 41506, 41702, 40362, 41658, 41521, 44722, 43816, 44684, 42931, 41882, 42186, 41819, 42391, 42778, 42328, 42419, 42013, 42898, 42531, 42476, 42789, 44321, 44718, 43909, 45070, 44041, 45273, 44289, 42974, 43312, 43512, 43271, 42732, 42611, 41674, 49213, 45585, 44407, 43925, 44129, 43057, 43013, 43420, 44510, 45062, 42657, 51432, 45496, 45627, 46158, 43753, 43120, 43963, 44467, 44191, 48077, 44236, 44427, 43918, 42952, 43397, 43587, 43226, 44264, 41597, 42637, 42188, 43999, 46099, 44172, 42844, 44591, 44654, 42520, 44684, 45822, 42476, 45779, 45984, 46207, 45727, 45792, 46051, 46115, 46243, 45567, 45091, 42504, 45899, 45104, 44912, 45676, 46111, 45209, 42539, 44177, 44037, 44257, 44162, 43507, 42938, 43453, 42569, 42462, 43027, 41808, 42359, 45553, 43538, 44271, 45072, 44697, 44324, 44531, 43510, 43043, 42176, 42048, 42697, 41189, 42849, 52933, 52227, 42912, 43038, 42658, 43289, 42766, 42732, 42898, 43452, 42354, 42656, 42188, 42161, 43865, 43182, 44856, 44756, 43966, 43450, 42927, 42353, 43531, 42008, 43797, 43400, 43352, 43908, 43772, 42291, 42858, 45007, 44247, 44141, 43812, 43494, 44931, 43858, 43482, 43084, 55576, 41828, 43259, 44207, 44331, 44679, 43254, 42905, 44259, 44666, 43194, 44171, 43938, 44503, 44133, 42490, 46383, 43316, 42092, 43505, 43638, 43624, 43275, 43788, 44028, 43286, 43350, 43663, 43193, 44476, 50472, 46645, 46474, 46929, 45808, 46982, 46831, 47695, 47297, 47191, 46393, 46434, 45940, 46006, 46071, 46222, 45047, 45504, 45176, 46081, 45544, 44657, 45161, 45819, 46272, 43806, 46001, 46169, 46689, 45732, 44943, 44360, 44660, 49531, 48932, 46825, 46629, 46186, 45367, 46122, 44171, 45068, 46688, 45569, 45842, 45948, 45596, 45365, 41679, 45268, 44330, 44335, 45043, 42956, 43649, 42421, 43441, 42676, 42753, 41696, 44633, 45961, 46173, 47186, 45868, 45507, 45146, 41875, 47451, 45896, 45177, 46721, 46275, 45129, 45713, 44934, 45226, 44325, 43729, 43324, 42987, 42714, 42626, 43485, 42679, 43193, 42345, 43118, 41564, 45564, 43331, 44501, 44020, 43824, 42585, 42415, 41861, 41876, 42730, 42458, 41873, 42381, 42175, 42316, 43877, 42613, 42744, 42207, 41755, 41947, 41013, 41615, 42333, 42394, 41920, 41830, 41164, 42694, 42927, 42080, 41179, 42364, 42549, 41834, 41086, 41500, 41975, 41715, 42063, 41552, 42142, 41427],
