{
  "AcquisitionMatrixPE": 104,
  "AcquisitionNumber": 1,
  "AcquisitionTime": "11:38:41.325000",
  "BandwidthPerPixelPhaseEncode": 17.17,
  "BaseResolution": 104,
  "BodyPartExamined": "BRAIN",
  "CoilCombinationMethod": "Sum of Squares",
  "ConsistencyInfo": "N4_VE11C_LATEST_20160120",
  "ConversionSoftware": "dcm2niix",
  "ConversionSoftwareVersion": "v1.0.20220505",
  "DerivedVendorReportedEchoSpacing": 0.000560011,
  "DeviceSerialNumber": "167006",
  "DwellTime": 2.1e-06,
  "EchoTime": 0.037,
  "EchoTrainLength": 104,
  "EffectiveEchoSpacing": 0.000560011,
  "FlipAngle": 52,
  "HeudiconvVersion": "0.5.3.post811+g6206e14",
  "ImageComments": "Unaliased MB4/PE3/LB",
  "ImageOrientationPatientDICOM": [0.998066, -0.00417824, 0.0620243, 0.0378185, 0.832679, -0.552464],
  "ImageOrientationText": "Tra>Cor(-33.7)>Sag(2.8)",
  "ImageType": [
    "ORIGINAL",
    "PRIMARY",
    "M",
    "MB",
    "ND",
    "MOSAIC"
],
  "ImagingFrequency": 123.259,
  "InPlanePhaseEncodingDirectionDICOM": "COL",
  "InstitutionAddress": "Chemin Queen-Mary 4565,Montreal,District,CA,H3W 1W5",
  "InstitutionName": "IUGM",
  "InstitutionalDepartmentName": "Department",
  "MRAcquisitionType": "2D",
  "MagneticFieldStrength": 3,
  "Manufacturer": "Siemens",
  "ManufacturersModelName": "Prisma_fit",
  "MatrixCoilMode": "SENSE",
  "Modality": "MR",
  "MultibandAccelerationFactor": 4,
  "PartialFourier": 1,
  "PatientPosition": "HFS",
  "PercentPhaseFOV": 100,
  "PercentSampling": 100,
  "PhaseEncodingDirection": "j",
  "PhaseEncodingSteps": 104,
  "PhaseResolution": 1,
  "PixelBandwidth": 2290,
  "ProcedureStepDescription": "games^mario3",
  "ProtocolName": "func_task-mario3_run-01",
  "PulseSequenceDetails": "%CustomerSeq%\\cmrr_mbep2d_bold",
  "ReceiveCoilActiveElements": "HC1-7;NC1,2",
  "ReceiveCoilName": "HeadNeck_64",
  "ReconMatrixPE": 104,
  "RepetitionTime": 1.49,
  "SAR": 0.0745806,
  "ScanOptions": "FS",
  "ScanningSequence": "EP",
  "SequenceName": "epfid2d1_104",
  "SequenceVariant": "SK\\SS",
  "SeriesDescription": "func_task-mario3_run-01",
  "SeriesNumber": 10,
  "ShimSetting": [620, -7193, -8856, 229, -20, -210, -56, 39],
  "SliceThickness": 2,
  "SliceTiming": [0, 0.785, 0.1, 0.8825, 0.1975, 0.98, 0.295, 1.0775, 0.3925, 1.1775, 0.49, 1.275, 0.59, 1.3725, 0.6875, 0, 0.785, 0.1, 0.8825, 0.1975, 0.98, 0.295, 1.0775, 0.3925, 1.1775, 0.49, 1.275, 0.59, 1.3725, 0.6875, 0, 0.785, 0.1, 0.8825, 0.1975, 0.98, 0.295, 1.0775, 0.3925, 1.1775, 0.49, 1.275, 0.59, 1.3725, 0.6875, 0, 0.785, 0.1, 0.8825, 0.1975, 0.98, 0.295, 1.0775, 0.3925, 1.1775, 0.49, 1.275, 0.59, 1.3725, 0.6875],
  "SoftwareVersions": "syngo MR E11",
  "SpacingBetweenSlices": 2,
  "StationName": "MRC35049",
  "TaskName": "mario3",
  "TotalReadoutTime": 0.0576811,
  "TxRefAmp": 307.829,
  "WipMemBlock": "bc9a262d-717c-412b-8a90-ef2ae8f5f507||Sequence: R017 ve11c/master r/75a17815+; Jun 28 2022 16:32:11 by eja",
  "dcmmeta_affine": [
    [-1.9961317777633667, 0.07563691586256027, 0.09867603331804276, 100.79991912841797],
    [0.00835647713392973, 1.6653573513031006, -1.1074813604354858, -46.39983367919922],
    [0.12404866516590118, 1.1049270629882812, 1.6624524593353271, -88.29158782958984],
    [0.0, 0.0, 0.0, 1.0]
],
  "dcmmeta_reorient_transform": [
    [0.0, -1.0, 0.0, 103.0],
    [1.0, 0.0, 0.0, 0.0],
    [0.0, 0.0, 1.0, 0.0],
    [0.0, 0.0, 0.0, 1.0]
],
  "dcmmeta_shape": [104, 104, 60, 323],
  "dcmmeta_slice_dim": 2,
  "dcmmeta_version": 0.6,
  "global": {
    "const": {
      "AcquisitionMatrix": [104, 0, 0, 104],
      "AngioFlag": "N",
      "BitsAllocated": 16,
      "BitsStored": 16,
      "BodyPartExamined": "BRAIN",
      "Columns": 832,
      "EchoNumbers": 1,
      "EchoTime": 37.0,
      "EchoTrainLength": 104,
      "FlipAngle": 52.0,
      "HighBit": 15,
      "ImageOrientationPatient": [0.99806589186623, -0.0041782385215, 0.06202433245209, 0.0378184573245, 0.83267869156078, -0.5524635380785],
      "ImagePositionPatient": [-862.71432973089, -728.28030676873, 382.55564246986],
      "ImageType": [
        "ORIGINAL",
        "PRIMARY",
        "M",
        "MB",
        "ND",
        "MOSAIC"
],
      "ImagedNucleus": "1H",
      "ImagingFrequency": 123.258749,
      "InPlanePhaseEncodingDirection": "COL",
      "MRAcquisitionType": "2D",
      "MagneticFieldStrength": 3.0,
      "Manufacturer": "SIEMENS",
      "ManufacturerModelName": "Prisma_fit",
      "Modality": "MR",
      "NumberOfAverages": 1.0,
      "NumberOfPhaseEncodingSteps": 104,
      "PercentPhaseFieldOfView": 100.0,
      "PercentSampling": 100.0,
      "PerformedProcedureStepStartTime": "113329.529000",
      "PhotometricInterpretation": "MONOCHROME2",
      "PixelBandwidth": 2290.0,
      "PixelRepresentation": 0,
      "PixelSpacing": [2.0, 2.0],
      "ProtocolName": "func_task-mario3_run-01",
      "RepetitionTime": 1490.0,
      "Rows": 832,
      "SAR": 0.07458063736334,
      "SamplesPerPixel": 1,
      "ScanOptions": "FS",
      "ScanningSequence": "EP",
      "SequenceName": "epfid2d1_104",
      "SequenceVariant": [
        "SK",
        "SS"
],
      "SeriesDescription": "func_task-mario3_run-01",
      "SeriesNumber": 10,
      "SeriesTime": "114017.923000",
      "SliceLocation": -42.723539239536,
      "SliceThickness": 2.0,
      "SmallestImagePixelValue": 0,
      "SoftwareVersions": "syngo MR E11",
      "SpacingBetweenSlices": 2.0000000053286,
      "SpecificCharacterSet": "ISO_IR 100",
      "StudyID": "1",
      "StudyTime": "113329.449000",
      "TransmitCoilName": "Body",
      "VariableFlipAngleFlag": "N",
      "WindowCenterWidthExplanation": "Algo1",
      "dBdt": 0.0},
    "slices": {}
  },
  "time": {
    "samples": {
      "AcquisitionNumber": [1, 2, 3, 4, 5, 6, 7, 8, 9, 10, 11, 12, 13, 14, 15, 16, 17, 18, 19, 20, 21, 22, 23, 24, 25, 26, 27, 28, 29, 30, 31, 32, 33, 34, 35, 36, 37, 38, 39, 40, 41, 42, 43, 44, 45, 46, 47, 48, 49, 50, 51, 52, 53, 54, 55, 56, 57, 58, 59, 60, 61, 62, 63, 64, 65, 66, 67, 68, 69, 70, 71, 72, 73, 74, 75, 76, 77, 78, 79, 80, 81, 82, 83, 84, 85, 86, 87, 88, 89, 90, 91, 92, 93, 94, 95, 96, 97, 98, 99, 100, 101, 102, 103, 104, 105, 106, 107, 108, 109, 110, 111, 112, 113, 114, 115, 116, 117, 118, 119, 120, 121, 122, 123, 124, 125, 126, 127, 128, 129, 130, 131, 132, 133, 134, 135, 136, 137, 138, 139, 140, 141, 142, 143, 144, 145, 146, 147, 148, 149, 150, 151, 152, 153, 154, 155, 156, 157, 158, 159, 160, 161, 162, 163, 164, 165, 166, 167, 168, 169, 170, 171, 172, 173, 174, 175, 176, 177, 178, 179, 180, 181, 182, 183, 184, 185, 186, 187, 188, 189, 190, 191, 192, 193, 194, 195, 196, 197, 198, 199, 200, 201, 202, 203, 204, 205, 206, 207, 208, 209, 210, 211, 212, 213, 214, 215, 216, 217, 218, 219, 220, 221, 222, 223, 224, 225, 226, 227, 228, 229, 230, 231, 232, 233, 234, 235, 236, 237, 238, 239, 240, 241, 242, 243, 244, 245, 246, 247, 248, 249, 250, 251, 252, 253, 254, 255, 256, 257, 258, 259, 260, 261, 262, 263, 264, 265, 266, 267, 268, 269, 270, 271, 272, 273, 274, 275, 276, 277, 278, 279, 280, 281, 282, 283, 284, 285, 286, 287, 288, 289, 290, 291, 292, 293, 294, 295, 296, 297, 298, 299, 300, 301, 302, 303, 304, 305, 306, 307, 308, 309, 310, 311, 312, 313, 314, 315, 316, 317, 318, 319, 320, 321, 322, 323],
      "AcquisitionTime": ["113841.325000", "113842.815000", "113844.305000", "113845.795000", "113847.285000", "113848.775000", "113850.265000", "113851.755000", "113853.245000", "113854.735000", "113856.225000", "113857.715000", "113859.205000", "113900.695000", "113902.185000", "113903.675000", "113905.165000", "113906.655000", "113908.145000", "113909.635000", "113911.125000", "113912.615000", "113914.105000", "113915.595000", "113917.085000", "113918.575000", "113920.065000", "113921.555000", "113923.045000", "113924.535000", "113926.025000", "113927.515000", "113929.005000", "113930.495000", "113931.985000", "113933.475000", "113934.965000", "113936.455000", "113937.945000", "113939.435000", "113940.925000", "113942.415000", "113943.905000", "113945.395000", "113946.885000", "113948.375000", "113949.865000", "113951.355000", "113952.845000", "113954.335000", "113955.825000", "113957.315000", "113958.805000", "114000.295000", "114001.785000", "114003.275000", "114004.765000", "114006.255000", "114007.745000", "114009.235000", "114010.725000", "114012.215000", "114013.705000", "114015.195000", "114016.685000", "114018.175000", "114019.665000", "114021.155000", "114022.645000", "114024.135000", "114025.625000", "114027.115000", "114028.605000", "114030.095000", "114031.585000", "114033.075000", "114034.565000", "114036.055000", "114037.545000", "114039.035000", "114040.525000", "114042.015000", "114043.505000", "114044.995000", "114046.485000", "114047.975000", "114049.465000", "114050.955000", "114052.445000", "114053.935000", "114055.425000", "114056.915000", "114058.405000", "114059.895000", "114101.385000", "114102.875000", "114104.365000", "114105.855000", "114107.345000", "114108.835000", "114110.325000", "114111.815000", "114113.305000", "114114.795000", "114116.285000", "114117.775000", "114119.265000", "114120.755000", "114122.245000", "114123.735000", "114125.225000", "114126.715000", "114128.205000", "114129.695000", "114131.185000", "114132.675000", "114134.165000", "114135.655000", "114137.145000", "114138.635000", "114140.125000", "114141.615000", "114143.105000", "114144.595000", "114146.085000", "114147.575000", "114149.065000", "114150.555000", "114152.045000", "114153.535000", "114155.025000", "114156.515000", "114158.005000", "114159.495000", "114200.985000", "114202.475000", "114203.965000", "114205.455000", "114206.945000", "114208.435000", "114209.925000", "114211.415000", "114212.905000", "114214.395000", "114215.885000", "114217.375000", "114218.865000", "114220.355000", "114221.845000", "114223.335000", "114224.825000", "114226.315000", "114227.805000", "114229.295000", "114230.785000", "114232.275000", "114233.765000", "114235.255000", "114236.745000", "114238.235000", "114239.725000", "114241.215000", "114242.705000", "114244.195000", "114245.685000", "114247.175000", "114248.665000", "114250.155000", "114251.645000", "114253.135000", "114254.625000", "114256.115000", "114257.605000", "114259.095000", "114300.585000", "114302.075000", "114303.565000", "114305.055000", "114306.545000", "114308.035000", "114309.525000", "114311.015000", "114312.505000", "114313.995000", "114315.485000", "114316.975000", "114318.465000", "114319.955000", "114321.445000", "114322.935000", "114324.425000", "114325.915000", "114327.405000", "114328.895000", "114330.385000", "114331.875000", "114333.365000", "114334.855000", "114336.345000", "114337.835000", "114339.325000", "114340.815000", "114342.305000", "114343.795000", "114345.285000", "114346.775000", "114348.265000", "114349.755000", "114351.245000", "114352.735000", "114354.225000", "114355.715000", "114357.205000", "114358.695000", "114400.185000", "114401.675000", "114403.165000", "114404.655000", "114406.145000", "114407.635000", "114409.125000", "114410.615000", "114412.105000", "114413.595000", "114415.085000", "114416.575000", "114418.065000", "114419.555000", "114421.045000", "114422.535000", "114424.025000", "114425.515000", "114427.005000", "114428.495000", "114429.985000", "114431.475000", "114432.965000", "114434.455000", "114435.945000", "114437.435000", "114438.925000", "114440.415000", "114441.905000", "114443.395000", "114444.885000", "114446.375000", "114447.865000", "114449.355000", "114450.845000", "114452.335000", "114453.825000", "114455.315000", "114456.805000", "114458.295000", "114459.785000", "114501.275000", "114502.765000", "114504.255000", "114505.745000", "114507.235000", "114508.725000", "114510.215000", "114511.705000", "114513.195000", "114514.685000", "114516.175000", "114517.665000", "114519.155000", "114520.645000", "114522.135000", "114523.625000", "114525.115000", "114526.605000", "114528.095000", "114529.585000", "114531.075000", "114532.565000", "114534.055000", "114535.545000", "114537.035000", "114538.525000", "114540.015000", "114541.505000", "114542.995000", "114544.485000", "114545.975000", "114547.465000", "114548.955000", "114550.445000", "114551.935000", "114553.425000", "114554.915000", "114556.405000", "114557.895000", "114559.385000", "114600.875000", "114602.365000", "114603.855000", "114605.345000", "114606.835000", "114608.325000", "114609.815000", "114611.305000", "114612.795000", "114614.285000", "114615.775000", "114617.265000", "114618.755000", "114620.245000", "114621.735000", "114623.225000", "114624.715000", "114626.205000", "114627.695000", "114629.185000", "114630.675000", "114632.165000", "114633.655000", "114635.145000", "114636.635000", "114638.125000", "114639.615000", "114641.105000"],
      "ContentTime": ["114017.927000", "114017.930000", "114017.934000", "114017.937000", "114017.941000", "114017.944000", "114017.948000", "114017.951000", "114017.954000", "114017.958000", "114017.961000", "114017.965000", "114017.968000", "114017.971000", "114017.975000", "114017.986000", "114017.990000", "114017.993000", "114017.996000", "114018.001000", "114018.004000", "114018.008000", "114018.011000", "114037.900000", "114037.904000", "114037.932000", "114037.936000", "114037.939000", "114037.942000", "114037.946000", "114037.949000", "114037.952000", "114037.956000", "114037.959000", "114037.962000", "114037.966000", "114037.969000", "114037.973000", "114037.976000", "114037.979000", "114037.983000", "114037.986000", "114037.989000", "114037.993000", "114057.900000", "114057.904000", "114057.907000", "114057.910000", "114057.914000", "114057.917000", "114057.921000", "114057.924000", "114057.928000", "114057.931000", "114057.934000", "114057.938000", "114057.941000", "114057.944000", "114057.948000", "114057.957000", "114057.960000", "114057.963000", "114057.967000", "114057.970000", "114117.899000", "114117.903000", "114117.906000", "114117.909000", "114117.913000", "114117.916000", "114117.920000", "114117.923000", "114117.927000", "114117.930000", "114117.933000", "114117.937000", "114117.940000", "114117.943000", "114117.947000", "114117.950000", "114117.953000", "114117.957000", "114117.960000", "114117.964000", "114137.899000", "114137.903000", "114137.906000", "114137.909000", "114137.913000", "114137.916000", "114137.920000", "114137.923000", "114137.927000", "114137.930000", "114137.933000", "114137.937000", "114137.940000", "114137.944000", "114137.947000", "114137.950000", "114137.954000", "114137.957000", "114137.960000", "114137.964000", "114157.899000", "114157.903000", "114157.906000", "114157.910000", "114157.913000", "114157.916000", "114157.920000", "114157.923000", "114157.926000", "114157.930000", "114157.933000", "114157.936000", "114157.940000", "114157.943000", "114157.947000", "114157.950000", "114157.953000", "114157.957000", "114157.960000", "114157.964000", "114217.899000", "114217.903000", "114217.906000", "114217.910000", "114217.913000", "114217.932000", "114217.936000", "114217.939000", "114217.943000", "114217.946000", "114217.949000", "114217.953000", "114217.956000", "114217.960000", "114217.963000", "114217.966000", "114217.970000", "114217.973000", "114217.976000", "114217.980000", "114217.983000", "114257.900000", "114257.904000", "114257.907000", "114257.911000", "114257.914000", "114257.917000", "114257.921000", "114257.924000", "114257.928000", "114257.931000", "114257.935000", "114257.938000", "114257.942000", "114257.945000", "114257.949000", "114257.973000", "114257.977000", "114257.980000", "114257.984000", "114257.987000", "114257.990000", "114257.994000", "114257.997000", "114258.002000", "114258.005000", "114258.008000", "114337.899000", "114337.903000", "114337.906000", "114337.910000", "114337.913000", "114337.917000", "114337.920000", "114337.923000", "114337.927000", "114337.930000", "114337.933000", "114337.937000", "114337.940000", "114337.943000", "114337.947000", "114337.950000", "114337.953000", "114337.957000", "114337.960000", "114337.964000", "114337.967000", "114337.970000", "114337.974000", "114337.977000", "114337.980000", "114337.984000", "114337.987000", "114417.899000", "114417.903000", "114417.906000", "114417.910000", "114417.913000", "114417.917000", "114417.920000", "114417.923000", "114417.927000", "114417.930000", "114417.934000", "114417.937000", "114417.941000", "114417.944000", "114417.947000", "114417.951000", "114417.954000", "114417.957000", "114417.961000", "114417.964000", "114417.968000", "114417.971000", "114417.974000", "114417.978000", "114417.981000", "114417.985000", "114417.988000", "114457.900000", "114457.904000", "114457.907000", "114457.911000", "114457.914000", "114457.918000", "114457.921000", "114457.924000", "114457.928000", "114457.931000", "114457.934000", "114457.938000", "114457.941000", "114457.945000", "114457.948000", "114457.951000", "114457.955000", "114457.958000", "114457.962000", "114457.965000", "114457.968000", "114457.972000", "114457.975000", "114457.978000", "114457.982000", "114457.985000", "114457.989000", "114537.900000", "114537.904000", "114537.907000", "114537.911000", "114537.914000", "114537.918000", "114537.921000", "114537.924000", "114537.928000", "114537.931000", "114537.934000", "114537.938000", "114537.941000", "114537.945000", "114537.948000", "114537.952000", "114537.955000", "114537.959000", "114537.962000", "114537.965000", "114537.969000", "114537.972000", "114537.975000", "114537.979000", "114537.982000", "114537.986000", "114537.989000", "114617.899000", "114617.903000", "114617.906000", "114617.910000", "114617.913000", "114617.917000", "114617.920000", "114617.924000", "114617.927000", "114617.930000", "114617.934000", "114617.937000", "114617.940000", "114617.944000", "114617.947000", "114617.951000", "114617.954000", "114617.957000", "114617.961000", "114617.964000", "114617.968000", "114617.971000", "114617.975000", "114617.978000", "114617.981000", "114617.985000", "114617.988000", "114643.836000", "114643.840000", "114643.843000", "114643.847000", "114643.850000", "114643.853000", "114643.857000", "114643.860000", "114643.864000", "114643.867000", "114643.870000", "114643.874000", "114643.877000", "114643.898000", "114643.902000", "114643.905000", "114643.908000"],
      "InstanceCreationTime": ["114017.927000", "114017.930000", "114017.934000", "114017.937000", "114017.941000", "114017.944000", "114017.948000", "114017.951000", "114017.954000", "114017.958000", "114017.961000", "114017.965000", "114017.968000", "114017.971000", "114017.975000", "114017.986000", "114017.990000", "114017.993000", "114017.996000", "114018.001000", "114018.004000", "114018.008000", "114018.011000", "114037.900000", "114037.904000", "114037.932000", "114037.936000", "114037.939000", "114037.942000", "114037.946000", "114037.949000", "114037.952000", "114037.956000", "114037.959000", "114037.962000", "114037.966000", "114037.969000", "114037.973000", "114037.976000", "114037.979000", "114037.983000", "114037.986000", "114037.989000", "114037.993000", "114057.900000", "114057.904000", "114057.907000", "114057.910000", "114057.914000", "114057.917000", "114057.921000", "114057.924000", "114057.928000", "114057.931000", "114057.934000", "114057.938000", "114057.941000", "114057.944000", "114057.948000", "114057.957000", "114057.960000", "114057.963000", "114057.967000", "114057.970000", "114117.899000", "114117.903000", "114117.906000", "114117.909000", "114117.913000", "114117.916000", "114117.920000", "114117.923000", "114117.927000", "114117.930000", "114117.933000", "114117.937000", "114117.940000", "114117.943000", "114117.947000", "114117.950000", "114117.953000", "114117.957000", "114117.960000", "114117.964000", "114137.899000", "114137.903000", "114137.906000", "114137.909000", "114137.913000", "114137.916000", "114137.920000", "114137.923000", "114137.927000", "114137.930000", "114137.933000", "114137.937000", "114137.940000", "114137.944000", "114137.947000", "114137.950000", "114137.954000", "114137.957000", "114137.960000", "114137.964000", "114157.899000", "114157.903000", "114157.906000", "114157.910000", "114157.913000", "114157.916000", "114157.920000", "114157.923000", "114157.926000", "114157.930000", "114157.933000", "114157.936000", "114157.940000", "114157.943000", "114157.947000", "114157.950000", "114157.953000", "114157.957000", "114157.960000", "114157.964000", "114217.899000", "114217.903000", "114217.906000", "114217.910000", "114217.913000", "114217.932000", "114217.936000", "114217.939000", "114217.943000", "114217.946000", "114217.949000", "114217.953000", "114217.956000", "114217.960000", "114217.963000", "114217.966000", "114217.970000", "114217.973000", "114217.976000", "114217.980000", "114217.983000", "114257.900000", "114257.904000", "114257.907000", "114257.911000", "114257.914000", "114257.917000", "114257.921000", "114257.924000", "114257.928000", "114257.931000", "114257.935000", "114257.938000", "114257.942000", "114257.945000", "114257.949000", "114257.973000", "114257.977000", "114257.980000", "114257.984000", "114257.987000", "114257.990000", "114257.994000", "114257.997000", "114258.002000", "114258.005000", "114258.008000", "114337.899000", "114337.903000", "114337.906000", "114337.910000", "114337.913000", "114337.917000", "114337.920000", "114337.923000", "114337.927000", "114337.930000", "114337.933000", "114337.937000", "114337.940000", "114337.943000", "114337.947000", "114337.950000", "114337.953000", "114337.957000", "114337.960000", "114337.964000", "114337.967000", "114337.970000", "114337.974000", "114337.977000", "114337.980000", "114337.984000", "114337.987000", "114417.899000", "114417.903000", "114417.906000", "114417.910000", "114417.913000", "114417.917000", "114417.920000", "114417.923000", "114417.927000", "114417.930000", "114417.934000", "114417.937000", "114417.941000", "114417.944000", "114417.947000", "114417.951000", "114417.954000", "114417.957000", "114417.961000", "114417.964000", "114417.968000", "114417.971000", "114417.974000", "114417.978000", "114417.981000", "114417.985000", "114417.988000", "114457.900000", "114457.904000", "114457.907000", "114457.911000", "114457.914000", "114457.918000", "114457.921000", "114457.924000", "114457.928000", "114457.931000", "114457.934000", "114457.938000", "114457.941000", "114457.945000", "114457.948000", "114457.951000", "114457.955000", "114457.958000", "114457.962000", "114457.965000", "114457.968000", "114457.972000", "114457.975000", "114457.978000", "114457.982000", "114457.985000", "114457.989000", "114537.900000", "114537.904000", "114537.907000", "114537.911000", "114537.914000", "114537.918000", "114537.921000", "114537.924000", "114537.928000", "114537.931000", "114537.934000", "114537.938000", "114537.941000", "114537.945000", "114537.948000", "114537.952000", "114537.955000", "114537.959000", "114537.962000", "114537.965000", "114537.969000", "114537.972000", "114537.975000", "114537.979000", "114537.982000", "114537.986000", "114537.989000", "114617.899000", "114617.903000", "114617.906000", "114617.910000", "114617.913000", "114617.917000", "114617.920000", "114617.924000", "114617.927000", "114617.930000", "114617.934000", "114617.937000", "114617.940000", "114617.944000", "114617.947000", "114617.951000", "114617.954000", "114617.957000", "114617.961000", "114617.964000", "114617.968000", "114617.971000", "114617.975000", "114617.978000", "114617.981000", "114617.985000", "114617.988000", "114643.836000", "114643.840000", "114643.843000", "114643.847000", "114643.850000", "114643.853000", "114643.857000", "114643.860000", "114643.864000", "114643.867000", "114643.870000", "114643.874000", "114643.877000", "114643.898000", "114643.902000", "114643.905000", "114643.908000"],
      "InstanceNumber": [1, 2, 3, 4, 5, 6, 7, 8, 9, 10, 11, 12, 13, 14, 15, 16, 17, 18, 19, 20, 21, 22, 23, 24, 25, 26, 27, 28, 29, 30, 31, 32, 33, 34, 35, 36, 37, 38, 39, 40, 41, 42, 43, 44, 45, 46, 47, 48, 49, 50, 51, 52, 53, 54, 55, 56, 57, 58, 59, 60, 61, 62, 63, 64, 65, 66, 67, 68, 69, 70, 71, 72, 73, 74, 75, 76, 77, 78, 79, 80, 81, 82, 83, 84, 85, 86, 87, 88, 89, 90, 91, 92, 93, 94, 95, 96, 97, 98, 99, 100, 101, 102, 103, 104, 105, 106, 107, 108, 109, 110, 111, 112, 113, 114, 115, 116, 117, 118, 119, 120, 121, 122, 123, 124, 125, 126, 127, 128, 129, 130, 131, 132, 133, 134, 135, 136, 137, 138, 139, 140, 141, 142, 143, 144, 145, 146, 147, 148, 149, 150, 151, 152, 153, 154, 155, 156, 157, 158, 159, 160, 161, 162, 163, 164, 165, 166, 167, 168, 169, 170, 171, 172, 173, 174, 175, 176, 177, 178, 179, 180, 181, 182, 183, 184, 185, 186, 187, 188, 189, 190, 191, 192, 193, 194, 195, 196, 197, 198, 199, 200, 201, 202, 203, 204, 205, 206, 207, 208, 209, 210, 211, 212, 213, 214, 215, 216, 217, 218, 219, 220, 221, 222, 223, 224, 225, 226, 227, 228, 229, 230, 231, 232, 233, 234, 235, 236, 237, 238, 239, 240, 241, 242, 243, 244, 245, 246, 247, 248, 249, 250, 251, 252, 253, 254, 255, 256, 257, 258, 259, 260, 261, 262, 263, 264, 265, 266, 267, 268, 269, 270, 271, 272, 273, 274, 275, 276, 277, 278, 279, 280, 281, 282, 283, 284, 285, 286, 287, 288, 289, 290, 291, 292, 293, 294, 295, 296, 297, 298, 299, 300, 301, 302, 303, 304, 305, 306, 307, 308, 309, 310, 311, 312, 313, 314, 315, 316, 317, 318, 319, 320, 321, 322, 323],
      "LargestImagePixelValue": [45402, 44527, 43465, 43906, 43761, 43296, 42989, 42509, 42216, 41540, 41203, 43338, 41779, 41974, 41119, 41744, 41668, 41130, 41288, 40799, 40590, 45791, 44311, 43805, 43238, 42753, 41798, 41692, 42872, 41216, 42593, 41060, 41538, 41952, 41023, 41138, 40892, 40826, 40356, 40384, 40283, 39755, 40037, 41368, 40593, 41076, 41228, 41254, 40394, 45698, 41985, 42016, 41492, 41164, 41025, 41679, 40835, 40831, 40925, 39283, 39857, 39786, 39794, 39554, 40180, 40226, 40570, 40106, 39524, 40125, 39104, 39421, 41640, 43311, 40428, 41726, 39765, 40116, 40567, 40188, 40357, 41109, 40389, 41006, 40280, 40920, 40096, 40794, 41125, 42803, 46360, 42590, 42428, 39687, 40297, 41160, 41285, 40498, 40627, 40758, 40420, 41018, 39866, 39468, 41746, 41258, 41898, 41308, 42696, 42708, 40854, 41819, 42441, 41509, 40657, 42053, 40754, 44818, 39736, 39607, 39962, 39608, 39218, 42067, 39819, 43898, 46350, 41039, 41383, 41345, 41932, 41576, 42475, 42582, 42715, 42483, 42468, 40329, 40559, 40069, 39405, 39646, 39387, 40821, 40537, 40471, 40796, 40021, 40219, 40603, 40681, 41266, 40290, 40499, 40995, 41002, 41183, 42408, 40665, 39738, 39473, 40572, 41366, 41142, 41753, 40060, 40527, 40884, 40156, 41440, 39773, 41733, 41831, 39936, 42238, 41597, 42785, 42314, 41089, 40837, 40687, 41181, 41873, 42352, 41385, 42074, 41865, 41820, 42056, 41616, 41418, 41476, 41729, 41415, 41377, 41100, 41249, 41935, 42566, 41624, 41903, 42629, 42484, 42440, 42248, 43071, 42719, 43153, 42178, 41756, 41679, 42222, 42262, 41112, 40907, 41282, 40901, 41554, 40881, 41693, 41551, 42433, 41560, 41516, 41798, 40721, 40435, 41242, 41000, 40446, 40888, 41518, 41049, 41512, 41320, 41465, 41583, 41755, 42036, 41545, 41565, 40737, 41784, 41506, 41447, 41634, 41608, 42215, 42077, 41867, 41690, 41822, 40978, 41513, 41669, 41881, 42285, 41578, 41202, 41961, 41717, 40839, 41548, 41648, 41314, 41036, 40801, 41146, 41271, 41244, 41239, 41153, 41032, 42238, 41325, 40552, 40683, 40717, 40730, 40958, 40576, 40784, 41108, 41140, 41036, 40477, 40805, 40880, 42167, 41621, 44125, 44191, 42164, 43194, 42178, 42573, 42800, 41807, 42692, 42699, 43049, 42553, 42834, 43421, 42958, 43376, 43680, 42892, 43202, 43346, 43116, 43177, 43292, 42914, 43300, 42675, 42327, 41637, 41740, 41292, 41233, 41568, 41314],
