{
  "AcquisitionMatrixPE": 104,
  "AcquisitionNumber": 1,
  "AcquisitionTime": "11:38:41.325000",
  "BandwidthPerPixelPhaseEncode": 17.17,
  "BaseResolution": 104,
  "BodyPartExamined": "BRAIN",
  "CoilCombinationMethod": "Sum of Squares",
  "ConsistencyInfo": "N4_VE11C_LATEST_20160120",
  "ConversionSoftware": "dcm2niix",
  "ConversionSoftwareVersion": "v1.0.20220505",
  "DerivedVendorReportedEchoSpacing": 0.000560011,
  "DeviceSerialNumber": "167006",
  "DwellTime": 2.1e-06,
  "EchoTime": 0.037,
  "EchoTime1": 0.037,
  "EchoTime2": 0.001,
  "EchoTrainLength": 104,
  "EffectiveEchoSpacing": 0.000560011,
  "FlipAngle": 52,
  "HeudiconvVersion": "0.5.3.post811+g6206e14",
  "ImageComments": "Unaliased MB4/PE3/LB",
  "ImageOrientationPatientDICOM": [0.998066, -0.00417824, 0.0620243, 0.0378185, 0.832679, -0.552464],
  "ImageOrientationText": "Tra>Cor(-33.7)>Sag(2.8)",
  "ImageType": [
    "ORIGINAL",
    "PRIMARY",
    "P",
    "MB",
    "ND",
    "MOSAIC",
    "PHASE"
],
  "ImagingFrequency": 123.259,
  "InPlanePhaseEncodingDirectionDICOM": "COL",
  "InstitutionAddress": "Chemin Queen-Mary 4565,Montreal,District,CA,H3W 1W5",
  "InstitutionName": "IUGM",
  "InstitutionalDepartmentName": "Department",
  "MRAcquisitionType": "2D",
  "MagneticFieldStrength": 3,
  "Manufacturer": "Siemens",
  "ManufacturersModelName": "Prisma_fit",
  "MatrixCoilMode": "SENSE",
  "Modality": "MR",
  "MultibandAccelerationFactor": 4,
  "PartialFourier": 1,
  "PatientPosition": "HFS",
  "PercentPhaseFOV": 100,
  "PercentSampling": 100,
  "PhaseEncodingDirection": "j",
  "PhaseEncodingSteps": 104,
  "PhaseResolution": 1,
  "PixelBandwidth": 2290,
  "ProcedureStepDescription": "games^mario3",
  "ProtocolName": "func_task-mario3_run-01",
  "PulseSequenceDetails": "%CustomerSeq%\\cmrr_mbep2d_bold",
  "ReceiveCoilActiveElements": "HC1-7;NC1,2",
  "ReceiveCoilName": "HeadNeck_64",
  "ReconMatrixPE": 104,
  "RepetitionTime": 1.49,
  "SAR": 0.0745806,
  "ScanOptions": "FS",
  "ScanningSequence": "EP",
  "SequenceName": "epfid2d1_104",
  "SequenceVariant": "SK\\SS",
  "SeriesDescription": "func_task-mario3_run-01",
  "SeriesNumber": 11,
  "ShimSetting": [620, -7193, -8856, 229, -20, -210, -56, 39],
  "SliceThickness": 2,
  "SliceTiming": [0, 0.785, 0.1, 0.8825, 0.1975, 0.98, 0.295, 1.0775, 0.3925, 1.1775, 0.49, 1.275, 0.59, 1.3725, 0.6875, 0, 0.785, 0.1, 0.8825, 0.1975, 0.98, 0.295, 1.0775, 0.3925, 1.1775, 0.49, 1.275, 0.59, 1.3725, 0.6875, 0, 0.785, 0.1, 0.8825, 0.1975, 0.98, 0.295, 1.0775, 0.3925, 1.1775, 0.49, 1.275, 0.59, 1.3725, 0.6875, 0, 0.785, 0.1, 0.8825, 0.1975, 0.98, 0.295, 1.0775, 0.3925, 1.1775, 0.49, 1.275, 0.59, 1.3725, 0.6875],
  "SoftwareVersions": "syngo MR E11",
  "SpacingBetweenSlices": 2,
  "StationName": "MRC35049",
  "TaskName": "mario3",
  "TotalReadoutTime": 0.0576811,
  "TxRefAmp": 307.829,
  "WipMemBlock": "bc9a262d-717c-412b-8a90-ef2ae8f5f507||Sequence: R017 ve11c/master r/75a17815+; Jun 28 2022 16:32:11 by eja",
  "dcmmeta_affine": [
    [-1.9961317777633667, 0.07563691586256027, 0.09867603331804276, 100.79991912841797],
    [0.00835647713392973, 1.6653573513031006, -1.1074813604354858, -46.39983367919922],
    [0.12404866516590118, 1.1049270629882812, 1.6624524593353271, -88.29158782958984],
    [0.0, 0.0, 0.0, 1.0]
],
  "dcmmeta_reorient_transform": [
    [0.0, -1.0, 0.0, 103.0],
    [1.0, 0.0, 0.0, 0.0],
    [0.0, 0.0, 1.0, 0.0],
    [0.0, 0.0, 0.0, 1.0]
],
  "dcmmeta_shape": [104, 104, 60, 323],
  "dcmmeta_slice_dim": 2,
  "dcmmeta_version": 0.6,
  "global": {
    "const": {
      "AcquisitionMatrix": [104, 0, 0, 104],
      "AngioFlag": "N",
      "BitsAllocated": 16,
      "BitsStored": 16,
      "BodyPartExamined": "BRAIN",
      "Columns": 832,
      "EchoNumbers": 1,
      "EchoTime": 37.0,
      "EchoTrainLength": 104,
      "FlipAngle": 52.0,
      "HighBit": 15,
      "ImageOrientationPatient": [0.99806589186623, -0.0041782385215, 0.06202433245209, 0.0378184573245, 0.83267869156078, -0.5524635380785],
      "ImagePositionPatient": [-862.71432973089, -728.28030676873, 382.55564246986],
      "ImageType": [
        "ORIGINAL",
        "PRIMARY",
        "P",
        "MB",
        "ND",
        "MOSAIC"
],
      "ImagedNucleus": "1H",
      "ImagingFrequency": 123.258749,
      "InPlanePhaseEncodingDirection": "COL",
      "LargestImagePixelValue": 4095,
      "MRAcquisitionType": "2D",
      "MagneticFieldStrength": 3.0,
      "Manufacturer": "SIEMENS",
      "ManufacturerModelName": "Prisma_fit",
      "Modality": "MR",
      "NumberOfAverages": 1.0,
      "NumberOfPhaseEncodingSteps": 104,
      "PercentPhaseFieldOfView": 100.0,
      "PercentSampling": 100.0,
      "PerformedProcedureStepStartTime": "113329.529000",
      "PhotometricInterpretation": "MONOCHROME2",
      "PixelBandwidth": 2290.0,
      "PixelRepresentation": 0,
      "PixelSpacing": [2.0, 2.0],
      "ProtocolName": "func_task-mario3_run-01",
      "RepetitionTime": 1490.0,
      "RescaleIntercept": -4096.0,
      "RescaleSlope": 2.0,
      "RescaleType": "US",
      "Rows": 832,
      "SAR": 0.07458063736334,
      "SamplesPerPixel": 1,
      "ScanOptions": "FS",
      "ScanningSequence": "EP",
      "SequenceName": "epfid2d1_104",
      "SequenceVariant": [
        "SK",
        "SS"
],
      "SeriesDescription": "func_task-mario3_run-01",
      "SeriesNumber": 11,
      "SeriesTime": "114018.041000",
      "SliceLocation": -42.723539239536,
      "SliceThickness": 2.0,
      "SmallestImagePixelValue": 0,
      "SoftwareVersions": "syngo MR E11",
      "SpacingBetweenSlices": 2.0000000053286,
      "SpecificCharacterSet": "ISO_IR 100",
      "StudyID": "1",
      "StudyTime": "113329.449000",
      "TransmitCoilName": "Body",
      "VariableFlipAngleFlag": "N",
      "WindowCenterWidthExplanation": "Algo1",
      "dBdt": 0.0},
    "slices": {}
  },
  "time": {
    "samples": {
      "AcquisitionNumber": [1, 2, 3, 4, 5, 6, 7, 8, 9, 10, 11, 12, 13, 14, 15, 16, 17, 18, 19, 20, 21, 22, 23, 24, 25, 26, 27, 28, 29, 30, 31, 32, 33, 34, 35, 36, 37, 38, 39, 40, 41, 42, 43, 44, 45, 46, 47, 48, 49, 50, 51, 52, 53, 54, 55, 56, 57, 58, 59, 60, 61, 62, 63, 64, 65, 66, 67, 68, 69, 70, 71, 72, 73, 74, 75, 76, 77, 78, 79, 80, 81, 82, 83, 84, 85, 86, 87, 88, 89, 90, 91, 92, 93, 94, 95, 96, 97, 98, 99, 100, 101, 102, 103, 104, 105, 106, 107, 108, 109, 110, 111, 112, 113, 114, 115, 116, 117, 118, 119, 120, 121, 122, 123, 124, 125, 126, 127, 128, 129, 130, 131, 132, 133, 134, 135, 136, 137, 138, 139, 140, 141, 142, 143, 144, 145, 146, 147, 148, 149, 150, 151, 152, 153, 154, 155, 156, 157, 158, 159, 160, 161, 162, 163, 164, 165, 166, 167, 168, 169, 170, 171, 172, 173, 174, 175, 176, 177, 178, 179, 180, 181, 182, 183, 184, 185, 186, 187, 188, 189, 190, 191, 192, 193, 194, 195, 196, 197, 198, 199, 200, 201, 202, 203, 204, 205, 206, 207, 208, 209, 210, 211, 212, 213, 214, 215, 216, 217, 218, 219, 220, 221, 222, 223, 224, 225, 226, 227, 228, 229, 230, 231, 232, 233, 234, 235, 236, 237, 238, 239, 240, 241, 242, 243, 244, 245, 246, 247, 248, 249, 250, 251, 252, 253, 254, 255, 256, 257, 258, 259, 260, 261, 262, 263, 264, 265, 266, 267, 268, 269, 270, 271, 272, 273, 274, 275, 276, 277, 278, 279, 280, 281, 282, 283, 284, 285, 286, 287, 288, 289, 290, 291, 292, 293, 294, 295, 296, 297, 298, 299, 300, 301, 302, 303, 304, 305, 306, 307, 308, 309, 310, 311, 312, 313, 314, 315, 316, 317, 318, 319, 320, 321, 322, 323],
      "AcquisitionTime": ["113841.325000", "113842.815000", "113844.305000", "113845.795000", "113847.285000", "113848.775000", "113850.265000", "113851.755000", "113853.245000", "113854.735000", "113856.225000", "113857.715000", "113859.205000", "113900.695000", "113902.185000", "113903.675000", "113905.165000", "113906.655000", "113908.145000", "113909.635000", "113911.125000", "113912.615000", "113914.105000", "113915.595000", "113917.085000", "113918.575000", "113920.065000", "113921.555000", "113923.045000", "113924.535000", "113926.025000", "113927.515000", "113929.005000", "113930.495000", "113931.985000", "113933.475000", "113934.965000", "113936.455000", "113937.945000", "113939.435000", "113940.925000", "113942.415000", "113943.905000", "113945.395000", "113946.885000", "113948.375000", "113949.865000", "113951.355000", "113952.845000", "113954.335000", "113955.825000", "113957.315000", "113958.805000", "114000.295000", "114001.785000", "114003.275000", "114004.765000", "114006.255000", "114007.745000", "114009.235000", "114010.725000", "114012.215000", "114013.705000", "114015.195000", "114016.685000", "114018.175000", "114019.665000", "114021.155000", "114022.645000", "114024.135000", "114025.625000", "114027.115000", "114028.605000", "114030.095000", "114031.585000", "114033.075000", "114034.565000", "114036.055000", "114037.545000", "114039.035000", "114040.525000", "114042.015000", "114043.505000", "114044.995000", "114046.485000", "114047.975000", "114049.465000", "114050.955000", "114052.445000", "114053.935000", "114055.425000", "114056.915000", "114058.405000", "114059.895000", "114101.385000", "114102.875000", "114104.365000", "114105.855000", "114107.345000", "114108.835000", "114110.325000", "114111.815000", "114113.305000", "114114.795000", "114116.285000", "114117.775000", "114119.265000", "114120.755000", "114122.245000", "114123.735000", "114125.225000", "114126.715000", "114128.205000", "114129.695000", "114131.185000", "114132.675000", "114134.165000", "114135.655000", "114137.145000", "114138.635000", "114140.125000", "114141.615000", "114143.105000", "114144.595000", "114146.085000", "114147.575000", "114149.065000", "114150.555000", "114152.045000", "114153.535000", "114155.025000", "114156.515000", "114158.005000", "114159.495000", "114200.985000", "114202.475000", "114203.965000", "114205.455000", "114206.945000", "114208.435000", "114209.925000", "114211.415000", "114212.905000", "114214.395000", "114215.885000", "114217.375000", "114218.865000", "114220.355000", "114221.845000", "114223.335000", "114224.825000", "114226.315000", "114227.805000", "114229.295000", "114230.785000", "114232.275000", "114233.765000", "114235.255000", "114236.745000", "114238.235000", "114239.725000", "114241.215000", "114242.705000", "114244.195000", "114245.685000", "114247.175000", "114248.665000", "114250.155000", "114251.645000", "114253.135000", "114254.625000", "114256.115000", "114257.605000", "114259.095000", "114300.585000", "114302.075000", "114303.565000", "114305.055000", "114306.545000", "114308.035000", "114309.525000", "114311.015000", "114312.505000", "114313.995000", "114315.485000", "114316.975000", "114318.465000", "114319.955000", "114321.445000", "114322.935000", "114324.425000", "114325.915000", "114327.405000", "114328.895000", "114330.385000", "114331.875000", "114333.365000", "114334.855000", "114336.345000", "114337.835000", "114339.325000", "114340.815000", "114342.305000", "114343.795000", "114345.285000", "114346.775000", "114348.265000", "114349.755000", "114351.245000", "114352.735000", "114354.225000", "114355.715000", "114357.205000", "114358.695000", "114400.185000", "114401.675000", "114403.165000", "114404.655000", "114406.145000", "114407.635000", "114409.125000", "114410.615000", "114412.105000", "114413.595000", "114415.085000", "114416.575000", "114418.065000", "114419.555000", "114421.045000", "114422.535000", "114424.025000", "114425.515000", "114427.005000", "114428.495000", "114429.985000", "114431.475000", "114432.965000", "114434.455000", "114435.945000", "114437.435000", "114438.925000", "114440.415000", "114441.905000", "114443.395000", "114444.885000", "114446.375000", "114447.865000", "114449.355000", "114450.845000", "114452.335000", "114453.825000", "114455.315000", "114456.805000", "114458.295000", "114459.785000", "114501.275000", "114502.765000", "114504.255000", "114505.745000", "114507.235000", "114508.725000", "114510.215000", "114511.705000", "114513.195000", "114514.685000", "114516.175000", "114517.665000", "114519.155000", "114520.645000", "114522.135000", "114523.625000", "114525.115000", "114526.605000", "114528.095000", "114529.585000", "114531.075000", "114532.565000", "114534.055000", "114535.545000", "114537.035000", "114538.525000", "114540.015000", "114541.505000", "114542.995000", "114544.485000", "114545.975000", "114547.465000", "114548.955000", "114550.445000", "114551.935000", "114553.425000", "114554.915000", "114556.405000", "114557.895000", "114559.385000", "114600.875000", "114602.365000", "114603.855000", "114605.345000", "114606.835000", "114608.325000", "114609.815000", "114611.305000", "114612.795000", "114614.285000", "114615.775000", "114617.265000", "114618.755000", "114620.245000", "114621.735000", "114623.225000", "114624.715000", "114626.205000", "114627.695000", "114629.185000", "114630.675000", "114632.165000", "114633.655000", "114635.145000", "114636.635000", "114638.125000", "114639.615000", "114641.105000"],
      "ContentTime": ["114018.043000", "114018.046000", "114018.048000", "114018.051000", "114018.053000", "114018.056000", "114018.058000", "114018.061000", "114018.063000", "114018.066000", "114018.068000", "114018.071000", "114018.073000", "114018.076000", "114018.078000", "114018.081000", "114018.083000", "114018.086000", "114018.088000", "114018.091000", "114018.093000", "114018.096000", "114018.099000", "114038.040000", "114038.043000", "114038.046000", "114038.048000", "114038.051000", "114038.053000", "114038.056000", "114038.058000", "114038.061000", "114038.063000", "114038.066000", "114038.069000", "114038.071000", "114038.074000", "114038.076000", "114038.079000", "114038.081000", "114038.084000", "114038.086000", "114038.089000", "114038.091000", "114058.016000", "114058.019000", "114058.022000", "114058.024000", "114058.027000", "114058.029000", "114058.032000", "114058.035000", "114058.037000", "114058.040000", "114058.042000", "114058.045000", "114058.047000", "114058.050000", "114058.052000", "114058.055000", "114058.058000", "114058.060000", "114058.063000", "114058.065000", "114118.010000", "114118.013000", "114118.015000", "114118.018000", "114118.020000", "114118.023000", "114118.025000", "114118.028000", "114118.031000", "114118.033000", "114118.036000", "114118.039000", "114118.041000", "114118.044000", "114118.046000", "114118.049000", "114118.051000", "114118.054000", "114118.056000", "114118.059000", "114138.009000", "114138.012000", "114138.014000", "114138.017000", "114138.019000", "114138.022000", "114138.025000", "114138.027000", "114138.030000", "114138.032000", "114138.035000", "114138.037000", "114138.040000", "114138.042000", "114138.045000", "114138.048000", "114138.050000", "114138.053000", "114138.055000", "114138.058000", "114158.003000", "114158.006000", "114158.008000", "114158.011000", "114158.013000", "114158.016000", "114158.019000", "114158.021000", "114158.024000", "114158.026000", "114158.029000", "114158.031000", "114158.034000", "114158.037000", "114158.045000", "114158.047000", "114158.050000", "114158.052000", "114158.055000", "114158.058000", "114218.024000", "114218.027000", "114218.030000", "114218.032000", "114218.035000", "114218.038000", "114218.040000", "114218.043000", "114218.045000", "114218.048000", "114218.050000", "114218.053000", "114218.055000", "114218.058000", "114218.061000", "114218.063000", "114218.066000", "114218.068000", "114218.071000", "114218.073000", "114218.076000", "114258.056000", "114258.058000", "114258.061000", "114258.064000", "114258.066000", "114258.069000", "114258.071000", "114258.074000", "114258.076000", "114258.079000", "114258.081000", "114258.084000", "114258.086000", "114258.089000", "114258.092000", "114258.094000", "114258.097000", "114258.099000", "114258.102000", "114258.104000", "114258.107000", "114258.109000", "114258.112000", "114258.115000", "114258.117000", "114258.120000", "114338.042000", "114338.045000", "114338.047000", "114338.050000", "114338.053000", "114338.055000", "114338.058000", "114338.060000", "114338.063000", "114338.065000", "114338.068000", "114338.070000", "114338.073000", "114338.076000", "114338.078000", "114338.081000", "114338.083000", "114338.086000", "114338.088000", "114338.091000", "114338.094000", "114338.096000", "114338.099000", "114338.101000", "114338.104000", "114338.106000", "114338.109000", "114418.037000", "114418.040000", "114418.042000", "114418.045000", "114418.047000", "114418.050000", "114418.052000", "114418.055000", "114418.058000", "114418.060000", "114418.063000", "114418.065000", "114418.068000", "114418.070000", "114418.073000", "114418.075000", "114418.078000", "114418.080000", "114418.083000", "114418.086000", "114418.088000", "114418.091000", "114418.093000", "114418.096000", "114418.098000", "114418.101000", "114418.103000", "114458.034000", "114458.037000", "114458.040000", "114458.042000", "114458.045000", "114458.047000", "114458.050000", "114458.052000", "114458.055000", "114458.057000", "114458.068000", "114458.070000", "114458.073000", "114458.075000", "114458.078000", "114458.081000", "114458.083000", "114458.086000", "114458.088000", "114458.091000", "114458.093000", "114458.096000", "114458.098000", "114458.101000", "114458.104000", "114458.106000", "114458.109000", "114538.042000", "114538.044000", "114538.047000", "114538.050000", "114538.052000", "114538.055000", "114538.058000", "114538.060000", "114538.063000", "114538.065000", "114538.068000", "114538.070000", "114538.073000", "114538.075000", "114538.078000", "114538.080000", "114538.083000", "114538.086000", "114538.088000", "114538.091000", "114538.093000", "114538.096000", "114538.098000", "114538.101000", "114538.103000", "114538.106000", "114538.109000", "114618.033000", "114618.035000", "114618.038000", "114618.041000", "114618.043000", "114618.046000", "114618.048000", "114618.051000", "114618.053000", "114618.056000", "114618.059000", "114618.061000", "114618.064000", "114618.066000", "114618.069000", "114618.071000", "114618.074000", "114618.076000", "114618.079000", "114618.082000", "114618.084000", "114618.087000", "114618.089000", "114618.092000", "114618.095000", "114618.097000", "114618.100000", "114643.941000", "114643.944000", "114643.946000", "114643.949000", "114643.952000", "114643.954000", "114643.957000", "114643.959000", "114643.962000", "114643.964000", "114643.967000", "114643.970000", "114643.972000", "114643.975000", "114643.977000", "114643.980000", "114643.982000"],
      "InstanceCreationTime": ["114018.043000", "114018.046000", "114018.048000", "114018.051000", "114018.053000", "114018.056000", "114018.058000", "114018.061000", "114018.063000", "114018.066000", "114018.068000", "114018.071000", "114018.073000", "114018.076000", "114018.078000", "114018.081000", "114018.083000", "114018.086000", "114018.088000", "114018.091000", "114018.093000", "114018.096000", "114018.099000", "114038.040000", "114038.043000", "114038.046000", "114038.048000", "114038.051000", "114038.053000", "114038.056000", "114038.058000", "114038.061000", "114038.063000", "114038.066000", "114038.069000", "114038.071000", "114038.074000", "114038.076000", "114038.079000", "114038.081000", "114038.084000", "114038.086000", "114038.089000", "114038.091000", "114058.016000", "114058.019000", "114058.022000", "114058.024000", "114058.027000", "114058.029000", "114058.032000", "114058.035000", "114058.037000", "114058.040000", "114058.042000", "114058.045000", "114058.047000", "114058.050000", "114058.052000", "114058.055000", "114058.058000", "114058.060000", "114058.063000", "114058.065000", "114118.010000", "114118.013000", "114118.015000", "114118.018000", "114118.020000", "114118.023000", "114118.025000", "114118.028000", "114118.031000", "114118.033000", "114118.036000", "114118.039000", "114118.041000", "114118.044000", "114118.046000", "114118.049000", "114118.051000", "114118.054000", "114118.056000", "114118.059000", "114138.009000", "114138.012000", "114138.014000", "114138.017000", "114138.019000", "114138.022000", "114138.025000", "114138.027000", "114138.030000", "114138.032000", "114138.035000", "114138.037000", "114138.040000", "114138.042000", "114138.045000", "114138.048000", "114138.050000", "114138.053000", "114138.055000", "114138.058000", "114158.003000", "114158.006000", "114158.008000", "114158.011000", "114158.013000", "114158.016000", "114158.019000", "114158.021000", "114158.024000", "114158.026000", "114158.029000", "114158.031000", "114158.034000", "114158.037000", "114158.045000", "114158.047000", "114158.050000", "114158.052000", "114158.055000", "114158.058000", "114218.024000", "114218.027000", "114218.030000", "114218.032000", "114218.035000", "114218.038000", "114218.040000", "114218.043000", "114218.045000", "114218.048000", "114218.050000", "114218.053000", "114218.055000", "114218.058000", "114218.061000", "114218.063000", "114218.066000", "114218.068000", "114218.071000", "114218.073000", "114218.076000", "114258.056000", "114258.058000", "114258.061000", "114258.064000", "114258.066000", "114258.069000", "114258.071000", "114258.074000", "114258.076000", "114258.079000", "114258.081000", "114258.084000", "114258.086000", "114258.089000", "114258.092000", "114258.094000", "114258.097000", "114258.099000", "114258.102000", "114258.104000", "114258.107000", "114258.109000", "114258.112000", "114258.115000", "114258.117000", "114258.120000", "114338.042000", "114338.045000", "114338.047000", "114338.050000", "114338.053000", "114338.055000", "114338.058000", "114338.060000", "114338.063000", "114338.065000", "114338.068000", "114338.070000", "114338.073000", "114338.076000", "114338.078000", "114338.081000", "114338.083000", "114338.086000", "114338.088000", "114338.091000", "114338.094000", "114338.096000", "114338.099000", "114338.101000", "114338.104000", "114338.106000", "114338.109000", "114418.037000", "114418.040000", "114418.042000", "114418.045000", "114418.047000", "114418.050000", "114418.052000", "114418.055000", "114418.058000", "114418.060000", "114418.063000", "114418.065000", "114418.068000", "114418.070000", "114418.073000", "114418.075000", "114418.078000", "114418.080000", "114418.083000", "114418.086000", "114418.088000", "114418.091000", "114418.093000", "114418.096000", "114418.098000", "114418.101000", "114418.103000", "114458.034000", "114458.037000", "114458.040000", "114458.042000", "114458.045000", "114458.047000", "114458.050000", "114458.052000", "114458.055000", "114458.057000", "114458.068000", "114458.070000", "114458.073000", "114458.075000", "114458.078000", "114458.081000", "114458.083000", "114458.086000", "114458.088000", "114458.091000", "114458.093000", "114458.096000", "114458.098000", "114458.101000", "114458.104000", "114458.106000", "114458.109000", "114538.042000", "114538.044000", "114538.047000", "114538.050000", "114538.052000", "114538.055000", "114538.058000", "114538.060000", "114538.063000", "114538.065000", "114538.068000", "114538.070000", "114538.073000", "114538.075000", "114538.078000", "114538.080000", "114538.083000", "114538.086000", "114538.088000", "114538.091000", "114538.093000", "114538.096000", "114538.098000", "114538.101000", "114538.103000", "114538.106000", "114538.109000", "114618.033000", "114618.035000", "114618.038000", "114618.041000", "114618.043000", "114618.046000", "114618.048000", "114618.051000", "114618.053000", "114618.056000", "114618.059000", "114618.061000", "114618.064000", "114618.066000", "114618.069000", "114618.071000", "114618.074000", "114618.076000", "114618.079000", "114618.082000", "114618.084000", "114618.087000", "114618.089000", "114618.092000", "114618.095000", "114618.097000", "114618.100000", "114643.941000", "114643.944000", "114643.946000", "114643.949000", "114643.952000", "114643.954000", "114643.957000", "114643.959000", "114643.962000", "114643.964000", "114643.967000", "114643.970000", "114643.972000", "114643.975000", "114643.977000", "114643.980000", "114643.982000"],
      "InstanceNumber": [1, 2, 3, 4, 5, 6, 7, 8, 9, 10, 11, 12, 13, 14, 15, 16, 17, 18, 19, 20, 21, 22, 23, 24, 25, 26, 27, 28, 29, 30, 31, 32, 33, 34, 35, 36, 37, 38, 39, 40, 41, 42, 43, 44, 45, 46, 47, 48, 49, 50, 51, 52, 53, 54, 55, 56, 57, 58, 59, 60, 61, 62, 63, 64, 65, 66, 67, 68, 69, 70, 71, 72, 73, 74, 75, 76, 77, 78, 79, 80, 81, 82, 83, 84, 85, 86, 87, 88, 89, 90, 91, 92, 93, 94, 95, 96, 97, 98, 99, 100, 101, 102, 103, 104, 105, 106, 107, 108, 109, 110, 111, 112, 113, 114, 115, 116, 117, 118, 119, 120, 121, 122, 123, 124, 125, 126, 127, 128, 129, 130, 131, 132, 133, 134, 135, 136, 137, 138, 139, 140, 141, 142, 143, 144, 145, 146, 147, 148, 149, 150, 151, 152, 153, 154, 155, 156, 157, 158, 159, 160, 161, 162, 163, 164, 165, 166, 167, 168, 169, 170, 171, 172, 173, 174, 175, 176, 177, 178, 179, 180, 181, 182, 183, 184, 185, 186, 187, 188, 189, 190, 191, 192, 193, 194, 195, 196, 197, 198, 199, 200, 201, 202, 203, 204, 205, 206, 207, 208, 209, 210, 211, 212, 213, 214, 215, 216, 217, 218, 219, 220, 221, 222, 223, 224, 225, 226, 227, 228, 229, 230, 231, 232, 233, 234, 235, 236, 237, 238, 239, 240, 241, 242, 243, 244, 245, 246, 247, 248, 249, 250, 251, 252, 253, 254, 255, 256, 257, 258, 259, 260, 261, 262, 263, 264, 265, 266, 267, 268, 269, 270, 271, 272, 273, 274, 275, 276, 277, 278, 279, 280, 281, 282, 283, 284, 285, 286, 287, 288, 289, 290, 291, 292, 293, 294, 295, 296, 297, 298, 299, 300, 301, 302, 303, 304, 305, 306, 307, 308, 309, 310, 311, 312, 313, 314, 315, 316, 317, 318, 319, 320, 321, 322, 323],
      "WindowCenter": [4858.0, 4860.0, 4860.0, 4860.0, 4858.0, 4882.0, 4858.0, 4882.0, 4882.0, 4882.0, 4858.0, 4856.0, 4860.0, 4856.0, 4884.0, 4860.0, 4882.0, 4880.0, 4882.0, 4882.0, 4882.0, 4860.0, 4834.0, 4860.0, 4858.0, 4862.0, 4858.0, 4882.0, 4882.0, 4880.0, 4880.0, 4862.0, 4858.0, 4860.0, 4884.0, 4880.0, 4856.0, 4858.0, 4856.0, 4882.0, 4860.0, 4858.0, 4880.0, 4856.0, 4876.0, 4878.0, 4878.0, 4854.0, 4862.0, 4860.0, 4858.0, 4860.0, 4860.0, 4884.0, 4880.0, 4884.0, 4882.0, 4884.0, 4880.0, 4858.0, 4860.0, 4860.0, 4856.0, 4858.0, 4856.0, 4880.0, 4882.0, 4880.0, 4878.0, 4880.0, 4880.0, 4876.0, 4860.0, 4838.0, 4860.0, 4836.0, 4838.0, 4860.0, 4884.0, 4902.0, 4866.0, 4898.0, 4882.0, 4882.0, 4866.0, 4862.0, 4862.0, 4862.0, 4838.0, 4838.0, 4860.0, 4884.0, 4908.0, 4898.0, 4900.0, 4904.0, 4880.0, 4862.0, 4860.0, 4862.0, 4860.0, 4882.0, 4884.0, 4878.0, 4884.0, 4886.0, 4860.0, 4884.0, 4860.0, 4882.0, 4882.0, 4864.0, 4862.0, 4858.0, 4862.0, 4884.0, 4886.0, 4882.0, 4880.0, 4882.0, 4858.0, 4882.0, 4858.0, 4862.0, 4860.0, 4886.0, 4862.0, 4862.0, 4862.0, 4882.0, 4888.0, 4884.0, 4884.0, 4888.0, 4860.0, 4860.0, 4862.0, 4882.0, 4882.0, 4884.0, 4884.0, 4864.0, 4860.0, 4862.0, 4860.0, 4860.0, 4862.0, 4886.0, 4884.0, 4884.0, 4886.0, 4884.0, 4886.0, 4862.0, 4862.0, 4862.0, 4862.0, 4862.0, 4884.0, 4886.0, 4882.0, 4880.0, 4884.0, 4886.0, 4862.0, 4860.0, 4882.0, 4862.0, 4862.0, 4886.0, 4888.0, 4888.0, 4886.0, 4884.0, 4886.0, 4888.0, 4884.0, 4862.0, 4866.0, 4862.0, 4884.0, 4864.0, 4886.0, 4886.0, 4886.0, 4886.0, 4888.0, 4886.0, 4886.0, 4862.0, 4864.0, 4888.0, 4888.0, 4864.0, 4864.0, 4886.0, 4864.0, 4888.0, 4890.0, 4884.0, 4886.0, 4862.0, 4888.0, 4862.0, 4886.0, 4862.0, 4884.0, 4886.0, 4884.0, 4890.0, 4884.0, 4888.0, 4884.0, 4886.0, 4862.0, 4884.0, 4864.0, 4864.0, 4886.0, 4886.0, 4886.0, 4884.0, 4884.0, 4880.0, 4884.0, 4884.0, 4880.0, 4882.0, 4858.0, 4860.0, 4884.0, 4860.0, 4884.0, 4884.0, 4886.0, 4882.0, 4884.0, 4886.0, 4884.0, 4886.0, 4858.0, 4884.0, 4888.0, 4886.0, 4884.0, 4886.0, 4884.0, 4884.0, 4884.0, 4886.0, 4882.0, 4884.0, 4880.0, 4882.0, 4882.0, 4882.0, 4884.0, 4886.0, 4862.0, 4860.0, 4838.0, 4862.0, 4888.0, 4886.0, 4886.0, 4910.0, 4888.0, 4908.0, 4884.0, 4862.0, 4838.0, 4838.0, 4836.0, 4860.0, 4886.0, 4888.0, 4902.0, 4904.0, 4886.0, 4884.0, 4860.0, 4858.0, 4836.0, 4860.0, 4860.0, 4882.0, 4884.0, 4884.0, 4884.0, 4884.0, 4856.0, 4860.0, 4886.0, 4886.0, 4884.0, 4886.0, 4884.0, 4836.0, 4832.0, 4834.0, 4860.0, 4908.0, 4908.0, 4910.0, 4886.0, 4886.0, 4862.0, 4860.0, 4862.0, 4860.0, 4860.0, 4862.0, 4910.0, 4904.0, 4908.0, 4900.0, 4882.0, 4860.0, 4836.0, 4836.0, 4834.0, 4862.0, 4882.0],
