{
  "AcquisitionMatrixPE": 104,
  "AcquisitionNumber": 1,
  "AcquisitionTime": "12:06:59.552500",
  "BandwidthPerPixelPhaseEncode": 17.17,
  "BaseResolution": 104,
  "BodyPartExamined": "BRAIN",
  "CoilCombinationMethod": "Sum of Squares",
  "ConsistencyInfo": "N4_VE11C_LATEST_20160120",
  "ConversionSoftware": "dcm2niix",
  "ConversionSoftwareVersion": "v1.0.20220505",
  "DerivedVendorReportedEchoSpacing": 0.000560011,
  "DeviceSerialNumber": "167006",
  "DwellTime": 2.1e-06,
  "EchoTime": 0.037,
  "EchoTrainLength": 104,
  "EffectiveEchoSpacing": 0.000560011,
  "FlipAngle": 52,
  "HeudiconvVersion": "0.5.3.post811+g6206e14",
  "ImageComments": "Unaliased MB4/PE3/LB",
  "ImageOrientationPatientDICOM": [0.998066, -0.00417824, 0.0620243, 0.0378185, 0.832679, -0.552464],
  "ImageOrientationText": "Tra>Cor(-33.7)>Sag(2.8)",
  "ImageType": [
    "ORIGINAL",
    "PRIMARY",
    "M",
    "MB",
    "ND",
    "MOSAIC"
],
  "ImagingFrequency": 123.259,
  "InPlanePhaseEncodingDirectionDICOM": "COL",
  "InstitutionAddress": "Chemin Queen-Mary 4565,Montreal,District,CA,H3W 1W5",
  "InstitutionName": "IUGM",
  "InstitutionalDepartmentName": "Department",
  "MRAcquisitionType": "2D",
  "MagneticFieldStrength": 3,
  "Manufacturer": "Siemens",
  "ManufacturersModelName": "Prisma_fit",
  "MatrixCoilMode": "SENSE",
  "Modality": "MR",
  "MultibandAccelerationFactor": 4,
  "PartialFourier": 1,
  "PatientPosition": "HFS",
  "PercentPhaseFOV": 100,
  "PercentSampling": 100,
  "PhaseEncodingDirection": "j",
  "PhaseEncodingSteps": 104,
  "PhaseResolution": 1,
  "PixelBandwidth": 2290,
  "ProcedureStepDescription": "games^mario3",
  "ProtocolName": "func_task-mario3_run-04",
  "PulseSequenceDetails": "%CustomerSeq%\\cmrr_mbep2d_bold",
  "ReceiveCoilActiveElements": "HC1-7;NC1,2",
  "ReceiveCoilName": "HeadNeck_64",
  "ReconMatrixPE": 104,
  "RepetitionTime": 1.49,
  "SAR": 0.0745806,
  "ScanOptions": "FS",
  "ScanningSequence": "EP",
  "SequenceName": "epfid2d1_104",
  "SequenceVariant": "SK\\SS",
  "SeriesDescription": "func_task-mario3_run-04",
  "SeriesNumber": 19,
  "ShimSetting": [620, -7193, -8856, 229, -20, -210, -56, 39],
  "SliceThickness": 2,
  "SliceTiming": [0, 0.785, 0.0975, 0.8825, 0.1975, 0.98, 0.295, 1.0775, 0.3925, 1.1775, 0.49, 1.275, 0.5875, 1.3725, 0.6875, 0, 0.785, 0.0975, 0.8825, 0.1975, 0.98, 0.295, 1.0775, 0.3925, 1.1775, 0.49, 1.275, 0.5875, 1.3725, 0.6875, 0, 0.785, 0.0975, 0.8825, 0.1975, 0.98, 0.295, 1.0775, 0.3925, 1.1775, 0.49, 1.275, 0.5875, 1.3725, 0.6875, 0, 0.785, 0.0975, 0.8825, 0.1975, 0.98, 0.295, 1.0775, 0.3925, 1.1775, 0.49, 1.275, 0.5875, 1.3725, 0.6875],
  "SoftwareVersions": "syngo MR E11",
  "SpacingBetweenSlices": 2,
  "StationName": "MRC35049",
  "TaskName": "mario3",
  "TotalReadoutTime": 0.0576811,
  "TxRefAmp": 307.829,
  "WipMemBlock": "c0944c4f-202b-4a7b-ba22-f5bf99e20e5d||Sequence: R017 ve11c/master r/75a17815+; Jun 28 2022 16:32:11 by eja",
  "dcmmeta_affine": [
    [-1.9961317777633667, 0.07563691586256027, 0.09867603331804276, 100.79991912841797],
    [0.00835647713392973, 1.6653573513031006, -1.1074813604354858, -46.39983367919922],
    [0.12404866516590118, 1.1049270629882812, 1.6624524593353271, -88.29158782958984],
    [0.0, 0.0, 0.0, 1.0]
],
  "dcmmeta_reorient_transform": [
    [0.0, -1.0, 0.0, 103.0],
    [1.0, 0.0, 0.0, 0.0],
    [0.0, 0.0, 1.0, 0.0],
    [0.0, 0.0, 0.0, 1.0]
],
  "dcmmeta_shape": [104, 104, 60, 291],
  "dcmmeta_slice_dim": 2,
  "dcmmeta_version": 0.6,
  "global": {
    "const": {
      "AcquisitionMatrix": [104, 0, 0, 104],
      "AngioFlag": "N",
      "BitsAllocated": 16,
      "BitsStored": 16,
      "BodyPartExamined": "BRAIN",
      "Columns": 832,
      "EchoNumbers": 1,
      "EchoTime": 37.0,
      "EchoTrainLength": 104,
      "FlipAngle": 52.0,
      "HighBit": 15,
      "ImageOrientationPatient": [0.99806589186623, -0.0041782385215, 0.06202433245209, 0.0378184573245, 0.83267869156078, -0.5524635380785],
      "ImagePositionPatient": [-862.71432973089, -728.28030676873, 382.55564246986],
      "ImageType": [
        "ORIGINAL",
        "PRIMARY",
        "M",
        "MB",
        "ND",
        "MOSAIC"
],
      "ImagedNucleus": "1H",
      "ImagingFrequency": 123.258762,
      "InPlanePhaseEncodingDirection": "COL",
      "MRAcquisitionType": "2D",
      "MagneticFieldStrength": 3.0,
      "Manufacturer": "SIEMENS",
      "ManufacturerModelName": "Prisma_fit",
      "Modality": "MR",
      "NumberOfAverages": 1.0,
      "NumberOfPhaseEncodingSteps": 104,
      "PercentPhaseFieldOfView": 100.0,
      "PercentSampling": 100.0,
      "PerformedProcedureStepStartTime": "113329.529000",
      "PhotometricInterpretation": "MONOCHROME2",
      "PixelBandwidth": 2290.0,
      "PixelRepresentation": 0,
      "PixelSpacing": [2.0, 2.0],
      "ProtocolName": "func_task-mario3_run-04",
      "RepetitionTime": 1490.0,
      "Rows": 832,
      "SAR": 0.07458063736334,
      "SamplesPerPixel": 1,
      "ScanOptions": "FS",
      "ScanningSequence": "EP",
      "SequenceName": "epfid2d1_104",
      "SequenceVariant": [
        "SK",
        "SS"
],
      "SeriesDescription": "func_task-mario3_run-04",
      "SeriesNumber": 19,
      "SeriesTime": "120817.945000",
      "SliceLocation": -42.723539239536,
      "SliceThickness": 2.0,
      "SmallestImagePixelValue": 0,
      "SoftwareVersions": "syngo MR E11",
      "SpacingBetweenSlices": 2.0000000053286,
      "SpecificCharacterSet": "ISO_IR 100",
      "StudyID": "1",
      "StudyTime": "113329.449000",
      "TransmitCoilName": "Body",
      "VariableFlipAngleFlag": "N",
      "WindowCenterWidthExplanation": "Algo1",
      "dBdt": 0.0},
    "slices": {}
  },
  "time": {
    "samples": {
      "AcquisitionNumber": [1, 2, 3, 4, 5, 6, 7, 8, 9, 10, 11, 12, 13, 14, 15, 16, 17, 18, 19, 20, 21, 22, 23, 24, 25, 26, 27, 28, 29, 30, 31, 32, 33, 34, 35, 36, 37, 38, 39, 40, 41, 42, 43, 44, 45, 46, 47, 48, 49, 50, 51, 52, 53, 54, 55, 56, 57, 58, 59, 60, 61, 62, 63, 64, 65, 66, 67, 68, 69, 70, 71, 72, 73, 74, 75, 76, 77, 78, 79, 80, 81, 82, 83, 84, 85, 86, 87, 88, 89, 90, 91, 92, 93, 94, 95, 96, 97, 98, 99, 100, 101, 102, 103, 104, 105, 106, 107, 108, 109, 110, 111, 112, 113, 114, 115, 116, 117, 118, 119, 120, 121, 122, 123, 124, 125, 126, 127, 128, 129, 130, 131, 132, 133, 134, 135, 136, 137, 138, 139, 140, 141, 142, 143, 144, 145, 146, 147, 148, 149, 150, 151, 152, 153, 154, 155, 156, 157, 158, 159, 160, 161, 162, 163, 164, 165, 166, 167, 168, 169, 170, 171, 172, 173, 174, 175, 176, 177, 178, 179, 180, 181, 182, 183, 184, 185, 186, 187, 188, 189, 190, 191, 192, 193, 194, 195, 196, 197, 198, 199, 200, 201, 202, 203, 204, 205, 206, 207, 208, 209, 210, 211, 212, 213, 214, 215, 216, 217, 218, 219, 220, 221, 222, 223, 224, 225, 226, 227, 228, 229, 230, 231, 232, 233, 234, 235, 236, 237, 238, 239, 240, 241, 242, 243, 244, 245, 246, 247, 248, 249, 250, 251, 252, 253, 254, 255, 256, 257, 258, 259, 260, 261, 262, 263, 264, 265, 266, 267, 268, 269, 270, 271, 272, 273, 274, 275, 276, 277, 278, 279, 280, 281, 282, 283, 284, 285, 286, 287, 288, 289, 290, 291],
      "AcquisitionTime": ["120659.552500", "120701.042500", "120702.532500", "120704.022500", "120705.512500", "120707.002500", "120708.492500", "120709.982500", "120711.472500", "120712.962500", "120714.452500", "120715.942500", "120717.432500", "120718.922500", "120720.412500", "120721.902500", "120723.392500", "120724.882500", "120726.372500", "120727.862500", "120729.352500", "120730.842500", "120732.332500", "120733.822500", "120735.312500", "120736.802500", "120738.292500", "120739.782500", "120741.272500", "120742.762500", "120744.252500", "120745.742500", "120747.232500", "120748.722500", "120750.212500", "120751.702500", "120753.192500", "120754.682500", "120756.172500", "120757.662500", "120759.152500", "120800.642500", "120802.132500", "120803.622500", "120805.112500", "120806.602500", "120808.092500", "120809.582500", "120811.072500", "120812.562500", "120814.052500", "120815.542500", "120817.032500", "120818.522500", "120820.012500", "120821.502500", "120822.992500", "120824.482500", "120825.972500", "120827.462500", "120828.952500", "120830.442500", "120831.932500", "120833.422500", "120834.912500", "120836.402500", "120837.892500", "120839.382500", "120840.872500", "120842.362500", "120843.852500", "120845.342500", "120846.832500", "120848.322500", "120849.812500", "120851.302500", "120852.792500", "120854.282500", "120855.772500", "120857.262500", "120858.752500", "120900.242500", "120901.732500", "120903.222500", "120904.712500", "120906.202500", "120907.692500", "120909.182500", "120910.672500", "120912.162500", "120913.652500", "120915.142500", "120916.632500", "120918.122500", "120919.612500", "120921.102500", "120922.592500", "120924.082500", "120925.572500", "120927.062500", "120928.552500", "120930.042500", "120931.532500", "120933.022500", "120934.512500", "120936.002500", "120937.492500", "120938.982500", "120940.472500", "120941.962500", "120943.452500", "120944.942500", "120946.432500", "120947.922500", "120949.412500", "120950.902500", "120952.392500", "120953.882500", "120955.372500", "120956.862500", "120958.352500", "120959.842500", "121001.332500", "121002.822500", "121004.312500", "121005.802500", "121007.292500", "121008.782500", "121010.272500", "121011.762500", "121013.252500", "121014.742500", "121016.232500", "121017.722500", "121019.212500", "121020.702500", "121022.192500", "121023.682500", "121025.172500", "121026.662500", "121028.152500", "121029.642500", "121031.132500", "121032.622500", "121034.112500", "121035.602500", "121037.092500", "121038.582500", "121040.072500", "121041.562500", "121043.052500", "121044.542500", "121046.032500", "121047.522500", "121049.012500", "121050.502500", "121051.992500", "121053.482500", "121054.972500", "121056.462500", "121057.952500", "121059.442500", "121100.932500", "121102.422500", "121103.912500", "121105.402500", "121106.892500", "121108.382500", "121109.872500", "121111.362500", "121112.852500", "121114.342500", "121115.832500", "121117.322500", "121118.812500", "121120.302500", "121121.792500", "121123.282500", "121124.772500", "121126.262500", "121127.752500", "121129.242500", "121130.732500", "121132.222500", "121133.712500", "121135.202500", "121136.692500", "121138.182500", "121139.672500", "121141.162500", "121142.652500", "121144.142500", "121145.632500", "121147.122500", "121148.612500", "121150.102500", "121151.592500", "121153.082500", "121154.572500", "121156.062500", "121157.552500", "121159.042500", "121200.532500", "121202.022500", "121203.512500", "121205.002500", "121206.492500", "121207.982500", "121209.472500", "121210.962500", "121212.452500", "121213.942500", "121215.432500", "121216.922500", "121218.412500", "121219.902500", "121221.392500", "121222.882500", "121224.372500", "121225.862500", "121227.352500", "121228.842500", "121230.332500", "121231.822500", "121233.312500", "121234.802500", "121236.292500", "121237.782500", "121239.272500", "121240.762500", "121242.252500", "121243.742500", "121245.232500", "121246.722500", "121248.212500", "121249.702500", "121251.192500", "121252.682500", "121254.172500", "121255.662500", "121257.152500", "121258.642500", "121300.132500", "121301.622500", "121303.112500", "121304.602500", "121306.092500", "121307.582500", "121309.072500", "121310.562500", "121312.052500", "121313.542500", "121315.032500", "121316.522500", "121318.012500", "121319.502500", "121320.992500", "121322.482500", "121323.972500", "121325.462500", "121326.952500", "121328.442500", "121329.932500", "121331.422500", "121332.912500", "121334.402500", "121335.892500", "121337.382500", "121338.872500", "121340.362500", "121341.852500", "121343.342500", "121344.832500", "121346.322500", "121347.812500", "121349.302500", "121350.792500", "121352.282500", "121353.772500", "121355.262500", "121356.752500", "121358.242500", "121359.732500", "121401.222500", "121402.712500", "121404.202500", "121405.692500", "121407.182500", "121408.672500", "121410.162500", "121411.652500"],
      "ContentTime": ["120817.948000", "120817.952000", "120817.956000", "120817.959000", "120817.963000", "120817.966000", "120817.977000", "120817.980000", "120817.983000", "120817.987000", "120817.990000", "120817.994000", "120817.997000", "120818.001000", "120818.005000", "120818.008000", "120818.012000", "120818.015000", "120818.018000", "120818.022000", "120818.025000", "120818.029000", "120818.032000", "120818.035000", "120818.039000", "120837.900000", "120837.904000", "120837.908000", "120837.911000", "120837.914000", "120837.918000", "120837.921000", "120837.925000", "120837.928000", "120837.932000", "120837.935000", "120837.939000", "120837.942000", "120837.945000", "120837.949000", "120837.952000", "120837.955000", "120837.959000", "120837.962000", "120837.966000", "120857.900000", "120857.904000", "120857.907000", "120857.911000", "120857.914000", "120857.918000", "120857.921000", "120857.925000", "120857.939000", "120857.942000", "120857.946000", "120857.949000", "120857.953000", "120857.956000", "120857.959000", "120857.963000", "120857.966000", "120857.970000", "120857.973000", "120857.977000", "120857.980000", "120917.899000", "120917.903000", "120917.906000", "120917.910000", "120917.913000", "120917.917000", "120917.920000", "120917.930000", "120917.934000", "120917.937000", "120917.941000", "120917.944000", "120917.948000", "120917.951000", "120917.955000", "120917.958000", "120917.978000", "120917.981000", "120917.985000", "120917.988000", "120957.899000", "120957.940000", "120957.944000", "120957.947000", "120957.951000", "120957.954000", "120957.958000", "120957.961000", "120957.964000", "120957.968000", "120957.972000", "120957.975000", "120957.979000", "120957.982000", "120957.985000", "120957.989000", "120957.992000", "120957.996000", "120958.000000", "120958.015000", "120958.018000", "120958.022000", "120958.025000", "120958.028000", "120958.032000", "120958.035000", "120958.039000", "120958.042000", "120958.046000", "120958.049000", "120958.053000", "120958.056000", "120958.060000", "121037.900000", "121037.904000", "121037.908000", "121037.911000", "121037.914000", "121037.918000", "121037.921000", "121037.925000", "121037.928000", "121037.932000", "121037.935000", "121037.939000", "121037.942000", "121037.945000", "121037.949000", "121037.952000", "121037.956000", "121037.959000", "121037.964000", "121037.967000", "121037.970000", "121037.974000", "121037.977000", "121037.981000", "121037.984000", "121037.988000", "121117.900000", "121117.912000", "121117.916000", "121117.919000", "121117.923000", "121117.926000", "121117.929000", "121117.933000", "121117.936000", "121117.940000", "121117.943000", "121117.947000", "121117.950000", "121117.953000", "121117.957000", "121117.960000", "121117.964000", "121117.967000", "121117.970000", "121117.974000", "121117.977000", "121117.981000", "121117.984000", "121117.988000", "121117.991000", "121117.995000", "121117.998000", "121157.899000", "121157.903000", "121157.906000", "121157.910000", "121157.913000", "121157.917000", "121157.920000", "121157.924000", "121157.927000", "121157.930000", "121157.942000", "121157.946000", "121157.949000", "121157.953000", "121157.956000", "121157.959000", "121157.963000", "121157.966000", "121157.970000", "121157.973000", "121157.982000", "121157.986000", "121157.990000", "121157.993000", "121157.997000", "121158.001000", "121158.005000", "121217.900000", "121217.903000", "121217.907000", "121217.919000", "121217.923000", "121217.926000", "121217.931000", "121217.935000", "121217.938000", "121217.943000", "121217.947000", "121217.950000", "121217.954000", "121257.900000", "121257.904000", "121257.908000", "121257.911000", "121257.914000", "121257.918000", "121257.921000", "121257.925000", "121257.928000", "121257.932000", "121257.942000", "121257.946000", "121257.949000", "121257.952000", "121257.956000", "121257.959000", "121257.963000", "121257.966000", "121257.970000", "121257.973000", "121257.976000", "121257.980000", "121257.983000", "121257.987000", "121257.990000", "121257.994000", "121257.997000", "121337.901000", "121337.905000", "121337.908000", "121337.912000", "121337.915000", "121337.919000", "121337.922000", "121337.926000", "121337.929000", "121337.942000", "121337.945000", "121337.949000", "121337.953000", "121337.956000", "121337.959000", "121337.963000", "121337.967000", "121337.970000", "121337.974000", "121337.977000", "121337.981000", "121337.984000", "121337.988000", "121337.991000", "121337.995000", "121337.998000", "121338.003000", "121415.442000", "121415.446000", "121415.450000", "121415.453000", "121415.457000", "121415.460000", "121415.463000", "121415.467000", "121415.470000", "121415.473000", "121415.490000", "121415.494000", "121415.497000", "121415.500000", "121415.504000", "121415.507000", "121415.511000", "121415.514000", "121415.517000", "121415.521000", "121415.524000", "121415.527000", "121415.531000", "121415.534000", "121415.538000"],
      "InstanceCreationTime": ["120817.948000", "120817.952000", "120817.956000", "120817.959000", "120817.963000", "120817.966000", "120817.977000", "120817.980000", "120817.983000", "120817.987000", "120817.990000", "120817.994000", "120817.997000", "120818.001000", "120818.005000", "120818.008000", "120818.012000", "120818.015000", "120818.018000", "120818.022000", "120818.025000", "120818.029000", "120818.032000", "120818.035000", "120818.039000", "120837.900000", "120837.904000", "120837.908000", "120837.911000", "120837.914000", "120837.918000", "120837.921000", "120837.925000", "120837.928000", "120837.932000", "120837.935000", "120837.939000", "120837.942000", "120837.945000", "120837.949000", "120837.952000", "120837.955000", "120837.959000", "120837.962000", "120837.966000", "120857.900000", "120857.904000", "120857.907000", "120857.911000", "120857.914000", "120857.918000", "120857.921000", "120857.925000", "120857.939000", "120857.942000", "120857.946000", "120857.949000", "120857.953000", "120857.956000", "120857.959000", "120857.963000", "120857.966000", "120857.970000", "120857.973000", "120857.977000", "120857.980000", "120917.899000", "120917.903000", "120917.906000", "120917.910000", "120917.913000", "120917.917000", "120917.920000", "120917.930000", "120917.934000", "120917.937000", "120917.941000", "120917.944000", "120917.948000", "120917.951000", "120917.955000", "120917.958000", "120917.978000", "120917.981000", "120917.985000", "120917.988000", "120957.899000", "120957.940000", "120957.944000", "120957.947000", "120957.951000", "120957.954000", "120957.958000", "120957.961000", "120957.964000", "120957.968000", "120957.972000", "120957.975000", "120957.979000", "120957.982000", "120957.985000", "120957.989000", "120957.992000", "120957.996000", "120958.000000", "120958.015000", "120958.018000", "120958.022000", "120958.025000", "120958.028000", "120958.032000", "120958.035000", "120958.039000", "120958.042000", "120958.046000", "120958.049000", "120958.053000", "120958.056000", "120958.060000", "121037.900000", "121037.904000", "121037.908000", "121037.911000", "121037.914000", "121037.918000", "121037.921000", "121037.925000", "121037.928000", "121037.932000", "121037.935000", "121037.939000", "121037.942000", "121037.945000", "121037.949000", "121037.952000", "121037.956000", "121037.959000", "121037.964000", "121037.967000", "121037.970000", "121037.974000", "121037.977000", "121037.981000", "121037.984000", "121037.988000", "121117.900000", "121117.912000", "121117.916000", "121117.919000", "121117.923000", "121117.926000", "121117.929000", "121117.933000", "121117.936000", "121117.940000", "121117.943000", "121117.947000", "121117.950000", "121117.953000", "121117.957000", "121117.960000", "121117.964000", "121117.967000", "121117.970000", "121117.974000", "121117.977000", "121117.981000", "121117.984000", "121117.988000", "121117.991000", "121117.995000", "121117.998000", "121157.899000", "121157.903000", "121157.906000", "121157.910000", "121157.913000", "121157.917000", "121157.920000", "121157.924000", "121157.927000", "121157.930000", "121157.942000", "121157.946000", "121157.949000", "121157.953000", "121157.956000", "121157.959000", "121157.963000", "121157.966000", "121157.970000", "121157.973000", "121157.982000", "121157.986000", "121157.990000", "121157.993000", "121157.997000", "121158.001000", "121158.005000", "121217.900000", "121217.903000", "121217.907000", "121217.919000", "121217.923000", "121217.926000", "121217.931000", "121217.935000", "121217.938000", "121217.943000", "121217.947000", "121217.950000", "121217.954000", "121257.900000", "121257.904000", "121257.908000", "121257.911000", "121257.914000", "121257.918000", "121257.921000", "121257.925000", "121257.928000", "121257.932000", "121257.942000", "121257.946000", "121257.949000", "121257.952000", "121257.956000", "121257.959000", "121257.963000", "121257.966000", "121257.970000", "121257.973000", "121257.976000", "121257.980000", "121257.983000", "121257.987000", "121257.990000", "121257.994000", "121257.997000", "121337.901000", "121337.905000", "121337.908000", "121337.912000", "121337.915000", "121337.919000", "121337.922000", "121337.926000", "121337.929000", "121337.942000", "121337.945000", "121337.949000", "121337.953000", "121337.956000", "121337.959000", "121337.963000", "121337.967000", "121337.970000", "121337.974000", "121337.977000", "121337.981000", "121337.984000", "121337.988000", "121337.991000", "121337.995000", "121337.998000", "121338.003000", "121415.442000", "121415.446000", "121415.450000", "121415.453000", "121415.457000", "121415.460000", "121415.463000", "121415.467000", "121415.470000", "121415.473000", "121415.490000", "121415.494000", "121415.497000", "121415.500000", "121415.504000", "121415.507000", "121415.511000", "121415.514000", "121415.517000", "121415.521000", "121415.524000", "121415.527000", "121415.531000", "121415.534000", "121415.538000"],
      "InstanceNumber": [1, 2, 3, 4, 5, 6, 7, 8, 9, 10, 11, 12, 13, 14, 15, 16, 17, 18, 19, 20, 21, 22, 23, 24, 25, 26, 27, 28, 29, 30, 31, 32, 33, 34, 35, 36, 37, 38, 39, 40, 41, 42, 43, 44, 45, 46, 47, 48, 49, 50, 51, 52, 53, 54, 55, 56, 57, 58, 59, 60, 61, 62, 63, 64, 65, 66, 67, 68, 69, 70, 71, 72, 73, 74, 75, 76, 77, 78, 79, 80, 81, 82, 83, 84, 85, 86, 87, 88, 89, 90, 91, 92, 93, 94, 95, 96, 97, 98, 99, 100, 101, 102, 103, 104, 105, 106, 107, 108, 109, 110, 111, 112, 113, 114, 115, 116, 117, 118, 119, 120, 121, 122, 123, 124, 125, 126, 127, 128, 129, 130, 131, 132, 133, 134, 135, 136, 137, 138, 139, 140, 141, 142, 143, 144, 145, 146, 147, 148, 149, 150, 151, 152, 153, 154, 155, 156, 157, 158, 159, 160, 161, 162, 163, 164, 165, 166, 167, 168, 169, 170, 171, 172, 173, 174, 175, 176, 177, 178, 179, 180, 181, 182, 183, 184, 185, 186, 187, 188, 189, 190, 191, 192, 193, 194, 195, 196, 197, 198, 199, 200, 201, 202, 203, 204, 205, 206, 207, 208, 209, 210, 211, 212, 213, 214, 215, 216, 217, 218, 219, 220, 221, 222, 223, 224, 225, 226, 227, 228, 229, 230, 231, 232, 233, 234, 235, 236, 237, 238, 239, 240, 241, 242, 243, 244, 245, 246, 247, 248, 249, 250, 251, 252, 253, 254, 255, 256, 257, 258, 259, 260, 261, 262, 263, 264, 265, 266, 267, 268, 269, 270, 271, 272, 273, 274, 275, 276, 277, 278, 279, 280, 281, 282, 283, 284, 285, 286, 287, 288, 289, 290, 291],
      "LargestImagePixelValue": [42636, 41864, 41174, 41283, 42623, 42939, 42118, 42577, 41339, 42242, 43027, 43554, 43320, 43011, 42958, 43016, 43045, 41132, 40819, 40160, 41848, 40815, 41511, 42418, 42274, 39963, 40753, 42398, 41377, 41116, 40849, 40893, 40820, 42202, 42178, 43520, 39932, 41607, 41203, 41439, 41063, 40586, 40281, 40520, 40463, 41105, 40666, 40594, 41665, 41043, 41292, 40823, 41172, 40864, 40857, 40355, 40374, 40186, 40601, 39598, 40141, 40858, 39898, 39929, 39909, 40653, 39858, 39792, 41031, 40503, 40708, 41140, 41198, 41132, 41584, 41419, 42490, 39325, 39001, 40211, 41607, 38919, 42268, 42472, 41548, 41156, 42445, 42032, 43604, 42258, 41821, 42653, 42645, 41999, 40840, 40395, 40086, 41915, 41271, 43193, 42269, 41922, 42984, 41827, 41777, 40943, 41939, 40841, 41606, 40924, 41413, 42373, 41862, 41031, 40452, 40515, 40688, 40954, 41304, 42047, 41307, 41936, 41819, 41110, 40999, 41020, 41292, 39299, 41417, 38920, 42018, 42447, 42105, 42241, 41558, 39967, 40166, 40311, 40829, 41444, 40159, 40564, 40776, 40056, 39997, 40025, 39416, 39770, 40187, 40314, 40041, 40324, 40646, 39874, 41219, 39910, 40374, 38607, 39752, 39289, 39228, 39570, 39436, 38961, 39564, 39395, 39024, 39333, 39807, 40788, 43288, 41326, 39271, 40025, 40082, 38235, 40881, 39748, 38889, 39909, 39321, 39744, 41749, 39285, 39772, 40854, 42822, 40095, 38762, 39417, 39109, 39177, 40343, 40125, 39501, 44104, 40775, 39508, 40186, 40661, 40855, 41322, 39940, 39485, 39561, 40411, 39750, 39152, 39662, 40215, 41189, 41008, 40823, 39469, 41621, 39435, 41305, 40532, 40381, 39796, 39260, 39155, 39236, 39451, 40387, 43799, 40981, 40727, 40686, 40006, 40824, 39398, 39619, 41862, 40376, 40785, 39881, 41156, 42481, 42134, 41718, 41202, 41200, 41427, 41220, 41969, 40957, 43288, 42134, 41384, 42355, 43256, 42706, 43346, 42685, 43658, 41553, 42913, 42705, 40712, 41142, 43505, 42959, 41655, 42475, 43094, 41771, 42548, 43158, 41815, 42925, 42465, 43215, 41940, 42686, 43216, 42115, 40663, 40940, 42754, 42896, 40979, 41007, 42214, 42501, 40315, 43406, 43245, 42455, 42267, 42456],
      "WindowCenter": [10829.0, 10791.0, 10783.0, 10708.0, 10795.0, 10791.0, 10787.0, 10811.0, 10824.0, 10779.0, 10744.0, 10793.0, 10797.0, 10796.0, 10834.0, 10832.0, 10824.0, 10747.0, 10756.0, 10753.0, 10774.0, 10764.0, 10756.0, 10746.0, 10719.0, 10707.0, 10738.0, 10781.0, 10799.0, 10799.0, 10794.0, 10792.0, 10787.0, 10814.0, 10816.0, 10795.0, 10701.0, 10779.0, 10785.0, 10734.0, 10740.0, 10748.0, 10770.0, 10786.0, 10787.0, 10798.0, 10822.0, 10827.0, 10836.0, 10819.0, 10804.0, 10797.0, 10784.0, 10766.0, 10778.0, 10778.0, 10763.0, 10767.0, 10782.0, 10722.0, 10753.0, 10804.0, 10746.0, 10725.0, 10763.0, 10762.0, 10762.0, 10740.0, 10662.0, 10680.0, 10672.0, 10741.0, 10820.0, 10848.0, 10821.0, 10772.0, 10730.0, 10673.0, 10663.0, 10765.0, 10782.0, 10752.0, 10808.0, 10801.0, 10757.0, 10730.0, 10720.0, 10753.0, 10780.0, 10732.0, 10725.0, 10749.0, 10758.0, 10751.0, 10718.0, 10710.0, 10720.0, 10754.0, 10758.0, 10808.0, 10818.0, 10795.0, 10788.0, 10767.0, 10770.0, 10768.0, 10790.0, 10773.0, 10784.0, 10751.0, 10728.0, 10762.0, 10728.0, 10703.0, 10698.0, 10728.0, 10738.0, 10741.0, 10741.0, 10742.0, 10738.0, 10772.0, 10774.0, 10756.0, 10763.0, 10765.0, 10764.0, 10700.0, 10777.0, 10745.0, 10788.0, 10791.0, 10753.0, 10725.0, 10725.0, 10714.0, 10718.0, 10710.0, 10734.0, 10756.0, 10716.0, 10727.0, 10730.0, 10716.0, 10709.0, 10681.0, 10691.0, 10698.0, 10712.0, 10707.0, 10694.0, 10701.0, 10751.0, 10747.0, 10756.0, 10734.0, 10703.0, 10668.0, 10716.0, 10718.0, 10731.0, 10698.0, 10661.0, 10651.0, 10669.0, 10692.0, 10722.0, 10693.0, 10801.0, 10830.0, 10839.0, 10798.0, 10754.0, 10726.0, 10745.0, 10702.0, 10699.0, 10682.0, 10673.0, 10740.0, 10757.0, 10731.0, 10798.0, 10738.0, 10743.0, 10773.0, 10794.0, 10679.0, 10669.0, 10705.0, 10709.0, 10686.0, 10769.0, 10751.0, 10776.0, 10907.0, 10868.0, 10794.0, 10779.0, 10797.0, 10765.0, 10796.0, 10806.0, 10757.0, 10698.0, 10744.0, 10728.0, 10718.0, 10720.0, 10763.0, 10769.0, 10762.0, 10738.0, 10667.0, 10738.0, 10742.0, 10775.0, 10754.0, 10741.0, 10670.0, 10705.0, 10731.0, 10746.0, 10678.0, 10720.0, 10762.0, 10762.0, 10765.0, 10738.0, 10775.0, 10784.0, 10770.0, 10801.0, 10817.0, 10791.0, 10772.0, 10743.0, 10804.0, 10796.0, 10768.0, 10740.0, 10760.0, 10819.0, 10809.0, 10799.0, 10776.0, 10763.0, 10795.0, 10767.0, 10766.0, 10792.0, 10808.0, 10805.0, 10808.0, 10804.0, 10788.0, 10766.0, 10764.0, 10760.0, 10686.0, 10735.0, 10778.0, 10749.0, 10749.0, 10792.0, 10819.0, 10796.0, 10771.0, 10782.0, 10737.0, 10769.0, 10783.0, 10790.0, 10775.0, 10803.0, 10789.0, 10757.0, 10759.0, 10810.0, 10823.0, 10786.0, 10733.0, 10758.0, 10823.0, 10849.0, 10834.0, 10854.0, 10831.0, 10786.0, 10796.0, 10822.0],
