{
  "AcquisitionMatrixPE": 104,
  "AcquisitionNumber": 1,
  "AcquisitionTime": "18:10:48.800000",
  "BandwidthPerPixelPhaseEncode": 17.17,
  "BaseResolution": 104,
  "BodyPartExamined": "BRAIN",
  "CoilCombinationMethod": "Sum of Squares",
  "ConsistencyInfo": "N4_VE11C_LATEST_20160120",
  "ConversionSoftware": "dcm2niix",
  "ConversionSoftwareVersion": "v1.0.20220505",
  "DerivedVendorReportedEchoSpacing": 0.000560011,
  "DeviceSerialNumber": "167006",
  "DwellTime": 2.1e-06,
  "EchoTime": 0.037,
  "EchoTrainLength": 104,
  "EffectiveEchoSpacing": 0.000560011,
  "FlipAngle": 52,
  "HeudiconvVersion": "0.5.3.post811+g6206e14",
  "ImageComments": "Unaliased MB4/PE3/LB",
  "ImageOrientationPatientDICOM": [0.999729, 0.0102788, 0.0209107, -0.0043622, 0.964136, -0.265374],
  "ImageOrientationText": "Tra>Cor(-15.4)>Sag(1.3)",
  "ImageType": [
    "ORIGINAL",
    "PRIMARY",
    "M",
    "MB",
    "ND",
    "MOSAIC"
],
  "ImagingFrequency": 123.259,
  "InPlanePhaseEncodingDirectionDICOM": "COL",
  "InstitutionAddress": "Chemin Queen-Mary 4565,Montreal,District,CA,H3W 1W5",
  "InstitutionName": "IUGM",
  "InstitutionalDepartmentName": "Department",
  "MRAcquisitionType": "2D",
  "MagneticFieldStrength": 3,
  "Manufacturer": "Siemens",
  "ManufacturersModelName": "Prisma_fit",
  "MatrixCoilMode": "SENSE",
  "Modality": "MR",
  "MultibandAccelerationFactor": 4,
  "PartialFourier": 1,
  "PatientPosition": "HFS",
  "PercentPhaseFOV": 100,
  "PercentSampling": 100,
  "PhaseEncodingDirection": "j",
  "PhaseEncodingSteps": 104,
  "PhaseResolution": 1,
  "PixelBandwidth": 2290,
  "ProcedureStepDescription": "games^mario3",
  "ProtocolName": "func_task-mario3_run-01",
  "PulseSequenceDetails": "%CustomerSeq%\\cmrr_mbep2d_bold",
  "ReceiveCoilActiveElements": "HC1-7;NC1,2",
  "ReceiveCoilName": "HeadNeck_64",
  "ReconMatrixPE": 104,
  "RepetitionTime": 1.49,
  "SAR": 0.0588891,
  "ScanOptions": "FS",
  "ScanningSequence": "EP",
  "SequenceName": "epfid2d1_104",
  "SequenceVariant": "SK\\SS",
  "SeriesDescription": "func_task-mario3_run-01",
  "SeriesNumber": 10,
  "ShimSetting": [642, -7213, -8768, 706, 82, 31, 47, -17],
  "SliceThickness": 2,
  "SliceTiming": [0, 0.785, 0.0975, 0.8825, 0.1975, 0.98, 0.295, 1.0775, 0.3925, 1.1775, 0.49, 1.275, 0.5875, 1.3725, 0.6875, 0, 0.785, 0.0975, 0.8825, 0.1975, 0.98, 0.295, 1.0775, 0.3925, 1.1775, 0.49, 1.275, 0.5875, 1.3725, 0.6875, 0, 0.785, 0.0975, 0.8825, 0.1975, 0.98, 0.295, 1.0775, 0.3925, 1.1775, 0.49, 1.275, 0.5875, 1.3725, 0.6875, 0, 0.785, 0.0975, 0.8825, 0.1975, 0.98, 0.295, 1.0775, 0.3925, 1.1775, 0.49, 1.275, 0.5875, 1.3725, 0.6875],
  "SoftwareVersions": "syngo MR E11",
  "SpacingBetweenSlices": 2,
  "StationName": "MRC35049",
  "TaskName": "mario3",
  "TotalReadoutTime": 0.0576811,
  "TxRefAmp": 251.722,
  "WipMemBlock": "75a45855-4327-432d-ab5f-14c47e802c4d||Sequence: R017 ve11c/master r/75a17815+; Jun 28 2022 16:32:11 by eja",
  "dcmmeta_affine": [
    [-1.9994570016860962, -0.008724396117031574, 0.045777060091495514, 108.27404022216797],
    [-0.02055763639509678, 1.9282715320587158, -0.5304208397865295, -71.975341796875],
    [0.041821498423814774, 0.5307473540306091, 1.9278377294540405, -57.614044189453125],
    [0.0, 0.0, 0.0, 1.0]
],
  "dcmmeta_reorient_transform": [
    [0.0, -1.0, 0.0, 103.0],
    [1.0, 0.0, 0.0, 0.0],
    [0.0, 0.0, 1.0, 0.0],
    [0.0, 0.0, 0.0, 1.0]
],
  "dcmmeta_shape": [104, 104, 60, 344],
  "dcmmeta_slice_dim": 2,
  "dcmmeta_version": 0.6,
  "global": {
    "const": {
      "AcquisitionMatrix": [104, 0, 0, 104],
      "AngioFlag": "N",
      "BitsAllocated": 16,
      "BitsStored": 16,
      "BodyPartExamined": "BRAIN",
      "Columns": 832,
      "EchoNumbers": 1,
      "EchoTime": 37.0,
      "EchoTrainLength": 104,
      "FlipAngle": 52.0,
      "HighBit": 15,
      "ImageOrientationPatient": [0.99972850635729, 0.01027881841347, 0.02091075007376, -0.0043621981171, 0.96413576918669, -0.2653736795584],
      "ImagePositionPatient": [-832.00209758605, -836.01044893777, 175.02194532561],
      "ImageType": [
        "ORIGINAL",
        "PRIMARY",
        "M",
        "MB",
        "ND",
        "MOSAIC"
],
      "ImagedNucleus": "1H",
      "ImagingFrequency": 123.258809,
      "InPlanePhaseEncodingDirection": "COL",
      "MRAcquisitionType": "2D",
      "MagneticFieldStrength": 3.0,
      "Manufacturer": "SIEMENS",
      "ManufacturerModelName": "Prisma_fit",
      "Modality": "MR",
      "NumberOfAverages": 1.0,
      "NumberOfPhaseEncodingSteps": 104,
      "PercentPhaseFieldOfView": 100.0,
      "PercentSampling": 100.0,
      "PerformedProcedureStepStartTime": "180745.266000",
      "PhotometricInterpretation": "MONOCHROME2",
      "PixelBandwidth": 2290.0,
      "PixelRepresentation": 0,
      "PixelSpacing": [2.0, 2.0],
      "ProtocolName": "func_task-mario3_run-01",
      "RepetitionTime": 1490.0,
      "Rows": 832,
      "SAR": 0.05888914718279,
      "SamplesPerPixel": 1,
      "ScanOptions": "FS",
      "ScanningSequence": "EP",
      "SequenceName": "epfid2d1_104",
      "SequenceVariant": [
        "SK",
        "SS"
],
      "SeriesDescription": "func_task-mario3_run-01",
      "SeriesNumber": 10,
      "SeriesTime": "181216.075000",
      "SliceLocation": -33.968421157915,
      "SliceThickness": 2.0,
      "SmallestImagePixelValue": 0,
      "SoftwareVersions": "syngo MR E11",
      "SpacingBetweenSlices": 2.0000000529292,
      "SpecificCharacterSet": "ISO_IR 100",
      "StudyID": "1",
      "StudyTime": "180745.185000",
      "TransmitCoilName": "Body",
      "VariableFlipAngleFlag": "N",
      "WindowCenterWidthExplanation": "Algo1",
      "dBdt": 0.0},
    "slices": {}
  },
  "time": {
    "samples": {
      "AcquisitionNumber": [1, 2, 3, 4, 5, 6, 7, 8, 9, 10, 11, 12, 13, 14, 15, 16, 17, 18, 19, 20, 21, 22, 23, 24, 25, 26, 27, 28, 29, 30, 31, 32, 33, 34, 35, 36, 37, 38, 39, 40, 41, 42, 43, 44, 45, 46, 47, 48, 49, 50, 51, 52, 53, 54, 55, 56, 57, 58, 59, 60, 61, 62, 63, 64, 65, 66, 67, 68, 69, 70, 71, 72, 73, 74, 75, 76, 77, 78, 79, 80, 81, 82, 83, 84, 85, 86, 87, 88, 89, 90, 91, 92, 93, 94, 95, 96, 97, 98, 99, 100, 101, 102, 103, 104, 105, 106, 107, 108, 109, 110, 111, 112, 113, 114, 115, 116, 117, 118, 119, 120, 121, 122, 123, 124, 125, 126, 127, 128, 129, 130, 131, 132, 133, 134, 135, 136, 137, 138, 139, 140, 141, 142, 143, 144, 145, 146, 147, 148, 149, 150, 151, 152, 153, 154, 155, 156, 157, 158, 159, 160, 161, 162, 163, 164, 165, 166, 167, 168, 169, 170, 171, 172, 173, 174, 175, 176, 177, 178, 179, 180, 181, 182, 183, 184, 185, 186, 187, 188, 189, 190, 191, 192, 193, 194, 195, 196, 197, 198, 199, 200, 201, 202, 203, 204, 205, 206, 207, 208, 209, 210, 211, 212, 213, 214, 215, 216, 217, 218, 219, 220, 221, 222, 223, 224, 225, 226, 227, 228, 229, 230, 231, 232, 233, 234, 235, 236, 237, 238, 239, 240, 241, 242, 243, 244, 245, 246, 247, 248, 249, 250, 251, 252, 253, 254, 255, 256, 257, 258, 259, 260, 261, 262, 263, 264, 265, 266, 267, 268, 269, 270, 271, 272, 273, 274, 275, 276, 277, 278, 279, 280, 281, 282, 283, 284, 285, 286, 287, 288, 289, 290, 291, 292, 293, 294, 295, 296, 297, 298, 299, 300, 301, 302, 303, 304, 305, 306, 307, 308, 309, 310, 311, 312, 313, 314, 315, 316, 317, 318, 319, 320, 321, 322, 323, 324, 325, 326, 327, 328, 329, 330, 331, 332, 333, 334, 335, 336, 337, 338, 339, 340, 341, 342, 343, 344],
      "AcquisitionTime": ["181048.800000", "181050.290000", "181051.780000", "181053.270000", "181054.760000", "181056.250000", "181057.740000", "181059.230000", "181100.720000", "181102.210000", "181103.700000", "181105.190000", "181106.680000", "181108.170000", "181109.660000", "181111.150000", "181112.640000", "181114.130000", "181115.620000", "181117.110000", "181118.600000", "181120.090000", "181121.580000", "181123.070000", "181124.560000", "181126.050000", "181127.540000", "181129.030000", "181130.520000", "181132.010000", "181133.500000", "181134.990000", "181136.480000", "181137.970000", "181139.460000", "181140.950000", "181142.440000", "181143.930000", "181145.420000", "181146.910000", "181148.400000", "181149.890000", "181151.380000", "181152.870000", "181154.360000", "181155.850000", "181157.340000", "181158.830000", "181200.320000", "181201.810000", "181203.300000", "181204.790000", "181206.280000", "181207.770000", "181209.260000", "181210.750000", "181212.240000", "181213.730000", "181215.220000", "181216.710000", "181218.200000", "181219.690000", "181221.180000", "181222.670000", "181224.160000", "181225.650000", "181227.140000", "181228.630000", "181230.120000", "181231.610000", "181233.100000", "181234.590000", "181236.080000", "181237.570000", "181239.060000", "181240.550000", "181242.040000", "181243.530000", "181245.020000", "181246.510000", "181248.000000", "181249.490000", "181250.980000", "181252.470000", "181253.960000", "181255.450000", "181256.940000", "181258.430000", "181259.920000", "181301.410000", "181302.900000", "181304.390000", "181305.880000", "181307.370000", "181308.860000", "181310.350000", "181311.840000", "181313.330000", "181314.820000", "181316.310000", "181317.800000", "181319.290000", "181320.780000", "181322.270000", "181323.760000", "181325.250000", "181326.740000", "181328.230000", "181329.720000", "181331.210000", "181332.700000", "181334.190000", "181335.680000", "181337.170000", "181338.660000", "181340.150000", "181341.640000", "181343.130000", "181344.620000", "181346.110000", "181347.600000", "181349.090000", "181350.580000", "181352.070000", "181353.560000", "181355.050000", "181356.540000", "181358.030000", "181359.520000", "181401.010000", "181402.500000", "181403.990000", "181405.480000", "181406.970000", "181408.460000", "181409.950000", "181411.440000", "181412.930000", "181414.420000", "181415.910000", "181417.400000", "181418.890000", "181420.380000", "181421.870000", "181423.360000", "181424.850000", "181426.340000", "181427.830000", "181429.320000", "181430.810000", "181432.300000", "181433.790000", "181435.280000", "181436.770000", "181438.260000", "181439.750000", "181441.240000", "181442.730000", "181444.220000", "181445.710000", "181447.200000", "181448.690000", "181450.180000", "181451.670000", "181453.160000", "181454.650000", "181456.140000", "181457.630000", "181459.120000", "181500.610000", "181502.100000", "181503.590000", "181505.080000", "181506.570000", "181508.060000", "181509.550000", "181511.040000", "181512.530000", "181514.020000", "181515.510000", "181517.000000", "181518.490000", "181519.980000", "181521.470000", "181522.960000", "181524.450000", "181525.940000", "181527.430000", "181528.920000", "181530.410000", "181531.900000", "181533.390000", "181534.880000", "181536.370000", "181537.860000", "181539.350000", "181540.840000", "181542.330000", "181543.820000", "181545.310000", "181546.800000", "181548.290000", "181549.780000", "181551.270000", "181552.760000", "181554.250000", "181555.740000", "181557.230000", "181558.720000", "181600.210000", "181601.700000", "181603.190000", "181604.680000", "181606.170000", "181607.660000", "181609.150000", "181610.640000", "181612.130000", "181613.620000", "181615.110000", "181616.600000", "181618.090000", "181619.580000", "181621.070000", "181622.560000", "181624.050000", "181625.540000", "181627.030000", "181628.520000", "181630.010000", "181631.500000", "181632.990000", "181634.480000", "181635.970000", "181637.460000", "181638.950000", "181640.440000", "181641.930000", "181643.420000", "181644.910000", "181646.400000", "181647.890000", "181649.380000", "181650.870000", "181652.360000", "181653.850000", "181655.340000", "181656.830000", "181658.320000", "181659.810000", "181701.300000", "181702.790000", "181704.280000", "181705.770000", "181707.260000", "181708.750000", "181710.240000", "181711.730000", "181713.220000", "181714.710000", "181716.200000", "181717.690000", "181719.180000", "181720.670000", "181722.160000", "181723.650000", "181725.140000", "181726.630000", "181728.120000", "181729.610000", "181731.100000", "181732.590000", "181734.080000", "181735.570000", "181737.060000", "181738.550000", "181740.040000", "181741.530000", "181743.020000", "181744.510000", "181746.000000", "181747.490000", "181748.980000", "181750.470000", "181751.960000", "181753.450000", "181754.940000", "181756.430000", "181757.920000", "181759.410000", "181800.900000", "181802.390000", "181803.880000", "181805.370000", "181806.860000", "181808.350000", "181809.840000", "181811.330000", "181812.820000", "181814.310000", "181815.800000", "181817.290000", "181818.780000", "181820.270000", "181821.760000", "181823.250000", "181824.740000", "181826.230000", "181827.720000", "181829.210000", "181830.700000", "181832.190000", "181833.680000", "181835.170000", "181836.660000", "181838.150000", "181839.640000", "181841.130000", "181842.620000", "181844.110000", "181845.600000", "181847.090000", "181848.580000", "181850.070000", "181851.560000", "181853.050000", "181854.540000", "181856.030000", "181857.520000", "181859.010000", "181900.500000", "181901.990000", "181903.480000", "181904.970000", "181906.460000", "181907.950000", "181909.440000", "181910.930000", "181912.420000", "181913.910000", "181915.400000", "181916.890000", "181918.380000", "181919.870000"],
      "ContentTime": ["181216.078000", "181216.082000", "181216.086000", "181216.089000", "181216.093000", "181216.096000", "181216.100000", "181216.103000", "181216.125000", "181216.129000", "181216.132000", "181216.135000", "181216.139000", "181216.142000", "181216.146000", "181216.149000", "181216.153000", "181216.156000", "181216.160000", "181216.163000", "181216.166000", "181216.170000", "181216.173000", "181216.177000", "181216.180000", "181216.184000", "181216.187000", "181216.190000", "181216.203000", "181216.206000", "181216.209000", "181216.213000", "181216.216000", "181216.220000", "181216.223000", "181216.227000", "181216.230000", "181216.234000", "181236.045000", "181236.049000", "181236.052000", "181236.056000", "181236.059000", "181236.062000", "181236.066000", "181236.069000", "181236.073000", "181236.076000", "181236.080000", "181236.083000", "181236.089000", "181236.092000", "181236.096000", "181236.099000", "181236.103000", "181236.106000", "181236.110000", "181236.113000", "181236.117000", "181256.046000", "181256.051000", "181256.054000", "181256.058000", "181256.061000", "181256.065000", "181256.068000", "181256.071000", "181256.075000", "181256.078000", "181256.082000", "181256.085000", "181256.088000", "181256.092000", "181256.095000", "181256.098000", "181256.102000", "181256.105000", "181256.109000", "181256.112000", "181336.045000", "181336.049000", "181336.053000", "181336.056000", "181336.060000", "181336.063000", "181336.066000", "181336.070000", "181336.073000", "181336.077000", "181336.080000", "181336.084000", "181336.087000", "181336.090000", "181336.094000", "181336.097000", "181336.101000", "181336.104000", "181336.108000", "181336.111000", "181336.114000", "181336.118000", "181336.121000", "181336.128000", "181336.132000", "181336.135000", "181336.139000", "181336.142000", "181336.146000", "181336.149000", "181336.152000", "181336.156000", "181416.045000", "181416.049000", "181416.052000", "181416.056000", "181416.059000", "181416.077000", "181416.080000", "181416.083000", "181416.087000", "181416.090000", "181416.094000", "181416.097000", "181416.101000", "181416.104000", "181416.108000", "181416.111000", "181416.114000", "181416.118000", "181416.121000", "181416.125000", "181416.128000", "181416.131000", "181416.135000", "181416.138000", "181416.142000", "181416.145000", "181416.148000", "181456.045000", "181456.049000", "181456.052000", "181456.056000", "181456.059000", "181456.063000", "181456.066000", "181456.070000", "181456.074000", "181456.077000", "181456.081000", "181456.084000", "181456.088000", "181456.091000", "181456.095000", "181456.098000", "181456.101000", "181456.105000", "181456.108000", "181456.112000", "181456.115000", "181456.119000", "181456.122000", "181456.126000", "181456.130000", "181456.133000", "181456.137000", "181536.046000", "181536.050000", "181536.053000", "181536.057000", "181536.060000", "181536.064000", "181536.067000", "181536.071000", "181536.074000", "181536.077000", "181536.081000", "181536.084000", "181536.088000", "181536.091000", "181536.095000", "181536.098000", "181536.102000", "181536.105000", "181536.109000", "181536.112000", "181536.115000", "181536.119000", "181536.122000", "181536.126000", "181536.129000", "181536.133000", "181536.136000", "181616.045000", "181616.049000", "181616.052000", "181616.056000", "181616.059000", "181616.063000", "181616.066000", "181616.070000", "181616.073000", "181616.077000", "181616.080000", "181616.083000", "181616.087000", "181616.090000", "181616.094000", "181616.097000", "181616.100000", "181616.113000", "181616.117000", "181616.120000", "181616.124000", "181616.127000", "181616.130000", "181616.134000", "181616.137000", "181616.141000", "181616.144000", "181656.045000", "181656.049000", "181656.052000", "181656.056000", "181656.059000", "181656.063000", "181656.066000", "181656.070000", "181656.073000", "181656.077000", "181656.080000", "181656.084000", "181656.087000", "181656.090000", "181656.094000", "181656.097000", "181656.101000", "181656.104000", "181656.108000", "181656.111000", "181656.115000", "181656.118000", "181656.121000", "181656.125000", "181656.128000", "181656.132000", "181656.135000", "181736.046000", "181736.050000", "181736.054000", "181736.057000", "181736.060000", "181736.064000", "181736.067000", "181736.071000", "181736.074000", "181736.078000", "181736.081000", "181736.085000", "181736.088000", "181736.091000", "181736.095000", "181736.098000", "181736.102000", "181736.105000", "181736.109000", "181736.113000", "181736.116000", "181736.120000", "181736.123000", "181736.127000", "181736.130000", "181736.134000", "181816.046000", "181816.049000", "181816.053000", "181816.056000", "181816.060000", "181816.063000", "181816.066000", "181816.070000", "181816.073000", "181816.077000", "181816.080000", "181816.084000", "181816.087000", "181816.091000", "181816.094000", "181816.098000", "181816.101000", "181816.104000", "181816.108000", "181816.111000", "181816.115000", "181816.118000", "181816.122000", "181816.125000", "181816.129000", "181816.132000", "181816.136000", "181856.045000", "181856.049000", "181856.053000", "181856.056000", "181856.060000", "181856.063000", "181856.066000", "181856.070000", "181856.073000", "181856.077000", "181856.080000", "181856.084000", "181856.087000", "181856.091000", "181856.094000", "181856.097000", "181856.101000", "181856.104000", "181856.108000", "181856.111000", "181856.115000", "181856.118000", "181856.121000", "181856.125000", "181856.128000", "181856.132000", "181856.136000", "181922.268000", "181922.272000", "181922.275000", "181922.279000", "181922.282000", "181922.286000", "181922.289000", "181922.293000", "181922.296000", "181922.300000", "181922.303000", "181922.307000", "181922.310000", "181922.313000", "181922.317000", "181922.320000", "181922.324000", "181922.327000"],
      "InstanceCreationTime": ["181216.078000", "181216.082000", "181216.086000", "181216.089000", "181216.093000", "181216.096000", "181216.100000", "181216.103000", "181216.125000", "181216.129000", "181216.132000", "181216.135000", "181216.139000", "181216.142000", "181216.146000", "181216.149000", "181216.153000", "181216.156000", "181216.160000", "181216.163000", "181216.166000", "181216.170000", "181216.173000", "181216.177000", "181216.180000", "181216.184000", "181216.187000", "181216.190000", "181216.203000", "181216.206000", "181216.209000", "181216.213000", "181216.216000", "181216.220000", "181216.223000", "181216.227000", "181216.230000", "181216.234000", "181236.045000", "181236.049000", "181236.052000", "181236.056000", "181236.059000", "181236.062000", "181236.066000", "181236.069000", "181236.073000", "181236.076000", "181236.080000", "181236.083000", "181236.089000", "181236.092000", "181236.096000", "181236.099000", "181236.103000", "181236.106000", "181236.110000", "181236.113000", "181236.117000", "181256.046000", "181256.051000", "181256.054000", "181256.058000", "181256.061000", "181256.065000", "181256.068000", "181256.071000", "181256.075000", "181256.078000", "181256.082000", "181256.085000", "181256.088000", "181256.092000", "181256.095000", "181256.098000", "181256.102000", "181256.105000", "181256.109000", "181256.112000", "181336.045000", "181336.049000", "181336.053000", "181336.056000", "181336.060000", "181336.063000", "181336.066000", "181336.070000", "181336.073000", "181336.077000", "181336.080000", "181336.084000", "181336.087000", "181336.090000", "181336.094000", "181336.097000", "181336.101000", "181336.104000", "181336.108000", "181336.111000", "181336.114000", "181336.118000", "181336.121000", "181336.128000", "181336.132000", "181336.135000", "181336.139000", "181336.142000", "181336.146000", "181336.149000", "181336.152000", "181336.156000", "181416.045000", "181416.049000", "181416.052000", "181416.056000", "181416.059000", "181416.077000", "181416.080000", "181416.083000", "181416.087000", "181416.090000", "181416.094000", "181416.097000", "181416.101000", "181416.104000", "181416.108000", "181416.111000", "181416.114000", "181416.118000", "181416.121000", "181416.125000", "181416.128000", "181416.131000", "181416.135000", "181416.138000", "181416.142000", "181416.145000", "181416.148000", "181456.045000", "181456.049000", "181456.052000", "181456.056000", "181456.059000", "181456.063000", "181456.066000", "181456.070000", "181456.074000", "181456.077000", "181456.081000", "181456.084000", "181456.088000", "181456.091000", "181456.095000", "181456.098000", "181456.101000", "181456.105000", "181456.108000", "181456.112000", "181456.115000", "181456.119000", "181456.122000", "181456.126000", "181456.130000", "181456.133000", "181456.137000", "181536.046000", "181536.050000", "181536.053000", "181536.057000", "181536.060000", "181536.064000", "181536.067000", "181536.071000", "181536.074000", "181536.077000", "181536.081000", "181536.084000", "181536.088000", "181536.091000", "181536.095000", "181536.098000", "181536.102000", "181536.105000", "181536.109000", "181536.112000", "181536.115000", "181536.119000", "181536.122000", "181536.126000", "181536.129000", "181536.133000", "181536.136000", "181616.045000", "181616.049000", "181616.052000", "181616.056000", "181616.059000", "181616.063000", "181616.066000", "181616.070000", "181616.073000", "181616.077000", "181616.080000", "181616.083000", "181616.087000", "181616.090000", "181616.094000", "181616.097000", "181616.100000", "181616.113000", "181616.117000", "181616.120000", "181616.124000", "181616.127000", "181616.130000", "181616.134000", "181616.137000", "181616.141000", "181616.144000", "181656.045000", "181656.049000", "181656.052000", "181656.056000", "181656.059000", "181656.063000", "181656.066000", "181656.070000", "181656.073000", "181656.077000", "181656.080000", "181656.084000", "181656.087000", "181656.090000", "181656.094000", "181656.097000", "181656.101000", "181656.104000", "181656.108000", "181656.111000", "181656.115000", "181656.118000", "181656.121000", "181656.125000", "181656.128000", "181656.132000", "181656.135000", "181736.046000", "181736.050000", "181736.054000", "181736.057000", "181736.060000", "181736.064000", "181736.067000", "181736.071000", "181736.074000", "181736.078000", "181736.081000", "181736.085000", "181736.088000", "181736.091000", "181736.095000", "181736.098000", "181736.102000", "181736.105000", "181736.109000", "181736.113000", "181736.116000", "181736.120000", "181736.123000", "181736.127000", "181736.130000", "181736.134000", "181816.046000", "181816.049000", "181816.053000", "181816.056000", "181816.060000", "181816.063000", "181816.066000", "181816.070000", "181816.073000", "181816.077000", "181816.080000", "181816.084000", "181816.087000", "181816.091000", "181816.094000", "181816.098000", "181816.101000", "181816.104000", "181816.108000", "181816.111000", "181816.115000", "181816.118000", "181816.122000", "181816.125000", "181816.129000", "181816.132000", "181816.136000", "181856.045000", "181856.049000", "181856.053000", "181856.056000", "181856.060000", "181856.063000", "181856.066000", "181856.070000", "181856.073000", "181856.077000", "181856.080000", "181856.084000", "181856.087000", "181856.091000", "181856.094000", "181856.097000", "181856.101000", "181856.104000", "181856.108000", "181856.111000", "181856.115000", "181856.118000", "181856.121000", "181856.125000", "181856.128000", "181856.132000", "181856.136000", "181922.268000", "181922.272000", "181922.275000", "181922.279000", "181922.282000", "181922.286000", "181922.289000", "181922.293000", "181922.296000", "181922.300000", "181922.303000", "181922.307000", "181922.310000", "181922.313000", "181922.317000", "181922.320000", "181922.324000", "181922.327000"],
      "InstanceNumber": [1, 2, 3, 4, 5, 6, 7, 8, 9, 10, 11, 12, 13, 14, 15, 16, 17, 18, 19, 20, 21, 22, 23, 24, 25, 26, 27, 28, 29, 30, 31, 32, 33, 34, 35, 36, 37, 38, 39, 40, 41, 42, 43, 44, 45, 46, 47, 48, 49, 50, 51, 52, 53, 54, 55, 56, 57, 58, 59, 60, 61, 62, 63, 64, 65, 66, 67, 68, 69, 70, 71, 72, 73, 74, 75, 76, 77, 78, 79, 80, 81, 82, 83, 84, 85, 86, 87, 88, 89, 90, 91, 92, 93, 94, 95, 96, 97, 98, 99, 100, 101, 102, 103, 104, 105, 106, 107, 108, 109, 110, 111, 112, 113, 114, 115, 116, 117, 118, 119, 120, 121, 122, 123, 124, 125, 126, 127, 128, 129, 130, 131, 132, 133, 134, 135, 136, 137, 138, 139, 140, 141, 142, 143, 144, 145, 146, 147, 148, 149, 150, 151, 152, 153, 154, 155, 156, 157, 158, 159, 160, 161, 162, 163, 164, 165, 166, 167, 168, 169, 170, 171, 172, 173, 174, 175, 176, 177, 178, 179, 180, 181, 182, 183, 184, 185, 186, 187, 188, 189, 190, 191, 192, 193, 194, 195, 196, 197, 198, 199, 200, 201, 202, 203, 204, 205, 206, 207, 208, 209, 210, 211, 212, 213, 214, 215, 216, 217, 218, 219, 220, 221, 222, 223, 224, 225, 226, 227, 228, 229, 230, 231, 232, 233, 234, 235, 236, 237, 238, 239, 240, 241, 242, 243, 244, 245, 246, 247, 248, 249, 250, 251, 252, 253, 254, 255, 256, 257, 258, 259, 260, 261, 262, 263, 264, 265, 266, 267, 268, 269, 270, 271, 272, 273, 274, 275, 276, 277, 278, 279, 280, 281, 282, 283, 284, 285, 286, 287, 288, 289, 290, 291, 292, 293, 294, 295, 296, 297, 298, 299, 300, 301, 302, 303, 304, 305, 306, 307, 308, 309, 310, 311, 312, 313, 314, 315, 316, 317, 318, 319, 320, 321, 322, 323, 324, 325, 326, 327, 328, 329, 330, 331, 332, 333, 334, 335, 336, 337, 338, 339, 340, 341, 342, 343, 344],
      "LargestImagePixelValue": [42371, 41696, 40231, 40350, 39733, 39810, 39820, 40056, 39603, 39810, 39862, 39699, 39797, 40462, 40238, 39579, 40491, 40083, 39802, 39878, 40026, 40404, 40384, 40020, 40448, 39898, 40197, 39906, 40298, 39984, 39990, 39964, 40262, 40811, 40539, 40216, 40484, 40845, 40443, 40437, 40151, 40100, 40366, 40163, 39905, 40255, 40117, 40550, 40360, 40244, 40517, 39841, 40250, 39574, 39534, 39757, 40043, 40208, 40502, 40170, 40669, 39726, 41822, 41283, 40608, 40388, 40484, 40637, 40507, 40506, 40608, 39443, 40040, 40166, 40172, 40648, 40463, 40127, 39790, 39922, 40056, 40024, 39997, 39852, 39656, 39584, 39592, 39968, 40221, 39687, 39890, 40242, 39913, 40266, 40243, 39994, 39427, 40231, 40211, 40465, 40268, 40261, 39776, 40128, 40126, 40377, 39724, 39592, 39251, 39610, 39441, 39584, 39801, 39195, 39398, 39589, 39869, 39824, 39557, 40054, 39733, 39893, 39591, 39947, 39754, 39478, 40450, 40037, 40124, 39784, 39380, 39273, 39396, 39554, 39758, 39458, 39959, 40252, 40161, 40183, 40040, 39790, 40066, 39516, 39475, 40062, 39167, 39771, 40064, 39543, 40084, 39791, 40218, 40214, 39953, 39901, 39978, 39669, 39587, 39856, 39925, 39800, 39612, 39985, 39193, 39240, 39071, 39353, 39703, 39524, 39140, 39498, 39365, 39247, 39254, 39391, 39290, 39606, 39592, 39268, 39487, 39307, 39579, 39738, 39624, 39699, 39561, 39002, 38944, 38743, 38992, 39268, 39435, 39239, 39182, 39190, 39029, 39097, 39018, 38536, 38619, 38696, 39093, 38962, 38323, 39249, 39513, 39595, 38530, 39271, 39319, 38897, 38243, 39443, 38452, 38250, 38411, 38553, 38455, 38554, 38392, 38520, 38435, 38539, 38440, 38944, 38494, 38871, 38897, 39178, 39276, 39059, 38627, 38301, 39413, 39630, 38934, 38754, 38601, 38768, 38344, 38584, 38597, 38464, 39014, 39075, 38840, 38503, 39205, 38575, 38249, 38230, 38625, 39653, 38447, 38417, 38233, 38057, 38093, 38478, 39205, 38582, 38144, 37815, 39682, 39331, 38414, 38518, 38747, 38284, 38412, 38293, 38177, 38352, 38025, 38237, 38095, 38143, 37662, 37629, 37995, 38132, 38137, 37587, 37791, 37853, 38016, 37945, 38239, 38080, 38619, 37927, 37749, 37544, 38035, 38641, 38235, 37493, 38059, 38229, 38074, 38094, 38585, 38184, 37678, 38231, 38163, 38008, 38004, 37995, 38217, 39386, 38889, 38704, 38138, 38051, 38019, 37606, 38334, 38566, 37991, 37769, 38087, 37569, 37499, 37599, 38363, 37414, 38102, 38328, 39173, 39630, 39361, 38714, 38966, 38972, 39141, 39261, 39037, 39025, 39532, 38910, 38597, 38931],
