{
  "AcquisitionMatrixPE": 104,
  "AcquisitionNumber": 1,
  "AcquisitionTime": "18:30:52.052500",
  "BandwidthPerPixelPhaseEncode": 17.17,
  "BaseResolution": 104,
  "BodyPartExamined": "BRAIN",
  "CoilCombinationMethod": "Sum of Squares",
  "ConsistencyInfo": "N4_VE11C_LATEST_20160120",
  "ConversionSoftware": "dcm2niix",
  "ConversionSoftwareVersion": "v1.0.20220505",
  "DerivedVendorReportedEchoSpacing": 0.000560011,
  "DeviceSerialNumber": "167006",
  "DwellTime": 2.1e-06,
  "EchoTime": 0.037,
  "EchoTrainLength": 104,
  "EffectiveEchoSpacing": 0.000560011,
  "FlipAngle": 52,
  "HeudiconvVersion": "0.5.3.post811+g6206e14",
  "ImageComments": "Unaliased MB4/PE3/LB",
  "ImageOrientationPatientDICOM": [0.999729, 0.0102788, 0.0209107, -0.0043622, 0.964136, -0.265374],
  "ImageOrientationText": "Tra>Cor(-15.4)>Sag(1.3)",
  "ImageType": [
    "ORIGINAL",
    "PRIMARY",
    "M",
    "MB",
    "ND",
    "MOSAIC"
],
  "ImagingFrequency": 123.259,
  "InPlanePhaseEncodingDirectionDICOM": "COL",
  "InstitutionAddress": "Chemin Queen-Mary 4565,Montreal,District,CA,H3W 1W5",
  "InstitutionName": "IUGM",
  "InstitutionalDepartmentName": "Department",
  "MRAcquisitionType": "2D",
  "MagneticFieldStrength": 3,
  "Manufacturer": "Siemens",
  "ManufacturersModelName": "Prisma_fit",
  "MatrixCoilMode": "SENSE",
  "Modality": "MR",
  "MultibandAccelerationFactor": 4,
  "PartialFourier": 1,
  "PatientPosition": "HFS",
  "PercentPhaseFOV": 100,
  "PercentSampling": 100,
  "PhaseEncodingDirection": "j",
  "PhaseEncodingSteps": 104,
  "PhaseResolution": 1,
  "PixelBandwidth": 2290,
  "ProcedureStepDescription": "games^mario3",
  "ProtocolName": "func_task-mario3_run-03",
  "PulseSequenceDetails": "%CustomerSeq%\\cmrr_mbep2d_bold",
  "ReceiveCoilActiveElements": "HC1-7;NC1,2",
  "ReceiveCoilName": "HeadNeck_64",
  "ReconMatrixPE": 104,
  "RepetitionTime": 1.49,
  "SAR": 0.0588891,
  "ScanOptions": "FS",
  "ScanningSequence": "EP",
  "SequenceName": "epfid2d1_104",
  "SequenceVariant": "SK\\SS",
  "SeriesDescription": "func_task-mario3_run-03",
  "SeriesNumber": 16,
  "ShimSetting": [642, -7213, -8768, 706, 82, 31, 47, -17],
  "SliceThickness": 2,
  "SliceTiming": [0, 0.7825, 0.0975, 0.8825, 0.195, 0.98, 0.2925, 1.0775, 0.3925, 1.175, 0.49, 1.2725, 0.5875, 1.3725, 0.685, 0, 0.7825, 0.0975, 0.8825, 0.195, 0.98, 0.2925, 1.0775, 0.3925, 1.175, 0.49, 1.2725, 0.5875, 1.3725, 0.685, 0, 0.7825, 0.0975, 0.8825, 0.195, 0.98, 0.2925, 1.0775, 0.3925, 1.175, 0.49, 1.2725, 0.5875, 1.3725, 0.685, 0, 0.7825, 0.0975, 0.8825, 0.195, 0.98, 0.2925, 1.0775, 0.3925, 1.175, 0.49, 1.2725, 0.5875, 1.3725, 0.685],
  "SoftwareVersions": "syngo MR E11",
  "SpacingBetweenSlices": 2,
  "StationName": "MRC35049",
  "TaskName": "mario3",
  "TotalReadoutTime": 0.0576811,
  "TxRefAmp": 251.722,
  "WipMemBlock": "f975b589-dbe9-4cb0-b79e-fbdbd0b03c45||Sequence: R017 ve11c/master r/75a17815+; Jun 28 2022 16:32:11 by eja",
  "dcmmeta_affine": [
    [-1.9994570016860962, -0.008724396117031574, 0.045777060091495514, 108.27404022216797],
    [-0.02055763639509678, 1.9282715320587158, -0.5304208397865295, -71.975341796875],
    [0.041821498423814774, 0.5307473540306091, 1.9278377294540405, -57.614044189453125],
    [0.0, 0.0, 0.0, 1.0]
],
  "dcmmeta_reorient_transform": [
    [0.0, -1.0, 0.0, 103.0],
    [1.0, 0.0, 0.0, 0.0],
    [0.0, 0.0, 1.0, 0.0],
    [0.0, 0.0, 0.0, 1.0]
],
  "dcmmeta_shape": [104, 104, 60, 362],
  "dcmmeta_slice_dim": 2,
  "dcmmeta_version": 0.6,
  "global": {
    "const": {
      "AcquisitionMatrix": [104, 0, 0, 104],
      "AngioFlag": "N",
      "BitsAllocated": 16,
      "BitsStored": 16,
      "BodyPartExamined": "BRAIN",
      "Columns": 832,
      "EchoNumbers": 1,
      "EchoTime": 37.0,
      "EchoTrainLength": 104,
      "FlipAngle": 52.0,
      "HighBit": 15,
      "ImageOrientationPatient": [0.99972850635729, 0.01027881841347, 0.02091075007376, -0.0043621981171, 0.96413576918669, -0.2653736795584],
      "ImagePositionPatient": [-832.00209758605, -836.01044893777, 175.02194532561],
      "ImageType": [
        "ORIGINAL",
        "PRIMARY",
        "M",
        "MB",
        "ND",
        "MOSAIC"
],
      "ImagedNucleus": "1H",
      "ImagingFrequency": 123.258817,
      "InPlanePhaseEncodingDirection": "COL",
      "MRAcquisitionType": "2D",
      "MagneticFieldStrength": 3.0,
      "Manufacturer": "SIEMENS",
      "ManufacturerModelName": "Prisma_fit",
      "Modality": "MR",
      "NumberOfAverages": 1.0,
      "NumberOfPhaseEncodingSteps": 104,
      "PercentPhaseFieldOfView": 100.0,
      "PercentSampling": 100.0,
      "PerformedProcedureStepStartTime": "180745.266000",
      "PhotometricInterpretation": "MONOCHROME2",
      "PixelBandwidth": 2290.0,
      "PixelRepresentation": 0,
      "PixelSpacing": [2.0, 2.0],
      "ProtocolName": "func_task-mario3_run-03",
      "RepetitionTime": 1490.0,
      "Rows": 832,
      "SAR": 0.05888914718279,
      "SamplesPerPixel": 1,
      "ScanOptions": "FS",
      "ScanningSequence": "EP",
      "SequenceName": "epfid2d1_104",
      "SequenceVariant": [
        "SK",
        "SS"
],
      "SeriesDescription": "func_task-mario3_run-03",
      "SeriesNumber": 16,
      "SeriesTime": "183201.680000",
      "SliceLocation": -33.968421157915,
      "SliceThickness": 2.0,
      "SmallestImagePixelValue": 0,
      "SoftwareVersions": "syngo MR E11",
      "SpacingBetweenSlices": 2.0000000529292,
      "SpecificCharacterSet": "ISO_IR 100",
      "StudyID": "1",
      "StudyTime": "180745.185000",
      "TransmitCoilName": "Body",
      "VariableFlipAngleFlag": "N",
      "WindowCenterWidthExplanation": "Algo1",
      "dBdt": 0.0},
    "slices": {}
  },
  "time": {
    "samples": {
      "AcquisitionNumber": [1, 2, 3, 4, 5, 6, 7, 8, 9, 10, 11, 12, 13, 14, 15, 16, 17, 18, 19, 20, 21, 22, 23, 24, 25, 26, 27, 28, 29, 30, 31, 32, 33, 34, 35, 36, 37, 38, 39, 40, 41, 42, 43, 44, 45, 46, 47, 48, 49, 50, 51, 52, 53, 54, 55, 56, 57, 58, 59, 60, 61, 62, 63, 64, 65, 66, 67, 68, 69, 70, 71, 72, 73, 74, 75, 76, 77, 78, 79, 80, 81, 82, 83, 84, 85, 86, 87, 88, 89, 90, 91, 92, 93, 94, 95, 96, 97, 98, 99, 100, 101, 102, 103, 104, 105, 106, 107, 108, 109, 110, 111, 112, 113, 114, 115, 116, 117, 118, 119, 120, 121, 122, 123, 124, 125, 126, 127, 128, 129, 130, 131, 132, 133, 134, 135, 136, 137, 138, 139, 140, 141, 142, 143, 144, 145, 146, 147, 148, 149, 150, 151, 152, 153, 154, 155, 156, 157, 158, 159, 160, 161, 162, 163, 164, 165, 166, 167, 168, 169, 170, 171, 172, 173, 174, 175, 176, 177, 178, 179, 180, 181, 182, 183, 184, 185, 186, 187, 188, 189, 190, 191, 192, 193, 194, 195, 196, 197, 198, 199, 200, 201, 202, 203, 204, 205, 206, 207, 208, 209, 210, 211, 212, 213, 214, 215, 216, 217, 218, 219, 220, 221, 222, 223, 224, 225, 226, 227, 228, 229, 230, 231, 232, 233, 234, 235, 236, 237, 238, 239, 240, 241, 242, 243, 244, 245, 246, 247, 248, 249, 250, 251, 252, 253, 254, 255, 256, 257, 258, 259, 260, 261, 262, 263, 264, 265, 266, 267, 268, 269, 270, 271, 272, 273, 274, 275, 276, 277, 278, 279, 280, 281, 282, 283, 284, 285, 286, 287, 288, 289, 290, 291, 292, 293, 294, 295, 296, 297, 298, 299, 300, 301, 302, 303, 304, 305, 306, 307, 308, 309, 310, 311, 312, 313, 314, 315, 316, 317, 318, 319, 320, 321, 322, 323, 324, 325, 326, 327, 328, 329, 330, 331, 332, 333, 334, 335, 336, 337, 338, 339, 340, 341, 342, 343, 344, 345, 346, 347, 348, 349, 350, 351, 352, 353, 354, 355, 356, 357, 358, 359, 360, 361, 362],
      "AcquisitionTime": ["183052.052500", "183053.542500", "183055.032500", "183056.522500", "183058.012500", "183059.502500", "183100.992500", "183102.482500", "183103.972500", "183105.462500", "183106.952500", "183108.442500", "183109.932500", "183111.422500", "183112.912500", "183114.402500", "183115.892500", "183117.382500", "183118.872500", "183120.362500", "183121.852500", "183123.342500", "183124.832500", "183126.322500", "183127.812500", "183129.302500", "183130.792500", "183132.282500", "183133.772500", "183135.262500", "183136.752500", "183138.242500", "183139.732500", "183141.222500", "183142.712500", "183144.202500", "183145.692500", "183147.182500", "183148.672500", "183150.162500", "183151.652500", "183153.142500", "183154.632500", "183156.122500", "183157.612500", "183159.102500", "183200.592500", "183202.082500", "183203.572500", "183205.062500", "183206.552500", "183208.042500", "183209.532500", "183211.022500", "183212.512500", "183214.002500", "183215.492500", "183216.982500", "183218.472500", "183219.962500", "183221.452500", "183222.942500", "183224.432500", "183225.922500", "183227.412500", "183228.902500", "183230.392500", "183231.882500", "183233.372500", "183234.862500", "183236.352500", "183237.842500", "183239.332500", "183240.822500", "183242.312500", "183243.802500", "183245.292500", "183246.782500", "183248.272500", "183249.762500", "183251.252500", "183252.742500", "183254.232500", "183255.722500", "183257.212500", "183258.702500", "183300.192500", "183301.682500", "183303.172500", "183304.662500", "183306.152500", "183307.642500", "183309.132500", "183310.622500", "183312.112500", "183313.602500", "183315.092500", "183316.582500", "183318.072500", "183319.562500", "183321.052500", "183322.542500", "183324.032500", "183325.522500", "183327.012500", "183328.502500", "183329.992500", "183331.482500", "183332.972500", "183334.462500", "183335.952500", "183337.442500", "183338.932500", "183340.422500", "183341.912500", "183343.402500", "183344.892500", "183346.382500", "183347.872500", "183349.362500", "183350.852500", "183352.342500", "183353.832500", "183355.322500", "183356.812500", "183358.302500", "183359.792500", "183401.282500", "183402.772500", "183404.262500", "183405.752500", "183407.242500", "183408.732500", "183410.222500", "183411.712500", "183413.202500", "183414.692500", "183416.182500", "183417.672500", "183419.162500", "183420.652500", "183422.142500", "183423.632500", "183425.122500", "183426.612500", "183428.102500", "183429.592500", "183431.082500", "183432.572500", "183434.062500", "183435.552500", "183437.042500", "183438.532500", "183440.022500", "183441.512500", "183443.002500", "183444.492500", "183445.982500", "183447.472500", "183448.962500", "183450.452500", "183451.942500", "183453.432500", "183454.922500", "183456.412500", "183457.902500", "183459.392500", "183500.882500", "183502.372500", "183503.862500", "183505.352500", "183506.842500", "183508.332500", "183509.822500", "183511.312500", "183512.802500", "183514.292500", "183515.782500", "183517.272500", "183518.762500", "183520.252500", "183521.742500", "183523.232500", "183524.722500", "183526.212500", "183527.702500", "183529.192500", "183530.682500", "183532.172500", "183533.662500", "183535.152500", "183536.642500", "183538.132500", "183539.622500", "183541.112500", "183542.602500", "183544.092500", "183545.582500", "183547.072500", "183548.562500", "183550.052500", "183551.542500", "183553.032500", "183554.522500", "183556.012500", "183557.502500", "183558.992500", "183600.482500", "183601.972500", "183603.462500", "183604.952500", "183606.442500", "183607.932500", "183609.422500", "183610.912500", "183612.402500", "183613.892500", "183615.382500", "183616.872500", "183618.362500", "183619.852500", "183621.342500", "183622.832500", "183624.322500", "183625.812500", "183627.302500", "183628.792500", "183630.282500", "183631.772500", "183633.262500", "183634.752500", "183636.242500", "183637.732500", "183639.222500", "183640.712500", "183642.202500", "183643.692500", "183645.182500", "183646.672500", "183648.162500", "183649.652500", "183651.142500", "183652.632500", "183654.122500", "183655.612500", "183657.102500", "183658.592500", "183700.082500", "183701.572500", "183703.062500", "183704.552500", "183706.042500", "183707.532500", "183709.022500", "183710.512500", "183712.002500", "183713.492500", "183714.982500", "183716.472500", "183717.962500", "183719.452500", "183720.942500", "183722.432500", "183723.922500", "183725.412500", "183726.902500", "183728.392500", "183729.882500", "183731.372500", "183732.862500", "183734.352500", "183735.842500", "183737.332500", "183738.822500", "183740.312500", "183741.802500", "183743.292500", "183744.782500", "183746.272500", "183747.762500", "183749.252500", "183750.742500", "183752.232500", "183753.722500", "183755.212500", "183756.702500", "183758.192500", "183759.682500", "183801.172500", "183802.662500", "183804.152500", "183805.642500", "183807.132500", "183808.622500", "183810.112500", "183811.602500", "183813.092500", "183814.582500", "183816.072500", "183817.562500", "183819.052500", "183820.542500", "183822.032500", "183823.522500", "183825.012500", "183826.502500", "183827.992500", "183829.482500", "183830.972500", "183832.462500", "183833.952500", "183835.442500", "183836.932500", "183838.422500", "183839.912500", "183841.402500", "183842.892500", "183844.382500", "183845.872500", "183847.362500", "183848.852500", "183850.342500", "183851.832500", "183853.322500", "183854.812500", "183856.302500", "183857.792500", "183859.282500", "183900.772500", "183902.262500", "183903.752500", "183905.242500", "183906.732500", "183908.222500", "183909.712500", "183911.202500", "183912.692500", "183914.182500", "183915.672500", "183917.162500", "183918.652500", "183920.142500", "183921.632500", "183923.122500", "183924.612500", "183926.102500", "183927.592500", "183929.082500", "183930.572500", "183932.062500", "183933.552500", "183935.042500", "183936.532500", "183938.022500", "183939.512500", "183941.002500", "183942.492500", "183943.982500", "183945.472500", "183946.962500", "183948.452500", "183949.942500"],
      "ContentTime": ["183201.684000", "183201.688000", "183201.691000", "183201.695000", "183201.702000", "183201.706000", "183201.709000", "183201.712000", "183201.716000", "183201.719000", "183201.723000", "183201.726000", "183201.730000", "183201.748000", "183201.752000", "183201.755000", "183201.758000", "183201.762000", "183201.765000", "183201.769000", "183201.772000", "183221.641000", "183221.645000", "183221.648000", "183221.652000", "183221.655000", "183221.659000", "183221.662000", "183221.666000", "183221.669000", "183221.673000", "183221.676000", "183221.679000", "183221.683000", "183221.686000", "183221.690000", "183221.693000", "183221.697000", "183221.700000", "183221.703000", "183221.707000", "183241.641000", "183241.645000", "183241.649000", "183241.652000", "183241.655000", "183241.659000", "183241.662000", "183241.666000", "183241.669000", "183241.673000", "183241.676000", "183241.680000", "183241.683000", "183241.686000", "183241.690000", "183241.693000", "183241.697000", "183241.700000", "183241.703000", "183241.707000", "183301.642000", "183301.646000", "183301.649000", "183301.653000", "183301.656000", "183301.660000", "183301.663000", "183301.667000", "183301.670000", "183301.673000", "183301.677000", "183301.680000", "183301.684000", "183301.687000", "183301.691000", "183301.694000", "183301.697000", "183301.701000", "183301.704000", "183301.708000", "183341.643000", "183341.646000", "183341.650000", "183341.653000", "183341.657000", "183341.660000", "183341.664000", "183341.667000", "183341.670000", "183341.674000", "183341.677000", "183341.681000", "183341.684000", "183341.688000", "183341.691000", "183341.703000", "183341.706000", "183341.710000", "183341.713000", "183341.717000", "183341.720000", "183341.724000", "183341.727000", "183341.730000", "183341.734000", "183341.737000", "183341.741000", "183341.744000", "183341.748000", "183341.751000", "183341.755000", "183341.758000", "183421.641000", "183421.645000", "183421.649000", "183421.652000", "183421.656000", "183421.659000", "183421.662000", "183421.666000", "183421.669000", "183421.673000", "183421.676000", "183421.680000", "183421.683000", "183421.686000", "183421.690000", "183421.693000", "183421.697000", "183421.700000", "183421.704000", "183421.707000", "183421.710000", "183421.714000", "183421.717000", "183421.721000", "183421.724000", "183421.728000", "183421.731000", "183501.641000", "183501.645000", "183501.649000", "183501.652000", "183501.656000", "183501.659000", "183501.663000", "183501.666000", "183501.670000", "183501.673000", "183501.677000", "183501.680000", "183501.683000", "183501.687000", "183501.690000", "183501.694000", "183501.697000", "183501.701000", "183501.704000", "183501.708000", "183501.711000", "183501.714000", "183501.718000", "183501.721000", "183501.725000", "183501.730000", "183541.642000", "183541.646000", "183541.650000", "183541.653000", "183541.657000", "183541.660000", "183541.663000", "183541.667000", "183541.670000", "183541.674000", "183541.677000", "183541.681000", "183541.684000", "183541.688000", "183541.691000", "183541.694000", "183541.698000", "183541.701000", "183541.705000", "183541.708000", "183541.711000", "183541.715000", "183541.718000", "183541.722000", "183541.725000", "183541.729000", "183541.732000", "183621.642000", "183621.646000", "183621.650000", "183621.653000", "183621.657000", "183621.660000", "183621.663000", "183621.667000", "183621.670000", "183621.674000", "183621.677000", "183621.681000", "183621.684000", "183621.688000", "183621.691000", "183621.695000", "183621.713000", "183621.716000", "183621.719000", "183621.723000", "183621.726000", "183621.730000", "183621.733000", "183621.737000", "183621.740000", "183621.743000", "183621.747000", "183701.641000", "183701.645000", "183701.649000", "183701.652000", "183701.655000", "183701.667000", "183701.671000", "183701.674000", "183701.678000", "183701.681000", "183701.684000", "183701.688000", "183701.691000", "183701.695000", "183701.698000", "183701.702000", "183701.705000", "183701.708000", "183701.712000", "183701.715000", "183701.719000", "183701.722000", "183701.726000", "183701.729000", "183701.732000", "183701.736000", "183701.739000", "183741.642000", "183741.646000", "183741.650000", "183741.653000", "183741.657000", "183741.660000", "183741.664000", "183741.667000", "183741.670000", "183741.674000", "183741.677000", "183741.681000", "183741.684000", "183741.688000", "183741.691000", "183741.695000", "183741.698000", "183741.701000", "183741.705000", "183741.708000", "183741.711000", "183741.715000", "183741.718000", "183741.722000", "183741.725000", "183741.729000", "183741.732000", "183821.642000", "183821.646000", "183821.650000", "183821.653000", "183821.657000", "183821.660000", "183821.663000", "183821.667000", "183821.670000", "183821.674000", "183821.677000", "183821.681000", "183821.684000", "183821.687000", "183821.691000", "183821.694000", "183821.698000", "183821.701000", "183821.705000", "183821.708000", "183821.711000", "183821.715000", "183821.718000", "183821.722000", "183821.725000", "183821.729000", "183821.732000", "183901.642000", "183901.645000", "183901.649000", "183901.652000", "183901.656000", "183901.659000", "183901.663000", "183901.666000", "183901.669000", "183901.673000", "183901.676000", "183901.680000", "183901.683000", "183901.687000", "183901.690000", "183901.693000", "183901.707000", "183901.710000", "183901.714000", "183901.717000", "183901.721000", "183901.724000", "183901.728000", "183901.731000", "183901.734000", "183901.738000", "183901.741000", "183941.641000", "183941.645000", "183941.649000", "183941.652000", "183941.656000", "183941.659000", "183941.663000", "183941.666000", "183941.669000", "183941.673000", "183941.676000", "183941.680000", "183941.683000", "183941.687000", "183941.690000", "183941.693000", "183941.697000", "183941.700000", "183941.704000", "183941.707000", "183941.711000", "183941.714000", "183941.718000", "183941.722000", "183941.725000", "183941.729000", "183953.395000", "183953.399000", "183953.403000", "183953.406000", "183953.410000", "183953.413000", "183953.416000", "183953.420000"],
      "InstanceCreationTime": ["183201.684000", "183201.688000", "183201.691000", "183201.695000", "183201.702000", "183201.706000", "183201.709000", "183201.712000", "183201.716000", "183201.719000", "183201.723000", "183201.726000", "183201.730000", "183201.748000", "183201.752000", "183201.755000", "183201.758000", "183201.762000", "183201.765000", "183201.769000", "183201.772000", "183221.641000", "183221.645000", "183221.648000", "183221.652000", "183221.655000", "183221.659000", "183221.662000", "183221.666000", "183221.669000", "183221.673000", "183221.676000", "183221.679000", "183221.683000", "183221.686000", "183221.690000", "183221.693000", "183221.697000", "183221.700000", "183221.703000", "183221.707000", "183241.641000", "183241.645000", "183241.649000", "183241.652000", "183241.655000", "183241.659000", "183241.662000", "183241.666000", "183241.669000", "183241.673000", "183241.676000", "183241.680000", "183241.683000", "183241.686000", "183241.690000", "183241.693000", "183241.697000", "183241.700000", "183241.703000", "183241.707000", "183301.642000", "183301.646000", "183301.649000", "183301.653000", "183301.656000", "183301.660000", "183301.663000", "183301.667000", "183301.670000", "183301.673000", "183301.677000", "183301.680000", "183301.684000", "183301.687000", "183301.691000", "183301.694000", "183301.697000", "183301.701000", "183301.704000", "183301.708000", "183341.643000", "183341.646000", "183341.650000", "183341.653000", "183341.657000", "183341.660000", "183341.664000", "183341.667000", "183341.670000", "183341.674000", "183341.677000", "183341.681000", "183341.684000", "183341.688000", "183341.691000", "183341.703000", "183341.706000", "183341.710000", "183341.713000", "183341.717000", "183341.720000", "183341.724000", "183341.727000", "183341.730000", "183341.734000", "183341.737000", "183341.741000", "183341.744000", "183341.748000", "183341.751000", "183341.755000", "183341.758000", "183421.641000", "183421.645000", "183421.649000", "183421.652000", "183421.656000", "183421.659000", "183421.662000", "183421.666000", "183421.669000", "183421.673000", "183421.676000", "183421.680000", "183421.683000", "183421.686000", "183421.690000", "183421.693000", "183421.697000", "183421.700000", "183421.704000", "183421.707000", "183421.710000", "183421.714000", "183421.717000", "183421.721000", "183421.724000", "183421.728000", "183421.731000", "183501.641000", "183501.645000", "183501.649000", "183501.652000", "183501.656000", "183501.659000", "183501.663000", "183501.666000", "183501.670000", "183501.673000", "183501.677000", "183501.680000", "183501.683000", "183501.687000", "183501.690000", "183501.694000", "183501.697000", "183501.701000", "183501.704000", "183501.708000", "183501.711000", "183501.714000", "183501.718000", "183501.721000", "183501.725000", "183501.730000", "183541.642000", "183541.646000", "183541.650000", "183541.653000", "183541.657000", "183541.660000", "183541.663000", "183541.667000", "183541.670000", "183541.674000", "183541.677000", "183541.681000", "183541.684000", "183541.688000", "183541.691000", "183541.694000", "183541.698000", "183541.701000", "183541.705000", "183541.708000", "183541.711000", "183541.715000", "183541.718000", "183541.722000", "183541.725000", "183541.729000", "183541.732000", "183621.642000", "183621.646000", "183621.650000", "183621.653000", "183621.657000", "183621.660000", "183621.663000", "183621.667000", "183621.670000", "183621.674000", "183621.677000", "183621.681000", "183621.684000", "183621.688000", "183621.691000", "183621.695000", "183621.713000", "183621.716000", "183621.719000", "183621.723000", "183621.726000", "183621.730000", "183621.733000", "183621.737000", "183621.740000", "183621.743000", "183621.747000", "183701.641000", "183701.645000", "183701.649000", "183701.652000", "183701.655000", "183701.667000", "183701.671000", "183701.674000", "183701.678000", "183701.681000", "183701.684000", "183701.688000", "183701.691000", "183701.695000", "183701.698000", "183701.702000", "183701.705000", "183701.708000", "183701.712000", "183701.715000", "183701.719000", "183701.722000", "183701.726000", "183701.729000", "183701.732000", "183701.736000", "183701.739000", "183741.642000", "183741.646000", "183741.650000", "183741.653000", "183741.657000", "183741.660000", "183741.664000", "183741.667000", "183741.670000", "183741.674000", "183741.677000", "183741.681000", "183741.684000", "183741.688000", "183741.691000", "183741.695000", "183741.698000", "183741.701000", "183741.705000", "183741.708000", "183741.711000", "183741.715000", "183741.718000", "183741.722000", "183741.725000", "183741.729000", "183741.732000", "183821.642000", "183821.646000", "183821.650000", "183821.653000", "183821.657000", "183821.660000", "183821.663000", "183821.667000", "183821.670000", "183821.674000", "183821.677000", "183821.681000", "183821.684000", "183821.687000", "183821.691000", "183821.694000", "183821.698000", "183821.701000", "183821.705000", "183821.708000", "183821.711000", "183821.715000", "183821.718000", "183821.722000", "183821.725000", "183821.729000", "183821.732000", "183901.642000", "183901.645000", "183901.649000", "183901.652000", "183901.656000", "183901.659000", "183901.663000", "183901.666000", "183901.669000", "183901.673000", "183901.676000", "183901.680000", "183901.683000", "183901.687000", "183901.690000", "183901.693000", "183901.707000", "183901.710000", "183901.714000", "183901.717000", "183901.721000", "183901.724000", "183901.728000", "183901.731000", "183901.734000", "183901.738000", "183901.741000", "183941.641000", "183941.645000", "183941.649000", "183941.652000", "183941.656000", "183941.659000", "183941.663000", "183941.666000", "183941.669000", "183941.673000", "183941.676000", "183941.680000", "183941.683000", "183941.687000", "183941.690000", "183941.693000", "183941.697000", "183941.700000", "183941.704000", "183941.707000", "183941.711000", "183941.714000", "183941.718000", "183941.722000", "183941.725000", "183941.729000", "183953.395000", "183953.399000", "183953.403000", "183953.406000", "183953.410000", "183953.413000", "183953.416000", "183953.420000"],
      "InstanceNumber": [1, 2, 3, 4, 5, 6, 7, 8, 9, 10, 11, 12, 13, 14, 15, 16, 17, 18, 19, 20, 21, 22, 23, 24, 25, 26, 27, 28, 29, 30, 31, 32, 33, 34, 35, 36, 37, 38, 39, 40, 41, 42, 43, 44, 45, 46, 47, 48, 49, 50, 51, 52, 53, 54, 55, 56, 57, 58, 59, 60, 61, 62, 63, 64, 65, 66, 67, 68, 69, 70, 71, 72, 73, 74, 75, 76, 77, 78, 79, 80, 81, 82, 83, 84, 85, 86, 87, 88, 89, 90, 91, 92, 93, 94, 95, 96, 97, 98, 99, 100, 101, 102, 103, 104, 105, 106, 107, 108, 109, 110, 111, 112, 113, 114, 115, 116, 117, 118, 119, 120, 121, 122, 123, 124, 125, 126, 127, 128, 129, 130, 131, 132, 133, 134, 135, 136, 137, 138, 139, 140, 141, 142, 143, 144, 145, 146, 147, 148, 149, 150, 151, 152, 153, 154, 155, 156, 157, 158, 159, 160, 161, 162, 163, 164, 165, 166, 167, 168, 169, 170, 171, 172, 173, 174, 175, 176, 177, 178, 179, 180, 181, 182, 183, 184, 185, 186, 187, 188, 189, 190, 191, 192, 193, 194, 195, 196, 197, 198, 199, 200, 201, 202, 203, 204, 205, 206, 207, 208, 209, 210, 211, 212, 213, 214, 215, 216, 217, 218, 219, 220, 221, 222, 223, 224, 225, 226, 227, 228, 229, 230, 231, 232, 233, 234, 235, 236, 237, 238, 239, 240, 241, 242, 243, 244, 245, 246, 247, 248, 249, 250, 251, 252, 253, 254, 255, 256, 257, 258, 259, 260, 261, 262, 263, 264, 265, 266, 267, 268, 269, 270, 271, 272, 273, 274, 275, 276, 277, 278, 279, 280, 281, 282, 283, 284, 285, 286, 287, 288, 289, 290, 291, 292, 293, 294, 295, 296, 297, 298, 299, 300, 301, 302, 303, 304, 305, 306, 307, 308, 309, 310, 311, 312, 313, 314, 315, 316, 317, 318, 319, 320, 321, 322, 323, 324, 325, 326, 327, 328, 329, 330, 331, 332, 333, 334, 335, 336, 337, 338, 339, 340, 341, 342, 343, 344, 345, 346, 347, 348, 349, 350, 351, 352, 353, 354, 355, 356, 357, 358, 359, 360, 361, 362],
