{
  "AcquisitionMatrixPE": 104,
  "AcquisitionNumber": 1,
  "AcquisitionTime": "18:50:0.802500",
  "BandwidthPerPixelPhaseEncode": 17.17,
  "BaseResolution": 104,
  "BodyPartExamined": "BRAIN",
  "CoilCombinationMethod": "Sum of Squares",
  "ConsistencyInfo": "N4_VE11C_LATEST_20160120",
  "ConversionSoftware": "dcm2niix",
  "ConversionSoftwareVersion": "v1.0.20220505",
  "DerivedVendorReportedEchoSpacing": 0.000560011,
  "DeviceSerialNumber": "167006",
  "DwellTime": 2.1e-06,
  "EchoTime": 0.037,
  "EchoTrainLength": 104,
  "EffectiveEchoSpacing": 0.000560011,
  "FlipAngle": 52,
  "HeudiconvVersion": "0.5.3.post811+g6206e14",
  "ImageComments": "Unaliased MB4/PE3/LB",
  "ImageOrientationPatientDICOM": [0.999729, 0.0102788, 0.0209107, -0.0043622, 0.964136, -0.265374],
  "ImageOrientationText": "Tra>Cor(-15.4)>Sag(1.3)",
  "ImageType": [
    "ORIGINAL",
    "PRIMARY",
    "M",
    "MB",
    "ND",
    "MOSAIC"
],
  "ImagingFrequency": 123.259,
  "InPlanePhaseEncodingDirectionDICOM": "COL",
  "InstitutionAddress": "Chemin Queen-Mary 4565,Montreal,District,CA,H3W 1W5",
  "InstitutionName": "IUGM",
  "InstitutionalDepartmentName": "Department",
  "MRAcquisitionType": "2D",
  "MagneticFieldStrength": 3,
  "Manufacturer": "Siemens",
  "ManufacturersModelName": "Prisma_fit",
  "MatrixCoilMode": "SENSE",
  "Modality": "MR",
  "MultibandAccelerationFactor": 4,
  "PartialFourier": 1,
  "PatientPosition": "HFS",
  "PercentPhaseFOV": 100,
  "PercentSampling": 100,
  "PhaseEncodingDirection": "j",
  "PhaseEncodingSteps": 104,
  "PhaseResolution": 1,
  "PixelBandwidth": 2290,
  "ProcedureStepDescription": "games^mario3",
  "ProtocolName": "func_task-mario3_run-05",
  "PulseSequenceDetails": "%CustomerSeq%\\cmrr_mbep2d_bold",
  "ReceiveCoilActiveElements": "HC1-7;NC1,2",
  "ReceiveCoilName": "HeadNeck_64",
  "ReconMatrixPE": 104,
  "RepetitionTime": 1.49,
  "SAR": 0.0588891,
  "ScanOptions": "FS",
  "ScanningSequence": "EP",
  "SequenceName": "epfid2d1_104",
  "SequenceVariant": "SK\\SS",
  "SeriesDescription": "func_task-mario3_run-05",
  "SeriesNumber": 22,
  "ShimSetting": [642, -7213, -8768, 706, 82, 31, 47, -17],
  "SliceThickness": 2,
  "SliceTiming": [0, 0.785, 0.0975, 0.8825, 0.1975, 0.98, 0.295, 1.0775, 0.3925, 1.175, 0.49, 1.275, 0.5875, 1.3725, 0.6875, 0, 0.785, 0.0975, 0.8825, 0.1975, 0.98, 0.295, 1.0775, 0.3925, 1.175, 0.49, 1.275, 0.5875, 1.3725, 0.6875, 0, 0.785, 0.0975, 0.8825, 0.1975, 0.98, 0.295, 1.0775, 0.3925, 1.175, 0.49, 1.275, 0.5875, 1.3725, 0.6875, 0, 0.785, 0.0975, 0.8825, 0.1975, 0.98, 0.295, 1.0775, 0.3925, 1.175, 0.49, 1.275, 0.5875, 1.3725, 0.6875],
  "SoftwareVersions": "syngo MR E11",
  "SpacingBetweenSlices": 2,
  "StationName": "MRC35049",
  "TaskName": "mario3",
  "TotalReadoutTime": 0.0576811,
  "TxRefAmp": 251.722,
  "WipMemBlock": "2c7a6515-0261-4fb7-8a7f-1c1ea8ef4ea3||Sequence: R017 ve11c/master r/75a17815+; Jun 28 2022 16:32:11 by eja",
  "dcmmeta_affine": [
    [-1.9994570016860962, -0.008724396117031574, 0.045777060091495514, 108.27404022216797],
    [-0.02055763639509678, 1.9282715320587158, -0.5304208397865295, -71.975341796875],
    [0.041821498423814774, 0.5307473540306091, 1.9278377294540405, -57.614044189453125],
    [0.0, 0.0, 0.0, 1.0]
],
  "dcmmeta_reorient_transform": [
    [0.0, -1.0, 0.0, 103.0],
    [1.0, 0.0, 0.0, 0.0],
    [0.0, 0.0, 1.0, 0.0],
    [0.0, 0.0, 0.0, 1.0]
],
  "dcmmeta_shape": [104, 104, 60, 350],
  "dcmmeta_slice_dim": 2,
  "dcmmeta_version": 0.6,
  "global": {
    "const": {
      "AcquisitionMatrix": [104, 0, 0, 104],
      "AngioFlag": "N",
      "BitsAllocated": 16,
      "BitsStored": 16,
      "BodyPartExamined": "BRAIN",
      "Columns": 832,
      "EchoNumbers": 1,
      "EchoTime": 37.0,
      "EchoTrainLength": 104,
      "FlipAngle": 52.0,
      "HighBit": 15,
      "ImageOrientationPatient": [0.99972850635729, 0.01027881841347, 0.02091075007376, -0.0043621981171, 0.96413576918669, -0.2653736795584],
      "ImagePositionPatient": [-832.00209758605, -836.01044893777, 175.02194532561],
      "ImageType": [
        "ORIGINAL",
        "PRIMARY",
        "M",
        "MB",
        "ND",
        "MOSAIC"
],
      "ImagedNucleus": "1H",
      "ImagingFrequency": 123.258821,
      "InPlanePhaseEncodingDirection": "COL",
      "MRAcquisitionType": "2D",
      "MagneticFieldStrength": 3.0,
      "Manufacturer": "SIEMENS",
      "ManufacturerModelName": "Prisma_fit",
      "Modality": "MR",
      "NumberOfAverages": 1.0,
      "NumberOfPhaseEncodingSteps": 104,
      "PercentPhaseFieldOfView": 100.0,
      "PercentSampling": 100.0,
      "PerformedProcedureStepStartTime": "180745.266000",
      "PhotometricInterpretation": "MONOCHROME2",
      "PixelBandwidth": 2290.0,
      "PixelRepresentation": 0,
      "PixelSpacing": [2.0, 2.0],
      "ProtocolName": "func_task-mario3_run-05",
      "RepetitionTime": 1490.0,
      "Rows": 832,
      "SAR": 0.05888914718279,
      "SamplesPerPixel": 1,
      "ScanOptions": "FS",
      "ScanningSequence": "EP",
      "SequenceName": "epfid2d1_104",
      "SequenceVariant": [
        "SK",
        "SS"
],
      "SeriesDescription": "func_task-mario3_run-05",
      "SeriesNumber": 22,
      "SeriesTime": "185113.242000",
      "SliceLocation": -33.968421157915,
      "SliceThickness": 2.0,
      "SmallestImagePixelValue": 0,
      "SoftwareVersions": "syngo MR E11",
      "SpacingBetweenSlices": 2.0000000529292,
      "SpecificCharacterSet": "ISO_IR 100",
      "StudyID": "1",
      "StudyTime": "180745.185000",
      "TransmitCoilName": "Body",
      "VariableFlipAngleFlag": "N",
      "WindowCenterWidthExplanation": "Algo1",
      "dBdt": 0.0},
    "slices": {}
  },
  "time": {
    "samples": {
      "AcquisitionNumber": [1, 2, 3, 4, 5, 6, 7, 8, 9, 10, 11, 12, 13, 14, 15, 16, 17, 18, 19, 20, 21, 22, 23, 24, 25, 26, 27, 28, 29, 30, 31, 32, 33, 34, 35, 36, 37, 38, 39, 40, 41, 42, 43, 44, 45, 46, 47, 48, 49, 50, 51, 52, 53, 54, 55, 56, 57, 58, 59, 60, 61, 62, 63, 64, 65, 66, 67, 68, 69, 70, 71, 72, 73, 74, 75, 76, 77, 78, 79, 80, 81, 82, 83, 84, 85, 86, 87, 88, 89, 90, 91, 92, 93, 94, 95, 96, 97, 98, 99, 100, 101, 102, 103, 104, 105, 106, 107, 108, 109, 110, 111, 112, 113, 114, 115, 116, 117, 118, 119, 120, 121, 122, 123, 124, 125, 126, 127, 128, 129, 130, 131, 132, 133, 134, 135, 136, 137, 138, 139, 140, 141, 142, 143, 144, 145, 146, 147, 148, 149, 150, 151, 152, 153, 154, 155, 156, 157, 158, 159, 160, 161, 162, 163, 164, 165, 166, 167, 168, 169, 170, 171, 172, 173, 174, 175, 176, 177, 178, 179, 180, 181, 182, 183, 184, 185, 186, 187, 188, 189, 190, 191, 192, 193, 194, 195, 196, 197, 198, 199, 200, 201, 202, 203, 204, 205, 206, 207, 208, 209, 210, 211, 212, 213, 214, 215, 216, 217, 218, 219, 220, 221, 222, 223, 224, 225, 226, 227, 228, 229, 230, 231, 232, 233, 234, 235, 236, 237, 238, 239, 240, 241, 242, 243, 244, 245, 246, 247, 248, 249, 250, 251, 252, 253, 254, 255, 256, 257, 258, 259, 260, 261, 262, 263, 264, 265, 266, 267, 268, 269, 270, 271, 272, 273, 274, 275, 276, 277, 278, 279, 280, 281, 282, 283, 284, 285, 286, 287, 288, 289, 290, 291, 292, 293, 294, 295, 296, 297, 298, 299, 300, 301, 302, 303, 304, 305, 306, 307, 308, 309, 310, 311, 312, 313, 314, 315, 316, 317, 318, 319, 320, 321, 322, 323, 324, 325, 326, 327, 328, 329, 330, 331, 332, 333, 334, 335, 336, 337, 338, 339, 340, 341, 342, 343, 344, 345, 346, 347, 348, 349, 350],
      "AcquisitionTime": ["185000.802500", "185002.292500", "185003.782500", "185005.272500", "185006.762500", "185008.252500", "185009.742500", "185011.232500", "185012.722500", "185014.212500", "185015.702500", "185017.192500", "185018.682500", "185020.172500", "185021.662500", "185023.152500", "185024.642500", "185026.132500", "185027.622500", "185029.112500", "185030.602500", "185032.092500", "185033.582500", "185035.072500", "185036.562500", "185038.052500", "185039.542500", "185041.032500", "185042.522500", "185044.012500", "185045.502500", "185046.992500", "185048.482500", "185049.972500", "185051.462500", "185052.952500", "185054.442500", "185055.932500", "185057.422500", "185058.912500", "185100.402500", "185101.892500", "185103.382500", "185104.872500", "185106.362500", "185107.852500", "185109.342500", "185110.832500", "185112.322500", "185113.812500", "185115.302500", "185116.792500", "185118.282500", "185119.772500", "185121.262500", "185122.752500", "185124.242500", "185125.732500", "185127.222500", "185128.712500", "185130.202500", "185131.692500", "185133.182500", "185134.672500", "185136.162500", "185137.652500", "185139.142500", "185140.632500", "185142.122500", "185143.612500", "185145.102500", "185146.592500", "185148.082500", "185149.572500", "185151.062500", "185152.552500", "185154.042500", "185155.532500", "185157.022500", "185158.512500", "185200.002500", "185201.492500", "185202.982500", "185204.472500", "185205.962500", "185207.452500", "185208.942500", "185210.432500", "185211.922500", "185213.412500", "185214.902500", "185216.392500", "185217.882500", "185219.372500", "185220.862500", "185222.352500", "185223.842500", "185225.332500", "185226.822500", "185228.312500", "185229.802500", "185231.292500", "185232.782500", "185234.272500", "185235.762500", "185237.252500", "185238.742500", "185240.232500", "185241.722500", "185243.212500", "185244.702500", "185246.192500", "185247.682500", "185249.172500", "185250.662500", "185252.152500", "185253.642500", "185255.132500", "185256.622500", "185258.112500", "185259.602500", "185301.092500", "185302.582500", "185304.072500", "185305.562500", "185307.052500", "185308.542500", "185310.032500", "185311.522500", "185313.012500", "185314.502500", "185315.992500", "185317.482500", "185318.972500", "185320.462500", "185321.952500", "185323.442500", "185324.932500", "185326.422500", "185327.912500", "185329.402500", "185330.892500", "185332.382500", "185333.872500", "185335.362500", "185336.852500", "185338.342500", "185339.832500", "185341.322500", "185342.812500", "185344.302500", "185345.792500", "185347.282500", "185348.772500", "185350.262500", "185351.752500", "185353.242500", "185354.732500", "185356.222500", "185357.712500", "185359.202500", "185400.692500", "185402.182500", "185403.672500", "185405.162500", "185406.652500", "185408.142500", "185409.632500", "185411.122500", "185412.612500", "185414.102500", "185415.592500", "185417.082500", "185418.572500", "185420.062500", "185421.552500", "185423.042500", "185424.532500", "185426.022500", "185427.512500", "185429.002500", "185430.492500", "185431.982500", "185433.472500", "185434.962500", "185436.452500", "185437.942500", "185439.432500", "185440.922500", "185442.412500", "185443.902500", "185445.392500", "185446.882500", "185448.372500", "185449.862500", "185451.352500", "185452.842500", "185454.332500", "185455.822500", "185457.312500", "185458.802500", "185500.292500", "185501.782500", "185503.272500", "185504.762500", "185506.252500", "185507.742500", "185509.232500", "185510.722500", "185512.212500", "185513.702500", "185515.192500", "185516.682500", "185518.172500", "185519.662500", "185521.152500", "185522.642500", "185524.132500", "185525.622500", "185527.112500", "185528.602500", "185530.092500", "185531.582500", "185533.072500", "185534.562500", "185536.052500", "185537.542500", "185539.032500", "185540.522500", "185542.012500", "185543.502500", "185544.992500", "185546.482500", "185547.972500", "185549.462500", "185550.952500", "185552.442500", "185553.932500", "185555.422500", "185556.912500", "185558.402500", "185559.892500", "185601.382500", "185602.872500", "185604.362500", "185605.852500", "185607.342500", "185608.832500", "185610.322500", "185611.812500", "185613.302500", "185614.792500", "185616.282500", "185617.772500", "185619.262500", "185620.752500", "185622.242500", "185623.732500", "185625.222500", "185626.712500", "185628.202500", "185629.692500", "185631.182500", "185632.672500", "185634.162500", "185635.652500", "185637.142500", "185638.632500", "185640.122500", "185641.612500", "185643.102500", "185644.592500", "185646.082500", "185647.572500", "185649.062500", "185650.552500", "185652.042500", "185653.532500", "185655.022500", "185656.512500", "185658.002500", "185659.492500", "185700.982500", "185702.472500", "185703.962500", "185705.452500", "185706.942500", "185708.432500", "185709.922500", "185711.412500", "185712.902500", "185714.392500", "185715.882500", "185717.372500", "185718.862500", "185720.352500", "185721.842500", "185723.332500", "185724.822500", "185726.312500", "185727.802500", "185729.292500", "185730.782500", "185732.272500", "185733.762500", "185735.252500", "185736.742500", "185738.232500", "185739.722500", "185741.212500", "185742.702500", "185744.192500", "185745.682500", "185747.172500", "185748.662500", "185750.152500", "185751.642500", "185753.132500", "185754.622500", "185756.112500", "185757.602500", "185759.092500", "185800.582500", "185802.072500", "185803.562500", "185805.052500", "185806.542500", "185808.032500", "185809.522500", "185811.012500", "185812.502500", "185813.992500", "185815.482500", "185816.972500", "185818.462500", "185819.952500", "185821.442500", "185822.932500", "185824.422500", "185825.912500", "185827.402500", "185828.892500", "185830.382500", "185831.872500", "185833.362500", "185834.852500", "185836.342500", "185837.832500", "185839.322500", "185840.812500"],
      "ContentTime": ["185113.246000", "185113.250000", "185113.253000", "185113.257000", "185113.260000", "185113.264000", "185113.267000", "185113.271000", "185113.274000", "185113.277000", "185113.281000", "185113.284000", "185113.288000", "185113.298000", "185113.302000", "185113.305000", "185113.308000", "185113.312000", "185113.315000", "185113.319000", "185113.322000", "185113.325000", "185113.329000", "185133.215000", "185133.219000", "185133.222000", "185133.226000", "185133.229000", "185133.233000", "185133.236000", "185133.240000", "185133.243000", "185133.246000", "185133.250000", "185133.253000", "185133.257000", "185133.260000", "185133.264000", "185133.267000", "185133.271000", "185133.274000", "185133.278000", "185133.281000", "185153.215000", "185153.219000", "185153.222000", "185153.226000", "185153.229000", "185153.233000", "185153.236000", "185153.240000", "185153.243000", "185153.246000", "185153.250000", "185153.253000", "185153.256000", "185153.260000", "185153.263000", "185153.267000", "185153.270000", "185153.274000", "185153.277000", "185153.280000", "185153.284000", "185213.215000", "185213.219000", "185213.222000", "185213.226000", "185213.229000", "185213.233000", "185213.236000", "185213.239000", "185213.243000", "185213.246000", "185213.250000", "185213.253000", "185213.256000", "185213.260000", "185213.263000", "185213.267000", "185213.270000", "185213.274000", "185213.277000", "185213.280000", "185253.215000", "185253.229000", "185253.232000", "185253.235000", "185253.239000", "185253.242000", "185253.246000", "185253.249000", "185253.252000", "185253.256000", "185253.259000", "185253.263000", "185253.266000", "185253.270000", "185253.273000", "185253.277000", "185253.280000", "185253.284000", "185253.287000", "185253.290000", "185253.294000", "185253.297000", "185253.301000", "185253.304000", "185253.308000", "185253.311000", "185253.314000", "185253.318000", "185253.321000", "185253.325000", "185253.328000", "185333.215000", "185333.219000", "185333.223000", "185333.226000", "185333.229000", "185333.233000", "185333.236000", "185333.240000", "185333.243000", "185333.247000", "185333.250000", "185333.254000", "185333.257000", "185333.260000", "185333.264000", "185333.267000", "185333.271000", "185333.274000", "185333.277000", "185333.281000", "185333.284000", "185333.288000", "185333.291000", "185333.295000", "185333.298000", "185333.301000", "185333.305000", "185413.215000", "185413.219000", "185413.222000", "185413.226000", "185413.229000", "185413.233000", "185413.236000", "185413.240000", "185413.243000", "185413.247000", "185413.250000", "185413.254000", "185413.257000", "185413.260000", "185413.264000", "185413.267000", "185413.271000", "185413.274000", "185413.278000", "185413.281000", "185413.285000", "185413.288000", "185413.291000", "185413.295000", "185413.298000", "185413.302000", "185413.305000", "185453.215000", "185453.219000", "185453.223000", "185453.226000", "185453.229000", "185453.233000", "185453.236000", "185453.240000", "185453.243000", "185453.247000", "185453.250000", "185453.254000", "185453.257000", "185453.260000", "185453.264000", "185453.267000", "185453.271000", "185453.274000", "185453.278000", "185453.281000", "185453.284000", "185453.288000", "185453.291000", "185453.295000", "185453.298000", "185453.302000", "185453.305000", "185533.215000", "185533.219000", "185533.222000", "185533.226000", "185533.229000", "185533.233000", "185533.236000", "185533.240000", "185533.243000", "185533.247000", "185533.250000", "185533.253000", "185533.257000", "185533.260000", "185533.264000", "185533.267000", "185533.271000", "185533.274000", "185533.278000", "185533.282000", "185533.286000", "185533.289000", "185533.292000", "185533.296000", "185533.299000", "185533.303000", "185613.215000", "185613.219000", "185613.222000", "185613.226000", "185613.229000", "185613.233000", "185613.236000", "185613.240000", "185613.243000", "185613.246000", "185613.250000", "185613.253000", "185613.257000", "185613.260000", "185613.264000", "185613.267000", "185613.270000", "185613.274000", "185613.277000", "185613.281000", "185613.284000", "185613.288000", "185613.291000", "185613.294000", "185613.298000", "185613.301000", "185613.305000", "185653.215000", "185653.219000", "185653.223000", "185653.226000", "185653.229000", "185653.233000", "185653.236000", "185653.240000", "185653.243000", "185653.247000", "185653.250000", "185653.261000", "185653.264000", "185653.268000", "185653.271000", "185653.275000", "185653.278000", "185653.281000", "185653.285000", "185653.288000", "185653.292000", "185653.295000", "185653.299000", "185653.302000", "185653.306000", "185653.310000", "185653.313000", "185733.215000", "185733.219000", "185733.223000", "185733.226000", "185733.229000", "185733.233000", "185733.236000", "185733.240000", "185733.243000", "185733.247000", "185733.250000", "185733.253000", "185733.257000", "185733.260000", "185733.264000", "185733.267000", "185733.271000", "185733.274000", "185733.278000", "185733.281000", "185733.284000", "185733.288000", "185733.291000", "185733.295000", "185733.298000", "185733.302000", "185733.305000", "185813.216000", "185813.219000", "185813.223000", "185813.226000", "185813.230000", "185813.233000", "185813.237000", "185813.240000", "185813.243000", "185813.247000", "185813.250000", "185813.254000", "185813.257000", "185813.261000", "185813.264000", "185813.268000", "185813.271000", "185813.275000", "185813.278000", "185813.282000", "185813.285000", "185813.288000", "185813.292000", "185813.295000", "185813.299000", "185813.302000", "185813.306000", "185843.651000", "185843.655000", "185843.658000", "185843.662000", "185843.665000", "185843.669000", "185843.672000", "185843.676000", "185843.679000", "185843.683000", "185843.686000", "185843.689000", "185843.693000", "185843.696000", "185843.700000", "185843.703000", "185843.707000", "185843.710000", "185843.713000", "185843.717000"],
      "InstanceCreationTime": ["185113.246000", "185113.250000", "185113.253000", "185113.257000", "185113.260000", "185113.264000", "185113.267000", "185113.271000", "185113.274000", "185113.277000", "185113.281000", "185113.284000", "185113.288000", "185113.298000", "185113.302000", "185113.305000", "185113.308000", "185113.312000", "185113.315000", "185113.319000", "185113.322000", "185113.325000", "185113.329000", "185133.215000", "185133.219000", "185133.222000", "185133.226000", "185133.229000", "185133.233000", "185133.236000", "185133.240000", "185133.243000", "185133.246000", "185133.250000", "185133.253000", "185133.257000", "185133.260000", "185133.264000", "185133.267000", "185133.271000", "185133.274000", "185133.278000", "185133.281000", "185153.215000", "185153.219000", "185153.222000", "185153.226000", "185153.229000", "185153.233000", "185153.236000", "185153.240000", "185153.243000", "185153.246000", "185153.250000", "185153.253000", "185153.256000", "185153.260000", "185153.263000", "185153.267000", "185153.270000", "185153.274000", "185153.277000", "185153.280000", "185153.284000", "185213.215000", "185213.219000", "185213.222000", "185213.226000", "185213.229000", "185213.233000", "185213.236000", "185213.239000", "185213.243000", "185213.246000", "185213.250000", "185213.253000", "185213.256000", "185213.260000", "185213.263000", "185213.267000", "185213.270000", "185213.274000", "185213.277000", "185213.280000", "185253.215000", "185253.229000", "185253.232000", "185253.235000", "185253.239000", "185253.242000", "185253.246000", "185253.249000", "185253.252000", "185253.256000", "185253.259000", "185253.263000", "185253.266000", "185253.270000", "185253.273000", "185253.277000", "185253.280000", "185253.284000", "185253.287000", "185253.290000", "185253.294000", "185253.297000", "185253.301000", "185253.304000", "185253.308000", "185253.311000", "185253.314000", "185253.318000", "185253.321000", "185253.325000", "185253.328000", "185333.215000", "185333.219000", "185333.223000", "185333.226000", "185333.229000", "185333.233000", "185333.236000", "185333.240000", "185333.243000", "185333.247000", "185333.250000", "185333.254000", "185333.257000", "185333.260000", "185333.264000", "185333.267000", "185333.271000", "185333.274000", "185333.277000", "185333.281000", "185333.284000", "185333.288000", "185333.291000", "185333.295000", "185333.298000", "185333.301000", "185333.305000", "185413.215000", "185413.219000", "185413.222000", "185413.226000", "185413.229000", "185413.233000", "185413.236000", "185413.240000", "185413.243000", "185413.247000", "185413.250000", "185413.254000", "185413.257000", "185413.260000", "185413.264000", "185413.267000", "185413.271000", "185413.274000", "185413.278000", "185413.281000", "185413.285000", "185413.288000", "185413.291000", "185413.295000", "185413.298000", "185413.302000", "185413.305000", "185453.215000", "185453.219000", "185453.223000", "185453.226000", "185453.229000", "185453.233000", "185453.236000", "185453.240000", "185453.243000", "185453.247000", "185453.250000", "185453.254000", "185453.257000", "185453.260000", "185453.264000", "185453.267000", "185453.271000", "185453.274000", "185453.278000", "185453.281000", "185453.284000", "185453.288000", "185453.291000", "185453.295000", "185453.298000", "185453.302000", "185453.305000", "185533.215000", "185533.219000", "185533.222000", "185533.226000", "185533.229000", "185533.233000", "185533.236000", "185533.240000", "185533.243000", "185533.247000", "185533.250000", "185533.253000", "185533.257000", "185533.260000", "185533.264000", "185533.267000", "185533.271000", "185533.274000", "185533.278000", "185533.282000", "185533.286000", "185533.289000", "185533.292000", "185533.296000", "185533.299000", "185533.303000", "185613.215000", "185613.219000", "185613.222000", "185613.226000", "185613.229000", "185613.233000", "185613.236000", "185613.240000", "185613.243000", "185613.246000", "185613.250000", "185613.253000", "185613.257000", "185613.260000", "185613.264000", "185613.267000", "185613.270000", "185613.274000", "185613.277000", "185613.281000", "185613.284000", "185613.288000", "185613.291000", "185613.294000", "185613.298000", "185613.301000", "185613.305000", "185653.215000", "185653.219000", "185653.223000", "185653.226000", "185653.229000", "185653.233000", "185653.236000", "185653.240000", "185653.243000", "185653.247000", "185653.250000", "185653.261000", "185653.264000", "185653.268000", "185653.271000", "185653.275000", "185653.278000", "185653.281000", "185653.285000", "185653.288000", "185653.292000", "185653.295000", "185653.299000", "185653.302000", "185653.306000", "185653.310000", "185653.313000", "185733.215000", "185733.219000", "185733.223000", "185733.226000", "185733.229000", "185733.233000", "185733.236000", "185733.240000", "185733.243000", "185733.247000", "185733.250000", "185733.253000", "185733.257000", "185733.260000", "185733.264000", "185733.267000", "185733.271000", "185733.274000", "185733.278000", "185733.281000", "185733.284000", "185733.288000", "185733.291000", "185733.295000", "185733.298000", "185733.302000", "185733.305000", "185813.216000", "185813.219000", "185813.223000", "185813.226000", "185813.230000", "185813.233000", "185813.237000", "185813.240000", "185813.243000", "185813.247000", "185813.250000", "185813.254000", "185813.257000", "185813.261000", "185813.264000", "185813.268000", "185813.271000", "185813.275000", "185813.278000", "185813.282000", "185813.285000", "185813.288000", "185813.292000", "185813.295000", "185813.299000", "185813.302000", "185813.306000", "185843.651000", "185843.655000", "185843.658000", "185843.662000", "185843.665000", "185843.669000", "185843.672000", "185843.676000", "185843.679000", "185843.683000", "185843.686000", "185843.689000", "185843.693000", "185843.696000", "185843.700000", "185843.703000", "185843.707000", "185843.710000", "185843.713000", "185843.717000"],
      "InstanceNumber": [1, 2, 3, 4, 5, 6, 7, 8, 9, 10, 11, 12, 13, 14, 15, 16, 17, 18, 19, 20, 21, 22, 23, 24, 25, 26, 27, 28, 29, 30, 31, 32, 33, 34, 35, 36, 37, 38, 39, 40, 41, 42, 43, 44, 45, 46, 47, 48, 49, 50, 51, 52, 53, 54, 55, 56, 57, 58, 59, 60, 61, 62, 63, 64, 65, 66, 67, 68, 69, 70, 71, 72, 73, 74, 75, 76, 77, 78, 79, 80, 81, 82, 83, 84, 85, 86, 87, 88, 89, 90, 91, 92, 93, 94, 95, 96, 97, 98, 99, 100, 101, 102, 103, 104, 105, 106, 107, 108, 109, 110, 111, 112, 113, 114, 115, 116, 117, 118, 119, 120, 121, 122, 123, 124, 125, 126, 127, 128, 129, 130, 131, 132, 133, 134, 135, 136, 137, 138, 139, 140, 141, 142, 143, 144, 145, 146, 147, 148, 149, 150, 151, 152, 153, 154, 155, 156, 157, 158, 159, 160, 161, 162, 163, 164, 165, 166, 167, 168, 169, 170, 171, 172, 173, 174, 175, 176, 177, 178, 179, 180, 181, 182, 183, 184, 185, 186, 187, 188, 189, 190, 191, 192, 193, 194, 195, 196, 197, 198, 199, 200, 201, 202, 203, 204, 205, 206, 207, 208, 209, 210, 211, 212, 213, 214, 215, 216, 217, 218, 219, 220, 221, 222, 223, 224, 225, 226, 227, 228, 229, 230, 231, 232, 233, 234, 235, 236, 237, 238, 239, 240, 241, 242, 243, 244, 245, 246, 247, 248, 249, 250, 251, 252, 253, 254, 255, 256, 257, 258, 259, 260, 261, 262, 263, 264, 265, 266, 267, 268, 269, 270, 271, 272, 273, 274, 275, 276, 277, 278, 279, 280, 281, 282, 283, 284, 285, 286, 287, 288, 289, 290, 291, 292, 293, 294, 295, 296, 297, 298, 299, 300, 301, 302, 303, 304, 305, 306, 307, 308, 309, 310, 311, 312, 313, 314, 315, 316, 317, 318, 319, 320, 321, 322, 323, 324, 325, 326, 327, 328, 329, 330, 331, 332, 333, 334, 335, 336, 337, 338, 339, 340, 341, 342, 343, 344, 345, 346, 347, 348, 349, 350],
      "LargestImagePixelValue": [40907, 39121, 38631, 38531, 38795, 39034, 39979, 40037, 39921, 38403, 39053, 39594, 39183, 38610, 38579, 38414, 38522, 38466, 38522, 38672, 39251, 38024, 38067, 37910, 38158, 38306, 38558, 38779, 38614, 39304, 38652, 38305, 38135, 38264, 38576, 39260, 39090, 38186, 38812, 38644, 39359, 39709, 39584, 38759, 39960, 39662, 39208, 39970, 39569, 39225, 40053, 39923, 39639, 39351, 38526, 39461, 39844, 39716, 40201, 39368, 40417, 39919, 40181, 38901, 38122, 38574, 38814, 39111, 39278, 39276, 39356, 39617, 39671, 40501, 40279, 40208, 40605, 39879, 40013, 39899, 39958, 39713, 39561, 39836, 39649, 39382, 39662, 38581, 39359, 38834, 37776, 37955, 38657, 38692, 38902, 38424, 38634, 39520, 39658, 40096, 39588, 39106, 39054, 38757, 39336, 38756, 38814, 38691, 38850, 38923, 39288, 38900, 39227, 38402, 38619, 38786, 38335, 38553, 38926, 38430, 39256, 39032, 38872, 38884, 39269, 38603, 38826, 39648, 38730, 39046, 39012, 38916, 38909, 39693, 38916, 38792, 39046, 38348, 38915, 39075, 39010, 38987, 38046, 38456, 38581, 38431, 38185, 37785, 38073, 38055, 38601, 38596, 38793, 39130, 39046, 38945, 39203, 39503, 39379, 39407, 38236, 39558, 38622, 37766, 38134, 38559, 38296, 39054, 38721, 38445, 39031, 38855, 39776, 39586, 39354, 38566, 39062, 39157, 39195, 38951, 38507, 38069, 38284, 38430, 39196, 38847, 38772, 38687, 38693, 39146, 38778, 38674, 39171, 38940, 38667, 38853, 38183, 38745, 38098, 38555, 38518, 38829, 38450, 38585, 38876, 38823, 38780, 38507, 37965, 37982, 37806, 38531, 38507, 38235, 38529, 38766, 38840, 38907, 38553, 38814, 38950, 38789, 39068, 39506, 39388, 39249, 39018, 38420, 39226, 38791, 38555, 38119, 39521, 39223, 38681, 39533, 39262, 38714, 38153, 37941, 38091, 38433, 38779, 38689, 38914, 38224, 38304, 38324, 38262, 38970, 38385, 39509, 39210, 39398, 38493, 38443, 38867, 39236, 38893, 39057, 39118, 39324, 39758, 38835, 39087, 39666, 39371, 38972, 38927, 39026, 38331, 38318, 39013, 39672, 40099, 38823, 38217, 39563, 38564, 38858, 38719, 38495, 38794, 39029, 38883, 38581, 41060, 38747, 38623, 38909, 38979, 38520, 39014, 39029, 38619, 39443, 38885, 38957, 39015, 39291, 38920, 38878, 38640, 38798, 39541, 39036, 38832, 38787, 38149, 38378, 38818, 38818, 38629, 38696, 38637, 38417, 38694, 38590, 38385, 38346, 37964, 38041, 38345, 38513, 38688, 38534, 38530, 38703, 38830, 38611, 38835, 38485, 38448, 38666, 38507, 38080, 39147, 38822, 38144, 38625, 38061, 38707, 38480, 38594, 38493, 38635, 38759, 38402, 38686, 38457],
