{
  "AcquisitionMatrixPE": 104,
  "AcquisitionNumber": 1,
  "AcquisitionTime": "18:10:48.800000",
  "BandwidthPerPixelPhaseEncode": 17.17,
  "BaseResolution": 104,
  "BodyPartExamined": "BRAIN",
  "CoilCombinationMethod": "Sum of Squares",
  "ConsistencyInfo": "N4_VE11C_LATEST_20160120",
  "ConversionSoftware": "dcm2niix",
  "ConversionSoftwareVersion": "v1.0.20220505",
  "DerivedVendorReportedEchoSpacing": 0.000560011,
  "DeviceSerialNumber": "167006",
  "DwellTime": 2.1e-06,
  "EchoTime": 0.037,
  "EchoTime1": 0.037,
  "EchoTime2": 0.001,
  "EchoTrainLength": 104,
  "EffectiveEchoSpacing": 0.000560011,
  "FlipAngle": 52,
  "HeudiconvVersion": "0.5.3.post811+g6206e14",
  "ImageComments": "Unaliased MB4/PE3/LB",
  "ImageOrientationPatientDICOM": [0.999729, 0.0102788, 0.0209107, -0.0043622, 0.964136, -0.265374],
  "ImageOrientationText": "Tra>Cor(-15.4)>Sag(1.3)",
  "ImageType": [
    "ORIGINAL",
    "PRIMARY",
    "P",
    "MB",
    "ND",
    "MOSAIC",
    "PHASE"
],
  "ImagingFrequency": 123.259,
  "InPlanePhaseEncodingDirectionDICOM": "COL",
  "InstitutionAddress": "Chemin Queen-Mary 4565,Montreal,District,CA,H3W 1W5",
  "InstitutionName": "IUGM",
  "InstitutionalDepartmentName": "Department",
  "MRAcquisitionType": "2D",
  "MagneticFieldStrength": 3,
  "Manufacturer": "Siemens",
  "ManufacturersModelName": "Prisma_fit",
  "MatrixCoilMode": "SENSE",
  "Modality": "MR",
  "MultibandAccelerationFactor": 4,
  "PartialFourier": 1,
  "PatientPosition": "HFS",
  "PercentPhaseFOV": 100,
  "PercentSampling": 100,
  "PhaseEncodingDirection": "j",
  "PhaseEncodingSteps": 104,
  "PhaseResolution": 1,
  "PixelBandwidth": 2290,
  "ProcedureStepDescription": "games^mario3",
  "ProtocolName": "func_task-mario3_run-01",
  "PulseSequenceDetails": "%CustomerSeq%\\cmrr_mbep2d_bold",
  "ReceiveCoilActiveElements": "HC1-7;NC1,2",
  "ReceiveCoilName": "HeadNeck_64",
  "ReconMatrixPE": 104,
  "RepetitionTime": 1.49,
  "SAR": 0.0588891,
  "ScanOptions": "FS",
  "ScanningSequence": "EP",
  "SequenceName": "epfid2d1_104",
  "SequenceVariant": "SK\\SS",
  "SeriesDescription": "func_task-mario3_run-01",
  "SeriesNumber": 11,
  "ShimSetting": [642, -7213, -8768, 706, 82, 31, 47, -17],
  "SliceThickness": 2,
  "SliceTiming": [0, 0.785, 0.0975, 0.8825, 0.1975, 0.98, 0.295, 1.0775, 0.3925, 1.1775, 0.49, 1.275, 0.5875, 1.3725, 0.6875, 0, 0.785, 0.0975, 0.8825, 0.1975, 0.98, 0.295, 1.0775, 0.3925, 1.1775, 0.49, 1.275, 0.5875, 1.3725, 0.6875, 0, 0.785, 0.0975, 0.8825, 0.1975, 0.98, 0.295, 1.0775, 0.3925, 1.1775, 0.49, 1.275, 0.5875, 1.3725, 0.6875, 0, 0.785, 0.0975, 0.8825, 0.1975, 0.98, 0.295, 1.0775, 0.3925, 1.1775, 0.49, 1.275, 0.5875, 1.3725, 0.6875],
  "SoftwareVersions": "syngo MR E11",
  "SpacingBetweenSlices": 2,
  "StationName": "MRC35049",
  "TaskName": "mario3",
  "TotalReadoutTime": 0.0576811,
  "TxRefAmp": 251.722,
  "WipMemBlock": "75a45855-4327-432d-ab5f-14c47e802c4d||Sequence: R017 ve11c/master r/75a17815+; Jun 28 2022 16:32:11 by eja",
  "dcmmeta_affine": [
    [-1.9994570016860962, -0.008724396117031574, 0.045777060091495514, 108.27404022216797],
    [-0.02055763639509678, 1.9282715320587158, -0.5304208397865295, -71.975341796875],
    [0.041821498423814774, 0.5307473540306091, 1.9278377294540405, -57.614044189453125],
    [0.0, 0.0, 0.0, 1.0]
],
  "dcmmeta_reorient_transform": [
    [0.0, -1.0, 0.0, 103.0],
    [1.0, 0.0, 0.0, 0.0],
    [0.0, 0.0, 1.0, 0.0],
    [0.0, 0.0, 0.0, 1.0]
],
  "dcmmeta_shape": [104, 104, 60, 344],
  "dcmmeta_slice_dim": 2,
  "dcmmeta_version": 0.6,
  "global": {
    "const": {
      "AcquisitionMatrix": [104, 0, 0, 104],
      "AngioFlag": "N",
      "BitsAllocated": 16,
      "BitsStored": 16,
      "BodyPartExamined": "BRAIN",
      "Columns": 832,
      "EchoNumbers": 1,
      "EchoTime": 37.0,
      "EchoTrainLength": 104,
      "FlipAngle": 52.0,
      "HighBit": 15,
      "ImageOrientationPatient": [0.99972850635729, 0.01027881841347, 0.02091075007376, -0.0043621981171, 0.96413576918669, -0.2653736795584],
      "ImagePositionPatient": [-832.00209758605, -836.01044893777, 175.02194532561],
      "ImageType": [
        "ORIGINAL",
        "PRIMARY",
        "P",
        "MB",
        "ND",
        "MOSAIC"
],
      "ImagedNucleus": "1H",
      "ImagingFrequency": 123.258809,
      "InPlanePhaseEncodingDirection": "COL",
      "LargestImagePixelValue": 4095,
      "MRAcquisitionType": "2D",
      "MagneticFieldStrength": 3.0,
      "Manufacturer": "SIEMENS",
      "ManufacturerModelName": "Prisma_fit",
      "Modality": "MR",
      "NumberOfAverages": 1.0,
      "NumberOfPhaseEncodingSteps": 104,
      "PercentPhaseFieldOfView": 100.0,
      "PercentSampling": 100.0,
      "PerformedProcedureStepStartTime": "180745.266000",
      "PhotometricInterpretation": "MONOCHROME2",
      "PixelBandwidth": 2290.0,
      "PixelRepresentation": 0,
      "PixelSpacing": [2.0, 2.0],
      "ProtocolName": "func_task-mario3_run-01",
      "RepetitionTime": 1490.0,
      "RescaleIntercept": -4096.0,
      "RescaleSlope": 2.0,
      "RescaleType": "US",
      "Rows": 832,
      "SAR": 0.05888914718279,
      "SamplesPerPixel": 1,
      "ScanOptions": "FS",
      "ScanningSequence": "EP",
      "SequenceName": "epfid2d1_104",
      "SequenceVariant": [
        "SK",
        "SS"
],
      "SeriesDescription": "func_task-mario3_run-01",
      "SeriesNumber": 11,
      "SeriesTime": "181216.286000",
      "SliceLocation": -33.968421157915,
      "SliceThickness": 2.0,
      "SmallestImagePixelValue": 0,
      "SoftwareVersions": "syngo MR E11",
      "SpacingBetweenSlices": 2.0000000529292,
      "SpecificCharacterSet": "ISO_IR 100",
      "StudyID": "1",
      "StudyTime": "180745.185000",
      "TransmitCoilName": "Body",
      "VariableFlipAngleFlag": "N",
      "WindowCenterWidthExplanation": "Algo1",
      "dBdt": 0.0},
    "slices": {}
  },
  "time": {
    "samples": {
      "AcquisitionNumber": [1, 2, 3, 4, 5, 6, 7, 8, 9, 10, 11, 12, 13, 14, 15, 16, 17, 18, 19, 20, 21, 22, 23, 24, 25, 26, 27, 28, 29, 30, 31, 32, 33, 34, 35, 36, 37, 38, 39, 40, 41, 42, 43, 44, 45, 46, 47, 48, 49, 50, 51, 52, 53, 54, 55, 56, 57, 58, 59, 60, 61, 62, 63, 64, 65, 66, 67, 68, 69, 70, 71, 72, 73, 74, 75, 76, 77, 78, 79, 80, 81, 82, 83, 84, 85, 86, 87, 88, 89, 90, 91, 92, 93, 94, 95, 96, 97, 98, 99, 100, 101, 102, 103, 104, 105, 106, 107, 108, 109, 110, 111, 112, 113, 114, 115, 116, 117, 118, 119, 120, 121, 122, 123, 124, 125, 126, 127, 128, 129, 130, 131, 132, 133, 134, 135, 136, 137, 138, 139, 140, 141, 142, 143, 144, 145, 146, 147, 148, 149, 150, 151, 152, 153, 154, 155, 156, 157, 158, 159, 160, 161, 162, 163, 164, 165, 166, 167, 168, 169, 170, 171, 172, 173, 174, 175, 176, 177, 178, 179, 180, 181, 182, 183, 184, 185, 186, 187, 188, 189, 190, 191, 192, 193, 194, 195, 196, 197, 198, 199, 200, 201, 202, 203, 204, 205, 206, 207, 208, 209, 210, 211, 212, 213, 214, 215, 216, 217, 218, 219, 220, 221, 222, 223, 224, 225, 226, 227, 228, 229, 230, 231, 232, 233, 234, 235, 236, 237, 238, 239, 240, 241, 242, 243, 244, 245, 246, 247, 248, 249, 250, 251, 252, 253, 254, 255, 256, 257, 258, 259, 260, 261, 262, 263, 264, 265, 266, 267, 268, 269, 270, 271, 272, 273, 274, 275, 276, 277, 278, 279, 280, 281, 282, 283, 284, 285, 286, 287, 288, 289, 290, 291, 292, 293, 294, 295, 296, 297, 298, 299, 300, 301, 302, 303, 304, 305, 306, 307, 308, 309, 310, 311, 312, 313, 314, 315, 316, 317, 318, 319, 320, 321, 322, 323, 324, 325, 326, 327, 328, 329, 330, 331, 332, 333, 334, 335, 336, 337, 338, 339, 340, 341, 342, 343, 344],
      "AcquisitionTime": ["181048.800000", "181050.290000", "181051.780000", "181053.270000", "181054.760000", "181056.250000", "181057.740000", "181059.230000", "181100.720000", "181102.210000", "181103.700000", "181105.190000", "181106.680000", "181108.170000", "181109.660000", "181111.150000", "181112.640000", "181114.130000", "181115.620000", "181117.110000", "181118.600000", "181120.090000", "181121.580000", "181123.070000", "181124.560000", "181126.050000", "181127.540000", "181129.030000", "181130.520000", "181132.010000", "181133.500000", "181134.990000", "181136.480000", "181137.970000", "181139.460000", "181140.950000", "181142.440000", "181143.930000", "181145.420000", "181146.910000", "181148.400000", "181149.890000", "181151.380000", "181152.870000", "181154.360000", "181155.850000", "181157.340000", "181158.830000", "181200.320000", "181201.810000", "181203.300000", "181204.790000", "181206.280000", "181207.770000", "181209.260000", "181210.750000", "181212.240000", "181213.730000", "181215.220000", "181216.710000", "181218.200000", "181219.690000", "181221.180000", "181222.670000", "181224.160000", "181225.650000", "181227.140000", "181228.630000", "181230.120000", "181231.610000", "181233.100000", "181234.590000", "181236.080000", "181237.570000", "181239.060000", "181240.550000", "181242.040000", "181243.530000", "181245.020000", "181246.510000", "181248.000000", "181249.490000", "181250.980000", "181252.470000", "181253.960000", "181255.450000", "181256.940000", "181258.430000", "181259.920000", "181301.410000", "181302.900000", "181304.390000", "181305.880000", "181307.370000", "181308.860000", "181310.350000", "181311.840000", "181313.330000", "181314.820000", "181316.310000", "181317.800000", "181319.290000", "181320.780000", "181322.270000", "181323.760000", "181325.250000", "181326.740000", "181328.230000", "181329.720000", "181331.210000", "181332.700000", "181334.190000", "181335.680000", "181337.170000", "181338.660000", "181340.150000", "181341.640000", "181343.130000", "181344.620000", "181346.110000", "181347.600000", "181349.090000", "181350.580000", "181352.070000", "181353.560000", "181355.050000", "181356.540000", "181358.030000", "181359.520000", "181401.010000", "181402.500000", "181403.990000", "181405.480000", "181406.970000", "181408.460000", "181409.950000", "181411.440000", "181412.930000", "181414.420000", "181415.910000", "181417.400000", "181418.890000", "181420.380000", "181421.870000", "181423.360000", "181424.850000", "181426.340000", "181427.830000", "181429.320000", "181430.810000", "181432.300000", "181433.790000", "181435.280000", "181436.770000", "181438.260000", "181439.750000", "181441.240000", "181442.730000", "181444.220000", "181445.710000", "181447.200000", "181448.690000", "181450.180000", "181451.670000", "181453.160000", "181454.650000", "181456.140000", "181457.630000", "181459.120000", "181500.610000", "181502.100000", "181503.590000", "181505.080000", "181506.570000", "181508.060000", "181509.550000", "181511.040000", "181512.530000", "181514.020000", "181515.510000", "181517.000000", "181518.490000", "181519.980000", "181521.470000", "181522.960000", "181524.450000", "181525.940000", "181527.430000", "181528.920000", "181530.410000", "181531.900000", "181533.390000", "181534.880000", "181536.370000", "181537.860000", "181539.350000", "181540.840000", "181542.330000", "181543.820000", "181545.310000", "181546.800000", "181548.290000", "181549.780000", "181551.270000", "181552.760000", "181554.250000", "181555.740000", "181557.230000", "181558.720000", "181600.210000", "181601.700000", "181603.190000", "181604.680000", "181606.170000", "181607.660000", "181609.150000", "181610.640000", "181612.130000", "181613.620000", "181615.110000", "181616.600000", "181618.090000", "181619.580000", "181621.070000", "181622.560000", "181624.050000", "181625.540000", "181627.030000", "181628.520000", "181630.010000", "181631.500000", "181632.990000", "181634.480000", "181635.970000", "181637.460000", "181638.950000", "181640.440000", "181641.930000", "181643.420000", "181644.910000", "181646.400000", "181647.890000", "181649.380000", "181650.870000", "181652.360000", "181653.850000", "181655.340000", "181656.830000", "181658.320000", "181659.810000", "181701.300000", "181702.790000", "181704.280000", "181705.770000", "181707.260000", "181708.750000", "181710.240000", "181711.730000", "181713.220000", "181714.710000", "181716.200000", "181717.690000", "181719.180000", "181720.670000", "181722.160000", "181723.650000", "181725.140000", "181726.630000", "181728.120000", "181729.610000", "181731.100000", "181732.590000", "181734.080000", "181735.570000", "181737.060000", "181738.550000", "181740.040000", "181741.530000", "181743.020000", "181744.510000", "181746.000000", "181747.490000", "181748.980000", "181750.470000", "181751.960000", "181753.450000", "181754.940000", "181756.430000", "181757.920000", "181759.410000", "181800.900000", "181802.390000", "181803.880000", "181805.370000", "181806.860000", "181808.350000", "181809.840000", "181811.330000", "181812.820000", "181814.310000", "181815.800000", "181817.290000", "181818.780000", "181820.270000", "181821.760000", "181823.250000", "181824.740000", "181826.230000", "181827.720000", "181829.210000", "181830.700000", "181832.190000", "181833.680000", "181835.170000", "181836.660000", "181838.150000", "181839.640000", "181841.130000", "181842.620000", "181844.110000", "181845.600000", "181847.090000", "181848.580000", "181850.070000", "181851.560000", "181853.050000", "181854.540000", "181856.030000", "181857.520000", "181859.010000", "181900.500000", "181901.990000", "181903.480000", "181904.970000", "181906.460000", "181907.950000", "181909.440000", "181910.930000", "181912.420000", "181913.910000", "181915.400000", "181916.890000", "181918.380000", "181919.870000"],
      "ContentTime": ["181216.288000", "181216.291000", "181216.293000", "181216.296000", "181216.298000", "181216.301000", "181216.304000", "181216.306000", "181216.309000", "181216.311000", "181216.314000", "181216.328000", "181216.330000", "181216.333000", "181216.336000", "181216.338000", "181216.341000", "181216.343000", "181216.346000", "181216.348000", "181216.351000", "181216.353000", "181216.356000", "181216.358000", "181216.361000", "181216.363000", "181216.366000", "181216.368000", "181216.371000", "181216.373000", "181216.376000", "181216.379000", "181216.381000", "181216.384000", "181216.387000", "181216.389000", "181216.392000", "181216.394000", "181236.165000", "181236.168000", "181236.171000", "181236.173000", "181236.176000", "181236.178000", "181236.181000", "181236.183000", "181236.186000", "181236.189000", "181236.192000", "181236.195000", "181236.197000", "181236.200000", "181236.202000", "181236.206000", "181236.208000", "181236.211000", "181236.213000", "181236.216000", "181236.218000", "181256.239000", "181256.242000", "181256.244000", "181256.247000", "181256.249000", "181256.252000", "181256.255000", "181256.257000", "181256.260000", "181256.262000", "181256.265000", "181256.267000", "181256.270000", "181256.272000", "181256.275000", "181256.278000", "181256.280000", "181256.283000", "181256.285000", "181256.288000", "181336.220000", "181336.223000", "181336.226000", "181336.229000", "181336.231000", "181336.234000", "181336.236000", "181336.239000", "181336.241000", "181336.244000", "181336.246000", "181336.249000", "181336.251000", "181336.254000", "181336.257000", "181336.260000", "181336.262000", "181336.265000", "181336.267000", "181336.270000", "181336.273000", "181336.275000", "181336.278000", "181336.281000", "181336.283000", "181336.286000", "181336.288000", "181336.291000", "181336.294000", "181336.296000", "181336.299000", "181336.301000", "181416.204000", "181416.207000", "181416.210000", "181416.212000", "181416.215000", "181416.217000", "181416.220000", "181416.222000", "181416.225000", "181416.228000", "181416.230000", "181416.233000", "181416.236000", "181416.238000", "181416.241000", "181416.244000", "181416.246000", "181416.249000", "181416.251000", "181416.254000", "181416.256000", "181416.259000", "181416.261000", "181416.264000", "181416.267000", "181416.269000", "181416.272000", "181456.185000", "181456.187000", "181456.190000", "181456.193000", "181456.195000", "181456.198000", "181456.200000", "181456.203000", "181456.205000", "181456.208000", "181456.211000", "181456.213000", "181456.216000", "181456.218000", "181456.221000", "181456.223000", "181456.226000", "181456.228000", "181456.231000", "181456.233000", "181456.236000", "181456.239000", "181456.241000", "181456.244000", "181456.247000", "181456.249000", "181456.252000", "181536.204000", "181536.207000", "181536.209000", "181536.212000", "181536.215000", "181536.217000", "181536.220000", "181536.222000", "181536.225000", "181536.227000", "181536.230000", "181536.232000", "181536.235000", "181536.238000", "181536.240000", "181536.243000", "181536.245000", "181536.248000", "181536.251000", "181536.253000", "181536.256000", "181536.258000", "181536.261000", "181536.263000", "181536.266000", "181536.270000", "181536.272000", "181616.194000", "181616.197000", "181616.200000", "181616.202000", "181616.205000", "181616.208000", "181616.210000", "181616.213000", "181616.215000", "181616.218000", "181616.220000", "181616.223000", "181616.226000", "181616.228000", "181616.231000", "181616.233000", "181616.236000", "181616.238000", "181616.241000", "181616.243000", "181616.246000", "181616.249000", "181616.251000", "181616.254000", "181616.256000", "181616.259000", "181616.262000", "181656.191000", "181656.197000", "181656.199000", "181656.202000", "181656.204000", "181656.207000", "181656.210000", "181656.212000", "181656.215000", "181656.217000", "181656.220000", "181656.222000", "181656.225000", "181656.227000", "181656.230000", "181656.233000", "181656.235000", "181656.238000", "181656.240000", "181656.243000", "181656.245000", "181656.248000", "181656.251000", "181656.254000", "181656.257000", "181656.259000", "181656.262000", "181736.181000", "181736.183000", "181736.186000", "181736.189000", "181736.191000", "181736.194000", "181736.196000", "181736.199000", "181736.201000", "181736.204000", "181736.206000", "181736.209000", "181736.212000", "181736.214000", "181736.217000", "181736.219000", "181736.222000", "181736.225000", "181736.227000", "181736.230000", "181736.232000", "181736.235000", "181736.239000", "181736.243000", "181736.246000", "181736.248000", "181816.178000", "181816.180000", "181816.183000", "181816.186000", "181816.188000", "181816.191000", "181816.193000", "181816.196000", "181816.198000", "181816.201000", "181816.203000", "181816.206000", "181816.209000", "181816.211000", "181816.214000", "181816.216000", "181816.219000", "181816.221000", "181816.224000", "181816.227000", "181816.229000", "181816.232000", "181816.234000", "181816.237000", "181816.239000", "181816.242000", "181816.245000", "181856.191000", "181856.194000", "181856.197000", "181856.199000", "181856.202000", "181856.204000", "181856.207000", "181856.210000", "181856.212000", "181856.215000", "181856.217000", "181856.220000", "181856.223000", "181856.225000", "181856.228000", "181856.230000", "181856.233000", "181856.235000", "181856.238000", "181856.241000", "181856.243000", "181856.246000", "181856.248000", "181856.251000", "181856.253000", "181856.256000", "181856.259000", "181922.385000", "181922.388000", "181922.390000", "181922.393000", "181922.395000", "181922.398000", "181922.401000", "181922.403000", "181922.406000", "181922.408000", "181922.411000", "181922.414000", "181922.416000", "181922.419000", "181922.421000", "181922.424000", "181922.426000", "181922.429000"],
      "InstanceCreationTime": ["181216.288000", "181216.291000", "181216.293000", "181216.296000", "181216.298000", "181216.301000", "181216.304000", "181216.306000", "181216.309000", "181216.311000", "181216.314000", "181216.328000", "181216.330000", "181216.333000", "181216.336000", "181216.338000", "181216.341000", "181216.343000", "181216.346000", "181216.348000", "181216.351000", "181216.353000", "181216.356000", "181216.358000", "181216.361000", "181216.363000", "181216.366000", "181216.368000", "181216.371000", "181216.373000", "181216.376000", "181216.379000", "181216.381000", "181216.384000", "181216.387000", "181216.389000", "181216.392000", "181216.394000", "181236.165000", "181236.168000", "181236.171000", "181236.173000", "181236.176000", "181236.178000", "181236.181000", "181236.183000", "181236.186000", "181236.189000", "181236.192000", "181236.195000", "181236.197000", "181236.200000", "181236.202000", "181236.206000", "181236.208000", "181236.211000", "181236.213000", "181236.216000", "181236.218000", "181256.239000", "181256.242000", "181256.244000", "181256.247000", "181256.249000", "181256.252000", "181256.255000", "181256.257000", "181256.260000", "181256.262000", "181256.265000", "181256.267000", "181256.270000", "181256.272000", "181256.275000", "181256.278000", "181256.280000", "181256.283000", "181256.285000", "181256.288000", "181336.220000", "181336.223000", "181336.226000", "181336.229000", "181336.231000", "181336.234000", "181336.236000", "181336.239000", "181336.241000", "181336.244000", "181336.246000", "181336.249000", "181336.251000", "181336.254000", "181336.257000", "181336.260000", "181336.262000", "181336.265000", "181336.267000", "181336.270000", "181336.273000", "181336.275000", "181336.278000", "181336.281000", "181336.283000", "181336.286000", "181336.288000", "181336.291000", "181336.294000", "181336.296000", "181336.299000", "181336.301000", "181416.204000", "181416.207000", "181416.210000", "181416.212000", "181416.215000", "181416.217000", "181416.220000", "181416.222000", "181416.225000", "181416.228000", "181416.230000", "181416.233000", "181416.236000", "181416.238000", "181416.241000", "181416.244000", "181416.246000", "181416.249000", "181416.251000", "181416.254000", "181416.256000", "181416.259000", "181416.261000", "181416.264000", "181416.267000", "181416.269000", "181416.272000", "181456.185000", "181456.187000", "181456.190000", "181456.193000", "181456.195000", "181456.198000", "181456.200000", "181456.203000", "181456.205000", "181456.208000", "181456.211000", "181456.213000", "181456.216000", "181456.218000", "181456.221000", "181456.223000", "181456.226000", "181456.228000", "181456.231000", "181456.233000", "181456.236000", "181456.239000", "181456.241000", "181456.244000", "181456.247000", "181456.249000", "181456.252000", "181536.204000", "181536.207000", "181536.209000", "181536.212000", "181536.215000", "181536.217000", "181536.220000", "181536.222000", "181536.225000", "181536.227000", "181536.230000", "181536.232000", "181536.235000", "181536.238000", "181536.240000", "181536.243000", "181536.245000", "181536.248000", "181536.251000", "181536.253000", "181536.256000", "181536.258000", "181536.261000", "181536.263000", "181536.266000", "181536.270000", "181536.272000", "181616.194000", "181616.197000", "181616.200000", "181616.202000", "181616.205000", "181616.208000", "181616.210000", "181616.213000", "181616.215000", "181616.218000", "181616.220000", "181616.223000", "181616.226000", "181616.228000", "181616.231000", "181616.233000", "181616.236000", "181616.238000", "181616.241000", "181616.243000", "181616.246000", "181616.249000", "181616.251000", "181616.254000", "181616.256000", "181616.259000", "181616.262000", "181656.191000", "181656.197000", "181656.199000", "181656.202000", "181656.204000", "181656.207000", "181656.210000", "181656.212000", "181656.215000", "181656.217000", "181656.220000", "181656.222000", "181656.225000", "181656.227000", "181656.230000", "181656.233000", "181656.235000", "181656.238000", "181656.240000", "181656.243000", "181656.245000", "181656.248000", "181656.251000", "181656.254000", "181656.257000", "181656.259000", "181656.262000", "181736.181000", "181736.183000", "181736.186000", "181736.189000", "181736.191000", "181736.194000", "181736.196000", "181736.199000", "181736.201000", "181736.204000", "181736.206000", "181736.209000", "181736.212000", "181736.214000", "181736.217000", "181736.219000", "181736.222000", "181736.225000", "181736.227000", "181736.230000", "181736.232000", "181736.235000", "181736.239000", "181736.243000", "181736.246000", "181736.248000", "181816.178000", "181816.180000", "181816.183000", "181816.186000", "181816.188000", "181816.191000", "181816.193000", "181816.196000", "181816.198000", "181816.201000", "181816.203000", "181816.206000", "181816.209000", "181816.211000", "181816.214000", "181816.216000", "181816.219000", "181816.221000", "181816.224000", "181816.227000", "181816.229000", "181816.232000", "181816.234000", "181816.237000", "181816.239000", "181816.242000", "181816.245000", "181856.191000", "181856.194000", "181856.197000", "181856.199000", "181856.202000", "181856.204000", "181856.207000", "181856.210000", "181856.212000", "181856.215000", "181856.217000", "181856.220000", "181856.223000", "181856.225000", "181856.228000", "181856.230000", "181856.233000", "181856.235000", "181856.238000", "181856.241000", "181856.243000", "181856.246000", "181856.248000", "181856.251000", "181856.253000", "181856.256000", "181856.259000", "181922.385000", "181922.388000", "181922.390000", "181922.393000", "181922.395000", "181922.398000", "181922.401000", "181922.403000", "181922.406000", "181922.408000", "181922.411000", "181922.414000", "181922.416000", "181922.419000", "181922.421000", "181922.424000", "181922.426000", "181922.429000"],
      "InstanceNumber": [1, 2, 3, 4, 5, 6, 7, 8, 9, 10, 11, 12, 13, 14, 15, 16, 17, 18, 19, 20, 21, 22, 23, 24, 25, 26, 27, 28, 29, 30, 31, 32, 33, 34, 35, 36, 37, 38, 39, 40, 41, 42, 43, 44, 45, 46, 47, 48, 49, 50, 51, 52, 53, 54, 55, 56, 57, 58, 59, 60, 61, 62, 63, 64, 65, 66, 67, 68, 69, 70, 71, 72, 73, 74, 75, 76, 77, 78, 79, 80, 81, 82, 83, 84, 85, 86, 87, 88, 89, 90, 91, 92, 93, 94, 95, 96, 97, 98, 99, 100, 101, 102, 103, 104, 105, 106, 107, 108, 109, 110, 111, 112, 113, 114, 115, 116, 117, 118, 119, 120, 121, 122, 123, 124, 125, 126, 127, 128, 129, 130, 131, 132, 133, 134, 135, 136, 137, 138, 139, 140, 141, 142, 143, 144, 145, 146, 147, 148, 149, 150, 151, 152, 153, 154, 155, 156, 157, 158, 159, 160, 161, 162, 163, 164, 165, 166, 167, 168, 169, 170, 171, 172, 173, 174, 175, 176, 177, 178, 179, 180, 181, 182, 183, 184, 185, 186, 187, 188, 189, 190, 191, 192, 193, 194, 195, 196, 197, 198, 199, 200, 201, 202, 203, 204, 205, 206, 207, 208, 209, 210, 211, 212, 213, 214, 215, 216, 217, 218, 219, 220, 221, 222, 223, 224, 225, 226, 227, 228, 229, 230, 231, 232, 233, 234, 235, 236, 237, 238, 239, 240, 241, 242, 243, 244, 245, 246, 247, 248, 249, 250, 251, 252, 253, 254, 255, 256, 257, 258, 259, 260, 261, 262, 263, 264, 265, 266, 267, 268, 269, 270, 271, 272, 273, 274, 275, 276, 277, 278, 279, 280, 281, 282, 283, 284, 285, 286, 287, 288, 289, 290, 291, 292, 293, 294, 295, 296, 297, 298, 299, 300, 301, 302, 303, 304, 305, 306, 307, 308, 309, 310, 311, 312, 313, 314, 315, 316, 317, 318, 319, 320, 321, 322, 323, 324, 325, 326, 327, 328, 329, 330, 331, 332, 333, 334, 335, 336, 337, 338, 339, 340, 341, 342, 343, 344],
      "WindowCenter": [4752.0, 4750.0, 4756.0, 4756.0, 4758.0, 4756.0, 4756.0, 4758.0, 4758.0, 4758.0, 4754.0, 4756.0, 4756.0, 4730.0, 4754.0, 4754.0, 4730.0, 4754.0, 4734.0, 4758.0, 4756.0, 4734.0, 4756.0, 4756.0, 4760.0, 4756.0, 4728.0, 4754.0, 4732.0, 4758.0, 4754.0, 4760.0, 4738.0, 4760.0, 4762.0, 4760.0, 4754.0, 4756.0, 4730.0, 4754.0, 4728.0, 4728.0, 4750.0, 4756.0, 4756.0, 4756.0, 4762.0, 4758.0, 4762.0, 4762.0, 4756.0, 4758.0, 4734.0, 4734.0, 4734.0, 4762.0, 4758.0, 4758.0, 4760.0, 4756.0, 4736.0, 4758.0, 4756.0, 4732.0, 4756.0, 4754.0, 4760.0, 4760.0, 4762.0, 4758.0, 4762.0, 4762.0, 4756.0, 4754.0, 4730.0, 4752.0, 4730.0, 4734.0, 4738.0, 4762.0, 4764.0, 4764.0, 4758.0, 4734.0, 4756.0, 4756.0, 4760.0, 4758.0, 4734.0, 4758.0, 4758.0, 4760.0, 4762.0, 4764.0, 4762.0, 4750.0, 4762.0, 4762.0, 4762.0, 4766.0, 4764.0, 4758.0, 4760.0, 4758.0, 4736.0, 4758.0, 4730.0, 4726.0, 4762.0, 4758.0, 4762.0, 4768.0, 4764.0, 4762.0, 4762.0, 4762.0, 4752.0, 4732.0, 4734.0, 4758.0, 4760.0, 4760.0, 4760.0, 4736.0, 4734.0, 4758.0, 4758.0, 4760.0, 4762.0, 4756.0, 4736.0, 4764.0, 4764.0, 4762.0, 4768.0, 4736.0, 4758.0, 4758.0, 4734.0, 4754.0, 4732.0, 4756.0, 4760.0, 4766.0, 4762.0, 4740.0, 4760.0, 4766.0, 4758.0, 4756.0, 4736.0, 4736.0, 4758.0, 4732.0, 4760.0, 4766.0, 4738.0, 4734.0, 4754.0, 4758.0, 4758.0, 4760.0, 4768.0, 4772.0, 4770.0, 4766.0, 4764.0, 4758.0, 4758.0, 4754.0, 4756.0, 4734.0, 4758.0, 4766.0, 4764.0, 4766.0, 4764.0, 4766.0, 4760.0, 4760.0, 4760.0, 4758.0, 4762.0, 4764.0, 4760.0, 4764.0, 4770.0, 4764.0, 4760.0, 4760.0, 4760.0, 4760.0, 4738.0, 4764.0, 4762.0, 4760.0, 4762.0, 4760.0, 4760.0, 4734.0, 4730.0, 4760.0, 4760.0, 4760.0, 4766.0, 4764.0, 4766.0, 4770.0, 4764.0, 4734.0, 4758.0, 4762.0, 4768.0, 4762.0, 4760.0, 4760.0, 4736.0, 4742.0, 4766.0, 4772.0, 4766.0, 4764.0, 4764.0, 4764.0, 4736.0, 4756.0, 4736.0, 4740.0, 4762.0, 4760.0, 4764.0, 4772.0, 4770.0, 4738.0, 4726.0, 4726.0, 4726.0, 4736.0, 4740.0, 4740.0, 4766.0, 4766.0, 4766.0, 4768.0, 4762.0, 4738.0, 4734.0, 4738.0, 4740.0, 4736.0, 4734.0, 4766.0, 4768.0, 4770.0, 4762.0, 4770.0, 4764.0, 4764.0, 4760.0, 4764.0, 4766.0, 4760.0, 4766.0, 4766.0, 4762.0, 4734.0, 4760.0, 4764.0, 4768.0, 4764.0, 4742.0, 4764.0, 4762.0, 4766.0, 4764.0, 4762.0, 4764.0, 4764.0, 4758.0, 4740.0, 4762.0, 4762.0, 4766.0, 4770.0, 4770.0, 4770.0, 4768.0, 4764.0, 4762.0, 4764.0, 4760.0, 4760.0, 4762.0, 4766.0, 4770.0, 4798.0, 4798.0, 4774.0, 4766.0, 4766.0, 4762.0, 4758.0, 4766.0, 4764.0, 4766.0, 4768.0, 4770.0, 4772.0, 4768.0, 4774.0, 4772.0, 4766.0, 4762.0, 4762.0, 4738.0, 4762.0, 4768.0, 4764.0, 4764.0, 4768.0, 4764.0, 4760.0, 4766.0, 4770.0, 4770.0, 4762.0, 4736.0, 4762.0, 4736.0, 4766.0, 4766.0, 4772.0, 4766.0, 4772.0, 4768.0, 4736.0, 4732.0, 4734.0, 4734.0, 4732.0, 4760.0, 4764.0, 4764.0, 4798.0],
