{
  "AcquisitionMatrixPE": 104,
  "AcquisitionNumber": 1,
  "AcquisitionTime": "18:22:17.837500",
  "BandwidthPerPixelPhaseEncode": 17.17,
  "BaseResolution": 104,
  "BodyPartExamined": "BRAIN",
  "CoilCombinationMethod": "Sum of Squares",
  "ConsistencyInfo": "N4_VE11C_LATEST_20160120",
  "ConversionSoftware": "dcm2niix",
  "ConversionSoftwareVersion": "v1.0.20220505",
  "DerivedVendorReportedEchoSpacing": 0.000560011,
  "DeviceSerialNumber": "167006",
  "DwellTime": 2.1e-06,
  "EchoTime": 0.037,
  "EchoTime1": 0.037,
  "EchoTime2": 0.001,
  "EchoTrainLength": 104,
  "EffectiveEchoSpacing": 0.000560011,
  "FlipAngle": 52,
  "HeudiconvVersion": "0.5.3.post811+g6206e14",
  "ImageComments": "Unaliased MB4/PE3/LB",
  "ImageOrientationPatientDICOM": [0.999729, 0.0102788, 0.0209107, -0.0043622, 0.964136, -0.265374],
  "ImageOrientationText": "Tra>Cor(-15.4)>Sag(1.3)",
  "ImageType": [
    "ORIGINAL",
    "PRIMARY",
    "P",
    "MB",
    "ND",
    "MOSAIC",
    "PHASE"
],
  "ImagingFrequency": 123.259,
  "InPlanePhaseEncodingDirectionDICOM": "COL",
  "InstitutionAddress": "Chemin Queen-Mary 4565,Montreal,District,CA,H3W 1W5",
  "InstitutionName": "IUGM",
  "InstitutionalDepartmentName": "Department",
  "MRAcquisitionType": "2D",
  "MagneticFieldStrength": 3,
  "Manufacturer": "Siemens",
  "ManufacturersModelName": "Prisma_fit",
  "MatrixCoilMode": "SENSE",
  "Modality": "MR",
  "MultibandAccelerationFactor": 4,
  "PartialFourier": 1,
  "PatientPosition": "HFS",
  "PercentPhaseFOV": 100,
  "PercentSampling": 100,
  "PhaseEncodingDirection": "j",
  "PhaseEncodingSteps": 104,
  "PhaseResolution": 1,
  "PixelBandwidth": 2290,
  "ProcedureStepDescription": "games^mario3",
  "ProtocolName": "func_task-mario3_run-02",
  "PulseSequenceDetails": "%CustomerSeq%\\cmrr_mbep2d_bold",
  "ReceiveCoilActiveElements": "HC1-7;NC1,2",
  "ReceiveCoilName": "HeadNeck_64",
  "ReconMatrixPE": 104,
  "RepetitionTime": 1.49,
  "SAR": 0.0588891,
  "ScanOptions": "FS",
  "ScanningSequence": "EP",
  "SequenceName": "epfid2d1_104",
  "SequenceVariant": "SK\\SS",
  "SeriesDescription": "func_task-mario3_run-02",
  "SeriesNumber": 14,
  "ShimSetting": [642, -7213, -8768, 706, 82, 31, 47, -17],
  "SliceThickness": 2,
  "SliceTiming": [0, 0.785, 0.0975, 0.8825, 0.195, 0.98, 0.295, 1.0775, 0.3925, 1.175, 0.49, 1.275, 0.5875, 1.3725, 0.685, 0, 0.785, 0.0975, 0.8825, 0.195, 0.98, 0.295, 1.0775, 0.3925, 1.175, 0.49, 1.275, 0.5875, 1.3725, 0.685, 0, 0.785, 0.0975, 0.8825, 0.195, 0.98, 0.295, 1.0775, 0.3925, 1.175, 0.49, 1.275, 0.5875, 1.3725, 0.685, 0, 0.785, 0.0975, 0.8825, 0.195, 0.98, 0.295, 1.0775, 0.3925, 1.175, 0.49, 1.275, 0.5875, 1.3725, 0.685],
  "SoftwareVersions": "syngo MR E11",
  "SpacingBetweenSlices": 2,
  "StationName": "MRC35049",
  "TaskName": "mario3",
  "TotalReadoutTime": 0.0576811,
  "TxRefAmp": 251.722,
  "WipMemBlock": "1777543a-e493-42e4-8b7a-b8a6e0343302||Sequence: R017 ve11c/master r/75a17815+; Jun 28 2022 16:32:11 by eja",
  "dcmmeta_affine": [
    [-1.9994570016860962, -0.008724396117031574, 0.045777060091495514, 108.27404022216797],
    [-0.02055763639509678, 1.9282715320587158, -0.5304208397865295, -71.975341796875],
    [0.041821498423814774, 0.5307473540306091, 1.9278377294540405, -57.614044189453125],
    [0.0, 0.0, 0.0, 1.0]
],
  "dcmmeta_reorient_transform": [
    [0.0, -1.0, 0.0, 103.0],
    [1.0, 0.0, 0.0, 0.0],
    [0.0, 0.0, 1.0, 0.0],
    [0.0, 0.0, 0.0, 1.0]
],
  "dcmmeta_shape": [104, 104, 60, 309],
  "dcmmeta_slice_dim": 2,
  "dcmmeta_version": 0.6,
  "global": {
    "const": {
      "AcquisitionMatrix": [104, 0, 0, 104],
      "AngioFlag": "N",
      "BitsAllocated": 16,
      "BitsStored": 16,
      "BodyPartExamined": "BRAIN",
      "Columns": 832,
      "EchoNumbers": 1,
      "EchoTime": 37.0,
      "EchoTrainLength": 104,
      "FlipAngle": 52.0,
      "HighBit": 15,
      "ImageOrientationPatient": [0.99972850635729, 0.01027881841347, 0.02091075007376, -0.0043621981171, 0.96413576918669, -0.2653736795584],
      "ImagePositionPatient": [-832.00209758605, -836.01044893777, 175.02194532561],
      "ImageType": [
        "ORIGINAL",
        "PRIMARY",
        "P",
        "MB",
        "ND",
        "MOSAIC"
],
      "ImagedNucleus": "1H",
      "ImagingFrequency": 123.258816,
      "InPlanePhaseEncodingDirection": "COL",
      "LargestImagePixelValue": 4095,
      "MRAcquisitionType": "2D",
      "MagneticFieldStrength": 3.0,
      "Manufacturer": "SIEMENS",
      "ManufacturerModelName": "Prisma_fit",
      "Modality": "MR",
      "NumberOfAverages": 1.0,
      "NumberOfPhaseEncodingSteps": 104,
      "PercentPhaseFieldOfView": 100.0,
      "PercentSampling": 100.0,
      "PerformedProcedureStepStartTime": "180745.266000",
      "PhotometricInterpretation": "MONOCHROME2",
      "PixelBandwidth": 2290.0,
      "PixelRepresentation": 0,
      "PixelSpacing": [2.0, 2.0],
      "ProtocolName": "func_task-mario3_run-02",
      "RepetitionTime": 1490.0,
      "RescaleIntercept": -4096.0,
      "RescaleSlope": 2.0,
      "RescaleType": "US",
      "Rows": 832,
      "SAR": 0.05888914718279,
      "SamplesPerPixel": 1,
      "ScanOptions": "FS",
      "ScanningSequence": "EP",
      "SequenceName": "epfid2d1_104",
      "SequenceVariant": [
        "SK",
        "SS"
],
      "SeriesDescription": "func_task-mario3_run-02",
      "SeriesNumber": 14,
      "SeriesTime": "182333.377000",
      "SliceLocation": -33.968421157915,
      "SliceThickness": 2.0,
      "SmallestImagePixelValue": 0,
      "SoftwareVersions": "syngo MR E11",
      "SpacingBetweenSlices": 2.0000000529292,
      "SpecificCharacterSet": "ISO_IR 100",
      "StudyID": "1",
      "StudyTime": "180745.185000",
      "TransmitCoilName": "Body",
      "VariableFlipAngleFlag": "N",
      "WindowCenterWidthExplanation": "Algo1",
      "dBdt": 0.0},
    "slices": {}
  },
  "time": {
    "samples": {
      "AcquisitionNumber": [1, 2, 3, 4, 5, 6, 7, 8, 9, 10, 11, 12, 13, 14, 15, 16, 17, 18, 19, 20, 21, 22, 23, 24, 25, 26, 27, 28, 29, 30, 31, 32, 33, 34, 35, 36, 37, 38, 39, 40, 41, 42, 43, 44, 45, 46, 47, 48, 49, 50, 51, 52, 53, 54, 55, 56, 57, 58, 59, 60, 61, 62, 63, 64, 65, 66, 67, 68, 69, 70, 71, 72, 73, 74, 75, 76, 77, 78, 79, 80, 81, 82, 83, 84, 85, 86, 87, 88, 89, 90, 91, 92, 93, 94, 95, 96, 97, 98, 99, 100, 101, 102, 103, 104, 105, 106, 107, 108, 109, 110, 111, 112, 113, 114, 115, 116, 117, 118, 119, 120, 121, 122, 123, 124, 125, 126, 127, 128, 129, 130, 131, 132, 133, 134, 135, 136, 137, 138, 139, 140, 141, 142, 143, 144, 145, 146, 147, 148, 149, 150, 151, 152, 153, 154, 155, 156, 157, 158, 159, 160, 161, 162, 163, 164, 165, 166, 167, 168, 169, 170, 171, 172, 173, 174, 175, 176, 177, 178, 179, 180, 181, 182, 183, 184, 185, 186, 187, 188, 189, 190, 191, 192, 193, 194, 195, 196, 197, 198, 199, 200, 201, 202, 203, 204, 205, 206, 207, 208, 209, 210, 211, 212, 213, 214, 215, 216, 217, 218, 219, 220, 221, 222, 223, 224, 225, 226, 227, 228, 229, 230, 231, 232, 233, 234, 235, 236, 237, 238, 239, 240, 241, 242, 243, 244, 245, 246, 247, 248, 249, 250, 251, 252, 253, 254, 255, 256, 257, 258, 259, 260, 261, 262, 263, 264, 265, 266, 267, 268, 269, 270, 271, 272, 273, 274, 275, 276, 277, 278, 279, 280, 281, 282, 283, 284, 285, 286, 287, 288, 289, 290, 291, 292, 293, 294, 295, 296, 297, 298, 299, 300, 301, 302, 303, 304, 305, 306, 307, 308, 309],
      "AcquisitionTime": ["182217.837500", "182219.327500", "182220.817500", "182222.307500", "182223.797500", "182225.287500", "182226.777500", "182228.267500", "182229.757500", "182231.247500", "182232.737500", "182234.227500", "182235.717500", "182237.207500", "182238.697500", "182240.187500", "182241.677500", "182243.167500", "182244.657500", "182246.147500", "182247.637500", "182249.127500", "182250.617500", "182252.107500", "182253.597500", "182255.087500", "182256.577500", "182258.067500", "182259.557500", "182301.047500", "182302.537500", "182304.027500", "182305.517500", "182307.007500", "182308.497500", "182309.987500", "182311.477500", "182312.967500", "182314.457500", "182315.947500", "182317.437500", "182318.927500", "182320.417500", "182321.907500", "182323.397500", "182324.887500", "182326.377500", "182327.867500", "182329.357500", "182330.847500", "182332.337500", "182333.827500", "182335.317500", "182336.807500", "182338.297500", "182339.787500", "182341.277500", "182342.767500", "182344.257500", "182345.747500", "182347.237500", "182348.727500", "182350.217500", "182351.707500", "182353.197500", "182354.687500", "182356.177500", "182357.667500", "182359.157500", "182400.647500", "182402.137500", "182403.627500", "182405.117500", "182406.607500", "182408.097500", "182409.587500", "182411.077500", "182412.567500", "182414.057500", "182415.547500", "182417.037500", "182418.527500", "182420.017500", "182421.507500", "182422.997500", "182424.487500", "182425.977500", "182427.467500", "182428.957500", "182430.447500", "182431.937500", "182433.427500", "182434.917500", "182436.407500", "182437.897500", "182439.387500", "182440.877500", "182442.367500", "182443.857500", "182445.347500", "182446.837500", "182448.327500", "182449.817500", "182451.307500", "182452.797500", "182454.287500", "182455.777500", "182457.267500", "182458.757500", "182500.247500", "182501.737500", "182503.227500", "182504.717500", "182506.207500", "182507.697500", "182509.187500", "182510.677500", "182512.167500", "182513.657500", "182515.147500", "182516.637500", "182518.127500", "182519.617500", "182521.107500", "182522.597500", "182524.087500", "182525.577500", "182527.067500", "182528.557500", "182530.047500", "182531.537500", "182533.027500", "182534.517500", "182536.007500", "182537.497500", "182538.987500", "182540.477500", "182541.967500", "182543.457500", "182544.947500", "182546.437500", "182547.927500", "182549.417500", "182550.907500", "182552.397500", "182553.887500", "182555.377500", "182556.867500", "182558.357500", "182559.847500", "182601.337500", "182602.827500", "182604.317500", "182605.807500", "182607.297500", "182608.787500", "182610.277500", "182611.767500", "182613.257500", "182614.747500", "182616.237500", "182617.727500", "182619.217500", "182620.707500", "182622.197500", "182623.687500", "182625.177500", "182626.667500", "182628.157500", "182629.647500", "182631.137500", "182632.627500", "182634.117500", "182635.607500", "182637.097500", "182638.587500", "182640.077500", "182641.567500", "182643.057500", "182644.547500", "182646.037500", "182647.527500", "182649.017500", "182650.507500", "182651.997500", "182653.487500", "182654.977500", "182656.467500", "182657.957500", "182659.447500", "182700.937500", "182702.427500", "182703.917500", "182705.407500", "182706.897500", "182708.387500", "182709.877500", "182711.367500", "182712.857500", "182714.347500", "182715.837500", "182717.327500", "182718.817500", "182720.307500", "182721.797500", "182723.287500", "182724.777500", "182726.267500", "182727.757500", "182729.247500", "182730.737500", "182732.227500", "182733.717500", "182735.207500", "182736.697500", "182738.187500", "182739.677500", "182741.167500", "182742.657500", "182744.147500", "182745.637500", "182747.127500", "182748.617500", "182750.107500", "182751.597500", "182753.087500", "182754.577500", "182756.067500", "182757.557500", "182759.047500", "182800.537500", "182802.027500", "182803.517500", "182805.007500", "182806.497500", "182807.987500", "182809.477500", "182810.967500", "182812.457500", "182813.947500", "182815.437500", "182816.927500", "182818.417500", "182819.907500", "182821.397500", "182822.887500", "182824.377500", "182825.867500", "182827.357500", "182828.847500", "182830.337500", "182831.827500", "182833.317500", "182834.807500", "182836.297500", "182837.787500", "182839.277500", "182840.767500", "182842.257500", "182843.747500", "182845.237500", "182846.727500", "182848.217500", "182849.707500", "182851.197500", "182852.687500", "182854.177500", "182855.667500", "182857.157500", "182858.647500", "182900.137500", "182901.627500", "182903.117500", "182904.607500", "182906.097500", "182907.587500", "182909.077500", "182910.567500", "182912.057500", "182913.547500", "182915.037500", "182916.527500", "182918.017500", "182919.507500", "182920.997500", "182922.487500", "182923.977500", "182925.467500", "182926.957500", "182928.447500", "182929.937500", "182931.427500", "182932.917500", "182934.407500", "182935.897500", "182937.387500", "182938.877500", "182940.367500", "182941.857500", "182943.347500", "182944.837500", "182946.327500", "182947.817500", "182949.307500", "182950.797500", "182952.287500", "182953.777500", "182955.267500", "182956.757500"],
      "ContentTime": ["182333.379000", "182333.382000", "182333.385000", "182333.387000", "182333.390000", "182333.392000", "182333.395000", "182333.397000", "182333.400000", "182333.403000", "182333.405000", "182333.408000", "182333.410000", "182333.413000", "182333.415000", "182333.418000", "182333.421000", "182333.423000", "182333.426000", "182333.428000", "182333.431000", "182333.434000", "182333.436000", "182333.439000", "182333.441000", "182333.444000", "182353.352000", "182353.354000", "182353.357000", "182353.360000", "182353.362000", "182353.365000", "182353.367000", "182353.370000", "182353.372000", "182353.375000", "182353.377000", "182353.380000", "182353.382000", "182353.385000", "182353.388000", "182353.390000", "182353.393000", "182353.395000", "182353.398000", "182353.400000", "182353.403000", "182413.330000", "182413.333000", "182413.335000", "182413.338000", "182413.340000", "182413.343000", "182413.345000", "182413.348000", "182413.350000", "182413.353000", "182413.356000", "182413.358000", "182413.361000", "182413.363000", "182413.366000", "182413.368000", "182413.371000", "182413.373000", "182413.376000", "182413.378000", "182433.336000", "182433.339000", "182433.341000", "182433.344000", "182433.346000", "182433.349000", "182433.351000", "182433.354000", "182433.357000", "182433.368000", "182433.370000", "182433.373000", "182433.376000", "182433.378000", "182433.381000", "182433.383000", "182433.386000", "182433.389000", "182433.391000", "182433.394000", "182513.378000", "182513.381000", "182513.383000", "182513.386000", "182513.389000", "182513.391000", "182513.394000", "182513.396000", "182513.399000", "182513.401000", "182513.404000", "182513.407000", "182513.415000", "182513.418000", "182513.420000", "182513.423000", "182513.425000", "182513.428000", "182513.430000", "182513.433000", "182513.435000", "182513.438000", "182513.440000", "182513.443000", "182513.446000", "182513.448000", "182513.451000", "182513.453000", "182513.456000", "182513.458000", "182553.351000", "182553.354000", "182553.356000", "182553.359000", "182553.361000", "182553.364000", "182553.366000", "182553.369000", "182553.372000", "182553.374000", "182553.377000", "182553.392000", "182553.395000", "182553.397000", "182553.400000", "182553.402000", "182553.405000", "182553.407000", "182553.410000", "182553.413000", "182553.415000", "182553.418000", "182553.420000", "182553.423000", "182553.425000", "182553.428000", "182553.430000", "182633.370000", "182633.373000", "182633.376000", "182633.378000", "182633.381000", "182633.383000", "182633.386000", "182633.389000", "182633.391000", "182633.394000", "182633.396000", "182633.399000", "182633.401000", "182633.404000", "182633.414000", "182633.416000", "182633.419000", "182633.421000", "182633.424000", "182633.426000", "182633.429000", "182633.432000", "182633.434000", "182633.437000", "182633.439000", "182633.442000", "182713.355000", "182713.358000", "182713.361000", "182713.364000", "182713.367000", "182713.369000", "182713.372000", "182713.375000", "182713.378000", "182713.381000", "182713.383000", "182713.386000", "182713.388000", "182713.391000", "182713.394000", "182713.396000", "182713.399000", "182713.401000", "182713.404000", "182713.406000", "182713.409000", "182713.412000", "182713.414000", "182713.417000", "182713.419000", "182713.422000", "182713.424000", "182753.357000", "182753.360000", "182753.363000", "182753.365000", "182753.368000", "182753.371000", "182753.373000", "182753.376000", "182753.378000", "182753.381000", "182753.383000", "182753.386000", "182753.388000", "182753.391000", "182753.393000", "182753.396000", "182753.399000", "182753.401000", "182753.404000", "182753.406000", "182753.409000", "182753.411000", "182753.414000", "182753.416000", "182753.419000", "182753.422000", "182753.424000", "182813.304000", "182813.307000", "182813.310000", "182813.312000", "182813.315000", "182813.317000", "182813.320000", "182813.322000", "182813.325000", "182813.328000", "182813.330000", "182813.333000", "182813.335000", "182813.338000", "182853.364000", "182853.367000", "182853.369000", "182853.372000", "182853.375000", "182853.377000", "182853.380000", "182853.382000", "182853.385000", "182853.387000", "182853.390000", "182853.392000", "182853.395000", "182853.398000", "182853.400000", "182853.403000", "182853.405000", "182853.408000", "182853.410000", "182853.413000", "182853.415000", "182853.418000", "182853.421000", "182853.423000", "182853.426000", "182853.428000", "182933.373000", "182933.376000", "182933.378000", "182933.381000", "182933.383000", "182933.386000", "182933.389000", "182933.391000", "182933.394000", "182933.397000", "182933.399000", "182933.402000", "182933.404000", "182933.407000", "182933.409000", "182933.412000", "182933.415000", "182933.417000", "182933.420000", "182933.424000", "182933.428000", "182933.431000", "182933.434000", "182933.436000", "182933.439000", "182933.441000", "182933.444000", "182959.810000", "182959.813000", "182959.816000", "182959.818000", "182959.821000", "182959.824000", "182959.826000", "182959.829000", "182959.831000", "182959.834000", "182959.836000", "182959.839000", "182959.841000", "182959.844000", "182959.847000", "182959.849000", "182959.852000", "182959.854000"],
      "InstanceCreationTime": ["182333.379000", "182333.382000", "182333.385000", "182333.387000", "182333.390000", "182333.392000", "182333.395000", "182333.397000", "182333.400000", "182333.403000", "182333.405000", "182333.408000", "182333.410000", "182333.413000", "182333.415000", "182333.418000", "182333.421000", "182333.423000", "182333.426000", "182333.428000", "182333.431000", "182333.434000", "182333.436000", "182333.439000", "182333.441000", "182333.444000", "182353.352000", "182353.354000", "182353.357000", "182353.360000", "182353.362000", "182353.365000", "182353.367000", "182353.370000", "182353.372000", "182353.375000", "182353.377000", "182353.380000", "182353.382000", "182353.385000", "182353.388000", "182353.390000", "182353.393000", "182353.395000", "182353.398000", "182353.400000", "182353.403000", "182413.330000", "182413.333000", "182413.335000", "182413.338000", "182413.340000", "182413.343000", "182413.345000", "182413.348000", "182413.350000", "182413.353000", "182413.356000", "182413.358000", "182413.361000", "182413.363000", "182413.366000", "182413.368000", "182413.371000", "182413.373000", "182413.376000", "182413.378000", "182433.336000", "182433.339000", "182433.341000", "182433.344000", "182433.346000", "182433.349000", "182433.351000", "182433.354000", "182433.357000", "182433.368000", "182433.370000", "182433.373000", "182433.376000", "182433.378000", "182433.381000", "182433.383000", "182433.386000", "182433.389000", "182433.391000", "182433.394000", "182513.378000", "182513.381000", "182513.383000", "182513.386000", "182513.389000", "182513.391000", "182513.394000", "182513.396000", "182513.399000", "182513.401000", "182513.404000", "182513.407000", "182513.415000", "182513.418000", "182513.420000", "182513.423000", "182513.425000", "182513.428000", "182513.430000", "182513.433000", "182513.435000", "182513.438000", "182513.440000", "182513.443000", "182513.446000", "182513.448000", "182513.451000", "182513.453000", "182513.456000", "182513.458000", "182553.351000", "182553.354000", "182553.356000", "182553.359000", "182553.361000", "182553.364000", "182553.366000", "182553.369000", "182553.372000", "182553.374000", "182553.377000", "182553.392000", "182553.395000", "182553.397000", "182553.400000", "182553.402000", "182553.405000", "182553.407000", "182553.410000", "182553.413000", "182553.415000", "182553.418000", "182553.420000", "182553.423000", "182553.425000", "182553.428000", "182553.430000", "182633.370000", "182633.373000", "182633.376000", "182633.378000", "182633.381000", "182633.383000", "182633.386000", "182633.389000", "182633.391000", "182633.394000", "182633.396000", "182633.399000", "182633.401000", "182633.404000", "182633.414000", "182633.416000", "182633.419000", "182633.421000", "182633.424000", "182633.426000", "182633.429000", "182633.432000", "182633.434000", "182633.437000", "182633.439000", "182633.442000", "182713.355000", "182713.358000", "182713.361000", "182713.364000", "182713.367000", "182713.369000", "182713.372000", "182713.375000", "182713.378000", "182713.381000", "182713.383000", "182713.386000", "182713.388000", "182713.391000", "182713.394000", "182713.396000", "182713.399000", "182713.401000", "182713.404000", "182713.406000", "182713.409000", "182713.412000", "182713.414000", "182713.417000", "182713.419000", "182713.422000", "182713.424000", "182753.357000", "182753.360000", "182753.363000", "182753.365000", "182753.368000", "182753.371000", "182753.373000", "182753.376000", "182753.378000", "182753.381000", "182753.383000", "182753.386000", "182753.388000", "182753.391000", "182753.393000", "182753.396000", "182753.399000", "182753.401000", "182753.404000", "182753.406000", "182753.409000", "182753.411000", "182753.414000", "182753.416000", "182753.419000", "182753.422000", "182753.424000", "182813.304000", "182813.307000", "182813.310000", "182813.312000", "182813.315000", "182813.317000", "182813.320000", "182813.322000", "182813.325000", "182813.328000", "182813.330000", "182813.333000", "182813.335000", "182813.338000", "182853.364000", "182853.367000", "182853.369000", "182853.372000", "182853.375000", "182853.377000", "182853.380000", "182853.382000", "182853.385000", "182853.387000", "182853.390000", "182853.392000", "182853.395000", "182853.398000", "182853.400000", "182853.403000", "182853.405000", "182853.408000", "182853.410000", "182853.413000", "182853.415000", "182853.418000", "182853.421000", "182853.423000", "182853.426000", "182853.428000", "182933.373000", "182933.376000", "182933.378000", "182933.381000", "182933.383000", "182933.386000", "182933.389000", "182933.391000", "182933.394000", "182933.397000", "182933.399000", "182933.402000", "182933.404000", "182933.407000", "182933.409000", "182933.412000", "182933.415000", "182933.417000", "182933.420000", "182933.424000", "182933.428000", "182933.431000", "182933.434000", "182933.436000", "182933.439000", "182933.441000", "182933.444000", "182959.810000", "182959.813000", "182959.816000", "182959.818000", "182959.821000", "182959.824000", "182959.826000", "182959.829000", "182959.831000", "182959.834000", "182959.836000", "182959.839000", "182959.841000", "182959.844000", "182959.847000", "182959.849000", "182959.852000", "182959.854000"],
      "InstanceNumber": [1, 2, 3, 4, 5, 6, 7, 8, 9, 10, 11, 12, 13, 14, 15, 16, 17, 18, 19, 20, 21, 22, 23, 24, 25, 26, 27, 28, 29, 30, 31, 32, 33, 34, 35, 36, 37, 38, 39, 40, 41, 42, 43, 44, 45, 46, 47, 48, 49, 50, 51, 52, 53, 54, 55, 56, 57, 58, 59, 60, 61, 62, 63, 64, 65, 66, 67, 68, 69, 70, 71, 72, 73, 74, 75, 76, 77, 78, 79, 80, 81, 82, 83, 84, 85, 86, 87, 88, 89, 90, 91, 92, 93, 94, 95, 96, 97, 98, 99, 100, 101, 102, 103, 104, 105, 106, 107, 108, 109, 110, 111, 112, 113, 114, 115, 116, 117, 118, 119, 120, 121, 122, 123, 124, 125, 126, 127, 128, 129, 130, 131, 132, 133, 134, 135, 136, 137, 138, 139, 140, 141, 142, 143, 144, 145, 146, 147, 148, 149, 150, 151, 152, 153, 154, 155, 156, 157, 158, 159, 160, 161, 162, 163, 164, 165, 166, 167, 168, 169, 170, 171, 172, 173, 174, 175, 176, 177, 178, 179, 180, 181, 182, 183, 184, 185, 186, 187, 188, 189, 190, 191, 192, 193, 194, 195, 196, 197, 198, 199, 200, 201, 202, 203, 204, 205, 206, 207, 208, 209, 210, 211, 212, 213, 214, 215, 216, 217, 218, 219, 220, 221, 222, 223, 224, 225, 226, 227, 228, 229, 230, 231, 232, 233, 234, 235, 236, 237, 238, 239, 240, 241, 242, 243, 244, 245, 246, 247, 248, 249, 250, 251, 252, 253, 254, 255, 256, 257, 258, 259, 260, 261, 262, 263, 264, 265, 266, 267, 268, 269, 270, 271, 272, 273, 274, 275, 276, 277, 278, 279, 280, 281, 282, 283, 284, 285, 286, 287, 288, 289, 290, 291, 292, 293, 294, 295, 296, 297, 298, 299, 300, 301, 302, 303, 304, 305, 306, 307, 308, 309],
      "WindowCenter": [4734.0, 4758.0, 4734.0, 4740.0, 4734.0, 4734.0, 4730.0, 4734.0, 4758.0, 4758.0, 4732.0, 4756.0, 4738.0, 4736.0, 4742.0, 4738.0, 4736.0, 4734.0, 4732.0, 4758.0, 4734.0, 4734.0, 4736.0, 4734.0, 4734.0, 4738.0, 4736.0, 4736.0, 4742.0, 4742.0, 4738.0, 4740.0, 4738.0, 4738.0, 4736.0, 4738.0, 4736.0, 4736.0, 4734.0, 4736.0, 4738.0, 4740.0, 4738.0, 4740.0, 4740.0, 4736.0, 4732.0, 4736.0, 4734.0, 4736.0, 4738.0, 4736.0, 4740.0, 4736.0, 4734.0, 4738.0, 4716.0, 4742.0, 4738.0, 4734.0, 4734.0, 4760.0, 4736.0, 4736.0, 4736.0, 4742.0, 4736.0, 4742.0, 4738.0, 4738.0, 4736.0, 4738.0, 4736.0, 4736.0, 4712.0, 4738.0, 4738.0, 4738.0, 4734.0, 4738.0, 4738.0, 4738.0, 4742.0, 4736.0, 4740.0, 4736.0, 4738.0, 4738.0, 4736.0, 4736.0, 4740.0, 4740.0, 4744.0, 4724.0, 4718.0, 4736.0, 4738.0, 4736.0, 4732.0, 4736.0, 4738.0, 4736.0, 4740.0, 4740.0, 4742.0, 4742.0, 4740.0, 4738.0, 4738.0, 4740.0, 4740.0, 4738.0, 4736.0, 4738.0, 4740.0, 4738.0, 4740.0, 4740.0, 4738.0, 4744.0, 4740.0, 4740.0, 4740.0, 4738.0, 4738.0, 4740.0, 4738.0, 4716.0, 4736.0, 4736.0, 4738.0, 4736.0, 4736.0, 4738.0, 4738.0, 4744.0, 4740.0, 4738.0, 4740.0, 4738.0, 4738.0, 4736.0, 4736.0, 4736.0, 4736.0, 4738.0, 4740.0, 4744.0, 4720.0, 4742.0, 4742.0, 4738.0, 4732.0, 4730.0, 4738.0, 4760.0, 4738.0, 4740.0, 4744.0, 4742.0, 4740.0, 4740.0, 4740.0, 4740.0, 4738.0, 4736.0, 4738.0, 4740.0, 4742.0, 4742.0, 4742.0, 4740.0, 4742.0, 4742.0, 4742.0, 4738.0, 4738.0, 4740.0, 4738.0, 4740.0, 4740.0, 4740.0, 4744.0, 4742.0, 4740.0, 4738.0, 4738.0, 4740.0, 4738.0, 4742.0, 4746.0, 4744.0, 4720.0, 4744.0, 4736.0, 4736.0, 4738.0, 4738.0, 4740.0, 4740.0, 4722.0, 4740.0, 4736.0, 4744.0, 4742.0, 4740.0, 4740.0, 4736.0, 4738.0, 4742.0, 4746.0, 4746.0, 4748.0, 4742.0, 4738.0, 4736.0, 4738.0, 4740.0, 4738.0, 4738.0, 4716.0, 4738.0, 4742.0, 4742.0, 4742.0, 4738.0, 4740.0, 4744.0, 4740.0, 4742.0, 4740.0, 4738.0, 4740.0, 4742.0, 4748.0, 4746.0, 4742.0, 4740.0, 4742.0, 4742.0, 4744.0, 4746.0, 4748.0, 4744.0, 4742.0, 4740.0, 4740.0, 4740.0, 4740.0, 4742.0, 4742.0, 4740.0, 4740.0, 4738.0, 4738.0, 4738.0, 4740.0, 4724.0, 4724.0, 4722.0, 4746.0, 4744.0, 4744.0, 4740.0, 4740.0, 4740.0, 4740.0, 4738.0, 4740.0, 4746.0, 4750.0, 4724.0, 4750.0, 4740.0, 4738.0, 4738.0, 4736.0, 4742.0, 4742.0, 4746.0, 4728.0, 4748.0, 4740.0, 4742.0, 4740.0, 4736.0, 4758.0, 4738.0, 4740.0, 4742.0, 4742.0, 4746.0, 4724.0, 4742.0, 4740.0, 4736.0, 4740.0, 4740.0, 4740.0, 4744.0, 4742.0, 4748.0, 4746.0, 4744.0, 4744.0, 4738.0, 4742.0, 4740.0, 4736.0],
      "WindowWidth": [18544.0, 18572.0, 18542.0, 18546.0, 18538.0, 18542.0, 18540.0, 18542.0, 18576.0, 18578.0, 18536.0, 18572.0, 18544.0, 18544.0, 18554.0, 18540.0, 18542.0, 18542.0, 18542.0, 18580.0, 18544.0, 18544.0, 18548.0, 18548.0, 18542.0, 18546.0, 18544.0, 18542.0, 18544.0, 18540.0, 18538.0, 18546.0, 18548.0, 18542.0, 18538.0, 18542.0, 18534.0, 18544.0, 18546.0, 18550.0, 18546.0, 18546.0, 18544.0, 18544.0, 18546.0, 18538.0, 18538.0, 18544.0, 18546.0, 18548.0, 18550.0, 18544.0, 18544.0, 18542.0, 18540.0, 18538.0, 18510.0, 18550.0, 18552.0, 18540.0, 18544.0, 18580.0, 18548.0, 18546.0, 18542.0, 18546.0, 18538.0, 18544.0, 18548.0, 18542.0, 18544.0, 18546.0, 18550.0, 18544.0, 18506.0, 18552.0, 18546.0, 18544.0, 18538.0, 18542.0, 18540.0, 18542.0, 18538.0, 18540.0, 18546.0, 18540.0, 18542.0, 18546.0, 18542.0, 18538.0, 18546.0, 18540.0, 18538.0, 18510.0, 18510.0, 18540.0, 18546.0, 18546.0, 18548.0, 18546.0, 18546.0, 18540.0, 18544.0, 18544.0, 18544.0, 18544.0, 18546.0, 18544.0, 18542.0, 18546.0, 18548.0, 18546.0, 18544.0, 18542.0, 18544.0, 18542.0, 18544.0, 18546.0, 18542.0, 18552.0, 18550.0, 18546.0, 18546.0, 18544.0, 18546.0, 18538.0, 18540.0, 18506.0, 18540.0, 18546.0, 18546.0, 18546.0, 18542.0, 18540.0, 18542.0, 18542.0, 18542.0, 18544.0, 18542.0, 18542.0, 18544.0, 18546.0, 18542.0, 18544.0, 18544.0, 18540.0, 18538.0, 18546.0, 18510.0, 18540.0, 18544.0, 18550.0, 18542.0, 18546.0, 18548.0, 18582.0, 18546.0, 18548.0, 18546.0, 18552.0, 18540.0, 18544.0, 18546.0, 18548.0, 18548.0, 18544.0, 18544.0, 18550.0, 18542.0, 18544.0, 18540.0, 18540.0, 18542.0, 18546.0, 18548.0, 18552.0, 18546.0, 18550.0, 18546.0, 18544.0, 18546.0, 18544.0, 18544.0, 18546.0, 18542.0, 18544.0, 18540.0, 18544.0, 18542.0, 18540.0, 18540.0, 18542.0, 18504.0, 18540.0, 18540.0, 18548.0, 18544.0, 18542.0, 18542.0, 18546.0, 18504.0, 18538.0, 18538.0, 18546.0, 18538.0, 18544.0, 18548.0, 18548.0, 18546.0, 18546.0, 18550.0, 18540.0, 18546.0, 18546.0, 18542.0, 18548.0, 18544.0, 18546.0, 18540.0, 18540.0, 18510.0, 18542.0, 18550.0, 18550.0, 18550.0, 18546.0, 18552.0, 18548.0, 18544.0, 18548.0, 18548.0, 18544.0, 18548.0, 18540.0, 18544.0, 18544.0, 18544.0, 18536.0, 18538.0, 18538.0, 18538.0, 18540.0, 18540.0, 18540.0, 18542.0, 18546.0, 18548.0, 18546.0, 18540.0, 18538.0, 18536.0, 18536.0, 18544.0, 18542.0, 18546.0, 18544.0, 18542.0, 18504.0, 18504.0, 18502.0, 18542.0, 18544.0, 18546.0, 18540.0, 18548.0, 18550.0, 18542.0, 18540.0, 18544.0, 18536.0, 18540.0, 18506.0, 18538.0, 18542.0, 18546.0, 18550.0, 18538.0, 18544.0, 18538.0, 18536.0, 18508.0, 18538.0, 18538.0, 18542.0, 18552.0, 18546.0, 18580.0, 18546.0, 18546.0, 18548.0, 18544.0, 18540.0, 18504.0, 18538.0, 18546.0, 18540.0, 18544.0, 18540.0, 18538.0, 18542.0, 18538.0, 18538.0, 18544.0, 18540.0, 18542.0, 18538.0, 18544.0, 18546.0, 18546.0]
    },
    "slices": {}
  }
}