{
  "AcquisitionMatrixPE": 104,
  "AcquisitionNumber": 1,
  "AcquisitionTime": "11:29:3.940000",
  "BandwidthPerPixelPhaseEncode": 17.17,
  "BaseResolution": 104,
  "BodyPartExamined": "BRAIN",
  "CoilCombinationMethod": "Sum of Squares",
  "ConsistencyInfo": "N4_VE11C_LATEST_20160120",
  "ConversionSoftware": "dcm2niix",
  "ConversionSoftwareVersion": "v1.0.20220505",
  "DerivedVendorReportedEchoSpacing": 0.000560011,
  "DeviceSerialNumber": "167006",
  "DwellTime": 2.1e-06,
  "EchoTime": 0.037,
  "EchoTime1": 0.037,
  "EchoTime2": 0.001,
  "EchoTrainLength": 104,
  "EffectiveEchoSpacing": 0.000560011,
  "FlipAngle": 52,
  "HeudiconvVersion": "0.5.3.post811+g6206e14",
  "ImageComments": "Unaliased MB4/PE3/LB",
  "ImageOrientationPatientDICOM": [0.998578, -0.00516706, 0.0530537, 0.0336497, 0.833015, -0.552226],
  "ImageOrientationText": "Tra>Cor(-33.6)>Sag(2.4)",
  "ImageType": [
    "ORIGINAL",
    "PRIMARY",
    "P",
    "MB",
    "ND",
    "MOSAIC",
    "PHASE"
],
  "ImagingFrequency": 123.259,
  "InPlanePhaseEncodingDirectionDICOM": "COL",
  "InstitutionAddress": "Chemin Queen-Mary 4565,Montreal,District,CA,H3W 1W5",
  "InstitutionName": "IUGM",
  "InstitutionalDepartmentName": "Department",
  "MRAcquisitionType": "2D",
  "MagneticFieldStrength": 3,
  "Manufacturer": "Siemens",
  "ManufacturersModelName": "Prisma_fit",
  "MatrixCoilMode": "SENSE",
  "Modality": "MR",
  "MultibandAccelerationFactor": 4,
  "PartialFourier": 1,
  "PatientPosition": "HFS",
  "PercentPhaseFOV": 100,
  "PercentSampling": 100,
  "PhaseEncodingDirection": "j",
  "PhaseEncodingSteps": 104,
  "PhaseResolution": 1,
  "PixelBandwidth": 2290,
  "ProcedureStepDescription": "games^mario3",
  "ProtocolName": "func_task-mario3_run-01",
  "PulseSequenceDetails": "%CustomerSeq%\\cmrr_mbep2d_bold",
  "ReceiveCoilActiveElements": "HC1-7;NC1,2",
  "ReceiveCoilName": "HeadNeck_64",
  "ReconMatrixPE": 104,
  "RepetitionTime": 1.49,
  "SAR": 0.0606028,
  "ScanOptions": "FS",
  "ScanningSequence": "EP",
  "SequenceName": "epfid2d1_104",
  "SequenceVariant": "SK\\SS",
  "SeriesDescription": "func_task-mario3_run-01",
  "SeriesNumber": 11,
  "ShimSetting": [627, -7194, -8873, 220, 36, -201, -1, 44],
  "SliceThickness": 2,
  "SliceTiming": [0, 0.785, 0.0975, 0.8825, 0.195, 0.98, 0.295, 1.0775, 0.3925, 1.175, 0.49, 1.2725, 0.5875, 1.3725, 0.685, 0, 0.785, 0.0975, 0.8825, 0.195, 0.98, 0.295, 1.0775, 0.3925, 1.175, 0.49, 1.2725, 0.5875, 1.3725, 0.685, 0, 0.785, 0.0975, 0.8825, 0.195, 0.98, 0.295, 1.0775, 0.3925, 1.175, 0.49, 1.2725, 0.5875, 1.3725, 0.685, 0, 0.785, 0.0975, 0.8825, 0.195, 0.98, 0.295, 1.0775, 0.3925, 1.175, 0.49, 1.2725, 0.5875, 1.3725, 0.685],
  "SoftwareVersions": "syngo MR E11",
  "SpacingBetweenSlices": 2,
  "StationName": "MRC35049",
  "TaskName": "mario3",
  "TotalReadoutTime": 0.0576811,
  "TxRefAmp": 286.738,
  "WipMemBlock": "998ac1dc-5b6f-4180-9d7b-e10a4fda11e4||Sequence: R017 ve11c/master r/75a17815+; Jun 28 2022 16:32:11 by eja",
  "dcmmeta_affine": [
    [-1.9971566200256348, 0.06729941815137863, 0.082682304084301, 101.68578338623047],
    [0.010334121994674206, 1.6660302877426147, -1.1064521074295044, -46.56220626831055],
    [0.10610740631818771, 1.1044517755508423, 1.66400945186615, -92.40599060058594],
    [0.0, 0.0, 0.0, 1.0]
],
  "dcmmeta_reorient_transform": [
    [0.0, -1.0, 0.0, 103.0],
    [1.0, 0.0, 0.0, 0.0],
    [0.0, 0.0, 1.0, 0.0],
    [0.0, 0.0, 0.0, 1.0]
],
  "dcmmeta_shape": [104, 104, 60, 429],
  "dcmmeta_slice_dim": 2,
  "dcmmeta_version": 0.6,
  "global": {
    "const": {
      "AcquisitionMatrix": [104, 0, 0, 104],
      "AngioFlag": "N",
      "BitsAllocated": 16,
      "BitsStored": 16,
      "BodyPartExamined": "BRAIN",
      "Columns": 832,
      "EchoNumbers": 1,
      "EchoTime": 37.0,
      "EchoTrainLength": 104,
      "FlipAngle": 52.0,
      "HighBit": 15,
      "ImageOrientationPatient": [0.99857829247016, -0.00516706094, 0.05305370193141, 0.03364970804831, 0.83301516244276, -0.5522258924469],
      "ImagePositionPatient": [-860.07960431501, -727.71233514142, 384.74990119599],
      "ImageType": [
        "ORIGINAL",
        "PRIMARY",
        "P",
        "MB",
        "ND",
        "MOSAIC"
],
      "ImagedNucleus": "1H",
      "ImagingFrequency": 123.258768,
      "InPlanePhaseEncodingDirection": "COL",
      "LargestImagePixelValue": 4095,
      "MRAcquisitionType": "2D",
      "MagneticFieldStrength": 3.0,
      "Manufacturer": "SIEMENS",
      "ManufacturerModelName": "Prisma_fit",
      "Modality": "MR",
      "NumberOfAverages": 1.0,
      "NumberOfPhaseEncodingSteps": 104,
      "PercentPhaseFieldOfView": 100.0,
      "PercentSampling": 100.0,
      "PerformedProcedureStepStartTime": "112606.987000",
      "PhotometricInterpretation": "MONOCHROME2",
      "PixelBandwidth": 2290.0,
      "PixelRepresentation": 0,
      "PixelSpacing": [2.0, 2.0],
      "ProtocolName": "func_task-mario3_run-01",
      "RepetitionTime": 1490.0,
      "RescaleIntercept": -4096.0,
      "RescaleSlope": 2.0,
      "RescaleType": "US",
      "Rows": 832,
      "SAR": 0.06060275987212,
      "SamplesPerPixel": 1,
      "ScanOptions": "FS",
      "ScanningSequence": "EP",
      "SequenceName": "epfid2d1_104",
      "SequenceVariant": [
        "SK",
        "SS"
],
      "SeriesDescription": "func_task-mario3_run-01",
      "SeriesNumber": 11,
      "SeriesTime": "113008.617000",
      "SliceLocation": -46.918986491474,
      "SliceThickness": 2.0,
      "SmallestImagePixelValue": 0,
      "SoftwareVersions": "syngo MR E11",
      "SpacingBetweenSlices": 1.9999999813831,
      "SpecificCharacterSet": "ISO_IR 100",
      "StudyID": "1",
      "StudyTime": "112606.924000",
      "TransmitCoilName": "Body",
      "VariableFlipAngleFlag": "N",
      "WindowCenterWidthExplanation": "Algo1",
      "dBdt": 0.0},
    "slices": {}
  },
  "time": {
    "samples": {
      "AcquisitionNumber": [1, 2, 3, 4, 5, 6, 7, 8, 9, 10, 11, 12, 13, 14, 15, 16, 17, 18, 19, 20, 21, 22, 23, 24, 25, 26, 27, 28, 29, 30, 31, 32, 33, 34, 35, 36, 37, 38, 39, 40, 41, 42, 43, 44, 45, 46, 47, 48, 49, 50, 51, 52, 53, 54, 55, 56, 57, 58, 59, 60, 61, 62, 63, 64, 65, 66, 67, 68, 69, 70, 71, 72, 73, 74, 75, 76, 77, 78, 79, 80, 81, 82, 83, 84, 85, 86, 87, 88, 89, 90, 91, 92, 93, 94, 95, 96, 97, 98, 99, 100, 101, 102, 103, 104, 105, 106, 107, 108, 109, 110, 111, 112, 113, 114, 115, 116, 117, 118, 119, 120, 121, 122, 123, 124, 125, 126, 127, 128, 129, 130, 131, 132, 133, 134, 135, 136, 137, 138, 139, 140, 141, 142, 143, 144, 145, 146, 147, 148, 149, 150, 151, 152, 153, 154, 155, 156, 157, 158, 159, 160, 161, 162, 163, 164, 165, 166, 167, 168, 169, 170, 171, 172, 173, 174, 175, 176, 177, 178, 179, 180, 181, 182, 183, 184, 185, 186, 187, 188, 189, 190, 191, 192, 193, 194, 195, 196, 197, 198, 199, 200, 201, 202, 203, 204, 205, 206, 207, 208, 209, 210, 211, 212, 213, 214, 215, 216, 217, 218, 219, 220, 221, 222, 223, 224, 225, 226, 227, 228, 229, 230, 231, 232, 233, 234, 235, 236, 237, 238, 239, 240, 241, 242, 243, 244, 245, 246, 247, 248, 249, 250, 251, 252, 253, 254, 255, 256, 257, 258, 259, 260, 261, 262, 263, 264, 265, 266, 267, 268, 269, 270, 271, 272, 273, 274, 275, 276, 277, 278, 279, 280, 281, 282, 283, 284, 285, 286, 287, 288, 289, 290, 291, 292, 293, 294, 295, 296, 297, 298, 299, 300, 301, 302, 303, 304, 305, 306, 307, 308, 309, 310, 311, 312, 313, 314, 315, 316, 317, 318, 319, 320, 321, 322, 323, 324, 325, 326, 327, 328, 329, 330, 331, 332, 333, 334, 335, 336, 337, 338, 339, 340, 341, 342, 343, 344, 345, 346, 347, 348, 349, 350, 351, 352, 353, 354, 355, 356, 357, 358, 359, 360, 361, 362, 363, 364, 365, 366, 367, 368, 369, 370, 371, 372, 373, 374, 375, 376, 377, 378, 379, 380, 381, 382, 383, 384, 385, 386, 387, 388, 389, 390, 391, 392, 393, 394, 395, 396, 397, 398, 399, 400, 401, 402, 403, 404, 405, 406, 407, 408, 409, 410, 411, 412, 413, 414, 415, 416, 417, 418, 419, 420, 421, 422, 423, 424, 425, 426, 427, 428, 429],
      "AcquisitionTime": ["112903.940000", "112905.430000", "112906.920000", "112908.410000", "112909.900000", "112911.390000", "112912.880000", "112914.370000", "112915.860000", "112917.350000", "112918.840000", "112920.330000", "112921.820000", "112923.310000", "112924.800000", "112926.290000", "112927.780000", "112929.270000", "112930.760000", "112932.250000", "112933.740000", "112935.230000", "112936.720000", "112938.210000", "112939.700000", "112941.190000", "112942.680000", "112944.170000", "112945.660000", "112947.150000", "112948.640000", "112950.130000", "112951.620000", "112953.110000", "112954.600000", "112956.090000", "112957.580000", "112959.070000", "113000.560000", "113002.050000", "113003.540000", "113005.030000", "113006.520000", "113008.010000", "113009.500000", "113010.990000", "113012.480000", "113013.970000", "113015.460000", "113016.950000", "113018.440000", "113019.930000", "113021.420000", "113022.910000", "113024.400000", "113025.890000", "113027.380000", "113028.870000", "113030.360000", "113031.850000", "113033.340000", "113034.830000", "113036.320000", "113037.810000", "113039.300000", "113040.790000", "113042.280000", "113043.770000", "113045.260000", "113046.750000", "113048.240000", "113049.730000", "113051.220000", "113052.710000", "113054.200000", "113055.690000", "113057.180000", "113058.670000", "113100.160000", "113101.650000", "113103.140000", "113104.630000", "113106.120000", "113107.610000", "113109.100000", "113110.590000", "113112.080000", "113113.570000", "113115.060000", "113116.550000", "113118.040000", "113119.530000", "113121.020000", "113122.510000", "113124.000000", "113125.490000", "113126.980000", "113128.470000", "113129.960000", "113131.450000", "113132.940000", "113134.430000", "113135.920000", "113137.410000", "113138.900000", "113140.390000", "113141.880000", "113143.370000", "113144.860000", "113146.350000", "113147.840000", "113149.330000", "113150.820000", "113152.310000", "113153.800000", "113155.290000", "113156.780000", "113158.270000", "113159.760000", "113201.250000", "113202.740000", "113204.230000", "113205.720000", "113207.210000", "113208.700000", "113210.190000", "113211.680000", "113213.170000", "113214.660000", "113216.150000", "113217.640000", "113219.130000", "113220.620000", "113222.110000", "113223.600000", "113225.090000", "113226.580000", "113228.070000", "113229.560000", "113231.050000", "113232.540000", "113234.030000", "113235.520000", "113237.010000", "113238.500000", "113239.990000", "113241.480000", "113242.970000", "113244.460000", "113245.950000", "113247.440000", "113248.930000", "113250.420000", "113251.910000", "113253.400000", "113254.890000", "113256.380000", "113257.870000", "113259.360000", "113300.850000", "113302.340000", "113303.830000", "113305.320000", "113306.810000", "113308.300000", "113309.790000", "113311.280000", "113312.770000", "113314.260000", "113315.750000", "113317.240000", "113318.730000", "113320.220000", "113321.710000", "113323.200000", "113324.690000", "113326.180000", "113327.670000", "113329.160000", "113330.650000", "113332.140000", "113333.630000", "113335.120000", "113336.610000", "113338.100000", "113339.590000", "113341.080000", "113342.570000", "113344.060000", "113345.550000", "113347.040000", "113348.530000", "113350.020000", "113351.510000", "113353.000000", "113354.490000", "113355.980000", "113357.470000", "113358.960000", "113400.450000", "113401.940000", "113403.430000", "113404.920000", "113406.410000", "113407.900000", "113409.390000", "113410.880000", "113412.370000", "113413.860000", "113415.350000", "113416.840000", "113418.330000", "113419.820000", "113421.310000", "113422.800000", "113424.290000", "113425.780000", "113427.270000", "113428.760000", "113430.250000", "113431.740000", "113433.230000", "113434.720000", "113436.210000", "113437.700000", "113439.190000", "113440.680000", "113442.170000", "113443.660000", "113445.150000", "113446.640000", "113448.130000", "113449.620000", "113451.110000", "113452.600000", "113454.090000", "113455.580000", "113457.070000", "113458.560000", "113500.050000", "113501.540000", "113503.030000", "113504.520000", "113506.010000", "113507.500000", "113508.990000", "113510.480000", "113511.970000", "113513.460000", "113514.950000", "113516.440000", "113517.930000", "113519.420000", "113520.910000", "113522.400000", "113523.890000", "113525.380000", "113526.870000", "113528.360000", "113529.850000", "113531.340000", "113532.830000", "113534.320000", "113535.810000", "113537.300000", "113538.790000", "113540.280000", "113541.770000", "113543.260000", "113544.750000", "113546.240000", "113547.730000", "113549.220000", "113550.710000", "113552.200000", "113553.690000", "113555.180000", "113556.670000", "113558.160000", "113559.650000", "113601.140000", "113602.630000", "113604.120000", "113605.610000", "113607.100000", "113608.590000", "113610.080000", "113611.570000", "113613.060000", "113614.550000", "113616.040000", "113617.530000", "113619.020000", "113620.510000", "113622.000000", "113623.490000", "113624.980000", "113626.470000", "113627.960000", "113629.450000", "113630.940000", "113632.430000", "113633.920000", "113635.410000", "113636.900000", "113638.390000", "113639.880000", "113641.370000", "113642.860000", "113644.350000", "113645.840000", "113647.330000", "113648.820000", "113650.310000", "113651.800000", "113653.290000", "113654.780000", "113656.270000", "113657.760000", "113659.250000", "113700.740000", "113702.230000", "113703.720000", "113705.210000", "113706.700000", "113708.190000", "113709.680000", "113711.170000", "113712.660000", "113714.150000", "113715.640000", "113717.130000", "113718.620000", "113720.110000", "113721.600000", "113723.090000", "113724.580000", "113726.070000", "113727.560000", "113729.050000", "113730.540000", "113732.030000", "113733.520000", "113735.010000", "113736.500000", "113737.990000", "113739.480000", "113740.970000", "113742.460000", "113743.950000", "113745.440000", "113746.930000", "113748.420000", "113749.910000", "113751.400000", "113752.890000", "113754.380000", "113755.870000", "113757.360000", "113758.850000", "113800.340000", "113801.830000", "113803.320000", "113804.810000", "113806.300000", "113807.790000", "113809.280000", "113810.770000", "113812.260000", "113813.750000", "113815.240000", "113816.730000", "113818.220000", "113819.710000", "113821.200000", "113822.690000", "113824.180000", "113825.670000", "113827.160000", "113828.650000", "113830.140000", "113831.630000", "113833.120000", "113834.610000", "113836.100000", "113837.590000", "113839.080000", "113840.570000", "113842.060000", "113843.550000", "113845.040000", "113846.530000", "113848.020000", "113849.510000", "113851.000000", "113852.490000", "113853.980000", "113855.470000", "113856.960000", "113858.450000", "113859.940000", "113901.430000", "113902.920000", "113904.410000", "113905.900000", "113907.390000", "113908.880000", "113910.370000", "113911.860000", "113913.350000", "113914.840000", "113916.330000", "113917.820000", "113919.310000", "113920.800000", "113922.290000", "113923.780000", "113925.270000", "113926.760000", "113928.250000", "113929.740000", "113931.230000", "113932.720000", "113934.210000", "113935.700000", "113937.190000", "113938.680000", "113940.170000", "113941.660000"],
      "ContentTime": ["113008.620000", "113008.623000", "113008.625000", "113008.628000", "113008.630000", "113008.633000", "113008.635000", "113008.638000", "113008.640000", "113008.643000", "113008.645000", "113008.648000", "113008.650000", "113008.653000", "113028.593000", "113028.596000", "113028.599000", "113028.601000", "113028.604000", "113028.606000", "113028.609000", "113028.611000", "113028.614000", "113028.616000", "113028.619000", "113028.621000", "113028.630000", "113028.633000", "113028.635000", "113028.638000", "113028.640000", "113028.643000", "113028.646000", "113028.648000", "113048.610000", "113048.613000", "113048.615000", "113048.618000", "113048.620000", "113048.623000", "113048.625000", "113048.628000", "113048.630000", "113048.633000", "113048.635000", "113048.638000", "113048.640000", "113048.643000", "113048.645000", "113048.648000", "113048.656000", "113048.659000", "113048.661000", "113048.664000", "113108.597000", "113108.600000", "113108.602000", "113108.605000", "113108.608000", "113108.610000", "113108.613000", "113108.615000", "113108.618000", "113108.620000", "113108.623000", "113108.625000", "113108.628000", "113108.630000", "113108.632000", "113108.635000", "113108.637000", "113108.640000", "113108.642000", "113108.645000", "113128.602000", "113128.605000", "113128.607000", "113128.610000", "113128.612000", "113128.615000", "113128.617000", "113128.620000", "113128.623000", "113128.625000", "113128.628000", "113128.630000", "113128.633000", "113128.635000", "113128.638000", "113128.640000", "113128.643000", "113128.645000", "113128.648000", "113128.650000", "113208.649000", "113208.651000", "113208.654000", "113208.656000", "113208.659000", "113208.661000", "113208.664000", "113208.666000", "113208.669000", "113208.671000", "113208.674000", "113208.676000", "113208.679000", "113208.681000", "113208.684000", "113208.686000", "113208.689000", "113208.691000", "113208.694000", "113208.696000", "113208.699000", "113208.701000", "113208.704000", "113208.706000", "113208.709000", "113208.712000", "113208.714000", "113208.717000", "113208.719000", "113248.642000", "113248.645000", "113248.647000", "113248.650000", "113248.652000", "113248.655000", "113248.658000", "113248.660000", "113248.663000", "113248.666000", "113248.668000", "113248.671000", "113248.673000", "113248.676000", "113248.678000", "113248.681000", "113248.683000", "113248.686000", "113248.689000", "113248.691000", "113248.694000", "113248.696000", "113248.699000", "113248.701000", "113248.704000", "113248.707000", "113248.709000", "113328.639000", "113328.641000", "113328.644000", "113328.646000", "113328.649000", "113328.651000", "113328.654000", "113328.656000", "113328.659000", "113328.662000", "113328.664000", "113328.667000", "113328.669000", "113328.672000", "113328.674000", "113328.677000", "113328.679000", "113328.682000", "113328.684000", "113328.687000", "113328.689000", "113328.692000", "113328.694000", "113328.697000", "113328.699000", "113328.702000", "113328.704000", "113408.642000", "113408.644000", "113408.647000", "113408.649000", "113408.652000", "113408.655000", "113408.657000", "113408.659000", "113408.662000", "113408.664000", "113408.667000", "113408.670000", "113408.672000", "113408.675000", "113408.677000", "113408.680000", "113408.682000", "113408.685000", "113408.687000", "113408.690000", "113408.692000", "113408.695000", "113408.697000", "113408.700000", "113408.702000", "113408.705000", "113408.707000", "113448.621000", "113448.624000", "113448.627000", "113448.629000", "113448.632000", "113448.634000", "113448.637000", "113448.639000", "113448.642000", "113448.644000", "113448.647000", "113448.649000", "113448.652000", "113448.655000", "113448.658000", "113448.660000", "113448.663000", "113448.665000", "113448.668000", "113448.670000", "113448.673000", "113448.675000", "113448.678000", "113448.680000", "113448.683000", "113448.685000", "113448.688000", "113528.641000", "113528.644000", "113528.646000", "113528.649000", "113528.651000", "113528.654000", "113528.656000", "113528.659000", "113528.661000", "113528.664000", "113528.666000", "113528.669000", "113528.672000", "113528.674000", "113528.677000", "113528.680000", "113528.682000", "113528.685000", "113528.688000", "113528.692000", "113528.695000", "113528.697000", "113528.700000", "113528.703000", "113528.706000", "113528.708000", "113608.650000", "113608.653000", "113608.655000", "113608.658000", "113608.660000", "113608.663000", "113608.665000", "113608.668000", "113608.671000", "113608.673000", "113608.675000", "113608.678000", "113608.681000", "113608.683000", "113608.686000", "113608.688000", "113608.691000", "113608.693000", "113608.696000", "113608.698000", "113608.701000", "113608.703000", "113608.706000", "113608.708000", "113608.711000", "113608.713000", "113608.716000", "113648.630000", "113648.633000", "113648.635000", "113648.638000", "113648.640000", "113648.643000", "113648.645000", "113648.648000", "113648.651000", "113648.653000", "113648.656000", "113648.658000", "113648.661000", "113648.663000", "113648.666000", "113648.668000", "113648.671000", "113648.673000", "113648.676000", "113648.678000", "113648.681000", "113648.683000", "113648.686000", "113648.688000", "113648.691000", "113648.694000", "113648.696000", "113728.638000", "113728.641000", "113728.643000", "113728.646000", "113728.649000", "113728.651000", "113728.654000", "113728.656000", "113728.659000", "113728.661000", "113728.664000", "113728.666000", "113728.669000", "113728.671000", "113728.674000", "113728.676000", "113728.679000", "113728.681000", "113728.684000", "113728.686000", "113728.689000", "113728.692000", "113728.695000", "113728.697000", "113728.700000", "113728.703000", "113728.705000", "113809.154000", "113809.157000", "113809.160000", "113809.162000", "113809.165000", "113809.167000", "113809.170000", "113809.172000", "113809.175000", "113809.178000", "113809.180000", "113809.183000", "113809.185000", "113809.188000", "113809.190000", "113809.193000", "113809.195000", "113809.198000", "113809.200000", "113809.203000", "113809.206000", "113809.208000", "113809.211000", "113809.213000", "113809.216000", "113809.218000", "113809.221000", "113848.639000", "113848.641000", "113848.644000", "113848.646000", "113848.649000", "113848.652000", "113848.654000", "113848.657000", "113848.659000", "113848.662000", "113848.664000", "113848.667000", "113848.669000", "113848.672000", "113848.674000", "113848.677000", "113848.680000", "113848.682000", "113848.685000", "113848.687000", "113848.690000", "113848.692000", "113848.695000", "113848.698000", "113848.700000", "113848.703000", "113848.706000", "113928.631000", "113928.634000", "113928.636000", "113928.639000", "113928.641000", "113928.644000", "113928.646000", "113928.649000", "113928.651000", "113928.654000", "113928.657000", "113928.659000", "113928.662000", "113928.664000", "113928.667000", "113928.669000", "113928.672000", "113928.674000", "113928.677000", "113928.679000", "113928.682000", "113928.684000", "113928.687000", "113928.689000", "113928.692000", "113928.694000", "113943.685000", "113943.687000", "113943.690000", "113943.693000", "113943.695000", "113943.698000", "113943.700000", "113943.703000", "113943.705000", "113943.708000", "113943.710000"],
      "InstanceCreationTime": ["113008.620000", "113008.623000", "113008.625000", "113008.628000", "113008.630000", "113008.633000", "113008.635000", "113008.638000", "113008.640000", "113008.643000", "113008.645000", "113008.648000", "113008.650000", "113008.653000", "113028.593000", "113028.596000", "113028.599000", "113028.601000", "113028.604000", "113028.606000", "113028.609000", "113028.611000", "113028.614000", "113028.616000", "113028.619000", "113028.621000", "113028.630000", "113028.633000", "113028.635000", "113028.638000", "113028.640000", "113028.643000", "113028.646000", "113028.648000", "113048.610000", "113048.613000", "113048.615000", "113048.618000", "113048.620000", "113048.623000", "113048.625000", "113048.628000", "113048.630000", "113048.633000", "113048.635000", "113048.638000", "113048.640000", "113048.643000", "113048.645000", "113048.648000", "113048.656000", "113048.659000", "113048.661000", "113048.664000", "113108.597000", "113108.600000", "113108.602000", "113108.605000", "113108.608000", "113108.610000", "113108.613000", "113108.615000", "113108.618000", "113108.620000", "113108.623000", "113108.625000", "113108.628000", "113108.630000", "113108.632000", "113108.635000", "113108.637000", "113108.640000", "113108.642000", "113108.645000", "113128.602000", "113128.605000", "113128.607000", "113128.610000", "113128.612000", "113128.615000", "113128.617000", "113128.620000", "113128.623000", "113128.625000", "113128.628000", "113128.630000", "113128.633000", "113128.635000", "113128.638000", "113128.640000", "113128.643000", "113128.645000", "113128.648000", "113128.650000", "113208.649000", "113208.651000", "113208.654000", "113208.656000", "113208.659000", "113208.661000", "113208.664000", "113208.666000", "113208.669000", "113208.671000", "113208.674000", "113208.676000", "113208.679000", "113208.681000", "113208.684000", "113208.686000", "113208.689000", "113208.691000", "113208.694000", "113208.696000", "113208.699000", "113208.701000", "113208.704000", "113208.706000", "113208.709000", "113208.712000", "113208.714000", "113208.717000", "113208.719000", "113248.642000", "113248.645000", "113248.647000", "113248.650000", "113248.652000", "113248.655000", "113248.658000", "113248.660000", "113248.663000", "113248.666000", "113248.668000", "113248.671000", "113248.673000", "113248.676000", "113248.678000", "113248.681000", "113248.683000", "113248.686000", "113248.689000", "113248.691000", "113248.694000", "113248.696000", "113248.699000", "113248.701000", "113248.704000", "113248.707000", "113248.709000", "113328.639000", "113328.641000", "113328.644000", "113328.646000", "113328.649000", "113328.651000", "113328.654000", "113328.656000", "113328.659000", "113328.662000", "113328.664000", "113328.667000", "113328.669000", "113328.672000", "113328.674000", "113328.677000", "113328.679000", "113328.682000", "113328.684000", "113328.687000", "113328.689000", "113328.692000", "113328.694000", "113328.697000", "113328.699000", "113328.702000", "113328.704000", "113408.642000", "113408.644000", "113408.647000", "113408.649000", "113408.652000", "113408.655000", "113408.657000", "113408.659000", "113408.662000", "113408.664000", "113408.667000", "113408.670000", "113408.672000", "113408.675000", "113408.677000", "113408.680000", "113408.682000", "113408.685000", "113408.687000", "113408.690000", "113408.692000", "113408.695000", "113408.697000", "113408.700000", "113408.702000", "113408.705000", "113408.707000", "113448.621000", "113448.624000", "113448.627000", "113448.629000", "113448.632000", "113448.634000", "113448.637000", "113448.639000", "113448.642000", "113448.644000", "113448.647000", "113448.649000", "113448.652000", "113448.655000", "113448.658000", "113448.660000", "113448.663000", "113448.665000", "113448.668000", "113448.670000", "113448.673000", "113448.675000", "113448.678000", "113448.680000", "113448.683000", "113448.685000", "113448.688000", "113528.641000", "113528.644000", "113528.646000", "113528.649000", "113528.651000", "113528.654000", "113528.656000", "113528.659000", "113528.661000", "113528.664000", "113528.666000", "113528.669000", "113528.672000", "113528.674000", "113528.677000", "113528.680000", "113528.682000", "113528.685000", "113528.688000", "113528.692000", "113528.695000", "113528.697000", "113528.700000", "113528.703000", "113528.706000", "113528.708000", "113608.650000", "113608.653000", "113608.655000", "113608.658000", "113608.660000", "113608.663000", "113608.665000", "113608.668000", "113608.671000", "113608.673000", "113608.675000", "113608.678000", "113608.681000", "113608.683000", "113608.686000", "113608.688000", "113608.691000", "113608.693000", "113608.696000", "113608.698000", "113608.701000", "113608.703000", "113608.706000", "113608.708000", "113608.711000", "113608.713000", "113608.716000", "113648.630000", "113648.633000", "113648.635000", "113648.638000", "113648.640000", "113648.643000", "113648.645000", "113648.648000", "113648.651000", "113648.653000", "113648.656000", "113648.658000", "113648.661000", "113648.663000", "113648.666000", "113648.668000", "113648.671000", "113648.673000", "113648.676000", "113648.678000", "113648.681000", "113648.683000", "113648.686000", "113648.688000", "113648.691000", "113648.694000", "113648.696000", "113728.638000", "113728.641000", "113728.643000", "113728.646000", "113728.649000", "113728.651000", "113728.654000", "113728.656000", "113728.659000", "113728.661000", "113728.664000", "113728.666000", "113728.669000", "113728.671000", "113728.674000", "113728.676000", "113728.679000", "113728.681000", "113728.684000", "113728.686000", "113728.689000", "113728.692000", "113728.695000", "113728.697000", "113728.700000", "113728.703000", "113728.705000", "113809.154000", "113809.157000", "113809.160000", "113809.162000", "113809.165000", "113809.167000", "113809.170000", "113809.172000", "113809.175000", "113809.178000", "113809.180000", "113809.183000", "113809.185000", "113809.188000", "113809.190000", "113809.193000", "113809.195000", "113809.198000", "113809.200000", "113809.203000", "113809.206000", "113809.208000", "113809.211000", "113809.213000", "113809.216000", "113809.218000", "113809.221000", "113848.639000", "113848.641000", "113848.644000", "113848.646000", "113848.649000", "113848.652000", "113848.654000", "113848.657000", "113848.659000", "113848.662000", "113848.664000", "113848.667000", "113848.669000", "113848.672000", "113848.674000", "113848.677000", "113848.680000", "113848.682000", "113848.685000", "113848.687000", "113848.690000", "113848.692000", "113848.695000", "113848.698000", "113848.700000", "113848.703000", "113848.706000", "113928.631000", "113928.634000", "113928.636000", "113928.639000", "113928.641000", "113928.644000", "113928.646000", "113928.649000", "113928.651000", "113928.654000", "113928.657000", "113928.659000", "113928.662000", "113928.664000", "113928.667000", "113928.669000", "113928.672000", "113928.674000", "113928.677000", "113928.679000", "113928.682000", "113928.684000", "113928.687000", "113928.689000", "113928.692000", "113928.694000", "113943.685000", "113943.687000", "113943.690000", "113943.693000", "113943.695000", "113943.698000", "113943.700000", "113943.703000", "113943.705000", "113943.708000", "113943.710000"],
