{
  "AcquisitionMatrixPE": 104,
  "AcquisitionNumber": 1,
  "AcquisitionTime": "11:40:34.900000",
  "BandwidthPerPixelPhaseEncode": 17.17,
  "BaseResolution": 104,
  "BodyPartExamined": "BRAIN",
  "CoilCombinationMethod": "Sum of Squares",
  "ConsistencyInfo": "N4_VE11C_LATEST_20160120",
  "ConversionSoftware": "dcm2niix",
  "ConversionSoftwareVersion": "v1.0.20220505",
  "DerivedVendorReportedEchoSpacing": 0.000560011,
  "DeviceSerialNumber": "167006",
  "DwellTime": 2.1e-06,
  "EchoTime": 0.037,
  "EchoTrainLength": 104,
  "EffectiveEchoSpacing": 0.000560011,
  "FlipAngle": 52,
  "HeudiconvVersion": "0.5.3.post811+g6206e14",
  "ImageComments": "Unaliased MB4/PE3/LB",
  "ImageOrientationPatientDICOM": [0.998578, -0.00516706, 0.0530537, 0.0336497, 0.833015, -0.552226],
  "ImageOrientationText": "Tra>Cor(-33.6)>Sag(2.4)",
  "ImageType": [
    "ORIGINAL",
    "PRIMARY",
    "M",
    "MB",
    "ND",
    "MOSAIC"
],
  "ImagingFrequency": 123.259,
  "InPlanePhaseEncodingDirectionDICOM": "COL",
  "InstitutionAddress": "Chemin Queen-Mary 4565,Montreal,District,CA,H3W 1W5",
  "InstitutionName": "IUGM",
  "InstitutionalDepartmentName": "Department",
  "MRAcquisitionType": "2D",
  "MagneticFieldStrength": 3,
  "Manufacturer": "Siemens",
  "ManufacturersModelName": "Prisma_fit",
  "MatrixCoilMode": "SENSE",
  "Modality": "MR",
  "MultibandAccelerationFactor": 4,
  "PartialFourier": 1,
  "PatientPosition": "HFS",
  "PercentPhaseFOV": 100,
  "PercentSampling": 100,
  "PhaseEncodingDirection": "j",
  "PhaseEncodingSteps": 104,
  "PhaseResolution": 1,
  "PixelBandwidth": 2290,
  "ProcedureStepDescription": "games^mario3",
  "ProtocolName": "func_task-mario3_run-02",
  "PulseSequenceDetails": "%CustomerSeq%\\cmrr_mbep2d_bold",
  "ReceiveCoilActiveElements": "HC1-7;NC1,2",
  "ReceiveCoilName": "HeadNeck_64",
  "ReconMatrixPE": 104,
  "RepetitionTime": 1.49,
  "SAR": 0.0606028,
  "ScanOptions": "FS",
  "ScanningSequence": "EP",
  "SequenceName": "epfid2d1_104",
  "SequenceVariant": "SK\\SS",
  "SeriesDescription": "func_task-mario3_run-02",
  "SeriesNumber": 13,
  "ShimSetting": [627, -7194, -8873, 220, 36, -201, -1, 44],
  "SliceThickness": 2,
  "SliceTiming": [0, 0.785, 0.1, 0.8825, 0.1975, 0.98, 0.295, 1.08, 0.3925, 1.1775, 0.49, 1.275, 0.59, 1.3725, 0.6875, 0, 0.785, 0.1, 0.8825, 0.1975, 0.98, 0.295, 1.08, 0.3925, 1.1775, 0.49, 1.275, 0.59, 1.3725, 0.6875, 0, 0.785, 0.1, 0.8825, 0.1975, 0.98, 0.295, 1.08, 0.3925, 1.1775, 0.49, 1.275, 0.59, 1.3725, 0.6875, 0, 0.785, 0.1, 0.8825, 0.1975, 0.98, 0.295, 1.08, 0.3925, 1.1775, 0.49, 1.275, 0.59, 1.3725, 0.6875],
  "SoftwareVersions": "syngo MR E11",
  "SpacingBetweenSlices": 2,
  "StationName": "MRC35049",
  "TaskName": "mario3",
  "TotalReadoutTime": 0.0576811,
  "TxRefAmp": 286.738,
  "WipMemBlock": "a0532b4d-cd8e-4ab4-9fef-86ee9786f7e8||Sequence: R017 ve11c/master r/75a17815+; Jun 28 2022 16:32:11 by eja",
  "dcmmeta_affine": [
    [-1.9971566200256348, 0.06729941815137863, 0.082682304084301, 101.68578338623047],
    [0.010334121994674206, 1.6660302877426147, -1.1064521074295044, -46.56220626831055],
    [0.10610740631818771, 1.1044517755508423, 1.66400945186615, -92.40599060058594],
    [0.0, 0.0, 0.0, 1.0]
],
  "dcmmeta_reorient_transform": [
    [0.0, -1.0, 0.0, 103.0],
    [1.0, 0.0, 0.0, 0.0],
    [0.0, 0.0, 1.0, 0.0],
    [0.0, 0.0, 0.0, 1.0]
],
  "dcmmeta_shape": [104, 104, 60, 297],
  "dcmmeta_slice_dim": 2,
  "dcmmeta_version": 0.6,
  "global": {
    "const": {
      "AcquisitionMatrix": [104, 0, 0, 104],
      "AngioFlag": "N",
      "BitsAllocated": 16,
      "BitsStored": 16,
      "BodyPartExamined": "BRAIN",
      "Columns": 832,
      "EchoNumbers": 1,
      "EchoTime": 37.0,
      "EchoTrainLength": 104,
      "FlipAngle": 52.0,
      "HighBit": 15,
      "ImageOrientationPatient": [0.99857829247016, -0.00516706094, 0.05305370193141, 0.03364970804831, 0.83301516244276, -0.5522258924469],
      "ImagePositionPatient": [-860.07960431501, -727.71233514142, 384.74990119599],
      "ImageType": [
        "ORIGINAL",
        "PRIMARY",
        "M",
        "MB",
        "ND",
        "MOSAIC"
],
      "ImagedNucleus": "1H",
      "ImagingFrequency": 123.258776,
      "InPlanePhaseEncodingDirection": "COL",
      "MRAcquisitionType": "2D",
      "MagneticFieldStrength": 3.0,
      "Manufacturer": "SIEMENS",
      "ManufacturerModelName": "Prisma_fit",
      "Modality": "MR",
      "NumberOfAverages": 1.0,
      "NumberOfPhaseEncodingSteps": 104,
      "PercentPhaseFieldOfView": 100.0,
      "PercentSampling": 100.0,
      "PerformedProcedureStepStartTime": "112606.987000",
      "PhotometricInterpretation": "MONOCHROME2",
      "PixelBandwidth": 2290.0,
      "PixelRepresentation": 0,
      "PixelSpacing": [2.0, 2.0],
      "ProtocolName": "func_task-mario3_run-02",
      "RepetitionTime": 1490.0,
      "Rows": 832,
      "SAR": 0.06060275987212,
      "SamplesPerPixel": 1,
      "ScanOptions": "FS",
      "ScanningSequence": "EP",
      "SequenceName": "epfid2d1_104",
      "SequenceVariant": [
        "SK",
        "SS"
],
      "SeriesDescription": "func_task-mario3_run-02",
      "SeriesNumber": 13,
      "SeriesTime": "114158.113000",
      "SliceLocation": -46.918986491474,
      "SliceThickness": 2.0,
      "SmallestImagePixelValue": 0,
      "SoftwareVersions": "syngo MR E11",
      "SpacingBetweenSlices": 1.9999999813831,
      "SpecificCharacterSet": "ISO_IR 100",
      "StudyID": "1",
      "StudyTime": "112606.924000",
      "TransmitCoilName": "Body",
      "VariableFlipAngleFlag": "N",
      "WindowCenterWidthExplanation": "Algo1",
      "dBdt": 0.0},
    "slices": {}
  },
  "time": {
    "samples": {
      "AcquisitionNumber": [1, 2, 3, 4, 5, 6, 7, 8, 9, 10, 11, 12, 13, 14, 15, 16, 17, 18, 19, 20, 21, 22, 23, 24, 25, 26, 27, 28, 29, 30, 31, 32, 33, 34, 35, 36, 37, 38, 39, 40, 41, 42, 43, 44, 45, 46, 47, 48, 49, 50, 51, 52, 53, 54, 55, 56, 57, 58, 59, 60, 61, 62, 63, 64, 65, 66, 67, 68, 69, 70, 71, 72, 73, 74, 75, 76, 77, 78, 79, 80, 81, 82, 83, 84, 85, 86, 87, 88, 89, 90, 91, 92, 93, 94, 95, 96, 97, 98, 99, 100, 101, 102, 103, 104, 105, 106, 107, 108, 109, 110, 111, 112, 113, 114, 115, 116, 117, 118, 119, 120, 121, 122, 123, 124, 125, 126, 127, 128, 129, 130, 131, 132, 133, 134, 135, 136, 137, 138, 139, 140, 141, 142, 143, 144, 145, 146, 147, 148, 149, 150, 151, 152, 153, 154, 155, 156, 157, 158, 159, 160, 161, 162, 163, 164, 165, 166, 167, 168, 169, 170, 171, 172, 173, 174, 175, 176, 177, 178, 179, 180, 181, 182, 183, 184, 185, 186, 187, 188, 189, 190, 191, 192, 193, 194, 195, 196, 197, 198, 199, 200, 201, 202, 203, 204, 205, 206, 207, 208, 209, 210, 211, 212, 213, 214, 215, 216, 217, 218, 219, 220, 221, 222, 223, 224, 225, 226, 227, 228, 229, 230, 231, 232, 233, 234, 235, 236, 237, 238, 239, 240, 241, 242, 243, 244, 245, 246, 247, 248, 249, 250, 251, 252, 253, 254, 255, 256, 257, 258, 259, 260, 261, 262, 263, 264, 265, 266, 267, 268, 269, 270, 271, 272, 273, 274, 275, 276, 277, 278, 279, 280, 281, 282, 283, 284, 285, 286, 287, 288, 289, 290, 291, 292, 293, 294, 295, 296, 297],
      "AcquisitionTime": ["114034.900000", "114036.390000", "114037.880000", "114039.370000", "114040.860000", "114042.350000", "114043.840000", "114045.330000", "114046.820000", "114048.310000", "114049.800000", "114051.290000", "114052.780000", "114054.270000", "114055.760000", "114057.250000", "114058.740000", "114100.230000", "114101.720000", "114103.210000", "114104.700000", "114106.190000", "114107.680000", "114109.170000", "114110.660000", "114112.150000", "114113.640000", "114115.130000", "114116.620000", "114118.110000", "114119.600000", "114121.090000", "114122.580000", "114124.070000", "114125.560000", "114127.050000", "114128.540000", "114130.030000", "114131.520000", "114133.010000", "114134.500000", "114135.990000", "114137.480000", "114138.970000", "114140.460000", "114141.950000", "114143.440000", "114144.930000", "114146.420000", "114147.910000", "114149.400000", "114150.890000", "114152.380000", "114153.870000", "114155.360000", "114156.850000", "114158.340000", "114159.830000", "114201.320000", "114202.810000", "114204.300000", "114205.790000", "114207.280000", "114208.770000", "114210.260000", "114211.750000", "114213.240000", "114214.730000", "114216.220000", "114217.710000", "114219.200000", "114220.690000", "114222.180000", "114223.670000", "114225.160000", "114226.650000", "114228.140000", "114229.630000", "114231.120000", "114232.610000", "114234.100000", "114235.590000", "114237.080000", "114238.570000", "114240.060000", "114241.550000", "114243.040000", "114244.530000", "114246.020000", "114247.510000", "114249.000000", "114250.490000", "114251.980000", "114253.470000", "114254.960000", "114256.450000", "114257.940000", "114259.430000", "114300.920000", "114302.410000", "114303.900000", "114305.390000", "114306.880000", "114308.370000", "114309.860000", "114311.350000", "114312.840000", "114314.330000", "114315.820000", "114317.310000", "114318.800000", "114320.290000", "114321.780000", "114323.270000", "114324.760000", "114326.250000", "114327.740000", "114329.230000", "114330.720000", "114332.210000", "114333.700000", "114335.190000", "114336.680000", "114338.170000", "114339.660000", "114341.150000", "114342.640000", "114344.130000", "114345.620000", "114347.110000", "114348.600000", "114350.090000", "114351.580000", "114353.070000", "114354.560000", "114356.050000", "114357.540000", "114359.030000", "114400.520000", "114402.010000", "114403.500000", "114404.990000", "114406.480000", "114407.970000", "114409.460000", "114410.950000", "114412.440000", "114413.930000", "114415.420000", "114416.910000", "114418.400000", "114419.890000", "114421.380000", "114422.870000", "114424.360000", "114425.850000", "114427.340000", "114428.830000", "114430.320000", "114431.810000", "114433.300000", "114434.790000", "114436.280000", "114437.770000", "114439.260000", "114440.750000", "114442.240000", "114443.730000", "114445.220000", "114446.710000", "114448.200000", "114449.690000", "114451.180000", "114452.670000", "114454.160000", "114455.650000", "114457.140000", "114458.630000", "114500.120000", "114501.610000", "114503.100000", "114504.590000", "114506.080000", "114507.570000", "114509.060000", "114510.550000", "114512.040000", "114513.530000", "114515.020000", "114516.510000", "114518.000000", "114519.490000", "114520.980000", "114522.470000", "114523.960000", "114525.450000", "114526.940000", "114528.430000", "114529.920000", "114531.410000", "114532.900000", "114534.390000", "114535.880000", "114537.370000", "114538.860000", "114540.350000", "114541.840000", "114543.330000", "114544.820000", "114546.310000", "114547.800000", "114549.290000", "114550.780000", "114552.270000", "114553.760000", "114555.250000", "114556.740000", "114558.230000", "114559.720000", "114601.210000", "114602.700000", "114604.190000", "114605.680000", "114607.170000", "114608.660000", "114610.150000", "114611.640000", "114613.130000", "114614.620000", "114616.110000", "114617.600000", "114619.090000", "114620.580000", "114622.070000", "114623.560000", "114625.050000", "114626.540000", "114628.030000", "114629.520000", "114631.010000", "114632.500000", "114633.990000", "114635.480000", "114636.970000", "114638.460000", "114639.950000", "114641.440000", "114642.930000", "114644.420000", "114645.910000", "114647.400000", "114648.890000", "114650.380000", "114651.870000", "114653.360000", "114654.850000", "114656.340000", "114657.830000", "114659.320000", "114700.810000", "114702.300000", "114703.790000", "114705.280000", "114706.770000", "114708.260000", "114709.750000", "114711.240000", "114712.730000", "114714.220000", "114715.710000", "114717.200000", "114718.690000", "114720.180000", "114721.670000", "114723.160000", "114724.650000", "114726.140000", "114727.630000", "114729.120000", "114730.610000", "114732.100000", "114733.590000", "114735.080000", "114736.570000", "114738.060000", "114739.550000", "114741.040000", "114742.530000", "114744.020000", "114745.510000", "114747.000000", "114748.490000", "114749.980000", "114751.470000", "114752.960000", "114754.450000", "114755.940000"],
      "ContentTime": ["114158.117000", "114158.121000", "114158.124000", "114158.127000", "114158.131000", "114158.134000", "114158.137000", "114158.141000", "114158.144000", "114158.147000", "114158.151000", "114158.154000", "114158.157000", "114158.161000", "114158.164000", "114158.167000", "114158.170000", "114158.174000", "114158.177000", "114158.180000", "114158.184000", "114158.187000", "114158.190000", "114158.194000", "114158.197000", "114158.200000", "114158.204000", "114158.207000", "114158.211000", "114158.214000", "114158.218000", "114158.221000", "114158.224000", "114158.238000", "114158.241000", "114218.080000", "114218.084000", "114218.087000", "114218.091000", "114218.094000", "114218.097000", "114218.101000", "114218.104000", "114218.107000", "114218.110000", "114218.114000", "114218.117000", "114218.121000", "114218.124000", "114218.127000", "114218.131000", "114218.134000", "114218.137000", "114218.141000", "114218.144000", "114238.079000", "114238.083000", "114238.086000", "114238.090000", "114238.093000", "114238.096000", "114238.100000", "114238.103000", "114238.107000", "114238.110000", "114238.113000", "114238.117000", "114238.120000", "114238.123000", "114238.127000", "114238.130000", "114238.133000", "114238.137000", "114238.140000", "114238.143000", "114258.079000", "114258.083000", "114258.086000", "114258.090000", "114258.093000", "114258.096000", "114258.099000", "114258.103000", "114258.106000", "114258.109000", "114258.113000", "114258.116000", "114258.119000", "114258.123000", "114258.126000", "114258.129000", "114258.133000", "114258.136000", "114258.139000", "114258.143000", "114338.079000", "114338.094000", "114338.097000", "114338.101000", "114338.104000", "114338.108000", "114338.111000", "114338.114000", "114338.118000", "114338.121000", "114338.124000", "114338.128000", "114338.131000", "114338.134000", "114338.138000", "114338.141000", "114338.144000", "114338.148000", "114338.151000", "114338.154000", "114338.158000", "114338.161000", "114338.164000", "114338.168000", "114338.171000", "114338.174000", "114338.178000", "114418.078000", "114418.082000", "114418.085000", "114418.089000", "114418.092000", "114418.095000", "114418.099000", "114418.102000", "114418.105000", "114418.109000", "114418.112000", "114418.115000", "114418.119000", "114418.122000", "114418.125000", "114418.129000", "114418.132000", "114418.135000", "114418.139000", "114418.142000", "114418.145000", "114418.149000", "114418.152000", "114418.155000", "114418.159000", "114418.162000", "114418.165000", "114458.079000", "114458.083000", "114458.086000", "114458.090000", "114458.093000", "114458.096000", "114458.100000", "114458.103000", "114458.107000", "114458.110000", "114458.113000", "114458.117000", "114458.120000", "114458.123000", "114458.127000", "114458.130000", "114458.133000", "114458.137000", "114458.140000", "114458.143000", "114458.147000", "114458.150000", "114458.153000", "114458.157000", "114458.160000", "114458.163000", "114458.167000", "114538.079000", "114538.083000", "114538.086000", "114538.090000", "114538.093000", "114538.096000", "114538.100000", "114538.103000", "114538.107000", "114538.110000", "114538.113000", "114538.116000", "114538.120000", "114538.123000", "114538.127000", "114538.130000", "114538.133000", "114538.136000", "114538.140000", "114538.143000", "114538.157000", "114538.160000", "114538.164000", "114538.167000", "114538.170000", "114538.174000", "114538.177000", "114618.079000", "114618.083000", "114618.088000", "114618.091000", "114618.095000", "114618.098000", "114618.104000", "114618.109000", "114618.113000", "114618.117000", "114618.121000", "114618.125000", "114618.128000", "114618.132000", "114618.135000", "114618.139000", "114618.142000", "114618.145000", "114618.149000", "114618.152000", "114618.156000", "114618.159000", "114618.162000", "114618.166000", "114618.169000", "114618.172000", "114658.079000", "114658.083000", "114658.086000", "114658.090000", "114658.093000", "114658.096000", "114658.100000", "114658.103000", "114658.107000", "114658.110000", "114658.113000", "114658.117000", "114658.120000", "114658.123000", "114658.127000", "114658.130000", "114658.133000", "114658.137000", "114658.140000", "114658.143000", "114658.147000", "114658.150000", "114658.153000", "114658.157000", "114658.160000", "114658.163000", "114658.167000", "114738.079000", "114738.083000", "114738.086000", "114738.090000", "114738.093000", "114738.097000", "114738.100000", "114738.103000", "114738.107000", "114738.110000", "114738.113000", "114738.117000", "114738.120000", "114738.124000", "114738.127000", "114738.130000", "114738.134000", "114738.137000", "114738.140000", "114738.144000", "114738.147000", "114738.150000", "114738.154000", "114738.157000", "114738.160000", "114738.163000", "114738.167000", "114758.558000", "114758.562000", "114758.576000", "114758.580000", "114758.583000", "114758.587000", "114758.590000", "114758.594000", "114758.597000", "114758.601000", "114758.604000", "114758.608000", "114758.611000", "114758.615000"],
      "InstanceCreationTime": ["114158.117000", "114158.121000", "114158.124000", "114158.127000", "114158.131000", "114158.134000", "114158.137000", "114158.141000", "114158.144000", "114158.147000", "114158.151000", "114158.154000", "114158.157000", "114158.161000", "114158.164000", "114158.167000", "114158.170000", "114158.174000", "114158.177000", "114158.180000", "114158.184000", "114158.187000", "114158.190000", "114158.194000", "114158.197000", "114158.200000", "114158.204000", "114158.207000", "114158.211000", "114158.214000", "114158.218000", "114158.221000", "114158.224000", "114158.238000", "114158.241000", "114218.080000", "114218.084000", "114218.087000", "114218.091000", "114218.094000", "114218.097000", "114218.101000", "114218.104000", "114218.107000", "114218.110000", "114218.114000", "114218.117000", "114218.121000", "114218.124000", "114218.127000", "114218.131000", "114218.134000", "114218.137000", "114218.141000", "114218.144000", "114238.079000", "114238.083000", "114238.086000", "114238.090000", "114238.093000", "114238.096000", "114238.100000", "114238.103000", "114238.107000", "114238.110000", "114238.113000", "114238.117000", "114238.120000", "114238.123000", "114238.127000", "114238.130000", "114238.133000", "114238.137000", "114238.140000", "114238.143000", "114258.079000", "114258.083000", "114258.086000", "114258.090000", "114258.093000", "114258.096000", "114258.099000", "114258.103000", "114258.106000", "114258.109000", "114258.113000", "114258.116000", "114258.119000", "114258.123000", "114258.126000", "114258.129000", "114258.133000", "114258.136000", "114258.139000", "114258.143000", "114338.079000", "114338.094000", "114338.097000", "114338.101000", "114338.104000", "114338.108000", "114338.111000", "114338.114000", "114338.118000", "114338.121000", "114338.124000", "114338.128000", "114338.131000", "114338.134000", "114338.138000", "114338.141000", "114338.144000", "114338.148000", "114338.151000", "114338.154000", "114338.158000", "114338.161000", "114338.164000", "114338.168000", "114338.171000", "114338.174000", "114338.178000", "114418.078000", "114418.082000", "114418.085000", "114418.089000", "114418.092000", "114418.095000", "114418.099000", "114418.102000", "114418.105000", "114418.109000", "114418.112000", "114418.115000", "114418.119000", "114418.122000", "114418.125000", "114418.129000", "114418.132000", "114418.135000", "114418.139000", "114418.142000", "114418.145000", "114418.149000", "114418.152000", "114418.155000", "114418.159000", "114418.162000", "114418.165000", "114458.079000", "114458.083000", "114458.086000", "114458.090000", "114458.093000", "114458.096000", "114458.100000", "114458.103000", "114458.107000", "114458.110000", "114458.113000", "114458.117000", "114458.120000", "114458.123000", "114458.127000", "114458.130000", "114458.133000", "114458.137000", "114458.140000", "114458.143000", "114458.147000", "114458.150000", "114458.153000", "114458.157000", "114458.160000", "114458.163000", "114458.167000", "114538.079000", "114538.083000", "114538.086000", "114538.090000", "114538.093000", "114538.096000", "114538.100000", "114538.103000", "114538.107000", "114538.110000", "114538.113000", "114538.116000", "114538.120000", "114538.123000", "114538.127000", "114538.130000", "114538.133000", "114538.136000", "114538.140000", "114538.143000", "114538.157000", "114538.160000", "114538.164000", "114538.167000", "114538.170000", "114538.174000", "114538.177000", "114618.079000", "114618.083000", "114618.088000", "114618.091000", "114618.095000", "114618.098000", "114618.104000", "114618.109000", "114618.113000", "114618.117000", "114618.121000", "114618.125000", "114618.128000", "114618.132000", "114618.135000", "114618.139000", "114618.142000", "114618.145000", "114618.149000", "114618.152000", "114618.156000", "114618.159000", "114618.162000", "114618.166000", "114618.169000", "114618.172000", "114658.079000", "114658.083000", "114658.086000", "114658.090000", "114658.093000", "114658.096000", "114658.100000", "114658.103000", "114658.107000", "114658.110000", "114658.113000", "114658.117000", "114658.120000", "114658.123000", "114658.127000", "114658.130000", "114658.133000", "114658.137000", "114658.140000", "114658.143000", "114658.147000", "114658.150000", "114658.153000", "114658.157000", "114658.160000", "114658.163000", "114658.167000", "114738.079000", "114738.083000", "114738.086000", "114738.090000", "114738.093000", "114738.097000", "114738.100000", "114738.103000", "114738.107000", "114738.110000", "114738.113000", "114738.117000", "114738.120000", "114738.124000", "114738.127000", "114738.130000", "114738.134000", "114738.137000", "114738.140000", "114738.144000", "114738.147000", "114738.150000", "114738.154000", "114738.157000", "114738.160000", "114738.163000", "114738.167000", "114758.558000", "114758.562000", "114758.576000", "114758.580000", "114758.583000", "114758.587000", "114758.590000", "114758.594000", "114758.597000", "114758.601000", "114758.604000", "114758.608000", "114758.611000", "114758.615000"],
      "InstanceNumber": [1, 2, 3, 4, 5, 6, 7, 8, 9, 10, 11, 12, 13, 14, 15, 16, 17, 18, 19, 20, 21, 22, 23, 24, 25, 26, 27, 28, 29, 30, 31, 32, 33, 34, 35, 36, 37, 38, 39, 40, 41, 42, 43, 44, 45, 46, 47, 48, 49, 50, 51, 52, 53, 54, 55, 56, 57, 58, 59, 60, 61, 62, 63, 64, 65, 66, 67, 68, 69, 70, 71, 72, 73, 74, 75, 76, 77, 78, 79, 80, 81, 82, 83, 84, 85, 86, 87, 88, 89, 90, 91, 92, 93, 94, 95, 96, 97, 98, 99, 100, 101, 102, 103, 104, 105, 106, 107, 108, 109, 110, 111, 112, 113, 114, 115, 116, 117, 118, 119, 120, 121, 122, 123, 124, 125, 126, 127, 128, 129, 130, 131, 132, 133, 134, 135, 136, 137, 138, 139, 140, 141, 142, 143, 144, 145, 146, 147, 148, 149, 150, 151, 152, 153, 154, 155, 156, 157, 158, 159, 160, 161, 162, 163, 164, 165, 166, 167, 168, 169, 170, 171, 172, 173, 174, 175, 176, 177, 178, 179, 180, 181, 182, 183, 184, 185, 186, 187, 188, 189, 190, 191, 192, 193, 194, 195, 196, 197, 198, 199, 200, 201, 202, 203, 204, 205, 206, 207, 208, 209, 210, 211, 212, 213, 214, 215, 216, 217, 218, 219, 220, 221, 222, 223, 224, 225, 226, 227, 228, 229, 230, 231, 232, 233, 234, 235, 236, 237, 238, 239, 240, 241, 242, 243, 244, 245, 246, 247, 248, 249, 250, 251, 252, 253, 254, 255, 256, 257, 258, 259, 260, 261, 262, 263, 264, 265, 266, 267, 268, 269, 270, 271, 272, 273, 274, 275, 276, 277, 278, 279, 280, 281, 282, 283, 284, 285, 286, 287, 288, 289, 290, 291, 292, 293, 294, 295, 296, 297],
      "LargestImagePixelValue": [47571, 46419, 45363, 45908, 45998, 46360, 46043, 46025, 45820, 45184, 45092, 45066, 45610, 43699, 46271, 46412, 45148, 44869, 45404, 44265, 44451, 44625, 44258, 44828, 49478, 45614, 44148, 45872, 46679, 45153, 46239, 44322, 45467, 45641, 44379, 45218, 46122, 47910, 47607, 48160, 46700, 46323, 47193, 50463, 44416, 46579, 47083, 46537, 47354, 46995, 58664, 45042, 46745, 46839, 47092, 46652, 47236, 46153, 47511, 47338, 47447, 46611, 45593, 44466, 44972, 45638, 45835, 46636, 46969, 46029, 45949, 46225, 44707, 44971, 45445, 48845, 45839, 46421, 46010, 46188, 46689, 46003, 46469, 51387, 50452, 45009, 46443, 45354, 45480, 45807, 45982, 45548, 45818, 56748, 46438, 45125, 45419, 44991, 45302, 46290, 46397, 44663, 45456, 45863, 46286, 45597, 46196, 45282, 45065, 44844, 45125, 45747, 45238, 45596, 46017, 45174, 45123, 45515, 45433, 45308, 44930, 45716, 46316, 51681, 51993, 47128, 46853, 47496, 45864, 44591, 44566, 45880, 45215, 45923, 46409, 46788, 46845, 47383, 45295, 59796, 45755, 44707, 45287, 45502, 46011, 46436, 46164, 47024, 47161, 47172, 46068, 45871, 43826, 44368, 45427, 46190, 45404, 46380, 44911, 46637, 53628, 46341, 46797, 46802, 46408, 45953, 46191, 50706, 47164, 46428, 47501, 46958, 47295, 45640, 46401, 48361, 46202, 45080, 46509, 45709, 45960, 46196, 46311, 44500, 46435, 46147, 59600, 46948, 46207, 45813, 46381, 46361, 45788, 46268, 46035, 46762, 47480, 46811, 46933, 47553, 47210, 47036, 46571, 45980, 45919, 46081, 47178, 46889, 46714, 46341, 45803, 46181, 45520, 45807, 45239, 46906, 46316, 47031, 47092, 46819, 45802, 46084, 46412, 45743, 45826, 46639, 46855, 46919, 46496, 45572, 45842, 45570, 45173, 46071, 46061, 46883, 45821, 46965, 45408, 46102, 46190, 46147, 45664, 46134, 45738, 45920, 45954, 46043, 45984, 45589, 46053, 46138, 45903, 46424, 47102, 46676, 45363, 44832, 45658, 45894, 45936, 46264, 45146, 47048, 46433, 47670, 46631, 46065, 45389, 45125, 44214, 43884, 43573, 44442, 45041, 44903, 45895, 46441, 46188, 45963, 46098, 45677, 45361, 45214, 46212, 46020, 46047, 45520, 45293, 46181, 46847, 46654, 45122, 46053, 45995, 45464, 43956],
      "WindowCenter": [11296.0, 11244.0, 11202.0, 11180.0, 11156.0, 11127.0, 11105.0, 11078.0, 11133.0, 11168.0, 11183.0, 11197.0, 11203.0, 11199.0, 11258.0, 11243.0, 11211.0, 11177.0, 11158.0, 11134.0, 11150.0, 11141.0, 11145.0, 11109.0, 11197.0, 11173.0, 11176.0, 11216.0, 11196.0, 11156.0, 11131.0, 11114.0, 11167.0, 11221.0, 11223.0, 11197.0, 11158.0, 11182.0, 11177.0, 11198.0, 11189.0, 11180.0, 11157.0, 11176.0, 11136.0, 11189.0, 11204.0, 11176.0, 11140.0, 11148.0, 11258.0, 11166.0, 11226.0, 11218.0, 11190.0, 11136.0, 11158.0, 11150.0, 11146.0, 11142.0, 11124.0, 11103.0, 11120.0, 11113.0, 11134.0, 11139.0, 11108.0, 11081.0, 11086.0, 11094.0, 11140.0, 11167.0, 11168.0, 11166.0, 11169.0, 11206.0, 11196.0, 11201.0, 11218.0, 11243.0, 11249.0, 11228.0, 11191.0, 11212.0, 11194.0, 11160.0, 11180.0, 11191.0, 11195.0, 11155.0, 11135.0, 11090.0, 11114.0, 11252.0, 11154.0, 11122.0, 11108.0, 11110.0, 11138.0, 11155.0, 11140.0, 11096.0, 11117.0, 11132.0, 11120.0, 11115.0, 11129.0, 11126.0, 11095.0, 11093.0, 11115.0, 11134.0, 11143.0, 11155.0, 11162.0, 11149.0, 11149.0, 11151.0, 11142.0, 11187.0, 11210.0, 11231.0, 11209.0, 11241.0, 11223.0, 11176.0, 11181.0, 11203.0, 11154.0, 11123.0, 11144.0, 11138.0, 11103.0, 11097.0, 11085.0, 11100.0, 11129.0, 11150.0, 11133.0, 11273.0, 11193.0, 11193.0, 11206.0, 11181.0, 11172.0, 11158.0, 11145.0, 11135.0, 11148.0, 11172.0, 11186.0, 11207.0, 11182.0, 11197.0, 11195.0, 11166.0, 11157.0, 11208.0, 11207.0, 11214.0, 11273.0, 11181.0, 11140.0, 11120.0, 11182.0, 11221.0, 11190.0, 11223.0, 11166.0, 11151.0, 11200.0, 11209.0, 11192.0, 11165.0, 11163.0, 11188.0, 11153.0, 11106.0, 11180.0, 11154.0, 11136.0, 11115.0, 11108.0, 11101.0, 11132.0, 11077.0, 11232.0, 11124.0, 11161.0, 11179.0, 11201.0, 11193.0, 11156.0, 11129.0, 11100.0, 11133.0, 11171.0, 11191.0, 11185.0, 11179.0, 11190.0, 11176.0, 11188.0, 11163.0, 11149.0, 11116.0, 11163.0, 11203.0, 11214.0, 11198.0, 11161.0, 11144.0, 11137.0, 11143.0, 11146.0, 11159.0, 11160.0, 11161.0, 11169.0, 11171.0, 11173.0, 11167.0, 11175.0, 11165.0, 11151.0, 11110.0, 11125.0, 11143.0, 11149.0, 11140.0, 11127.0, 11116.0, 11114.0, 11132.0, 11160.0, 11182.0, 11172.0, 11172.0, 11173.0, 11160.0, 11198.0, 11194.0, 11181.0, 11173.0, 11148.0, 11142.0, 11126.0, 11132.0, 11126.0, 11139.0, 11161.0, 11188.0, 11193.0, 11201.0, 11180.0, 11142.0, 11090.0, 11090.0, 11109.0, 11123.0, 11120.0, 11123.0, 11052.0, 11113.0, 11121.0, 11185.0, 11219.0, 11191.0, 11128.0, 11128.0, 11146.0, 11172.0, 11188.0, 11174.0, 11175.0, 11159.0, 11082.0, 11130.0, 11139.0, 11140.0, 11149.0, 11178.0, 11178.0, 11160.0, 11152.0, 11138.0, 11127.0, 11114.0, 11131.0, 11137.0, 11141.0, 11138.0, 11132.0, 11146.0, 11171.0, 11189.0, 11173.0],
