{
  "AcquisitionMatrixPE": 104,
  "AcquisitionNumber": 1,
  "AcquisitionTime": "11:40:34.900000",
  "BandwidthPerPixelPhaseEncode": 17.17,
  "BaseResolution": 104,
  "BodyPartExamined": "BRAIN",
  "CoilCombinationMethod": "Sum of Squares",
  "ConsistencyInfo": "N4_VE11C_LATEST_20160120",
  "ConversionSoftware": "dcm2niix",
  "ConversionSoftwareVersion": "v1.0.20220505",
  "DerivedVendorReportedEchoSpacing": 0.000560011,
  "DeviceSerialNumber": "167006",
  "DwellTime": 2.1e-06,
  "EchoTime": 0.037,
  "EchoTime1": 0.037,
  "EchoTime2": 0.001,
  "EchoTrainLength": 104,
  "EffectiveEchoSpacing": 0.000560011,
  "FlipAngle": 52,
  "HeudiconvVersion": "0.5.3.post811+g6206e14",
  "ImageComments": "Unaliased MB4/PE3/LB",
  "ImageOrientationPatientDICOM": [0.998578, -0.00516706, 0.0530537, 0.0336497, 0.833015, -0.552226],
  "ImageOrientationText": "Tra>Cor(-33.6)>Sag(2.4)",
  "ImageType": [
    "ORIGINAL",
    "PRIMARY",
    "P",
    "MB",
    "ND",
    "MOSAIC",
    "PHASE"
],
  "ImagingFrequency": 123.259,
  "InPlanePhaseEncodingDirectionDICOM": "COL",
  "InstitutionAddress": "Chemin Queen-Mary 4565,Montreal,District,CA,H3W 1W5",
  "InstitutionName": "IUGM",
  "InstitutionalDepartmentName": "Department",
  "MRAcquisitionType": "2D",
  "MagneticFieldStrength": 3,
  "Manufacturer": "Siemens",
  "ManufacturersModelName": "Prisma_fit",
  "MatrixCoilMode": "SENSE",
  "Modality": "MR",
  "MultibandAccelerationFactor": 4,
  "PartialFourier": 1,
  "PatientPosition": "HFS",
  "PercentPhaseFOV": 100,
  "PercentSampling": 100,
  "PhaseEncodingDirection": "j",
  "PhaseEncodingSteps": 104,
  "PhaseResolution": 1,
  "PixelBandwidth": 2290,
  "ProcedureStepDescription": "games^mario3",
  "ProtocolName": "func_task-mario3_run-02",
  "PulseSequenceDetails": "%CustomerSeq%\\cmrr_mbep2d_bold",
  "ReceiveCoilActiveElements": "HC1-7;NC1,2",
  "ReceiveCoilName": "HeadNeck_64",
  "ReconMatrixPE": 104,
  "RepetitionTime": 1.49,
  "SAR": 0.0606028,
  "ScanOptions": "FS",
  "ScanningSequence": "EP",
  "SequenceName": "epfid2d1_104",
  "SequenceVariant": "SK\\SS",
  "SeriesDescription": "func_task-mario3_run-02",
  "SeriesNumber": 14,
  "ShimSetting": [627, -7194, -8873, 220, 36, -201, -1, 44],
  "SliceThickness": 2,
  "SliceTiming": [0, 0.785, 0.1, 0.8825, 0.1975, 0.98, 0.295, 1.08, 0.3925, 1.1775, 0.49, 1.275, 0.59, 1.3725, 0.6875, 0, 0.785, 0.1, 0.8825, 0.1975, 0.98, 0.295, 1.08, 0.3925, 1.1775, 0.49, 1.275, 0.59, 1.3725, 0.6875, 0, 0.785, 0.1, 0.8825, 0.1975, 0.98, 0.295, 1.08, 0.3925, 1.1775, 0.49, 1.275, 0.59, 1.3725, 0.6875, 0, 0.785, 0.1, 0.8825, 0.1975, 0.98, 0.295, 1.08, 0.3925, 1.1775, 0.49, 1.275, 0.59, 1.3725, 0.6875],
  "SoftwareVersions": "syngo MR E11",
  "SpacingBetweenSlices": 2,
  "StationName": "MRC35049",
  "TaskName": "mario3",
  "TotalReadoutTime": 0.0576811,
  "TxRefAmp": 286.738,
  "WipMemBlock": "a0532b4d-cd8e-4ab4-9fef-86ee9786f7e8||Sequence: R017 ve11c/master r/75a17815+; Jun 28 2022 16:32:11 by eja",
  "dcmmeta_affine": [
    [-1.9971566200256348, 0.06729941815137863, 0.082682304084301, 101.68578338623047],
    [0.010334121994674206, 1.6660302877426147, -1.1064521074295044, -46.56220626831055],
    [0.10610740631818771, 1.1044517755508423, 1.66400945186615, -92.40599060058594],
    [0.0, 0.0, 0.0, 1.0]
],
  "dcmmeta_reorient_transform": [
    [0.0, -1.0, 0.0, 103.0],
    [1.0, 0.0, 0.0, 0.0],
    [0.0, 0.0, 1.0, 0.0],
    [0.0, 0.0, 0.0, 1.0]
],
  "dcmmeta_shape": [104, 104, 60, 297],
  "dcmmeta_slice_dim": 2,
  "dcmmeta_version": 0.6,
  "global": {
    "const": {
      "AcquisitionMatrix": [104, 0, 0, 104],
      "AngioFlag": "N",
      "BitsAllocated": 16,
      "BitsStored": 16,
      "BodyPartExamined": "BRAIN",
      "Columns": 832,
      "EchoNumbers": 1,
      "EchoTime": 37.0,
      "EchoTrainLength": 104,
      "FlipAngle": 52.0,
      "HighBit": 15,
      "ImageOrientationPatient": [0.99857829247016, -0.00516706094, 0.05305370193141, 0.03364970804831, 0.83301516244276, -0.5522258924469],
      "ImagePositionPatient": [-860.07960431501, -727.71233514142, 384.74990119599],
      "ImageType": [
        "ORIGINAL",
        "PRIMARY",
        "P",
        "MB",
        "ND",
        "MOSAIC"
],
      "ImagedNucleus": "1H",
      "ImagingFrequency": 123.258776,
      "InPlanePhaseEncodingDirection": "COL",
      "LargestImagePixelValue": 4095,
      "MRAcquisitionType": "2D",
      "MagneticFieldStrength": 3.0,
      "Manufacturer": "SIEMENS",
      "ManufacturerModelName": "Prisma_fit",
      "Modality": "MR",
      "NumberOfAverages": 1.0,
      "NumberOfPhaseEncodingSteps": 104,
      "PercentPhaseFieldOfView": 100.0,
      "PercentSampling": 100.0,
      "PerformedProcedureStepStartTime": "112606.987000",
      "PhotometricInterpretation": "MONOCHROME2",
      "PixelBandwidth": 2290.0,
      "PixelRepresentation": 0,
      "PixelSpacing": [2.0, 2.0],
      "ProtocolName": "func_task-mario3_run-02",
      "RepetitionTime": 1490.0,
      "RescaleIntercept": -4096.0,
      "RescaleSlope": 2.0,
      "RescaleType": "US",
      "Rows": 832,
      "SAR": 0.06060275987212,
      "SamplesPerPixel": 1,
      "ScanOptions": "FS",
      "ScanningSequence": "EP",
      "SequenceName": "epfid2d1_104",
      "SequenceVariant": [
        "SK",
        "SS"
],
      "SeriesDescription": "func_task-mario3_run-02",
      "SeriesNumber": 14,
      "SeriesTime": "114158.284000",
      "SliceLocation": -46.918986491474,
      "SliceThickness": 2.0,
      "SmallestImagePixelValue": 0,
      "SoftwareVersions": "syngo MR E11",
      "SpacingBetweenSlices": 1.9999999813831,
      "SpecificCharacterSet": "ISO_IR 100",
      "StudyID": "1",
      "StudyTime": "112606.924000",
      "TransmitCoilName": "Body",
      "VariableFlipAngleFlag": "N",
      "WindowCenterWidthExplanation": "Algo1",
      "dBdt": 0.0},
    "slices": {}
  },
  "time": {
    "samples": {
      "AcquisitionNumber": [1, 2, 3, 4, 5, 6, 7, 8, 9, 10, 11, 12, 13, 14, 15, 16, 17, 18, 19, 20, 21, 22, 23, 24, 25, 26, 27, 28, 29, 30, 31, 32, 33, 34, 35, 36, 37, 38, 39, 40, 41, 42, 43, 44, 45, 46, 47, 48, 49, 50, 51, 52, 53, 54, 55, 56, 57, 58, 59, 60, 61, 62, 63, 64, 65, 66, 67, 68, 69, 70, 71, 72, 73, 74, 75, 76, 77, 78, 79, 80, 81, 82, 83, 84, 85, 86, 87, 88, 89, 90, 91, 92, 93, 94, 95, 96, 97, 98, 99, 100, 101, 102, 103, 104, 105, 106, 107, 108, 109, 110, 111, 112, 113, 114, 115, 116, 117, 118, 119, 120, 121, 122, 123, 124, 125, 126, 127, 128, 129, 130, 131, 132, 133, 134, 135, 136, 137, 138, 139, 140, 141, 142, 143, 144, 145, 146, 147, 148, 149, 150, 151, 152, 153, 154, 155, 156, 157, 158, 159, 160, 161, 162, 163, 164, 165, 166, 167, 168, 169, 170, 171, 172, 173, 174, 175, 176, 177, 178, 179, 180, 181, 182, 183, 184, 185, 186, 187, 188, 189, 190, 191, 192, 193, 194, 195, 196, 197, 198, 199, 200, 201, 202, 203, 204, 205, 206, 207, 208, 209, 210, 211, 212, 213, 214, 215, 216, 217, 218, 219, 220, 221, 222, 223, 224, 225, 226, 227, 228, 229, 230, 231, 232, 233, 234, 235, 236, 237, 238, 239, 240, 241, 242, 243, 244, 245, 246, 247, 248, 249, 250, 251, 252, 253, 254, 255, 256, 257, 258, 259, 260, 261, 262, 263, 264, 265, 266, 267, 268, 269, 270, 271, 272, 273, 274, 275, 276, 277, 278, 279, 280, 281, 282, 283, 284, 285, 286, 287, 288, 289, 290, 291, 292, 293, 294, 295, 296, 297],
      "AcquisitionTime": ["114034.900000", "114036.390000", "114037.880000", "114039.370000", "114040.860000", "114042.350000", "114043.840000", "114045.330000", "114046.820000", "114048.310000", "114049.800000", "114051.290000", "114052.780000", "114054.270000", "114055.760000", "114057.250000", "114058.740000", "114100.230000", "114101.720000", "114103.210000", "114104.700000", "114106.190000", "114107.680000", "114109.170000", "114110.660000", "114112.150000", "114113.640000", "114115.130000", "114116.620000", "114118.110000", "114119.600000", "114121.090000", "114122.580000", "114124.070000", "114125.560000", "114127.050000", "114128.540000", "114130.030000", "114131.520000", "114133.010000", "114134.500000", "114135.990000", "114137.480000", "114138.970000", "114140.460000", "114141.950000", "114143.440000", "114144.930000", "114146.420000", "114147.910000", "114149.400000", "114150.890000", "114152.380000", "114153.870000", "114155.360000", "114156.850000", "114158.340000", "114159.830000", "114201.320000", "114202.810000", "114204.300000", "114205.790000", "114207.280000", "114208.770000", "114210.260000", "114211.750000", "114213.240000", "114214.730000", "114216.220000", "114217.710000", "114219.200000", "114220.690000", "114222.180000", "114223.670000", "114225.160000", "114226.650000", "114228.140000", "114229.630000", "114231.120000", "114232.610000", "114234.100000", "114235.590000", "114237.080000", "114238.570000", "114240.060000", "114241.550000", "114243.040000", "114244.530000", "114246.020000", "114247.510000", "114249.000000", "114250.490000", "114251.980000", "114253.470000", "114254.960000", "114256.450000", "114257.940000", "114259.430000", "114300.920000", "114302.410000", "114303.900000", "114305.390000", "114306.880000", "114308.370000", "114309.860000", "114311.350000", "114312.840000", "114314.330000", "114315.820000", "114317.310000", "114318.800000", "114320.290000", "114321.780000", "114323.270000", "114324.760000", "114326.250000", "114327.740000", "114329.230000", "114330.720000", "114332.210000", "114333.700000", "114335.190000", "114336.680000", "114338.170000", "114339.660000", "114341.150000", "114342.640000", "114344.130000", "114345.620000", "114347.110000", "114348.600000", "114350.090000", "114351.580000", "114353.070000", "114354.560000", "114356.050000", "114357.540000", "114359.030000", "114400.520000", "114402.010000", "114403.500000", "114404.990000", "114406.480000", "114407.970000", "114409.460000", "114410.950000", "114412.440000", "114413.930000", "114415.420000", "114416.910000", "114418.400000", "114419.890000", "114421.380000", "114422.870000", "114424.360000", "114425.850000", "114427.340000", "114428.830000", "114430.320000", "114431.810000", "114433.300000", "114434.790000", "114436.280000", "114437.770000", "114439.260000", "114440.750000", "114442.240000", "114443.730000", "114445.220000", "114446.710000", "114448.200000", "114449.690000", "114451.180000", "114452.670000", "114454.160000", "114455.650000", "114457.140000", "114458.630000", "114500.120000", "114501.610000", "114503.100000", "114504.590000", "114506.080000", "114507.570000", "114509.060000", "114510.550000", "114512.040000", "114513.530000", "114515.020000", "114516.510000", "114518.000000", "114519.490000", "114520.980000", "114522.470000", "114523.960000", "114525.450000", "114526.940000", "114528.430000", "114529.920000", "114531.410000", "114532.900000", "114534.390000", "114535.880000", "114537.370000", "114538.860000", "114540.350000", "114541.840000", "114543.330000", "114544.820000", "114546.310000", "114547.800000", "114549.290000", "114550.780000", "114552.270000", "114553.760000", "114555.250000", "114556.740000", "114558.230000", "114559.720000", "114601.210000", "114602.700000", "114604.190000", "114605.680000", "114607.170000", "114608.660000", "114610.150000", "114611.640000", "114613.130000", "114614.620000", "114616.110000", "114617.600000", "114619.090000", "114620.580000", "114622.070000", "114623.560000", "114625.050000", "114626.540000", "114628.030000", "114629.520000", "114631.010000", "114632.500000", "114633.990000", "114635.480000", "114636.970000", "114638.460000", "114639.950000", "114641.440000", "114642.930000", "114644.420000", "114645.910000", "114647.400000", "114648.890000", "114650.380000", "114651.870000", "114653.360000", "114654.850000", "114656.340000", "114657.830000", "114659.320000", "114700.810000", "114702.300000", "114703.790000", "114705.280000", "114706.770000", "114708.260000", "114709.750000", "114711.240000", "114712.730000", "114714.220000", "114715.710000", "114717.200000", "114718.690000", "114720.180000", "114721.670000", "114723.160000", "114724.650000", "114726.140000", "114727.630000", "114729.120000", "114730.610000", "114732.100000", "114733.590000", "114735.080000", "114736.570000", "114738.060000", "114739.550000", "114741.040000", "114742.530000", "114744.020000", "114745.510000", "114747.000000", "114748.490000", "114749.980000", "114751.470000", "114752.960000", "114754.450000", "114755.940000"],
      "ContentTime": ["114158.286000", "114158.289000", "114158.292000", "114158.294000", "114158.297000", "114158.299000", "114158.302000", "114158.304000", "114158.308000", "114158.310000", "114158.313000", "114158.315000", "114158.318000", "114158.320000", "114158.323000", "114158.329000", "114158.332000", "114158.335000", "114158.337000", "114158.340000", "114158.342000", "114158.350000", "114158.353000", "114158.356000", "114158.358000", "114158.361000", "114158.364000", "114158.366000", "114158.369000", "114158.371000", "114158.374000", "114158.376000", "114158.378000", "114158.381000", "114158.383000", "114218.193000", "114218.195000", "114218.198000", "114218.200000", "114218.203000", "114218.205000", "114218.208000", "114218.211000", "114218.213000", "114218.216000", "114218.218000", "114218.221000", "114218.223000", "114218.226000", "114218.228000", "114218.231000", "114218.233000", "114218.235000", "114218.238000", "114218.240000", "114238.186000", "114238.189000", "114238.199000", "114238.202000", "114238.204000", "114238.207000", "114238.209000", "114238.212000", "114238.214000", "114238.217000", "114238.219000", "114238.222000", "114238.224000", "114238.227000", "114238.230000", "114238.232000", "114238.235000", "114238.237000", "114238.240000", "114238.242000", "114258.179000", "114258.182000", "114258.185000", "114258.187000", "114258.190000", "114258.192000", "114258.195000", "114258.197000", "114258.200000", "114258.202000", "114258.205000", "114258.207000", "114258.210000", "114258.212000", "114258.215000", "114258.217000", "114258.220000", "114258.222000", "114258.225000", "114258.227000", "114338.238000", "114338.241000", "114338.244000", "114338.246000", "114338.249000", "114338.251000", "114338.254000", "114338.256000", "114338.259000", "114338.261000", "114338.264000", "114338.266000", "114338.269000", "114338.271000", "114338.274000", "114338.276000", "114338.279000", "114338.281000", "114338.284000", "114338.286000", "114338.289000", "114338.292000", "114338.294000", "114338.297000", "114338.299000", "114338.302000", "114338.304000", "114418.229000", "114418.232000", "114418.235000", "114418.237000", "114418.240000", "114418.242000", "114418.245000", "114418.247000", "114418.250000", "114418.252000", "114418.255000", "114418.257000", "114418.260000", "114418.262000", "114418.265000", "114418.267000", "114418.270000", "114418.272000", "114418.275000", "114418.277000", "114418.280000", "114418.283000", "114418.285000", "114418.288000", "114418.290000", "114418.293000", "114418.295000", "114458.208000", "114458.211000", "114458.214000", "114458.216000", "114458.219000", "114458.221000", "114458.224000", "114458.226000", "114458.229000", "114458.231000", "114458.234000", "114458.236000", "114458.239000", "114458.241000", "114458.244000", "114458.247000", "114458.249000", "114458.252000", "114458.254000", "114458.257000", "114458.259000", "114458.262000", "114458.264000", "114458.267000", "114458.269000", "114458.272000", "114458.274000", "114538.228000", "114538.230000", "114538.233000", "114538.235000", "114538.238000", "114538.240000", "114538.243000", "114538.245000", "114538.248000", "114538.251000", "114538.253000", "114538.256000", "114538.258000", "114538.261000", "114538.263000", "114538.266000", "114538.268000", "114538.271000", "114538.273000", "114538.276000", "114538.278000", "114538.281000", "114538.283000", "114538.286000", "114538.288000", "114538.291000", "114538.293000", "114618.235000", "114618.238000", "114618.240000", "114618.243000", "114618.245000", "114618.248000", "114618.251000", "114618.253000", "114618.256000", "114618.258000", "114618.261000", "114618.263000", "114618.266000", "114618.268000", "114618.271000", "114618.273000", "114618.276000", "114618.278000", "114618.281000", "114618.284000", "114618.286000", "114618.289000", "114618.291000", "114618.294000", "114618.296000", "114618.299000", "114658.221000", "114658.224000", "114658.227000", "114658.229000", "114658.232000", "114658.234000", "114658.237000", "114658.239000", "114658.242000", "114658.244000", "114658.247000", "114658.249000", "114658.252000", "114658.255000", "114658.257000", "114658.260000", "114658.262000", "114658.265000", "114658.267000", "114658.270000", "114658.272000", "114658.275000", "114658.277000", "114658.280000", "114658.282000", "114658.285000", "114658.288000", "114738.229000", "114738.232000", "114738.234000", "114738.237000", "114738.239000", "114738.242000", "114738.244000", "114738.247000", "114738.249000", "114738.252000", "114738.254000", "114738.257000", "114738.259000", "114738.262000", "114738.265000", "114738.267000", "114738.270000", "114738.272000", "114738.275000", "114738.277000", "114738.280000", "114738.282000", "114738.285000", "114738.287000", "114738.290000", "114738.292000", "114738.295000", "114758.667000", "114758.670000", "114758.672000", "114758.675000", "114758.678000", "114758.680000", "114758.683000", "114758.685000", "114758.688000", "114758.690000", "114758.693000", "114758.695000", "114758.698000", "114758.701000"],
      "InstanceCreationTime": ["114158.286000", "114158.289000", "114158.292000", "114158.294000", "114158.297000", "114158.299000", "114158.302000", "114158.304000", "114158.308000", "114158.310000", "114158.313000", "114158.315000", "114158.318000", "114158.320000", "114158.323000", "114158.329000", "114158.332000", "114158.335000", "114158.337000", "114158.340000", "114158.342000", "114158.350000", "114158.353000", "114158.356000", "114158.358000", "114158.361000", "114158.364000", "114158.366000", "114158.369000", "114158.371000", "114158.374000", "114158.376000", "114158.378000", "114158.381000", "114158.383000", "114218.193000", "114218.195000", "114218.198000", "114218.200000", "114218.203000", "114218.205000", "114218.208000", "114218.211000", "114218.213000", "114218.216000", "114218.218000", "114218.221000", "114218.223000", "114218.226000", "114218.228000", "114218.231000", "114218.233000", "114218.235000", "114218.238000", "114218.240000", "114238.186000", "114238.189000", "114238.199000", "114238.202000", "114238.204000", "114238.207000", "114238.209000", "114238.212000", "114238.214000", "114238.217000", "114238.219000", "114238.222000", "114238.224000", "114238.227000", "114238.230000", "114238.232000", "114238.235000", "114238.237000", "114238.240000", "114238.242000", "114258.179000", "114258.182000", "114258.185000", "114258.187000", "114258.190000", "114258.192000", "114258.195000", "114258.197000", "114258.200000", "114258.202000", "114258.205000", "114258.207000", "114258.210000", "114258.212000", "114258.215000", "114258.217000", "114258.220000", "114258.222000", "114258.225000", "114258.227000", "114338.238000", "114338.241000", "114338.244000", "114338.246000", "114338.249000", "114338.251000", "114338.254000", "114338.256000", "114338.259000", "114338.261000", "114338.264000", "114338.266000", "114338.269000", "114338.271000", "114338.274000", "114338.276000", "114338.279000", "114338.281000", "114338.284000", "114338.286000", "114338.289000", "114338.292000", "114338.294000", "114338.297000", "114338.299000", "114338.302000", "114338.304000", "114418.229000", "114418.232000", "114418.235000", "114418.237000", "114418.240000", "114418.242000", "114418.245000", "114418.247000", "114418.250000", "114418.252000", "114418.255000", "114418.257000", "114418.260000", "114418.262000", "114418.265000", "114418.267000", "114418.270000", "114418.272000", "114418.275000", "114418.277000", "114418.280000", "114418.283000", "114418.285000", "114418.288000", "114418.290000", "114418.293000", "114418.295000", "114458.208000", "114458.211000", "114458.214000", "114458.216000", "114458.219000", "114458.221000", "114458.224000", "114458.226000", "114458.229000", "114458.231000", "114458.234000", "114458.236000", "114458.239000", "114458.241000", "114458.244000", "114458.247000", "114458.249000", "114458.252000", "114458.254000", "114458.257000", "114458.259000", "114458.262000", "114458.264000", "114458.267000", "114458.269000", "114458.272000", "114458.274000", "114538.228000", "114538.230000", "114538.233000", "114538.235000", "114538.238000", "114538.240000", "114538.243000", "114538.245000", "114538.248000", "114538.251000", "114538.253000", "114538.256000", "114538.258000", "114538.261000", "114538.263000", "114538.266000", "114538.268000", "114538.271000", "114538.273000", "114538.276000", "114538.278000", "114538.281000", "114538.283000", "114538.286000", "114538.288000", "114538.291000", "114538.293000", "114618.235000", "114618.238000", "114618.240000", "114618.243000", "114618.245000", "114618.248000", "114618.251000", "114618.253000", "114618.256000", "114618.258000", "114618.261000", "114618.263000", "114618.266000", "114618.268000", "114618.271000", "114618.273000", "114618.276000", "114618.278000", "114618.281000", "114618.284000", "114618.286000", "114618.289000", "114618.291000", "114618.294000", "114618.296000", "114618.299000", "114658.221000", "114658.224000", "114658.227000", "114658.229000", "114658.232000", "114658.234000", "114658.237000", "114658.239000", "114658.242000", "114658.244000", "114658.247000", "114658.249000", "114658.252000", "114658.255000", "114658.257000", "114658.260000", "114658.262000", "114658.265000", "114658.267000", "114658.270000", "114658.272000", "114658.275000", "114658.277000", "114658.280000", "114658.282000", "114658.285000", "114658.288000", "114738.229000", "114738.232000", "114738.234000", "114738.237000", "114738.239000", "114738.242000", "114738.244000", "114738.247000", "114738.249000", "114738.252000", "114738.254000", "114738.257000", "114738.259000", "114738.262000", "114738.265000", "114738.267000", "114738.270000", "114738.272000", "114738.275000", "114738.277000", "114738.280000", "114738.282000", "114738.285000", "114738.287000", "114738.290000", "114738.292000", "114738.295000", "114758.667000", "114758.670000", "114758.672000", "114758.675000", "114758.678000", "114758.680000", "114758.683000", "114758.685000", "114758.688000", "114758.690000", "114758.693000", "114758.695000", "114758.698000", "114758.701000"],
      "InstanceNumber": [1, 2, 3, 4, 5, 6, 7, 8, 9, 10, 11, 12, 13, 14, 15, 16, 17, 18, 19, 20, 21, 22, 23, 24, 25, 26, 27, 28, 29, 30, 31, 32, 33, 34, 35, 36, 37, 38, 39, 40, 41, 42, 43, 44, 45, 46, 47, 48, 49, 50, 51, 52, 53, 54, 55, 56, 57, 58, 59, 60, 61, 62, 63, 64, 65, 66, 67, 68, 69, 70, 71, 72, 73, 74, 75, 76, 77, 78, 79, 80, 81, 82, 83, 84, 85, 86, 87, 88, 89, 90, 91, 92, 93, 94, 95, 96, 97, 98, 99, 100, 101, 102, 103, 104, 105, 106, 107, 108, 109, 110, 111, 112, 113, 114, 115, 116, 117, 118, 119, 120, 121, 122, 123, 124, 125, 126, 127, 128, 129, 130, 131, 132, 133, 134, 135, 136, 137, 138, 139, 140, 141, 142, 143, 144, 145, 146, 147, 148, 149, 150, 151, 152, 153, 154, 155, 156, 157, 158, 159, 160, 161, 162, 163, 164, 165, 166, 167, 168, 169, 170, 171, 172, 173, 174, 175, 176, 177, 178, 179, 180, 181, 182, 183, 184, 185, 186, 187, 188, 189, 190, 191, 192, 193, 194, 195, 196, 197, 198, 199, 200, 201, 202, 203, 204, 205, 206, 207, 208, 209, 210, 211, 212, 213, 214, 215, 216, 217, 218, 219, 220, 221, 222, 223, 224, 225, 226, 227, 228, 229, 230, 231, 232, 233, 234, 235, 236, 237, 238, 239, 240, 241, 242, 243, 244, 245, 246, 247, 248, 249, 250, 251, 252, 253, 254, 255, 256, 257, 258, 259, 260, 261, 262, 263, 264, 265, 266, 267, 268, 269, 270, 271, 272, 273, 274, 275, 276, 277, 278, 279, 280, 281, 282, 283, 284, 285, 286, 287, 288, 289, 290, 291, 292, 293, 294, 295, 296, 297],
      "WindowCenter": [4808.0, 4804.0, 4808.0, 4812.0, 4818.0, 4818.0, 4840.0, 4814.0, 4814.0, 4840.0, 4816.0, 4836.0, 4808.0, 4810.0, 4808.0, 4830.0, 4836.0, 4834.0, 4834.0, 4836.0, 4834.0, 4836.0, 4804.0, 4802.0, 4800.0, 4810.0, 4782.0, 4784.0, 4836.0, 4836.0, 4836.0, 4830.0, 4834.0, 4834.0, 4812.0, 4814.0, 4836.0, 4810.0, 4804.0, 4804.0, 4804.0, 4836.0, 4834.0, 4810.0, 4786.0, 4804.0, 4810.0, 4816.0, 4836.0, 4838.0, 4830.0, 4804.0, 4832.0, 4810.0, 4832.0, 4806.0, 4804.0, 4780.0, 4806.0, 4832.0, 4832.0, 4834.0, 4806.0, 4782.0, 4782.0, 4810.0, 4812.0, 4810.0, 4838.0, 4838.0, 4834.0, 4816.0, 4836.0, 4836.0, 4814.0, 4814.0, 4832.0, 4832.0, 4806.0, 4808.0, 4810.0, 4806.0, 4810.0, 4810.0, 4810.0, 4810.0, 4834.0, 4836.0, 4810.0, 4836.0, 4834.0, 4806.0, 4788.0, 4780.0, 4806.0, 4834.0, 4832.0, 4834.0, 4832.0, 4830.0, 4780.0, 4792.0, 4786.0, 4780.0, 4808.0, 4832.0, 4810.0, 4836.0, 4810.0, 4838.0, 4814.0, 4814.0, 4812.0, 4814.0, 4818.0, 4814.0, 4812.0, 4834.0, 4832.0, 4834.0, 4806.0, 4808.0, 4806.0, 4788.0, 4816.0, 4788.0, 4834.0, 4842.0, 4842.0, 4834.0, 4836.0, 4806.0, 4784.0, 4782.0, 4786.0, 4810.0, 4816.0, 4812.0, 4810.0, 4806.0, 4832.0, 4808.0, 4808.0, 4778.0, 4786.0, 4808.0, 4810.0, 4834.0, 4834.0, 4838.0, 4814.0, 4814.0, 4816.0, 4822.0, 4816.0, 4836.0, 4810.0, 4834.0, 4814.0, 4816.0, 4818.0, 4816.0, 4834.0, 4834.0, 4834.0, 4812.0, 4812.0, 4778.0, 4804.0, 4784.0, 4806.0, 4808.0, 4812.0, 4808.0, 4832.0, 4832.0, 4832.0, 4804.0, 4808.0, 4780.0, 4804.0, 4804.0, 4802.0, 4816.0, 4812.0, 4810.0, 4812.0, 4834.0, 4836.0, 4808.0, 4806.0, 4832.0, 4832.0, 4812.0, 4832.0, 4812.0, 4814.0, 4812.0, 4810.0, 4806.0, 4810.0, 4808.0, 4814.0, 4814.0, 4830.0, 4812.0, 4814.0, 4812.0, 4812.0, 4832.0, 4810.0, 4834.0, 4806.0, 4802.0, 4804.0, 4784.0, 4780.0, 4804.0, 4832.0, 4832.0, 4830.0, 4808.0, 4808.0, 4812.0, 4808.0, 4806.0, 4832.0, 4832.0, 4806.0, 4806.0, 4834.0, 4810.0, 4802.0, 4808.0, 4780.0, 4812.0, 4784.0, 4834.0, 4834.0, 4836.0, 4836.0, 4836.0, 4838.0, 4812.0, 4808.0, 4806.0, 4780.0, 4802.0, 4808.0, 4810.0, 4832.0, 4810.0, 4790.0, 4812.0, 4832.0, 4832.0, 4836.0, 4836.0, 4812.0, 4806.0, 4782.0, 4782.0, 4806.0, 4806.0, 4782.0, 4782.0, 4834.0, 4830.0, 4834.0, 4830.0, 4860.0, 4800.0, 4778.0, 4776.0, 4748.0, 4776.0, 4802.0, 4804.0, 4832.0, 4834.0, 4834.0, 4832.0, 4832.0, 4780.0, 4802.0, 4800.0, 4800.0, 4780.0, 4782.0, 4802.0, 4808.0, 4830.0, 4806.0, 4808.0, 4830.0, 4808.0, 4818.0],
      "WindowWidth": [18622.0, 18612.0, 18610.0, 18618.0, 18620.0, 18618.0, 18650.0, 18616.0, 18618.0, 18646.0, 18618.0, 18658.0, 18612.0, 18598.0, 18606.0, 18652.0, 18652.0, 18654.0, 18646.0, 18654.0, 18656.0, 18654.0, 18616.0, 18608.0, 18612.0, 18618.0, 18566.0, 18576.0, 18654.0, 18652.0, 18650.0, 18654.0, 18652.0, 18650.0, 18622.0, 18626.0, 18652.0, 18618.0, 18622.0, 18616.0, 18616.0, 18656.0, 18654.0, 18616.0, 18570.0, 18606.0, 18618.0, 18618.0, 18644.0, 18654.0, 18646.0, 18612.0, 18658.0, 18624.0, 18656.0, 18618.0, 18612.0, 18572.0, 18616.0, 18652.0, 18656.0, 18656.0, 18616.0, 18572.0, 18572.0, 18614.0, 18618.0, 18614.0, 18652.0, 18656.0, 18652.0, 18622.0, 18660.0, 18654.0, 18618.0, 18618.0, 18658.0, 18658.0, 18616.0, 18618.0, 18620.0, 18612.0, 18620.0, 18622.0, 18624.0, 18616.0, 18654.0, 18652.0, 18624.0, 18656.0, 18648.0, 18620.0, 18560.0, 18566.0, 18628.0, 18656.0, 18648.0, 18650.0, 18656.0, 18654.0, 18582.0, 18560.0, 18562.0, 18578.0, 18620.0, 18652.0, 18620.0, 18648.0, 18614.0, 18650.0, 18618.0, 18614.0, 18612.0, 18618.0, 18618.0, 18620.0, 18620.0, 18650.0, 18646.0, 18654.0, 18604.0, 18620.0, 18612.0, 18560.0, 18576.0, 18568.0, 18648.0, 18640.0, 18636.0, 18652.0, 18656.0, 18610.0, 18562.0, 18558.0, 18568.0, 18610.0, 18618.0, 18614.0, 18608.0, 18610.0, 18644.0, 18624.0, 18622.0, 18570.0, 18572.0, 18602.0, 18622.0, 18652.0, 18650.0, 18642.0, 18618.0, 18624.0, 18612.0, 18612.0, 18618.0, 18654.0, 18622.0, 18650.0, 18614.0, 18622.0, 18620.0, 18626.0, 18650.0, 18650.0, 18650.0, 18618.0, 18620.0, 18578.0, 18612.0, 18566.0, 18620.0, 18624.0, 18618.0, 18620.0, 18648.0, 18646.0, 18646.0, 18622.0, 18622.0, 18580.0, 18614.0, 18614.0, 18604.0, 18622.0, 18620.0, 18626.0, 18630.0, 18652.0, 18654.0, 18608.0, 18604.0, 18656.0, 18650.0, 18626.0, 18652.0, 18622.0, 18620.0, 18622.0, 18624.0, 18620.0, 18620.0, 18612.0, 18618.0, 18618.0, 18652.0, 18626.0, 18620.0, 18616.0, 18620.0, 18652.0, 18622.0, 18658.0, 18616.0, 18612.0, 18608.0, 18580.0, 18580.0, 18618.0, 18654.0, 18654.0, 18650.0, 18624.0, 18616.0, 18618.0, 18622.0, 18626.0, 18658.0, 18658.0, 18624.0, 18620.0, 18656.0, 18622.0, 18610.0, 18624.0, 18576.0, 18626.0, 18582.0, 18654.0, 18656.0, 18654.0, 18650.0, 18654.0, 18658.0, 18622.0, 18622.0, 18618.0, 18578.0, 18606.0, 18620.0, 18610.0, 18658.0, 18620.0, 18568.0, 18616.0, 18646.0, 18640.0, 18640.0, 18652.0, 18624.0, 18610.0, 18574.0, 18572.0, 18604.0, 18622.0, 18570.0, 18574.0, 18654.0, 18642.0, 18640.0, 18648.0, 18686.0, 18614.0, 18578.0, 18564.0, 18532.0, 18568.0, 18610.0, 18616.0, 18654.0, 18648.0, 18656.0, 18654.0, 18654.0, 18576.0, 18610.0, 18612.0, 18614.0, 18574.0, 18568.0, 18612.0, 18620.0, 18650.0, 18618.0, 18624.0, 18652.0, 18610.0, 18580.0]
    },
    "slices": {}
  }
}