{
  "AcquisitionMatrixPE": 104,
  "AcquisitionNumber": 1,
  "AcquisitionTime": "14:13:43.857500",
  "BandwidthPerPixelPhaseEncode": 17.17,
  "BaseResolution": 104,
  "BodyPartExamined": "BRAIN",
  "CoilCombinationMethod": "Sum of Squares",
  "ConsistencyInfo": "N4_VE11C_LATEST_20160120",
  "ConversionSoftware": "dcm2niix",
  "ConversionSoftwareVersion": "v1.0.20220505",
  "DerivedVendorReportedEchoSpacing": 0.000560011,
  "DeviceSerialNumber": "167006",
  "DwellTime": 2.1e-06,
  "EchoTime": 0.037,
  "EchoTrainLength": 104,
  "EffectiveEchoSpacing": 0.000560011,
  "FlipAngle": 52,
  "HeudiconvVersion": "0.5.3.post811+g6206e14",
  "ImageComments": "Unaliased MB4/PE3/LB",
  "ImageOrientationPatientDICOM": [0.999544, 0.027721, 0.0119677, -0.0235555, 0.96388, -0.265293],
  "ImageOrientationText": "Tra>Cor(-15.4)>Sag(1.1)",
  "ImageType": [
    "ORIGINAL",
    "PRIMARY",
    "M",
    "MB",
    "ND",
    "MOSAIC"
],
  "ImagingFrequency": 123.26,
  "InPlanePhaseEncodingDirectionDICOM": "COL",
  "InstitutionAddress": "Chemin Queen-Mary 4565,Montreal,District,CA,H3W 1W5",
  "InstitutionName": "IUGM",
  "InstitutionalDepartmentName": "Department",
  "MRAcquisitionType": "2D",
  "MagneticFieldStrength": 3,
  "Manufacturer": "Siemens",
  "ManufacturersModelName": "Prisma_fit",
  "MatrixCoilMode": "SENSE",
  "Modality": "MR",
  "MultibandAccelerationFactor": 4,
  "PartialFourier": 1,
  "PatientPosition": "HFS",
  "PercentPhaseFOV": 100,
  "PercentSampling": 100,
  "PhaseEncodingDirection": "j",
  "PhaseEncodingSteps": 104,
  "PhaseResolution": 1,
  "PixelBandwidth": 2290,
  "ProcedureStepDescription": "games^mario3",
  "ProtocolName": "func_task-mario3_run-02",
  "PulseSequenceDetails": "%CustomerSeq%\\cmrr_mbep2d_bold",
  "ReceiveCoilActiveElements": "HC1-7;NC1,2",
  "ReceiveCoilName": "HeadNeck_64",
  "ReconMatrixPE": 104,
  "RepetitionTime": 1.49,
  "SAR": 0.066979,
  "ScanOptions": "FS",
  "ScanningSequence": "EP",
  "SequenceName": "epfid2d1_104",
  "SequenceVariant": "SK\\SS",
  "SeriesDescription": "func_task-mario3_run-02",
  "SeriesNumber": 13,
  "ShimSetting": [619, -7221, -8738, 697, 58, 1, 32, -2],
  "SliceThickness": 2,
  "SliceTiming": [0, 0.785, 0.1, 0.8825, 0.1975, 0.98, 0.295, 1.08, 0.3925, 1.1775, 0.49, 1.275, 0.59, 1.3725, 0.6875, 0, 0.785, 0.1, 0.8825, 0.1975, 0.98, 0.295, 1.08, 0.3925, 1.1775, 0.49, 1.275, 0.59, 1.3725, 0.6875, 0, 0.785, 0.1, 0.8825, 0.1975, 0.98, 0.295, 1.08, 0.3925, 1.1775, 0.49, 1.275, 0.59, 1.3725, 0.6875, 0, 0.785, 0.1, 0.8825, 0.1975, 0.98, 0.295, 1.08, 0.3925, 1.1775, 0.49, 1.275, 0.59, 1.3725, 0.6875],
  "SoftwareVersions": "syngo MR E11",
  "SpacingBetweenSlices": 2,
  "StationName": "MRC35049",
  "TaskName": "mario3",
  "TotalReadoutTime": 0.0576811,
  "TxRefAmp": 237.387,
  "WipMemBlock": "fbba63e4-79b6-445f-9d72-87e51e51eea8||Sequence: R017 ve11c/master r/75a17815+; Jun 28 2022 16:32:11 by eja",
  "dcmmeta_affine": [
    [-1.999088168144226, -0.047111086547374725, 0.03777925297617912, 110.12866973876953],
    [-0.05544206127524376, 1.9277602434158325, -0.5297799110412598, -70.92115783691406],
    [0.023935416713356972, 0.5305856466293335, 1.9281872510910034, -51.094600677490234],
    [0.0, 0.0, 0.0, 1.0]
],
  "dcmmeta_reorient_transform": [
    [0.0, -1.0, 0.0, 103.0],
    [1.0, 0.0, 0.0, 0.0],
    [0.0, 0.0, 1.0, 0.0],
    [0.0, 0.0, 0.0, 1.0]
],
  "dcmmeta_shape": [104, 104, 60, 309],
  "dcmmeta_slice_dim": 2,
  "dcmmeta_version": 0.6,
  "global": {
    "const": {
      "AcquisitionMatrix": [104, 0, 0, 104],
      "AngioFlag": "N",
      "BitsAllocated": 16,
      "BitsStored": 16,
      "BodyPartExamined": "BRAIN",
      "Columns": 832,
      "EchoNumbers": 1,
      "EchoTime": 37.0,
      "EchoTrainLength": 104,
      "FlipAngle": 52.0,
      "HighBit": 15,
      "ImageOrientationPatient": [0.99954405526783, 0.02772103061556, 0.01196770823333, -0.0235555427966, 0.96388010387102, -0.2652928226793],
      "ImagePositionPatient": [-815.79586723991, -849.5237710901, 187.97640275079],
      "ImageType": [
        "ORIGINAL",
        "PRIMARY",
        "M",
        "MB",
        "ND",
        "MOSAIC"
],
      "ImagedNucleus": "1H",
      "ImagingFrequency": 123.260119,
      "InPlanePhaseEncodingDirection": "COL",
      "MRAcquisitionType": "2D",
      "MagneticFieldStrength": 3.0,
      "Manufacturer": "SIEMENS",
      "ManufacturerModelName": "Prisma_fit",
      "Modality": "MR",
      "NumberOfAverages": 1.0,
      "NumberOfPhaseEncodingSteps": 104,
      "PercentPhaseFieldOfView": 100.0,
      "PercentSampling": 100.0,
      "PerformedProcedureStepStartTime": "135937.738000",
      "PhotometricInterpretation": "MONOCHROME2",
      "PixelBandwidth": 2290.0,
      "PixelRepresentation": 0,
      "PixelSpacing": [2.0, 2.0],
      "ProtocolName": "func_task-mario3_run-02",
      "RepetitionTime": 1490.0,
      "Rows": 832,
      "SAR": 0.06697899153229,
      "SamplesPerPixel": 1,
      "ScanOptions": "FS",
      "ScanningSequence": "EP",
      "SequenceName": "epfid2d1_104",
      "SequenceVariant": [
        "SK",
        "SS"
],
      "SeriesDescription": "func_task-mario3_run-02",
      "SeriesNumber": 13,
      "SeriesTime": "141439.920000",
      "SliceLocation": -28.393387871562,
      "SliceThickness": 2.0,
      "SmallestImagePixelValue": 0,
      "SoftwareVersions": "syngo MR E11",
      "SpacingBetweenSlices": 2.0000000000462,
      "SpecificCharacterSet": "ISO_IR 100",
      "StudyID": "1",
      "StudyTime": "135937.656000",
      "TransmitCoilName": "Body",
      "VariableFlipAngleFlag": "N",
      "WindowCenterWidthExplanation": "Algo1",
      "dBdt": 0.0},
    "slices": {}
  },
  "time": {
    "samples": {
      "AcquisitionNumber": [1, 2, 3, 4, 5, 6, 7, 8, 9, 10, 11, 12, 13, 14, 15, 16, 17, 18, 19, 20, 21, 22, 23, 24, 25, 26, 27, 28, 29, 30, 31, 32, 33, 34, 35, 36, 37, 38, 39, 40, 41, 42, 43, 44, 45, 46, 47, 48, 49, 50, 51, 52, 53, 54, 55, 56, 57, 58, 59, 60, 61, 62, 63, 64, 65, 66, 67, 68, 69, 70, 71, 72, 73, 74, 75, 76, 77, 78, 79, 80, 81, 82, 83, 84, 85, 86, 87, 88, 89, 90, 91, 92, 93, 94, 95, 96, 97, 98, 99, 100, 101, 102, 103, 104, 105, 106, 107, 108, 109, 110, 111, 112, 113, 114, 115, 116, 117, 118, 119, 120, 121, 122, 123, 124, 125, 126, 127, 128, 129, 130, 131, 132, 133, 134, 135, 136, 137, 138, 139, 140, 141, 142, 143, 144, 145, 146, 147, 148, 149, 150, 151, 152, 153, 154, 155, 156, 157, 158, 159, 160, 161, 162, 163, 164, 165, 166, 167, 168, 169, 170, 171, 172, 173, 174, 175, 176, 177, 178, 179, 180, 181, 182, 183, 184, 185, 186, 187, 188, 189, 190, 191, 192, 193, 194, 195, 196, 197, 198, 199, 200, 201, 202, 203, 204, 205, 206, 207, 208, 209, 210, 211, 212, 213, 214, 215, 216, 217, 218, 219, 220, 221, 222, 223, 224, 225, 226, 227, 228, 229, 230, 231, 232, 233, 234, 235, 236, 237, 238, 239, 240, 241, 242, 243, 244, 245, 246, 247, 248, 249, 250, 251, 252, 253, 254, 255, 256, 257, 258, 259, 260, 261, 262, 263, 264, 265, 266, 267, 268, 269, 270, 271, 272, 273, 274, 275, 276, 277, 278, 279, 280, 281, 282, 283, 284, 285, 286, 287, 288, 289, 290, 291, 292, 293, 294, 295, 296, 297, 298, 299, 300, 301, 302, 303, 304, 305, 306, 307, 308, 309],
      "AcquisitionTime": ["141343.857500", "141345.347500", "141346.837500", "141348.327500", "141349.817500", "141351.307500", "141352.797500", "141354.287500", "141355.777500", "141357.267500", "141358.757500", "141400.247500", "141401.737500", "141403.227500", "141404.717500", "141406.207500", "141407.697500", "141409.187500", "141410.677500", "141412.167500", "141413.657500", "141415.147500", "141416.637500", "141418.127500", "141419.617500", "141421.107500", "141422.597500", "141424.087500", "141425.577500", "141427.067500", "141428.557500", "141430.047500", "141431.537500", "141433.027500", "141434.517500", "141436.007500", "141437.497500", "141438.987500", "141440.477500", "141441.967500", "141443.457500", "141444.947500", "141446.437500", "141447.927500", "141449.417500", "141450.907500", "141452.397500", "141453.887500", "141455.377500", "141456.867500", "141458.357500", "141459.847500", "141501.337500", "141502.827500", "141504.317500", "141505.807500", "141507.297500", "141508.787500", "141510.277500", "141511.767500", "141513.257500", "141514.747500", "141516.237500", "141517.727500", "141519.217500", "141520.707500", "141522.197500", "141523.687500", "141525.177500", "141526.667500", "141528.157500", "141529.647500", "141531.137500", "141532.627500", "141534.117500", "141535.607500", "141537.097500", "141538.587500", "141540.077500", "141541.567500", "141543.057500", "141544.547500", "141546.037500", "141547.527500", "141549.017500", "141550.507500", "141551.997500", "141553.487500", "141554.977500", "141556.467500", "141557.957500", "141559.447500", "141600.937500", "141602.427500", "141603.917500", "141605.407500", "141606.897500", "141608.387500", "141609.877500", "141611.367500", "141612.857500", "141614.347500", "141615.837500", "141617.327500", "141618.817500", "141620.307500", "141621.797500", "141623.287500", "141624.777500", "141626.267500", "141627.757500", "141629.247500", "141630.737500", "141632.227500", "141633.717500", "141635.207500", "141636.697500", "141638.187500", "141639.677500", "141641.167500", "141642.657500", "141644.147500", "141645.637500", "141647.127500", "141648.617500", "141650.107500", "141651.597500", "141653.087500", "141654.577500", "141656.067500", "141657.557500", "141659.047500", "141700.537500", "141702.027500", "141703.517500", "141705.007500", "141706.497500", "141707.987500", "141709.477500", "141710.967500", "141712.457500", "141713.947500", "141715.437500", "141716.927500", "141718.417500", "141719.907500", "141721.397500", "141722.887500", "141724.377500", "141725.867500", "141727.357500", "141728.847500", "141730.337500", "141731.827500", "141733.317500", "141734.807500", "141736.297500", "141737.787500", "141739.277500", "141740.767500", "141742.257500", "141743.747500", "141745.237500", "141746.727500", "141748.217500", "141749.707500", "141751.197500", "141752.687500", "141754.177500", "141755.667500", "141757.157500", "141758.647500", "141800.137500", "141801.627500", "141803.117500", "141804.607500", "141806.097500", "141807.587500", "141809.077500", "141810.567500", "141812.057500", "141813.547500", "141815.037500", "141816.527500", "141818.017500", "141819.507500", "141820.997500", "141822.487500", "141823.977500", "141825.467500", "141826.957500", "141828.447500", "141829.937500", "141831.427500", "141832.917500", "141834.407500", "141835.897500", "141837.387500", "141838.877500", "141840.367500", "141841.857500", "141843.347500", "141844.837500", "141846.327500", "141847.817500", "141849.307500", "141850.797500", "141852.287500", "141853.777500", "141855.267500", "141856.757500", "141858.247500", "141859.737500", "141901.227500", "141902.717500", "141904.207500", "141905.697500", "141907.187500", "141908.677500", "141910.167500", "141911.657500", "141913.147500", "141914.637500", "141916.127500", "141917.617500", "141919.107500", "141920.597500", "141922.087500", "141923.577500", "141925.067500", "141926.557500", "141928.047500", "141929.537500", "141931.027500", "141932.517500", "141934.007500", "141935.497500", "141936.987500", "141938.477500", "141939.967500", "141941.457500", "141942.947500", "141944.437500", "141945.927500", "141947.417500", "141948.907500", "141950.397500", "141951.887500", "141953.377500", "141954.867500", "141956.357500", "141957.847500", "141959.337500", "142000.827500", "142002.317500", "142003.807500", "142005.297500", "142006.787500", "142008.277500", "142009.767500", "142011.257500", "142012.747500", "142014.237500", "142015.727500", "142017.217500", "142018.707500", "142020.197500", "142021.687500", "142023.177500", "142024.667500", "142026.157500", "142027.647500", "142029.137500", "142030.627500", "142032.117500", "142033.607500", "142035.097500", "142036.587500", "142038.077500", "142039.567500", "142041.057500", "142042.547500", "142044.037500", "142045.527500", "142047.017500", "142048.507500", "142049.997500", "142051.487500", "142052.977500", "142054.467500", "142055.957500", "142057.447500", "142058.937500", "142100.427500", "142101.917500", "142103.407500", "142104.897500", "142106.387500", "142107.877500", "142109.367500", "142110.857500", "142112.347500", "142113.837500", "142115.327500", "142116.817500", "142118.307500", "142119.797500", "142121.287500", "142122.777500"],
      "ContentTime": ["141439.923000", "141439.927000", "141439.931000", "141439.934000", "141439.937000", "141459.885000", "141459.889000", "141459.893000", "141459.897000", "141459.900000", "141459.904000", "141459.930000", "141459.934000", "141459.937000", "141459.940000", "141459.950000", "141459.953000", "141459.956000", "141459.959000", "141459.967000", "141459.983000", "141459.986000", "141459.989000", "141500.002000", "141500.005000", "141519.886000", "141519.890000", "141519.899000", "141519.902000", "141519.905000", "141519.909000", "141519.920000", "141519.923000", "141519.926000", "141519.930000", "141519.933000", "141519.936000", "141519.940000", "141519.943000", "141519.947000", "141519.950000", "141519.953000", "141519.956000", "141519.960000", "141519.963000", "141519.966000", "141539.886000", "141539.890000", "141539.893000", "141539.897000", "141539.900000", "141539.903000", "141539.906000", "141539.910000", "141539.921000", "141539.925000", "141539.928000", "141539.931000", "141539.935000", "141539.938000", "141539.941000", "141539.945000", "141539.948000", "141539.952000", "141539.955000", "141539.958000", "141559.885000", "141559.889000", "141559.892000", "141559.895000", "141559.899000", "141559.902000", "141559.905000", "141559.909000", "141559.912000", "141559.915000", "141559.919000", "141559.922000", "141559.925000", "141559.929000", "141559.932000", "141559.935000", "141559.939000", "141559.942000", "141559.945000", "141559.949000", "141639.885000", "141639.889000", "141639.892000", "141639.895000", "141639.899000", "141639.902000", "141639.906000", "141639.909000", "141639.912000", "141639.916000", "141639.919000", "141639.922000", "141639.931000", "141639.935000", "141639.938000", "141639.941000", "141639.945000", "141639.948000", "141639.951000", "141639.955000", "141639.958000", "141639.961000", "141639.965000", "141639.968000", "141639.971000", "141639.975000", "141639.978000", "141639.982000", "141639.985000", "141639.988000", "141639.992000", "141719.885000", "141719.889000", "141719.892000", "141719.896000", "141719.899000", "141719.909000", "141719.912000", "141719.915000", "141719.919000", "141719.922000", "141719.925000", "141719.929000", "141719.932000", "141719.935000", "141719.939000", "141719.942000", "141719.945000", "141719.949000", "141719.952000", "141719.955000", "141719.959000", "141719.962000", "141719.965000", "141719.969000", "141719.972000", "141719.975000", "141719.979000", "141759.886000", "141759.890000", "141759.893000", "141759.897000", "141759.900000", "141759.903000", "141759.907000", "141759.910000", "141759.913000", "141759.917000", "141759.920000", "141759.924000", "141759.927000", "141759.930000", "141759.934000", "141759.937000", "141759.940000", "141759.944000", "141759.947000", "141759.950000", "141759.954000", "141759.957000", "141759.960000", "141759.964000", "141759.967000", "141759.970000", "141759.974000", "141839.885000", "141839.889000", "141839.892000", "141839.896000", "141839.899000", "141839.902000", "141839.906000", "141839.909000", "141839.912000", "141839.916000", "141839.919000", "141839.922000", "141839.926000", "141839.929000", "141839.932000", "141839.936000", "141839.939000", "141839.942000", "141839.946000", "141839.949000", "141839.952000", "141839.956000", "141839.959000", "141839.962000", "141839.966000", "141839.969000", "141839.972000", "141919.885000", "141919.889000", "141919.892000", "141919.896000", "141919.899000", "141919.902000", "141919.906000", "141919.909000", "141919.912000", "141919.916000", "141919.919000", "141919.922000", "141919.926000", "141919.929000", "141919.932000", "141919.936000", "141919.939000", "141919.943000", "141919.946000", "141919.949000", "141919.953000", "141919.956000", "141919.959000", "141919.963000", "141919.966000", "141919.983000", "141919.986000", "141959.886000", "141959.890000", "141959.893000", "141959.897000", "141959.900000", "141959.904000", "141959.907000", "141959.910000", "141959.914000", "141959.917000", "141959.920000", "141959.924000", "141959.927000", "141959.930000", "141959.934000", "141959.937000", "141959.940000", "141959.944000", "141959.947000", "141959.950000", "141959.954000", "141959.957000", "141959.960000", "141959.964000", "141959.967000", "141959.970000", "141959.974000", "142039.885000", "142039.889000", "142039.892000", "142039.896000", "142039.899000", "142039.909000", "142039.912000", "142039.916000", "142039.919000", "142039.923000", "142039.927000", "142039.930000", "142039.934000", "142039.937000", "142039.940000", "142039.944000", "142039.947000", "142039.950000", "142039.954000", "142039.957000", "142039.960000", "142039.964000", "142039.967000", "142039.970000", "142039.974000", "142039.977000", "142119.885000", "142119.889000", "142119.892000", "142119.896000", "142119.899000", "142119.902000", "142119.906000", "142119.909000", "142119.912000", "142119.916000", "142119.919000", "142119.922000", "142119.926000", "142119.929000", "142119.932000", "142119.936000", "142119.939000", "142119.943000", "142119.946000", "142119.950000", "142119.953000", "142119.956000", "142119.960000", "142119.963000", "142119.966000", "142119.970000", "142119.973000", "142125.576000", "142125.579000", "142125.583000", "142125.586000"],
      "InstanceCreationTime": ["141439.923000", "141439.927000", "141439.931000", "141439.934000", "141439.937000", "141459.885000", "141459.889000", "141459.893000", "141459.897000", "141459.900000", "141459.904000", "141459.930000", "141459.934000", "141459.937000", "141459.940000", "141459.950000", "141459.953000", "141459.956000", "141459.959000", "141459.967000", "141459.983000", "141459.986000", "141459.989000", "141500.002000", "141500.005000", "141519.886000", "141519.890000", "141519.899000", "141519.902000", "141519.905000", "141519.909000", "141519.920000", "141519.923000", "141519.926000", "141519.930000", "141519.933000", "141519.936000", "141519.940000", "141519.943000", "141519.947000", "141519.950000", "141519.953000", "141519.956000", "141519.960000", "141519.963000", "141519.966000", "141539.886000", "141539.890000", "141539.893000", "141539.897000", "141539.900000", "141539.903000", "141539.906000", "141539.910000", "141539.921000", "141539.925000", "141539.928000", "141539.931000", "141539.935000", "141539.938000", "141539.941000", "141539.945000", "141539.948000", "141539.952000", "141539.955000", "141539.958000", "141559.885000", "141559.889000", "141559.892000", "141559.895000", "141559.899000", "141559.902000", "141559.905000", "141559.909000", "141559.912000", "141559.915000", "141559.919000", "141559.922000", "141559.925000", "141559.929000", "141559.932000", "141559.935000", "141559.939000", "141559.942000", "141559.945000", "141559.949000", "141639.885000", "141639.889000", "141639.892000", "141639.895000", "141639.899000", "141639.902000", "141639.906000", "141639.909000", "141639.912000", "141639.916000", "141639.919000", "141639.922000", "141639.931000", "141639.935000", "141639.938000", "141639.941000", "141639.945000", "141639.948000", "141639.951000", "141639.955000", "141639.958000", "141639.961000", "141639.965000", "141639.968000", "141639.971000", "141639.975000", "141639.978000", "141639.982000", "141639.985000", "141639.988000", "141639.992000", "141719.885000", "141719.889000", "141719.892000", "141719.896000", "141719.899000", "141719.909000", "141719.912000", "141719.915000", "141719.919000", "141719.922000", "141719.925000", "141719.929000", "141719.932000", "141719.935000", "141719.939000", "141719.942000", "141719.945000", "141719.949000", "141719.952000", "141719.955000", "141719.959000", "141719.962000", "141719.965000", "141719.969000", "141719.972000", "141719.975000", "141719.979000", "141759.886000", "141759.890000", "141759.893000", "141759.897000", "141759.900000", "141759.903000", "141759.907000", "141759.910000", "141759.913000", "141759.917000", "141759.920000", "141759.924000", "141759.927000", "141759.930000", "141759.934000", "141759.937000", "141759.940000", "141759.944000", "141759.947000", "141759.950000", "141759.954000", "141759.957000", "141759.960000", "141759.964000", "141759.967000", "141759.970000", "141759.974000", "141839.885000", "141839.889000", "141839.892000", "141839.896000", "141839.899000", "141839.902000", "141839.906000", "141839.909000", "141839.912000", "141839.916000", "141839.919000", "141839.922000", "141839.926000", "141839.929000", "141839.932000", "141839.936000", "141839.939000", "141839.942000", "141839.946000", "141839.949000", "141839.952000", "141839.956000", "141839.959000", "141839.962000", "141839.966000", "141839.969000", "141839.972000", "141919.885000", "141919.889000", "141919.892000", "141919.896000", "141919.899000", "141919.902000", "141919.906000", "141919.909000", "141919.912000", "141919.916000", "141919.919000", "141919.922000", "141919.926000", "141919.929000", "141919.932000", "141919.936000", "141919.939000", "141919.943000", "141919.946000", "141919.949000", "141919.953000", "141919.956000", "141919.959000", "141919.963000", "141919.966000", "141919.983000", "141919.986000", "141959.886000", "141959.890000", "141959.893000", "141959.897000", "141959.900000", "141959.904000", "141959.907000", "141959.910000", "141959.914000", "141959.917000", "141959.920000", "141959.924000", "141959.927000", "141959.930000", "141959.934000", "141959.937000", "141959.940000", "141959.944000", "141959.947000", "141959.950000", "141959.954000", "141959.957000", "141959.960000", "141959.964000", "141959.967000", "141959.970000", "141959.974000", "142039.885000", "142039.889000", "142039.892000", "142039.896000", "142039.899000", "142039.909000", "142039.912000", "142039.916000", "142039.919000", "142039.923000", "142039.927000", "142039.930000", "142039.934000", "142039.937000", "142039.940000", "142039.944000", "142039.947000", "142039.950000", "142039.954000", "142039.957000", "142039.960000", "142039.964000", "142039.967000", "142039.970000", "142039.974000", "142039.977000", "142119.885000", "142119.889000", "142119.892000", "142119.896000", "142119.899000", "142119.902000", "142119.906000", "142119.909000", "142119.912000", "142119.916000", "142119.919000", "142119.922000", "142119.926000", "142119.929000", "142119.932000", "142119.936000", "142119.939000", "142119.943000", "142119.946000", "142119.950000", "142119.953000", "142119.956000", "142119.960000", "142119.963000", "142119.966000", "142119.970000", "142119.973000", "142125.576000", "142125.579000", "142125.583000", "142125.586000"],
      "InstanceNumber": [1, 2, 3, 4, 5, 6, 7, 8, 9, 10, 11, 12, 13, 14, 15, 16, 17, 18, 19, 20, 21, 22, 23, 24, 25, 26, 27, 28, 29, 30, 31, 32, 33, 34, 35, 36, 37, 38, 39, 40, 41, 42, 43, 44, 45, 46, 47, 48, 49, 50, 51, 52, 53, 54, 55, 56, 57, 58, 59, 60, 61, 62, 63, 64, 65, 66, 67, 68, 69, 70, 71, 72, 73, 74, 75, 76, 77, 78, 79, 80, 81, 82, 83, 84, 85, 86, 87, 88, 89, 90, 91, 92, 93, 94, 95, 96, 97, 98, 99, 100, 101, 102, 103, 104, 105, 106, 107, 108, 109, 110, 111, 112, 113, 114, 115, 116, 117, 118, 119, 120, 121, 122, 123, 124, 125, 126, 127, 128, 129, 130, 131, 132, 133, 134, 135, 136, 137, 138, 139, 140, 141, 142, 143, 144, 145, 146, 147, 148, 149, 150, 151, 152, 153, 154, 155, 156, 157, 158, 159, 160, 161, 162, 163, 164, 165, 166, 167, 168, 169, 170, 171, 172, 173, 174, 175, 176, 177, 178, 179, 180, 181, 182, 183, 184, 185, 186, 187, 188, 189, 190, 191, 192, 193, 194, 195, 196, 197, 198, 199, 200, 201, 202, 203, 204, 205, 206, 207, 208, 209, 210, 211, 212, 213, 214, 215, 216, 217, 218, 219, 220, 221, 222, 223, 224, 225, 226, 227, 228, 229, 230, 231, 232, 233, 234, 235, 236, 237, 238, 239, 240, 241, 242, 243, 244, 245, 246, 247, 248, 249, 250, 251, 252, 253, 254, 255, 256, 257, 258, 259, 260, 261, 262, 263, 264, 265, 266, 267, 268, 269, 270, 271, 272, 273, 274, 275, 276, 277, 278, 279, 280, 281, 282, 283, 284, 285, 286, 287, 288, 289, 290, 291, 292, 293, 294, 295, 296, 297, 298, 299, 300, 301, 302, 303, 304, 305, 306, 307, 308, 309],
      "LargestImagePixelValue": [41466, 39697, 39184, 38880, 38935, 38997, 39011, 39334, 38863, 39158, 38593, 38697, 39193, 38384, 39219, 38975, 38556, 39002, 38477, 38804, 38905, 38963, 39215, 39311, 38871, 38462, 38402, 38908, 39128, 39136, 39417, 38769, 38563, 39075, 39130, 39082, 38865, 38841, 38321, 38042, 38938, 38820, 38675, 38979, 38694, 38916, 39064, 39050, 39127, 38558, 39154, 39711, 39166, 39205, 38373, 39044, 38222, 38746, 38508, 39239, 39204, 39140, 39693, 38662, 39075, 39279, 38772, 39091, 39020, 38505, 39218, 38907, 38780, 38562, 38734, 39085, 38881, 39456, 39491, 39535, 39067, 38973, 38742, 39424, 39270, 39360, 39473, 39606, 38851, 39017, 39266, 39404, 39470, 39352, 38619, 39278, 38877, 38876, 39214, 39441, 39650, 39865, 39792, 39669, 39800, 39433, 39733, 39373, 39776, 39819, 39527, 39424, 39512, 39376, 39136, 39073, 39382, 39277, 39651, 38781, 38592, 38872, 39622, 39220, 38855, 39164, 39057, 39200, 39198, 39550, 39680, 40016, 39260, 38935, 39332, 39081, 39416, 39454, 39051, 39455, 39140, 39672, 39824, 39184, 39188, 39107, 39099, 38724, 38868, 39386, 39212, 39067, 39353, 39257, 38932, 39403, 39027, 38802, 39298, 38605, 38717, 38969, 39035, 38907, 39133, 38829, 39485, 38763, 39200, 39045, 39721, 39088, 38961, 38926, 38767, 39502, 38895, 38656, 38705, 39029, 38902, 38986, 38636, 38650, 39048, 38852, 39048, 39250, 38957, 38691, 38695, 39000, 39360, 39012, 38273, 38413, 38581, 38856, 38478, 38829, 39342, 39171, 38918, 38562, 38467, 38807, 39056, 38706, 38912, 38920, 38812, 39064, 38390, 39114, 39249, 39159, 39030, 39025, 39112, 38965, 38189, 38998, 38929, 38850, 39158, 38939, 38830, 39040, 39143, 39081, 39161, 38639, 38649, 38753, 38522, 38911, 38898, 38480, 38517, 39481, 39587, 38841, 38445, 39110, 38784, 39083, 39878, 38837, 38504, 38674, 38909, 38718, 38683, 39440, 39318, 39013, 39193, 39503, 39071, 38812, 39117, 38899, 38941, 38391, 38786, 39093, 38432, 38487, 38444, 38515, 39777, 39263, 38654, 38727, 39233, 39235, 39712, 39484, 38906, 39111, 39298, 39339, 39075, 38964, 38847, 39322, 39035, 38998, 39562, 39590, 39220, 39947, 39475, 39274, 38467, 38559, 38721, 38814, 38785, 38922, 38856, 39197, 39276, 38685, 39268, 39037, 39260, 38838, 39069],
      "WindowCenter": [10099.0, 10044.0, 10044.0, 10035.0, 10017.0, 9997.0, 9994.0, 10024.0, 10042.0, 10067.0, 10043.0, 10050.0, 10064.0, 10053.0, 10084.0, 10032.0, 10025.0, 10031.0, 10035.0, 10023.0, 9996.0, 9983.0, 9980.0, 10025.0, 10039.0, 10019.0, 9981.0, 9959.0, 9971.0, 9981.0, 10017.0, 10003.0, 10005.0, 10020.0, 10020.0, 10045.0, 10048.0, 10048.0, 10024.0, 10008.0, 10041.0, 10034.0, 10019.0, 9989.0, 9965.0, 9952.0, 9975.0, 10002.0, 10004.0, 10009.0, 10024.0, 10027.0, 10034.0, 10040.0, 10035.0, 10035.0, 10022.0, 10029.0, 10070.0, 10062.0, 10052.0, 10018.0, 9978.0, 9951.0, 9995.0, 10028.0, 10032.0, 10068.0, 10052.0, 10038.0, 10022.0, 10002.0, 10003.0, 10017.0, 10009.0, 10021.0, 10010.0, 10003.0, 10016.0, 10036.0, 10037.0, 10023.0, 9999.0, 9993.0, 9998.0, 10016.0, 10024.0, 10017.0, 10002.0, 9997.0, 10016.0, 10032.0, 10034.0, 10020.0, 9988.0, 9990.0, 9992.0, 10002.0, 10025.0, 10027.0, 10033.0, 10033.0, 10038.0, 10049.0, 10025.0, 10017.0, 10025.0, 10019.0, 10027.0, 10017.0, 10016.0, 10015.0, 10018.0, 10017.0, 10019.0, 10009.0, 10035.0, 10027.0, 10018.0, 9999.0, 9979.0, 9997.0, 10020.0, 9996.0, 9970.0, 9984.0, 9998.0, 10023.0, 10023.0, 10021.0, 10044.0, 10069.0, 10047.0, 10011.0, 9969.0, 9966.0, 9999.0, 10000.0, 10005.0, 10010.0, 10025.0, 10042.0, 10044.0, 10030.0, 10019.0, 10029.0, 10029.0, 10025.0, 10000.0, 10013.0, 9986.0, 9958.0, 9980.0, 9995.0, 10008.0, 9984.0, 9971.0, 9981.0, 9997.0, 10000.0, 10002.0, 9981.0, 10011.0, 10008.0, 10003.0, 9987.0, 9990.0, 10011.0, 10027.0, 10044.0, 10051.0, 10028.0, 10029.0, 10017.0, 10028.0, 10052.0, 10063.0, 10061.0, 10050.0, 10020.0, 10031.0, 10027.0, 10040.0, 10032.0, 10018.0, 10005.0, 10049.0, 10080.0, 10072.0, 10041.0, 10014.0, 10008.0, 10031.0, 10041.0, 10043.0, 10037.0, 10008.0, 9990.0, 9980.0, 9986.0, 10005.0, 10029.0, 10028.0, 10032.0, 10034.0, 10018.0, 10006.0, 10007.0, 10023.0, 10039.0, 10024.0, 10015.0, 10007.0, 10035.0, 10044.0, 10032.0, 10040.0, 10031.0, 10056.0, 10048.0, 10010.0, 10002.0, 10003.0, 10021.0, 10064.0, 10030.0, 10049.0, 10041.0, 10020.0, 10030.0, 10023.0, 10013.0, 10023.0, 10007.0, 10005.0, 10012.0, 10020.0, 9997.0, 10007.0, 10041.0, 10052.0, 10068.0, 10033.0, 10020.0, 10003.0, 10035.0, 10041.0, 10022.0, 10006.0, 10012.0, 10011.0, 10007.0, 9955.0, 9966.0, 9973.0, 9993.0, 10011.0, 10017.0, 10026.0, 10039.0, 10045.0, 10029.0, 9990.0, 10006.0, 10028.0, 10079.0, 10050.0, 10006.0, 9991.0, 9951.0, 9982.0, 10019.0, 10024.0, 10009.0, 9986.0, 9975.0, 9970.0, 9987.0, 10016.0, 10008.0, 10034.0, 10042.0, 10048.0, 10031.0, 10023.0, 10020.0, 10028.0, 10036.0, 10042.0, 10026.0, 10014.0, 10037.0, 10067.0, 10070.0, 10047.0, 10004.0, 9980.0, 9987.0, 10005.0, 10002.0, 9984.0, 9994.0, 10012.0, 10016.0, 9998.0, 9980.0, 9970.0, 9987.0, 10020.0],
