{
  "AcquisitionMatrixPE": 104,
  "AcquisitionNumber": 1,
  "AcquisitionTime": "14:26:58.810000",
  "BandwidthPerPixelPhaseEncode": 17.17,
  "BaseResolution": 104,
  "BodyPartExamined": "BRAIN",
  "CoilCombinationMethod": "Sum of Squares",
  "ConsistencyInfo": "N4_VE11C_LATEST_20160120",
  "ConversionSoftware": "dcm2niix",
  "ConversionSoftwareVersion": "v1.0.20220505",
  "DerivedVendorReportedEchoSpacing": 0.000560011,
  "DeviceSerialNumber": "167006",
  "DwellTime": 2.1e-06,
  "EchoTime": 0.037,
  "EchoTrainLength": 104,
  "EffectiveEchoSpacing": 0.000560011,
  "FlipAngle": 52,
  "HeudiconvVersion": "0.5.3.post811+g6206e14",
  "ImageComments": "Unaliased MB4/PE3/LB",
  "ImageOrientationPatientDICOM": [0.999544, 0.027721, 0.0119677, -0.0235555, 0.96388, -0.265293],
  "ImageOrientationText": "Tra>Cor(-15.4)>Sag(1.1)",
  "ImageType": [
    "ORIGINAL",
    "PRIMARY",
    "M",
    "MB",
    "ND",
    "MOSAIC"
],
  "ImagingFrequency": 123.26,
  "InPlanePhaseEncodingDirectionDICOM": "COL",
  "InstitutionAddress": "Chemin Queen-Mary 4565,Montreal,District,CA,H3W 1W5",
  "InstitutionName": "IUGM",
  "InstitutionalDepartmentName": "Department",
  "MRAcquisitionType": "2D",
  "MagneticFieldStrength": 3,
  "Manufacturer": "Siemens",
  "ManufacturersModelName": "Prisma_fit",
  "MatrixCoilMode": "SENSE",
  "Modality": "MR",
  "MultibandAccelerationFactor": 4,
  "PartialFourier": 1,
  "PatientPosition": "HFS",
  "PercentPhaseFOV": 100,
  "PercentSampling": 100,
  "PhaseEncodingDirection": "j",
  "PhaseEncodingSteps": 104,
  "PhaseResolution": 1,
  "PixelBandwidth": 2290,
  "ProcedureStepDescription": "games^mario3",
  "ProtocolName": "func_task-mario3_run-03",
  "PulseSequenceDetails": "%CustomerSeq%\\cmrr_mbep2d_bold",
  "ReceiveCoilActiveElements": "HC1-7;NC1,2",
  "ReceiveCoilName": "HeadNeck_64",
  "ReconMatrixPE": 104,
  "RepetitionTime": 1.49,
  "SAR": 0.066979,
  "ScanOptions": "FS",
  "ScanningSequence": "EP",
  "SequenceName": "epfid2d1_104",
  "SequenceVariant": "SK\\SS",
  "SeriesDescription": "func_task-mario3_run-03",
  "SeriesNumber": 16,
  "ShimSetting": [619, -7221, -8738, 697, 58, 1, 32, -2],
  "SliceThickness": 2,
  "SliceTiming": [0, 0.785, 0.1, 0.8825, 0.1975, 0.98, 0.295, 1.08, 0.3925, 1.1775, 0.49, 1.275, 0.59, 1.3725, 0.6875, 0, 0.785, 0.1, 0.8825, 0.1975, 0.98, 0.295, 1.08, 0.3925, 1.1775, 0.49, 1.275, 0.59, 1.3725, 0.6875, 0, 0.785, 0.1, 0.8825, 0.1975, 0.98, 0.295, 1.08, 0.3925, 1.1775, 0.49, 1.275, 0.59, 1.3725, 0.6875, 0, 0.785, 0.1, 0.8825, 0.1975, 0.98, 0.295, 1.08, 0.3925, 1.1775, 0.49, 1.275, 0.59, 1.3725, 0.6875],
  "SoftwareVersions": "syngo MR E11",
  "SpacingBetweenSlices": 2,
  "StationName": "MRC35049",
  "TaskName": "mario3",
  "TotalReadoutTime": 0.0576811,
  "TxRefAmp": 237.387,
  "WipMemBlock": "0a200497-7f9f-4be6-b639-f7938e6d9d7f||Sequence: R017 ve11c/master r/75a17815+; Jun 28 2022 16:32:11 by eja",
  "dcmmeta_affine": [
    [-1.999088168144226, -0.047111086547374725, 0.03777925297617912, 110.12866973876953],
    [-0.05544206127524376, 1.9277602434158325, -0.5297799110412598, -70.92115783691406],
    [0.023935416713356972, 0.5305856466293335, 1.9281872510910034, -51.094600677490234],
    [0.0, 0.0, 0.0, 1.0]
],
  "dcmmeta_reorient_transform": [
    [0.0, -1.0, 0.0, 103.0],
    [1.0, 0.0, 0.0, 0.0],
    [0.0, 0.0, 1.0, 0.0],
    [0.0, 0.0, 0.0, 1.0]
],
  "dcmmeta_shape": [104, 104, 60, 369],
  "dcmmeta_slice_dim": 2,
  "dcmmeta_version": 0.6,
  "global": {
    "const": {
      "AcquisitionMatrix": [104, 0, 0, 104],
      "AngioFlag": "N",
      "BitsAllocated": 16,
      "BitsStored": 16,
      "BodyPartExamined": "BRAIN",
      "Columns": 832,
      "EchoNumbers": 1,
      "EchoTime": 37.0,
      "EchoTrainLength": 104,
      "FlipAngle": 52.0,
      "HighBit": 15,
      "ImageOrientationPatient": [0.99954405526783, 0.02772103061556, 0.01196770823333, -0.0235555427966, 0.96388010387102, -0.2652928226793],
      "ImagePositionPatient": [-815.79586723991, -849.5237710901, 187.97640275079],
      "ImageType": [
        "ORIGINAL",
        "PRIMARY",
        "M",
        "MB",
        "ND",
        "MOSAIC"
],
      "ImagedNucleus": "1H",
      "ImagingFrequency": 123.260122,
      "InPlanePhaseEncodingDirection": "COL",
      "MRAcquisitionType": "2D",
      "MagneticFieldStrength": 3.0,
      "Manufacturer": "SIEMENS",
      "ManufacturerModelName": "Prisma_fit",
      "Modality": "MR",
      "NumberOfAverages": 1.0,
      "NumberOfPhaseEncodingSteps": 104,
      "PercentPhaseFieldOfView": 100.0,
      "PercentSampling": 100.0,
      "PerformedProcedureStepStartTime": "135937.738000",
      "PhotometricInterpretation": "MONOCHROME2",
      "PixelBandwidth": 2290.0,
      "PixelRepresentation": 0,
      "PixelSpacing": [2.0, 2.0],
      "ProtocolName": "func_task-mario3_run-03",
      "RepetitionTime": 1490.0,
      "Rows": 832,
      "SAR": 0.06697899153229,
      "SamplesPerPixel": 1,
      "ScanOptions": "FS",
      "ScanningSequence": "EP",
      "SequenceName": "epfid2d1_104",
      "SequenceVariant": [
        "SK",
        "SS"
],
      "SeriesDescription": "func_task-mario3_run-03",
      "SeriesNumber": 16,
      "SeriesTime": "142756.408000",
      "SliceLocation": -28.393387871562,
      "SliceThickness": 2.0,
      "SmallestImagePixelValue": 0,
      "SoftwareVersions": "syngo MR E11",
      "SpacingBetweenSlices": 2.0000000000462,
      "SpecificCharacterSet": "ISO_IR 100",
      "StudyID": "1",
      "StudyTime": "135937.656000",
      "TransmitCoilName": "Body",
      "VariableFlipAngleFlag": "N",
      "WindowCenterWidthExplanation": "Algo1",
      "dBdt": 0.0},
    "slices": {}
  },
  "time": {
    "samples": {
      "AcquisitionNumber": [1, 2, 3, 4, 5, 6, 7, 8, 9, 10, 11, 12, 13, 14, 15, 16, 17, 18, 19, 20, 21, 22, 23, 24, 25, 26, 27, 28, 29, 30, 31, 32, 33, 34, 35, 36, 37, 38, 39, 40, 41, 42, 43, 44, 45, 46, 47, 48, 49, 50, 51, 52, 53, 54, 55, 56, 57, 58, 59, 60, 61, 62, 63, 64, 65, 66, 67, 68, 69, 70, 71, 72, 73, 74, 75, 76, 77, 78, 79, 80, 81, 82, 83, 84, 85, 86, 87, 88, 89, 90, 91, 92, 93, 94, 95, 96, 97, 98, 99, 100, 101, 102, 103, 104, 105, 106, 107, 108, 109, 110, 111, 112, 113, 114, 115, 116, 117, 118, 119, 120, 121, 122, 123, 124, 125, 126, 127, 128, 129, 130, 131, 132, 133, 134, 135, 136, 137, 138, 139, 140, 141, 142, 143, 144, 145, 146, 147, 148, 149, 150, 151, 152, 153, 154, 155, 156, 157, 158, 159, 160, 161, 162, 163, 164, 165, 166, 167, 168, 169, 170, 171, 172, 173, 174, 175, 176, 177, 178, 179, 180, 181, 182, 183, 184, 185, 186, 187, 188, 189, 190, 191, 192, 193, 194, 195, 196, 197, 198, 199, 200, 201, 202, 203, 204, 205, 206, 207, 208, 209, 210, 211, 212, 213, 214, 215, 216, 217, 218, 219, 220, 221, 222, 223, 224, 225, 226, 227, 228, 229, 230, 231, 232, 233, 234, 235, 236, 237, 238, 239, 240, 241, 242, 243, 244, 245, 246, 247, 248, 249, 250, 251, 252, 253, 254, 255, 256, 257, 258, 259, 260, 261, 262, 263, 264, 265, 266, 267, 268, 269, 270, 271, 272, 273, 274, 275, 276, 277, 278, 279, 280, 281, 282, 283, 284, 285, 286, 287, 288, 289, 290, 291, 292, 293, 294, 295, 296, 297, 298, 299, 300, 301, 302, 303, 304, 305, 306, 307, 308, 309, 310, 311, 312, 313, 314, 315, 316, 317, 318, 319, 320, 321, 322, 323, 324, 325, 326, 327, 328, 329, 330, 331, 332, 333, 334, 335, 336, 337, 338, 339, 340, 341, 342, 343, 344, 345, 346, 347, 348, 349, 350, 351, 352, 353, 354, 355, 356, 357, 358, 359, 360, 361, 362, 363, 364, 365, 366, 367, 368, 369],
      "AcquisitionTime": ["142658.810000", "142700.300000", "142701.790000", "142703.280000", "142704.770000", "142706.260000", "142707.750000", "142709.240000", "142710.730000", "142712.220000", "142713.710000", "142715.200000", "142716.690000", "142718.180000", "142719.670000", "142721.160000", "142722.650000", "142724.140000", "142725.630000", "142727.120000", "142728.610000", "142730.100000", "142731.590000", "142733.080000", "142734.570000", "142736.060000", "142737.550000", "142739.040000", "142740.530000", "142742.020000", "142743.510000", "142745.000000", "142746.490000", "142747.980000", "142749.470000", "142750.960000", "142752.450000", "142753.940000", "142755.430000", "142756.920000", "142758.410000", "142759.900000", "142801.390000", "142802.880000", "142804.370000", "142805.860000", "142807.350000", "142808.840000", "142810.330000", "142811.820000", "142813.310000", "142814.800000", "142816.290000", "142817.780000", "142819.270000", "142820.760000", "142822.250000", "142823.740000", "142825.230000", "142826.720000", "142828.210000", "142829.700000", "142831.190000", "142832.680000", "142834.170000", "142835.660000", "142837.150000", "142838.640000", "142840.130000", "142841.620000", "142843.110000", "142844.600000", "142846.090000", "142847.580000", "142849.070000", "142850.560000", "142852.050000", "142853.540000", "142855.030000", "142856.520000", "142858.010000", "142859.500000", "142900.990000", "142902.480000", "142903.970000", "142905.460000", "142906.950000", "142908.440000", "142909.930000", "142911.420000", "142912.910000", "142914.400000", "142915.890000", "142917.380000", "142918.870000", "142920.360000", "142921.850000", "142923.340000", "142924.830000", "142926.320000", "142927.810000", "142929.300000", "142930.790000", "142932.280000", "142933.770000", "142935.260000", "142936.750000", "142938.240000", "142939.730000", "142941.220000", "142942.710000", "142944.200000", "142945.690000", "142947.180000", "142948.670000", "142950.160000", "142951.650000", "142953.140000", "142954.630000", "142956.120000", "142957.610000", "142959.100000", "143000.590000", "143002.080000", "143003.570000", "143005.060000", "143006.550000", "143008.040000", "143009.530000", "143011.020000", "143012.510000", "143014.000000", "143015.490000", "143016.980000", "143018.470000", "143019.960000", "143021.450000", "143022.940000", "143024.430000", "143025.920000", "143027.410000", "143028.900000", "143030.390000", "143031.880000", "143033.370000", "143034.860000", "143036.350000", "143037.840000", "143039.330000", "143040.820000", "143042.310000", "143043.800000", "143045.290000", "143046.780000", "143048.270000", "143049.760000", "143051.250000", "143052.740000", "143054.230000", "143055.720000", "143057.210000", "143058.700000", "143100.190000", "143101.680000", "143103.170000", "143104.660000", "143106.150000", "143107.640000", "143109.130000", "143110.620000", "143112.110000", "143113.600000", "143115.090000", "143116.580000", "143118.070000", "143119.560000", "143121.050000", "143122.540000", "143124.030000", "143125.520000", "143127.010000", "143128.500000", "143129.990000", "143131.480000", "143132.970000", "143134.460000", "143135.950000", "143137.440000", "143138.930000", "143140.420000", "143141.910000", "143143.400000", "143144.890000", "143146.380000", "143147.870000", "143149.360000", "143150.850000", "143152.340000", "143153.830000", "143155.320000", "143156.810000", "143158.300000", "143159.790000", "143201.280000", "143202.770000", "143204.260000", "143205.750000", "143207.240000", "143208.730000", "143210.220000", "143211.710000", "143213.200000", "143214.690000", "143216.180000", "143217.670000", "143219.160000", "143220.650000", "143222.140000", "143223.630000", "143225.120000", "143226.610000", "143228.100000", "143229.590000", "143231.080000", "143232.570000", "143234.060000", "143235.550000", "143237.040000", "143238.530000", "143240.020000", "143241.510000", "143243.000000", "143244.490000", "143245.980000", "143247.470000", "143248.960000", "143250.450000", "143251.940000", "143253.430000", "143254.920000", "143256.410000", "143257.900000", "143259.390000", "143300.880000", "143302.370000", "143303.860000", "143305.350000", "143306.840000", "143308.330000", "143309.820000", "143311.310000", "143312.800000", "143314.290000", "143315.780000", "143317.270000", "143318.760000", "143320.250000", "143321.740000", "143323.230000", "143324.720000", "143326.210000", "143327.700000", "143329.190000", "143330.680000", "143332.170000", "143333.660000", "143335.150000", "143336.640000", "143338.130000", "143339.620000", "143341.110000", "143342.600000", "143344.090000", "143345.580000", "143347.070000", "143348.560000", "143350.050000", "143351.540000", "143353.030000", "143354.520000", "143356.010000", "143357.500000", "143358.990000", "143400.480000", "143401.970000", "143403.460000", "143404.950000", "143406.440000", "143407.930000", "143409.420000", "143410.910000", "143412.400000", "143413.890000", "143415.380000", "143416.870000", "143418.360000", "143419.850000", "143421.340000", "143422.830000", "143424.320000", "143425.810000", "143427.300000", "143428.790000", "143430.280000", "143431.770000", "143433.260000", "143434.750000", "143436.240000", "143437.730000", "143439.220000", "143440.710000", "143442.200000", "143443.690000", "143445.180000", "143446.670000", "143448.160000", "143449.650000", "143451.140000", "143452.630000", "143454.120000", "143455.610000", "143457.100000", "143458.590000", "143500.080000", "143501.570000", "143503.060000", "143504.550000", "143506.040000", "143507.530000", "143509.020000", "143510.510000", "143512.000000", "143513.490000", "143514.980000", "143516.470000", "143517.960000", "143519.450000", "143520.940000", "143522.430000", "143523.920000", "143525.410000", "143526.900000", "143528.390000", "143529.880000", "143531.370000", "143532.860000", "143534.350000", "143535.840000", "143537.330000", "143538.820000", "143540.310000", "143541.800000", "143543.290000", "143544.780000", "143546.270000", "143547.760000", "143549.250000", "143550.740000", "143552.230000", "143553.720000", "143555.210000", "143556.700000", "143558.190000", "143559.680000", "143601.170000", "143602.660000", "143604.150000", "143605.640000", "143607.130000"],
      "ContentTime": ["142756.411000", "142756.415000", "142756.419000", "142756.422000", "142756.425000", "142756.439000", "142756.442000", "142816.365000", "142816.369000", "142816.372000", "142816.376000", "142816.379000", "142816.382000", "142816.386000", "142816.389000", "142816.392000", "142816.396000", "142816.399000", "142816.402000", "142816.406000", "142816.409000", "142816.412000", "142816.415000", "142816.419000", "142816.422000", "142816.425000", "142816.429000", "142816.438000", "142836.365000", "142836.369000", "142836.372000", "142836.376000", "142836.379000", "142836.382000", "142836.386000", "142836.389000", "142836.392000", "142836.402000", "142836.405000", "142836.409000", "142836.412000", "142836.415000", "142836.418000", "142836.422000", "142836.425000", "142836.428000", "142836.432000", "142836.435000", "142856.365000", "142856.369000", "142856.372000", "142856.376000", "142856.379000", "142856.382000", "142856.386000", "142856.389000", "142856.392000", "142856.396000", "142856.399000", "142856.402000", "142856.415000", "142856.418000", "142856.422000", "142856.425000", "142856.429000", "142856.432000", "142856.436000", "142856.439000", "142916.365000", "142916.369000", "142916.372000", "142916.376000", "142916.379000", "142916.382000", "142916.385000", "142916.389000", "142916.397000", "142916.400000", "142916.404000", "142916.407000", "142916.410000", "142916.414000", "142916.417000", "142916.420000", "142916.423000", "142916.427000", "142916.430000", "142916.433000", "142956.366000", "142956.370000", "142956.384000", "142956.388000", "142956.391000", "142956.394000", "142956.397000", "142956.401000", "142956.404000", "142956.408000", "142956.411000", "142956.414000", "142956.418000", "142956.421000", "142956.424000", "142956.427000", "142956.431000", "142956.434000", "142956.437000", "142956.441000", "142956.444000", "142956.447000", "142956.451000", "142956.454000", "142956.457000", "142956.462000", "142956.465000", "142956.468000", "142956.472000", "142956.475000", "143036.365000", "143036.369000", "143036.372000", "143036.376000", "143036.379000", "143036.382000", "143036.386000", "143036.389000", "143036.393000", "143036.396000", "143036.399000", "143036.403000", "143036.406000", "143036.416000", "143036.419000", "143036.422000", "143036.426000", "143036.429000", "143036.432000", "143036.436000", "143036.439000", "143036.442000", "143036.446000", "143036.449000", "143036.453000", "143036.456000", "143036.459000", "143116.365000", "143116.369000", "143116.372000", "143116.376000", "143116.379000", "143116.382000", "143116.386000", "143116.389000", "143116.393000", "143116.396000", "143116.399000", "143116.403000", "143116.406000", "143116.409000", "143116.413000", "143116.416000", "143116.419000", "143116.423000", "143116.426000", "143116.429000", "143116.433000", "143116.436000", "143116.439000", "143116.443000", "143116.446000", "143116.449000", "143116.453000", "143156.366000", "143156.370000", "143156.373000", "143156.377000", "143156.380000", "143156.383000", "143156.387000", "143156.390000", "143156.393000", "143156.397000", "143156.400000", "143156.404000", "143156.407000", "143156.410000", "143156.413000", "143156.417000", "143156.420000", "143156.442000", "143156.445000", "143156.448000", "143156.452000", "143156.455000", "143156.458000", "143156.462000", "143156.465000", "143156.468000", "143156.472000", "143236.365000", "143236.369000", "143236.372000", "143236.376000", "143236.379000", "143236.383000", "143236.386000", "143236.389000", "143236.393000", "143236.396000", "143236.399000", "143236.403000", "143236.406000", "143236.410000", "143236.413000", "143236.416000", "143236.420000", "143236.423000", "143236.426000", "143236.430000", "143236.433000", "143236.436000", "143236.440000", "143236.443000", "143236.446000", "143236.450000", "143236.453000", "143316.365000", "143316.369000", "143316.372000", "143316.376000", "143316.379000", "143316.382000", "143316.386000", "143316.389000", "143316.393000", "143316.396000", "143316.399000", "143316.403000", "143316.406000", "143316.409000", "143316.413000", "143316.416000", "143316.419000", "143316.423000", "143316.426000", "143316.429000", "143316.433000", "143316.436000", "143316.440000", "143316.443000", "143316.447000", "143316.450000", "143316.453000", "143336.365000", "143336.369000", "143336.372000", "143336.376000", "143336.379000", "143336.382000", "143336.386000", "143336.389000", "143336.393000", "143336.396000", "143336.399000", "143336.403000", "143336.406000", "143416.366000", "143416.370000", "143416.374000", "143416.377000", "143416.380000", "143416.384000", "143416.387000", "143416.390000", "143416.394000", "143416.397000", "143416.401000", "143416.404000", "143416.407000", "143416.411000", "143416.429000", "143416.432000", "143416.436000", "143416.439000", "143416.442000", "143416.446000", "143416.449000", "143416.452000", "143416.456000", "143416.459000", "143416.462000", "143416.466000", "143416.469000", "143456.365000", "143456.369000", "143456.373000", "143456.376000", "143456.379000", "143456.383000", "143456.386000", "143456.390000", "143456.393000", "143456.396000", "143456.400000", "143456.403000", "143456.407000", "143456.411000", "143456.414000", "143456.418000", "143456.421000", "143456.424000", "143456.428000", "143456.431000", "143456.435000", "143456.438000", "143456.441000", "143456.445000", "143456.448000", "143456.451000", "143456.455000", "143536.365000", "143536.369000", "143536.372000", "143536.376000", "143536.379000", "143536.383000", "143536.386000", "143536.389000", "143536.393000", "143536.396000", "143536.399000", "143536.403000", "143536.406000", "143536.410000", "143536.413000", "143536.416000", "143536.420000", "143536.423000", "143536.426000", "143536.436000", "143536.439000", "143536.442000", "143536.446000", "143536.449000", "143536.452000", "143536.456000", "143536.459000", "143610.120000", "143610.124000", "143610.127000", "143610.131000", "143610.134000", "143610.138000", "143610.141000", "143610.145000", "143610.148000", "143610.151000", "143610.155000", "143610.158000", "143610.162000", "143610.165000", "143610.168000", "143610.172000", "143610.175000", "143610.178000", "143610.182000", "143610.185000", "143610.188000", "143610.193000"],
      "InstanceCreationTime": ["142756.411000", "142756.415000", "142756.419000", "142756.422000", "142756.425000", "142756.439000", "142756.442000", "142816.365000", "142816.369000", "142816.372000", "142816.376000", "142816.379000", "142816.382000", "142816.386000", "142816.389000", "142816.392000", "142816.396000", "142816.399000", "142816.402000", "142816.406000", "142816.409000", "142816.412000", "142816.415000", "142816.419000", "142816.422000", "142816.425000", "142816.429000", "142816.438000", "142836.365000", "142836.369000", "142836.372000", "142836.376000", "142836.379000", "142836.382000", "142836.386000", "142836.389000", "142836.392000", "142836.402000", "142836.405000", "142836.409000", "142836.412000", "142836.415000", "142836.418000", "142836.422000", "142836.425000", "142836.428000", "142836.432000", "142836.435000", "142856.365000", "142856.369000", "142856.372000", "142856.376000", "142856.379000", "142856.382000", "142856.386000", "142856.389000", "142856.392000", "142856.396000", "142856.399000", "142856.402000", "142856.415000", "142856.418000", "142856.422000", "142856.425000", "142856.429000", "142856.432000", "142856.436000", "142856.439000", "142916.365000", "142916.369000", "142916.372000", "142916.376000", "142916.379000", "142916.382000", "142916.385000", "142916.389000", "142916.397000", "142916.400000", "142916.404000", "142916.407000", "142916.410000", "142916.414000", "142916.417000", "142916.420000", "142916.423000", "142916.427000", "142916.430000", "142916.433000", "142956.366000", "142956.370000", "142956.384000", "142956.388000", "142956.391000", "142956.394000", "142956.397000", "142956.401000", "142956.404000", "142956.408000", "142956.411000", "142956.414000", "142956.418000", "142956.421000", "142956.424000", "142956.427000", "142956.431000", "142956.434000", "142956.437000", "142956.441000", "142956.444000", "142956.447000", "142956.451000", "142956.454000", "142956.457000", "142956.462000", "142956.465000", "142956.468000", "142956.472000", "142956.475000", "143036.365000", "143036.369000", "143036.372000", "143036.376000", "143036.379000", "143036.382000", "143036.386000", "143036.389000", "143036.393000", "143036.396000", "143036.399000", "143036.403000", "143036.406000", "143036.416000", "143036.419000", "143036.422000", "143036.426000", "143036.429000", "143036.432000", "143036.436000", "143036.439000", "143036.442000", "143036.446000", "143036.449000", "143036.453000", "143036.456000", "143036.459000", "143116.365000", "143116.369000", "143116.372000", "143116.376000", "143116.379000", "143116.382000", "143116.386000", "143116.389000", "143116.393000", "143116.396000", "143116.399000", "143116.403000", "143116.406000", "143116.409000", "143116.413000", "143116.416000", "143116.419000", "143116.423000", "143116.426000", "143116.429000", "143116.433000", "143116.436000", "143116.439000", "143116.443000", "143116.446000", "143116.449000", "143116.453000", "143156.366000", "143156.370000", "143156.373000", "143156.377000", "143156.380000", "143156.383000", "143156.387000", "143156.390000", "143156.393000", "143156.397000", "143156.400000", "143156.404000", "143156.407000", "143156.410000", "143156.413000", "143156.417000", "143156.420000", "143156.442000", "143156.445000", "143156.448000", "143156.452000", "143156.455000", "143156.458000", "143156.462000", "143156.465000", "143156.468000", "143156.472000", "143236.365000", "143236.369000", "143236.372000", "143236.376000", "143236.379000", "143236.383000", "143236.386000", "143236.389000", "143236.393000", "143236.396000", "143236.399000", "143236.403000", "143236.406000", "143236.410000", "143236.413000", "143236.416000", "143236.420000", "143236.423000", "143236.426000", "143236.430000", "143236.433000", "143236.436000", "143236.440000", "143236.443000", "143236.446000", "143236.450000", "143236.453000", "143316.365000", "143316.369000", "143316.372000", "143316.376000", "143316.379000", "143316.382000", "143316.386000", "143316.389000", "143316.393000", "143316.396000", "143316.399000", "143316.403000", "143316.406000", "143316.409000", "143316.413000", "143316.416000", "143316.419000", "143316.423000", "143316.426000", "143316.429000", "143316.433000", "143316.436000", "143316.440000", "143316.443000", "143316.447000", "143316.450000", "143316.453000", "143336.365000", "143336.369000", "143336.372000", "143336.376000", "143336.379000", "143336.382000", "143336.386000", "143336.389000", "143336.393000", "143336.396000", "143336.399000", "143336.403000", "143336.406000", "143416.366000", "143416.370000", "143416.374000", "143416.377000", "143416.380000", "143416.384000", "143416.387000", "143416.390000", "143416.394000", "143416.397000", "143416.401000", "143416.404000", "143416.407000", "143416.411000", "143416.429000", "143416.432000", "143416.436000", "143416.439000", "143416.442000", "143416.446000", "143416.449000", "143416.452000", "143416.456000", "143416.459000", "143416.462000", "143416.466000", "143416.469000", "143456.365000", "143456.369000", "143456.373000", "143456.376000", "143456.379000", "143456.383000", "143456.386000", "143456.390000", "143456.393000", "143456.396000", "143456.400000", "143456.403000", "143456.407000", "143456.411000", "143456.414000", "143456.418000", "143456.421000", "143456.424000", "143456.428000", "143456.431000", "143456.435000", "143456.438000", "143456.441000", "143456.445000", "143456.448000", "143456.451000", "143456.455000", "143536.365000", "143536.369000", "143536.372000", "143536.376000", "143536.379000", "143536.383000", "143536.386000", "143536.389000", "143536.393000", "143536.396000", "143536.399000", "143536.403000", "143536.406000", "143536.410000", "143536.413000", "143536.416000", "143536.420000", "143536.423000", "143536.426000", "143536.436000", "143536.439000", "143536.442000", "143536.446000", "143536.449000", "143536.452000", "143536.456000", "143536.459000", "143610.120000", "143610.124000", "143610.127000", "143610.131000", "143610.134000", "143610.138000", "143610.141000", "143610.145000", "143610.148000", "143610.151000", "143610.155000", "143610.158000", "143610.162000", "143610.165000", "143610.168000", "143610.172000", "143610.175000", "143610.178000", "143610.182000", "143610.185000", "143610.188000", "143610.193000"],
      "InstanceNumber": [1, 2, 3, 4, 5, 6, 7, 8, 9, 10, 11, 12, 13, 14, 15, 16, 17, 18, 19, 20, 21, 22, 23, 24, 25, 26, 27, 28, 29, 30, 31, 32, 33, 34, 35, 36, 37, 38, 39, 40, 41, 42, 43, 44, 45, 46, 47, 48, 49, 50, 51, 52, 53, 54, 55, 56, 57, 58, 59, 60, 61, 62, 63, 64, 65, 66, 67, 68, 69, 70, 71, 72, 73, 74, 75, 76, 77, 78, 79, 80, 81, 82, 83, 84, 85, 86, 87, 88, 89, 90, 91, 92, 93, 94, 95, 96, 97, 98, 99, 100, 101, 102, 103, 104, 105, 106, 107, 108, 109, 110, 111, 112, 113, 114, 115, 116, 117, 118, 119, 120, 121, 122, 123, 124, 125, 126, 127, 128, 129, 130, 131, 132, 133, 134, 135, 136, 137, 138, 139, 140, 141, 142, 143, 144, 145, 146, 147, 148, 149, 150, 151, 152, 153, 154, 155, 156, 157, 158, 159, 160, 161, 162, 163, 164, 165, 166, 167, 168, 169, 170, 171, 172, 173, 174, 175, 176, 177, 178, 179, 180, 181, 182, 183, 184, 185, 186, 187, 188, 189, 190, 191, 192, 193, 194, 195, 196, 197, 198, 199, 200, 201, 202, 203, 204, 205, 206, 207, 208, 209, 210, 211, 212, 213, 214, 215, 216, 217, 218, 219, 220, 221, 222, 223, 224, 225, 226, 227, 228, 229, 230, 231, 232, 233, 234, 235, 236, 237, 238, 239, 240, 241, 242, 243, 244, 245, 246, 247, 248, 249, 250, 251, 252, 253, 254, 255, 256, 257, 258, 259, 260, 261, 262, 263, 264, 265, 266, 267, 268, 269, 270, 271, 272, 273, 274, 275, 276, 277, 278, 279, 280, 281, 282, 283, 284, 285, 286, 287, 288, 289, 290, 291, 292, 293, 294, 295, 296, 297, 298, 299, 300, 301, 302, 303, 304, 305, 306, 307, 308, 309, 310, 311, 312, 313, 314, 315, 316, 317, 318, 319, 320, 321, 322, 323, 324, 325, 326, 327, 328, 329, 330, 331, 332, 333, 334, 335, 336, 337, 338, 339, 340, 341, 342, 343, 344, 345, 346, 347, 348, 349, 350, 351, 352, 353, 354, 355, 356, 357, 358, 359, 360, 361, 362, 363, 364, 365, 366, 367, 368, 369],
