{
  "AcquisitionMatrixPE": 104,
  "AcquisitionNumber": 1,
  "AcquisitionTime": "14:02:55.142500",
  "BandwidthPerPixelPhaseEncode": 17.17,
  "BaseResolution": 104,
  "BodyPartExamined": "BRAIN",
  "CoilCombinationMethod": "Sum of Squares",
  "ConsistencyInfo": "N4_VE11C_LATEST_20160120",
  "ConversionSoftware": "dcm2niix",
  "ConversionSoftwareVersion": "v1.0.20220505",
  "DerivedVendorReportedEchoSpacing": 0.000560011,
  "DeviceSerialNumber": "167006",
  "DwellTime": 2.1e-06,
  "EchoTime": 0.037,
  "EchoTime1": 0.037,
  "EchoTime2": 0.001,
  "EchoTrainLength": 104,
  "EffectiveEchoSpacing": 0.000560011,
  "FlipAngle": 52,
  "HeudiconvVersion": "0.5.3.post811+g6206e14",
  "ImageComments": "Unaliased MB4/PE3/LB",
  "ImageOrientationPatientDICOM": [0.999544, 0.027721, 0.0119677, -0.0235555, 0.96388, -0.265293],
  "ImageOrientationText": "Tra>Cor(-15.4)>Sag(1.1)",
  "ImageType": [
    "ORIGINAL",
    "PRIMARY",
    "P",
    "MB",
    "ND",
    "MOSAIC",
    "PHASE"
],
  "ImagingFrequency": 123.26,
  "InPlanePhaseEncodingDirectionDICOM": "COL",
  "InstitutionAddress": "Chemin Queen-Mary 4565,Montreal,District,CA,H3W 1W5",
  "InstitutionName": "IUGM",
  "InstitutionalDepartmentName": "Department",
  "MRAcquisitionType": "2D",
  "MagneticFieldStrength": 3,
  "Manufacturer": "Siemens",
  "ManufacturersModelName": "Prisma_fit",
  "MatrixCoilMode": "SENSE",
  "Modality": "MR",
  "MultibandAccelerationFactor": 4,
  "PartialFourier": 1,
  "PatientPosition": "HFS",
  "PercentPhaseFOV": 100,
  "PercentSampling": 100,
  "PhaseEncodingDirection": "j",
  "PhaseEncodingSteps": 104,
  "PhaseResolution": 1,
  "PixelBandwidth": 2290,
  "ProcedureStepDescription": "games^mario3",
  "ProtocolName": "func_task-mario3_run-01",
  "PulseSequenceDetails": "%CustomerSeq%\\cmrr_mbep2d_bold",
  "ReceiveCoilActiveElements": "HC1-7;NC1,2",
  "ReceiveCoilName": "HeadNeck_64",
  "ReconMatrixPE": 104,
  "RepetitionTime": 1.49,
  "SAR": 0.066979,
  "ScanOptions": "FS",
  "ScanningSequence": "EP",
  "SequenceName": "epfid2d1_104",
  "SequenceVariant": "SK\\SS",
  "SeriesDescription": "func_task-mario3_run-01",
  "SeriesNumber": 11,
  "ShimSetting": [619, -7221, -8738, 697, 58, 1, 32, -2],
  "SliceThickness": 2,
  "SliceTiming": [0, 0.785, 0.1, 0.8825, 0.1975, 0.98, 0.295, 1.08, 0.3925, 1.1775, 0.49, 1.275, 0.59, 1.3725, 0.6875, 0, 0.785, 0.1, 0.8825, 0.1975, 0.98, 0.295, 1.08, 0.3925, 1.1775, 0.49, 1.275, 0.59, 1.3725, 0.6875, 0, 0.785, 0.1, 0.8825, 0.1975, 0.98, 0.295, 1.08, 0.3925, 1.1775, 0.49, 1.275, 0.59, 1.3725, 0.6875, 0, 0.785, 0.1, 0.8825, 0.1975, 0.98, 0.295, 1.08, 0.3925, 1.1775, 0.49, 1.275, 0.59, 1.3725, 0.6875],
  "SoftwareVersions": "syngo MR E11",
  "SpacingBetweenSlices": 2,
  "StationName": "MRC35049",
  "TaskName": "mario3",
  "TotalReadoutTime": 0.0576811,
  "TxRefAmp": 237.387,
  "WipMemBlock": "1aadc352-bc22-4393-bdd2-12e02f4d3ebd||Sequence: R017 ve11c/master r/75a17815+; Jun 28 2022 16:32:11 by eja",
  "dcmmeta_affine": [
    [-1.999088168144226, -0.047111086547374725, 0.03777925297617912, 110.12866973876953],
    [-0.05544206127524376, 1.9277602434158325, -0.5297799110412598, -70.92115783691406],
    [0.023935416713356972, 0.5305856466293335, 1.9281872510910034, -51.094600677490234],
    [0.0, 0.0, 0.0, 1.0]
],
  "dcmmeta_reorient_transform": [
    [0.0, -1.0, 0.0, 103.0],
    [1.0, 0.0, 0.0, 0.0],
    [0.0, 0.0, 1.0, 0.0],
    [0.0, 0.0, 0.0, 1.0]
],
  "dcmmeta_shape": [104, 104, 60, 389],
  "dcmmeta_slice_dim": 2,
  "dcmmeta_version": 0.6,
  "global": {
    "const": {
      "AcquisitionMatrix": [104, 0, 0, 104],
      "AngioFlag": "N",
      "BitsAllocated": 16,
      "BitsStored": 16,
      "BodyPartExamined": "BRAIN",
      "Columns": 832,
      "EchoNumbers": 1,
      "EchoTime": 37.0,
      "EchoTrainLength": 104,
      "FlipAngle": 52.0,
      "HighBit": 15,
      "ImageOrientationPatient": [0.99954405526783, 0.02772103061556, 0.01196770823333, -0.0235555427966, 0.96388010387102, -0.2652928226793],
      "ImagePositionPatient": [-815.79586723991, -849.5237710901, 187.97640275079],
      "ImageType": [
        "ORIGINAL",
        "PRIMARY",
        "P",
        "MB",
        "ND",
        "MOSAIC"
],
      "ImagedNucleus": "1H",
      "ImagingFrequency": 123.260113,
      "InPlanePhaseEncodingDirection": "COL",
      "LargestImagePixelValue": 4095,
      "MRAcquisitionType": "2D",
      "MagneticFieldStrength": 3.0,
      "Manufacturer": "SIEMENS",
      "ManufacturerModelName": "Prisma_fit",
      "Modality": "MR",
      "NumberOfAverages": 1.0,
      "NumberOfPhaseEncodingSteps": 104,
      "PercentPhaseFieldOfView": 100.0,
      "PercentSampling": 100.0,
      "PerformedProcedureStepStartTime": "135937.738000",
      "PhotometricInterpretation": "MONOCHROME2",
      "PixelBandwidth": 2290.0,
      "PixelRepresentation": 0,
      "PixelSpacing": [2.0, 2.0],
      "ProtocolName": "func_task-mario3_run-01",
      "RepetitionTime": 1490.0,
      "RescaleIntercept": -4096.0,
      "RescaleSlope": 2.0,
      "RescaleType": "US",
      "Rows": 832,
      "SAR": 0.06697899153229,
      "SamplesPerPixel": 1,
      "ScanOptions": "FS",
      "ScanningSequence": "EP",
      "SequenceName": "epfid2d1_104",
      "SequenceVariant": [
        "SK",
        "SS"
],
      "SeriesDescription": "func_task-mario3_run-01",
      "SeriesNumber": 11,
      "SeriesTime": "140400.477000",
      "SliceLocation": -28.393387871562,
      "SliceThickness": 2.0,
      "SmallestImagePixelValue": 0,
      "SoftwareVersions": "syngo MR E11",
      "SpacingBetweenSlices": 2.0000000000462,
      "SpecificCharacterSet": "ISO_IR 100",
      "StudyID": "1",
      "StudyTime": "135937.656000",
      "TransmitCoilName": "Body",
      "VariableFlipAngleFlag": "N",
      "WindowCenterWidthExplanation": "Algo1",
      "dBdt": 0.0},
    "slices": {}
  },
  "time": {
    "samples": {
      "AcquisitionNumber": [1, 2, 3, 4, 5, 6, 7, 8, 9, 10, 11, 12, 13, 14, 15, 16, 17, 18, 19, 20, 21, 22, 23, 24, 25, 26, 27, 28, 29, 30, 31, 32, 33, 34, 35, 36, 37, 38, 39, 40, 41, 42, 43, 44, 45, 46, 47, 48, 49, 50, 51, 52, 53, 54, 55, 56, 57, 58, 59, 60, 61, 62, 63, 64, 65, 66, 67, 68, 69, 70, 71, 72, 73, 74, 75, 76, 77, 78, 79, 80, 81, 82, 83, 84, 85, 86, 87, 88, 89, 90, 91, 92, 93, 94, 95, 96, 97, 98, 99, 100, 101, 102, 103, 104, 105, 106, 107, 108, 109, 110, 111, 112, 113, 114, 115, 116, 117, 118, 119, 120, 121, 122, 123, 124, 125, 126, 127, 128, 129, 130, 131, 132, 133, 134, 135, 136, 137, 138, 139, 140, 141, 142, 143, 144, 145, 146, 147, 148, 149, 150, 151, 152, 153, 154, 155, 156, 157, 158, 159, 160, 161, 162, 163, 164, 165, 166, 167, 168, 169, 170, 171, 172, 173, 174, 175, 176, 177, 178, 179, 180, 181, 182, 183, 184, 185, 186, 187, 188, 189, 190, 191, 192, 193, 194, 195, 196, 197, 198, 199, 200, 201, 202, 203, 204, 205, 206, 207, 208, 209, 210, 211, 212, 213, 214, 215, 216, 217, 218, 219, 220, 221, 222, 223, 224, 225, 226, 227, 228, 229, 230, 231, 232, 233, 234, 235, 236, 237, 238, 239, 240, 241, 242, 243, 244, 245, 246, 247, 248, 249, 250, 251, 252, 253, 254, 255, 256, 257, 258, 259, 260, 261, 262, 263, 264, 265, 266, 267, 268, 269, 270, 271, 272, 273, 274, 275, 276, 277, 278, 279, 280, 281, 282, 283, 284, 285, 286, 287, 288, 289, 290, 291, 292, 293, 294, 295, 296, 297, 298, 299, 300, 301, 302, 303, 304, 305, 306, 307, 308, 309, 310, 311, 312, 313, 314, 315, 316, 317, 318, 319, 320, 321, 322, 323, 324, 325, 326, 327, 328, 329, 330, 331, 332, 333, 334, 335, 336, 337, 338, 339, 340, 341, 342, 343, 344, 345, 346, 347, 348, 349, 350, 351, 352, 353, 354, 355, 356, 357, 358, 359, 360, 361, 362, 363, 364, 365, 366, 367, 368, 369, 370, 371, 372, 373, 374, 375, 376, 377, 378, 379, 380, 381, 382, 383, 384, 385, 386, 387, 388, 389],
      "AcquisitionTime": ["140255.142500", "140256.632500", "140258.122500", "140259.612500", "140301.102500", "140302.592500", "140304.082500", "140305.572500", "140307.062500", "140308.552500", "140310.042500", "140311.532500", "140313.022500", "140314.512500", "140316.002500", "140317.492500", "140318.982500", "140320.472500", "140321.962500", "140323.452500", "140324.942500", "140326.432500", "140327.922500", "140329.412500", "140330.902500", "140332.392500", "140333.882500", "140335.372500", "140336.862500", "140338.352500", "140339.842500", "140341.332500", "140342.822500", "140344.312500", "140345.802500", "140347.292500", "140348.782500", "140350.272500", "140351.762500", "140353.252500", "140354.742500", "140356.232500", "140357.722500", "140359.212500", "140400.702500", "140402.192500", "140403.682500", "140405.172500", "140406.662500", "140408.152500", "140409.642500", "140411.132500", "140412.622500", "140414.112500", "140415.602500", "140417.092500", "140418.582500", "140420.072500", "140421.562500", "140423.052500", "140424.542500", "140426.032500", "140427.522500", "140429.012500", "140430.502500", "140431.992500", "140433.482500", "140434.972500", "140436.462500", "140437.952500", "140439.442500", "140440.932500", "140442.422500", "140443.912500", "140445.402500", "140446.892500", "140448.382500", "140449.872500", "140451.362500", "140452.852500", "140454.342500", "140455.832500", "140457.322500", "140458.812500", "140500.302500", "140501.792500", "140503.282500", "140504.772500", "140506.262500", "140507.752500", "140509.242500", "140510.732500", "140512.222500", "140513.712500", "140515.202500", "140516.692500", "140518.182500", "140519.672500", "140521.162500", "140522.652500", "140524.142500", "140525.632500", "140527.122500", "140528.612500", "140530.102500", "140531.592500", "140533.082500", "140534.572500", "140536.062500", "140537.552500", "140539.042500", "140540.532500", "140542.022500", "140543.512500", "140545.002500", "140546.492500", "140547.982500", "140549.472500", "140550.962500", "140552.452500", "140553.942500", "140555.432500", "140556.922500", "140558.412500", "140559.902500", "140601.392500", "140602.882500", "140604.372500", "140605.862500", "140607.352500", "140608.842500", "140610.332500", "140611.822500", "140613.312500", "140614.802500", "140616.292500", "140617.782500", "140619.272500", "140620.762500", "140622.252500", "140623.742500", "140625.232500", "140626.722500", "140628.212500", "140629.702500", "140631.192500", "140632.682500", "140634.172500", "140635.662500", "140637.152500", "140638.642500", "140640.132500", "140641.622500", "140643.112500", "140644.602500", "140646.092500", "140647.582500", "140649.072500", "140650.562500", "140652.052500", "140653.542500", "140655.032500", "140656.522500", "140658.012500", "140659.502500", "140700.992500", "140702.482500", "140703.972500", "140705.462500", "140706.952500", "140708.442500", "140709.932500", "140711.422500", "140712.912500", "140714.402500", "140715.892500", "140717.382500", "140718.872500", "140720.362500", "140721.852500", "140723.342500", "140724.832500", "140726.322500", "140727.812500", "140729.302500", "140730.792500", "140732.282500", "140733.772500", "140735.262500", "140736.752500", "140738.242500", "140739.732500", "140741.222500", "140742.712500", "140744.202500", "140745.692500", "140747.182500", "140748.672500", "140750.162500", "140751.652500", "140753.142500", "140754.632500", "140756.122500", "140757.612500", "140759.102500", "140800.592500", "140802.082500", "140803.572500", "140805.062500", "140806.552500", "140808.042500", "140809.532500", "140811.022500", "140812.512500", "140814.002500", "140815.492500", "140816.982500", "140818.472500", "140819.962500", "140821.452500", "140822.942500", "140824.432500", "140825.922500", "140827.412500", "140828.902500", "140830.392500", "140831.882500", "140833.372500", "140834.862500", "140836.352500", "140837.842500", "140839.332500", "140840.822500", "140842.312500", "140843.802500", "140845.292500", "140846.782500", "140848.272500", "140849.762500", "140851.252500", "140852.742500", "140854.232500", "140855.722500", "140857.212500", "140858.702500", "140900.192500", "140901.682500", "140903.172500", "140904.662500", "140906.152500", "140907.642500", "140909.132500", "140910.622500", "140912.112500", "140913.602500", "140915.092500", "140916.582500", "140918.072500", "140919.562500", "140921.052500", "140922.542500", "140924.032500", "140925.522500", "140927.012500", "140928.502500", "140929.992500", "140931.482500", "140932.972500", "140934.462500", "140935.952500", "140937.442500", "140938.932500", "140940.422500", "140941.912500", "140943.402500", "140944.892500", "140946.382500", "140947.872500", "140949.362500", "140950.852500", "140952.342500", "140953.832500", "140955.322500", "140956.812500", "140958.302500", "140959.792500", "141001.282500", "141002.772500", "141004.262500", "141005.752500", "141007.242500", "141008.732500", "141010.222500", "141011.712500", "141013.202500", "141014.692500", "141016.182500", "141017.672500", "141019.162500", "141020.652500", "141022.142500", "141023.632500", "141025.122500", "141026.612500", "141028.102500", "141029.592500", "141031.082500", "141032.572500", "141034.062500", "141035.552500", "141037.042500", "141038.532500", "141040.022500", "141041.512500", "141043.002500", "141044.492500", "141045.982500", "141047.472500", "141048.962500", "141050.452500", "141051.942500", "141053.432500", "141054.922500", "141056.412500", "141057.902500", "141059.392500", "141100.882500", "141102.372500", "141103.862500", "141105.352500", "141106.842500", "141108.332500", "141109.822500", "141111.312500", "141112.802500", "141114.292500", "141115.782500", "141117.272500", "141118.762500", "141120.252500", "141121.742500", "141123.232500", "141124.722500", "141126.212500", "141127.702500", "141129.192500", "141130.682500", "141132.172500", "141133.662500", "141135.152500", "141136.642500", "141138.132500", "141139.622500", "141141.112500", "141142.602500", "141144.092500", "141145.582500", "141147.072500", "141148.562500", "141150.052500", "141151.542500", "141153.032500", "141154.522500", "141156.012500", "141157.502500", "141158.992500", "141200.482500", "141201.972500", "141203.462500", "141204.952500", "141206.442500", "141207.932500", "141209.422500", "141210.912500", "141212.402500", "141213.892500", "141215.382500", "141216.872500", "141218.362500", "141219.852500", "141221.342500", "141222.832500", "141224.322500", "141225.812500", "141227.302500", "141228.792500", "141230.282500", "141231.772500", "141233.262500"],
      "ContentTime": ["140400.479000", "140400.485000", "140400.488000", "140400.490000", "140400.493000", "140400.495000", "140400.498000", "140400.500000", "140400.503000", "140400.505000", "140400.508000", "140400.510000", "140400.513000", "140420.494000", "140420.497000", "140420.500000", "140420.502000", "140420.505000", "140420.507000", "140420.510000", "140420.512000", "140420.521000", "140420.523000", "140420.526000", "140420.528000", "140420.531000", "140420.533000", "140420.536000", "140420.538000", "140420.541000", "140420.543000", "140420.546000", "140420.548000", "140440.499000", "140440.502000", "140440.504000", "140440.507000", "140440.509000", "140440.512000", "140440.514000", "140440.517000", "140440.519000", "140440.522000", "140440.524000", "140440.527000", "140440.530000", "140440.532000", "140440.535000", "140440.537000", "140440.540000", "140440.542000", "140440.545000", "140440.547000", "140440.550000", "140500.481000", "140500.484000", "140500.486000", "140500.489000", "140500.491000", "140500.494000", "140500.496000", "140500.499000", "140500.501000", "140500.504000", "140500.506000", "140500.509000", "140500.517000", "140500.520000", "140500.522000", "140500.525000", "140500.527000", "140500.530000", "140500.532000", "140500.535000", "140520.468000", "140520.471000", "140520.474000", "140520.476000", "140520.479000", "140520.481000", "140520.484000", "140520.486000", "140520.489000", "140520.491000", "140520.494000", "140520.496000", "140520.499000", "140520.501000", "140520.504000", "140520.506000", "140520.509000", "140520.511000", "140520.514000", "140520.516000", "140600.512000", "140600.515000", "140600.518000", "140600.520000", "140600.523000", "140600.525000", "140600.528000", "140600.530000", "140600.533000", "140600.535000", "140600.538000", "140600.540000", "140600.543000", "140600.545000", "140600.548000", "140600.550000", "140600.553000", "140600.555000", "140600.558000", "140600.560000", "140600.563000", "140600.565000", "140600.568000", "140600.570000", "140600.573000", "140600.576000", "140600.578000", "140600.581000", "140600.583000", "140640.524000", "140640.527000", "140640.530000", "140640.532000", "140640.535000", "140640.537000", "140640.540000", "140640.542000", "140640.545000", "140640.548000", "140640.550000", "140640.553000", "140640.555000", "140640.558000", "140640.560000", "140640.563000", "140640.565000", "140640.568000", "140640.571000", "140640.573000", "140640.576000", "140640.578000", "140640.581000", "140640.583000", "140640.586000", "140640.588000", "140640.591000", "140720.504000", "140720.506000", "140720.509000", "140720.511000", "140720.514000", "140720.516000", "140720.519000", "140720.521000", "140720.524000", "140720.526000", "140720.529000", "140720.535000", "140720.538000", "140720.540000", "140720.543000", "140720.545000", "140720.548000", "140720.550000", "140720.553000", "140720.556000", "140720.558000", "140720.561000", "140720.563000", "140720.566000", "140720.568000", "140720.571000", "140720.573000", "140800.512000", "140800.514000", "140800.517000", "140800.519000", "140800.522000", "140800.524000", "140800.527000", "140800.529000", "140800.532000", "140800.535000", "140800.537000", "140800.540000", "140800.542000", "140800.545000", "140800.547000", "140800.550000", "140800.552000", "140800.555000", "140800.557000", "140800.560000", "140800.562000", "140800.565000", "140800.567000", "140800.570000", "140800.573000", "140800.580000", "140800.583000", "140840.515000", "140840.517000", "140840.520000", "140840.522000", "140840.525000", "140840.528000", "140840.530000", "140840.533000", "140840.535000", "140840.538000", "140840.540000", "140840.543000", "140840.545000", "140840.548000", "140840.550000", "140840.552000", "140840.555000", "140840.558000", "140840.560000", "140840.563000", "140840.565000", "140840.568000", "140840.570000", "140840.573000", "140840.575000", "140840.578000", "140840.580000", "140920.524000", "140920.527000", "140920.530000", "140920.532000", "140920.535000", "140920.537000", "140920.540000", "140920.542000", "140920.545000", "140920.547000", "140920.550000", "140920.552000", "140920.555000", "140920.557000", "140920.560000", "140920.563000", "140920.565000", "140920.568000", "140920.570000", "140920.573000", "140920.576000", "140920.578000", "140920.581000", "140920.583000", "140920.586000", "140920.588000", "140920.591000", "141000.510000", "141000.512000", "141000.515000", "141000.518000", "141000.520000", "141000.523000", "141000.525000", "141000.528000", "141000.530000", "141000.533000", "141000.535000", "141000.538000", "141000.540000", "141000.543000", "141000.545000", "141000.548000", "141000.550000", "141000.553000", "141000.555000", "141000.558000", "141000.560000", "141000.563000", "141000.565000", "141000.568000", "141000.570000", "141000.573000", "141040.495000", "141040.498000", "141040.501000", "141040.503000", "141040.506000", "141040.508000", "141040.511000", "141040.513000", "141040.516000", "141040.518000", "141040.521000", "141040.523000", "141040.526000", "141040.528000", "141040.531000", "141040.533000", "141040.536000", "141040.538000", "141040.541000", "141040.543000", "141040.546000", "141040.548000", "141040.551000", "141040.553000", "141040.556000", "141040.558000", "141040.561000", "141120.515000", "141120.518000", "141120.520000", "141120.523000", "141120.525000", "141120.528000", "141120.530000", "141120.533000", "141120.535000", "141120.538000", "141120.540000", "141120.543000", "141120.545000", "141120.548000", "141120.550000", "141120.553000", "141120.556000", "141120.558000", "141120.561000", "141120.563000", "141120.566000", "141120.568000", "141120.571000", "141120.573000", "141120.576000", "141120.578000", "141120.581000", "141200.517000", "141200.520000", "141200.523000", "141200.525000", "141200.528000", "141200.530000", "141200.533000", "141200.535000", "141200.538000", "141200.540000", "141200.543000", "141200.545000", "141200.548000", "141200.550000", "141200.553000", "141200.555000", "141200.558000", "141200.566000", "141200.569000", "141200.571000", "141200.574000", "141200.576000", "141200.579000", "141200.581000", "141200.584000", "141200.587000", "141200.589000", "141236.322000", "141236.325000", "141236.328000", "141236.330000", "141236.333000", "141236.335000", "141236.338000", "141236.341000", "141236.343000", "141236.346000", "141236.348000", "141236.351000", "141236.353000", "141236.361000", "141236.364000", "141236.366000", "141236.369000", "141236.371000", "141236.374000", "141236.376000", "141236.379000", "141236.381000", "141236.384000", "141236.386000"],
      "InstanceCreationTime": ["140400.479000", "140400.485000", "140400.488000", "140400.490000", "140400.493000", "140400.495000", "140400.498000", "140400.500000", "140400.503000", "140400.505000", "140400.508000", "140400.510000", "140400.513000", "140420.494000", "140420.497000", "140420.500000", "140420.502000", "140420.505000", "140420.507000", "140420.510000", "140420.512000", "140420.521000", "140420.523000", "140420.526000", "140420.528000", "140420.531000", "140420.533000", "140420.536000", "140420.538000", "140420.541000", "140420.543000", "140420.546000", "140420.548000", "140440.499000", "140440.502000", "140440.504000", "140440.507000", "140440.509000", "140440.512000", "140440.514000", "140440.517000", "140440.519000", "140440.522000", "140440.524000", "140440.527000", "140440.530000", "140440.532000", "140440.535000", "140440.537000", "140440.540000", "140440.542000", "140440.545000", "140440.547000", "140440.550000", "140500.481000", "140500.484000", "140500.486000", "140500.489000", "140500.491000", "140500.494000", "140500.496000", "140500.499000", "140500.501000", "140500.504000", "140500.506000", "140500.509000", "140500.517000", "140500.520000", "140500.522000", "140500.525000", "140500.527000", "140500.530000", "140500.532000", "140500.535000", "140520.468000", "140520.471000", "140520.474000", "140520.476000", "140520.479000", "140520.481000", "140520.484000", "140520.486000", "140520.489000", "140520.491000", "140520.494000", "140520.496000", "140520.499000", "140520.501000", "140520.504000", "140520.506000", "140520.509000", "140520.511000", "140520.514000", "140520.516000", "140600.512000", "140600.515000", "140600.518000", "140600.520000", "140600.523000", "140600.525000", "140600.528000", "140600.530000", "140600.533000", "140600.535000", "140600.538000", "140600.540000", "140600.543000", "140600.545000", "140600.548000", "140600.550000", "140600.553000", "140600.555000", "140600.558000", "140600.560000", "140600.563000", "140600.565000", "140600.568000", "140600.570000", "140600.573000", "140600.576000", "140600.578000", "140600.581000", "140600.583000", "140640.524000", "140640.527000", "140640.530000", "140640.532000", "140640.535000", "140640.537000", "140640.540000", "140640.542000", "140640.545000", "140640.548000", "140640.550000", "140640.553000", "140640.555000", "140640.558000", "140640.560000", "140640.563000", "140640.565000", "140640.568000", "140640.571000", "140640.573000", "140640.576000", "140640.578000", "140640.581000", "140640.583000", "140640.586000", "140640.588000", "140640.591000", "140720.504000", "140720.506000", "140720.509000", "140720.511000", "140720.514000", "140720.516000", "140720.519000", "140720.521000", "140720.524000", "140720.526000", "140720.529000", "140720.535000", "140720.538000", "140720.540000", "140720.543000", "140720.545000", "140720.548000", "140720.550000", "140720.553000", "140720.556000", "140720.558000", "140720.561000", "140720.563000", "140720.566000", "140720.568000", "140720.571000", "140720.573000", "140800.512000", "140800.514000", "140800.517000", "140800.519000", "140800.522000", "140800.524000", "140800.527000", "140800.529000", "140800.532000", "140800.535000", "140800.537000", "140800.540000", "140800.542000", "140800.545000", "140800.547000", "140800.550000", "140800.552000", "140800.555000", "140800.557000", "140800.560000", "140800.562000", "140800.565000", "140800.567000", "140800.570000", "140800.573000", "140800.580000", "140800.583000", "140840.515000", "140840.517000", "140840.520000", "140840.522000", "140840.525000", "140840.528000", "140840.530000", "140840.533000", "140840.535000", "140840.538000", "140840.540000", "140840.543000", "140840.545000", "140840.548000", "140840.550000", "140840.552000", "140840.555000", "140840.558000", "140840.560000", "140840.563000", "140840.565000", "140840.568000", "140840.570000", "140840.573000", "140840.575000", "140840.578000", "140840.580000", "140920.524000", "140920.527000", "140920.530000", "140920.532000", "140920.535000", "140920.537000", "140920.540000", "140920.542000", "140920.545000", "140920.547000", "140920.550000", "140920.552000", "140920.555000", "140920.557000", "140920.560000", "140920.563000", "140920.565000", "140920.568000", "140920.570000", "140920.573000", "140920.576000", "140920.578000", "140920.581000", "140920.583000", "140920.586000", "140920.588000", "140920.591000", "141000.510000", "141000.512000", "141000.515000", "141000.518000", "141000.520000", "141000.523000", "141000.525000", "141000.528000", "141000.530000", "141000.533000", "141000.535000", "141000.538000", "141000.540000", "141000.543000", "141000.545000", "141000.548000", "141000.550000", "141000.553000", "141000.555000", "141000.558000", "141000.560000", "141000.563000", "141000.565000", "141000.568000", "141000.570000", "141000.573000", "141040.495000", "141040.498000", "141040.501000", "141040.503000", "141040.506000", "141040.508000", "141040.511000", "141040.513000", "141040.516000", "141040.518000", "141040.521000", "141040.523000", "141040.526000", "141040.528000", "141040.531000", "141040.533000", "141040.536000", "141040.538000", "141040.541000", "141040.543000", "141040.546000", "141040.548000", "141040.551000", "141040.553000", "141040.556000", "141040.558000", "141040.561000", "141120.515000", "141120.518000", "141120.520000", "141120.523000", "141120.525000", "141120.528000", "141120.530000", "141120.533000", "141120.535000", "141120.538000", "141120.540000", "141120.543000", "141120.545000", "141120.548000", "141120.550000", "141120.553000", "141120.556000", "141120.558000", "141120.561000", "141120.563000", "141120.566000", "141120.568000", "141120.571000", "141120.573000", "141120.576000", "141120.578000", "141120.581000", "141200.517000", "141200.520000", "141200.523000", "141200.525000", "141200.528000", "141200.530000", "141200.533000", "141200.535000", "141200.538000", "141200.540000", "141200.543000", "141200.545000", "141200.548000", "141200.550000", "141200.553000", "141200.555000", "141200.558000", "141200.566000", "141200.569000", "141200.571000", "141200.574000", "141200.576000", "141200.579000", "141200.581000", "141200.584000", "141200.587000", "141200.589000", "141236.322000", "141236.325000", "141236.328000", "141236.330000", "141236.333000", "141236.335000", "141236.338000", "141236.341000", "141236.343000", "141236.346000", "141236.348000", "141236.351000", "141236.353000", "141236.361000", "141236.364000", "141236.366000", "141236.369000", "141236.371000", "141236.374000", "141236.376000", "141236.379000", "141236.381000", "141236.384000", "141236.386000"],
      "InstanceNumber": [1, 2, 3, 4, 5, 6, 7, 8, 9, 10, 11, 12, 13, 14, 15, 16, 17, 18, 19, 20, 21, 22, 23, 24, 25, 26, 27, 28, 29, 30, 31, 32, 33, 34, 35, 36, 37, 38, 39, 40, 41, 42, 43, 44, 45, 46, 47, 48, 49, 50, 51, 52, 53, 54, 55, 56, 57, 58, 59, 60, 61, 62, 63, 64, 65, 66, 67, 68, 69, 70, 71, 72, 73, 74, 75, 76, 77, 78, 79, 80, 81, 82, 83, 84, 85, 86, 87, 88, 89, 90, 91, 92, 93, 94, 95, 96, 97, 98, 99, 100, 101, 102, 103, 104, 105, 106, 107, 108, 109, 110, 111, 112, 113, 114, 115, 116, 117, 118, 119, 120, 121, 122, 123, 124, 125, 126, 127, 128, 129, 130, 131, 132, 133, 134, 135, 136, 137, 138, 139, 140, 141, 142, 143, 144, 145, 146, 147, 148, 149, 150, 151, 152, 153, 154, 155, 156, 157, 158, 159, 160, 161, 162, 163, 164, 165, 166, 167, 168, 169, 170, 171, 172, 173, 174, 175, 176, 177, 178, 179, 180, 181, 182, 183, 184, 185, 186, 187, 188, 189, 190, 191, 192, 193, 194, 195, 196, 197, 198, 199, 200, 201, 202, 203, 204, 205, 206, 207, 208, 209, 210, 211, 212, 213, 214, 215, 216, 217, 218, 219, 220, 221, 222, 223, 224, 225, 226, 227, 228, 229, 230, 231, 232, 233, 234, 235, 236, 237, 238, 239, 240, 241, 242, 243, 244, 245, 246, 247, 248, 249, 250, 251, 252, 253, 254, 255, 256, 257, 258, 259, 260, 261, 262, 263, 264, 265, 266, 267, 268, 269, 270, 271, 272, 273, 274, 275, 276, 277, 278, 279, 280, 281, 282, 283, 284, 285, 286, 287, 288, 289, 290, 291, 292, 293, 294, 295, 296, 297, 298, 299, 300, 301, 302, 303, 304, 305, 306, 307, 308, 309, 310, 311, 312, 313, 314, 315, 316, 317, 318, 319, 320, 321, 322, 323, 324, 325, 326, 327, 328, 329, 330, 331, 332, 333, 334, 335, 336, 337, 338, 339, 340, 341, 342, 343, 344, 345, 346, 347, 348, 349, 350, 351, 352, 353, 354, 355, 356, 357, 358, 359, 360, 361, 362, 363, 364, 365, 366, 367, 368, 369, 370, 371, 372, 373, 374, 375, 376, 377, 378, 379, 380, 381, 382, 383, 384, 385, 386, 387, 388, 389],
