{
  "AcquisitionMatrixPE": 104,
  "AcquisitionNumber": 1,
  "AcquisitionTime": "15:54:4.572500",
  "BandwidthPerPixelPhaseEncode": 17.17,
  "BaseResolution": 104,
  "BodyPartExamined": "BRAIN",
  "CoilCombinationMethod": "Sum of Squares",
  "ConsistencyInfo": "N4_VE11C_LATEST_20160120",
  "ConversionSoftware": "dcm2niix",
  "ConversionSoftwareVersion": "v1.0.20220505",
  "DerivedVendorReportedEchoSpacing": 0.000560011,
  "DeviceSerialNumber": "167006",
  "DwellTime": 2.1e-06,
  "EchoTime": 0.037,
  "EchoTime1": 0.037,
  "EchoTime2": 0.001,
  "EchoTrainLength": 104,
  "EffectiveEchoSpacing": 0.000560011,
  "FlipAngle": 52,
  "HeudiconvVersion": "0.5.3.post811+g6206e14",
  "ImageComments": "Unaliased MB4/PE3/LB",
  "ImageOrientationPatientDICOM": [0.998222, 0.0142458, 0.057874, 0.0160298, 0.871069, -0.4909],
  "ImageOrientationText": "Tra>Cor(-29.5)>Sag(3.3)",
  "ImageType": [
    "ORIGINAL",
    "PRIMARY",
    "P",
    "MB",
    "ND",
    "MOSAIC",
    "PHASE"
],
  "ImagingFrequency": 123.26,
  "InPlanePhaseEncodingDirectionDICOM": "COL",
  "InstitutionAddress": "Chemin Queen-Mary 4565,Montreal,District,CA,H3W 1W5",
  "InstitutionName": "IUGM",
  "InstitutionalDepartmentName": "Department",
  "MRAcquisitionType": "2D",
  "MagneticFieldStrength": 3,
  "Manufacturer": "Siemens",
  "ManufacturersModelName": "Prisma_fit",
  "MatrixCoilMode": "SENSE",
  "Modality": "MR",
  "MultibandAccelerationFactor": 4,
  "PartialFourier": 1,
  "PatientPosition": "HFS",
  "PercentPhaseFOV": 100,
  "PercentSampling": 100,
  "PhaseEncodingDirection": "j",
  "PhaseEncodingSteps": 104,
  "PhaseResolution": 1,
  "PixelBandwidth": 2290,
  "ProcedureStepDescription": "games^mario3",
  "ProtocolName": "func_task-mario3_run-02",
  "PulseSequenceDetails": "%CustomerSeq%\\cmrr_mbep2d_bold",
  "ReceiveCoilActiveElements": "HC1-7;NC1,2",
  "ReceiveCoilName": "HeadNeck_64",
  "ReconMatrixPE": 104,
  "RepetitionTime": 1.49,
  "SAR": 0.0444002,
  "ScanOptions": "FS",
  "ScanningSequence": "EP",
  "SequenceName": "epfid2d1_104",
  "SequenceVariant": "SK\\SS",
  "SeriesDescription": "func_task-mario3_run-02",
  "SeriesNumber": 14,
  "ShimSetting": [618, -7192, -8865, 262, 5, -162, -11, 45],
  "SliceThickness": 2,
  "SliceTiming": [0, 0.785, 0.1, 0.8825, 0.1975, 0.98, 0.295, 1.08, 0.3925, 1.1775, 0.49, 1.275, 0.59, 1.3725, 0.6875, 0, 0.785, 0.1, 0.8825, 0.1975, 0.98, 0.295, 1.08, 0.3925, 1.1775, 0.49, 1.275, 0.59, 1.3725, 0.6875, 0, 0.785, 0.1, 0.8825, 0.1975, 0.98, 0.295, 1.08, 0.3925, 1.1775, 0.49, 1.275, 0.59, 1.3725, 0.6875, 0, 0.785, 0.1, 0.8825, 0.1975, 0.98, 0.295, 1.08, 0.3925, 1.1775, 0.49, 1.275, 0.59, 1.3725, 0.6875],
  "SoftwareVersions": "syngo MR E11",
  "SpacingBetweenSlices": 2,
  "StationName": "MRC35049",
  "TaskName": "mario3",
  "TotalReadoutTime": 0.0576811,
  "TxRefAmp": 251.275,
  "WipMemBlock": "fed9f623-5db9-47bb-9e5f-706b22d6bcad||Sequence: R017 ve11c/master r/75a17815+; Jun 28 2022 16:32:11 by eja",
  "dcmmeta_affine": [
    [-1.9964444637298584, 0.03205959126353264, 0.11481092870235443, 102.78025817871094],
    [-0.028491513803601265, 1.7421371936798096, -0.981909453868866, -50.029693603515625],
    [0.11574799567461014, 0.9817994236946106, 1.7385834455490112, -96.4617919921875],
    [0.0, 0.0, 0.0, 1.0]
],
  "dcmmeta_reorient_transform": [
    [0.0, -1.0, 0.0, 103.0],
    [1.0, 0.0, 0.0, 0.0],
    [0.0, 0.0, 1.0, 0.0],
    [0.0, 0.0, 0.0, 1.0]
],
  "dcmmeta_shape": [104, 104, 60, 354],
  "dcmmeta_slice_dim": 2,
  "dcmmeta_version": 0.6,
  "global": {
    "const": {
      "AcquisitionMatrix": [104, 0, 0, 104],
      "AngioFlag": "N",
      "BitsAllocated": 16,
      "BitsStored": 16,
      "BodyPartExamined": "BRAIN",
      "Columns": 832,
      "EchoNumbers": 1,
      "EchoTime": 37.0,
      "EchoTrainLength": 104,
      "FlipAngle": 52.0,
      "HighBit": 15,
      "ImageOrientationPatient": [0.99822224910146, 0.01424575704167, 0.05787399938779, 0.01602979475898, 0.87106860813527, -0.4908997103292],
      "ImagePositionPatient": [-844.45788636301, -773.91929749371, 319.90626342095],
      "ImageType": [
        "ORIGINAL",
        "PRIMARY",
        "P",
        "MB",
        "ND",
        "MOSAIC"
],
      "ImagedNucleus": "1H",
      "ImagingFrequency": 123.260259,
      "InPlanePhaseEncodingDirection": "COL",
      "LargestImagePixelValue": 4095,
      "MRAcquisitionType": "2D",
      "MagneticFieldStrength": 3.0,
      "Manufacturer": "SIEMENS",
      "ManufacturerModelName": "Prisma_fit",
      "Modality": "MR",
      "NumberOfAverages": 1.0,
      "NumberOfPhaseEncodingSteps": 104,
      "PercentPhaseFieldOfView": 100.0,
      "PercentSampling": 100.0,
      "PerformedProcedureStepStartTime": "145356.001000",
      "PhotometricInterpretation": "MONOCHROME2",
      "PixelBandwidth": 2290.0,
      "PixelRepresentation": 0,
      "PixelSpacing": [2.0, 2.0],
      "ProtocolName": "func_task-mario3_run-02",
      "RepetitionTime": 1490.0,
      "RescaleIntercept": -4096.0,
      "RescaleSlope": 2.0,
      "RescaleType": "US",
      "Rows": 832,
      "SAR": 0.04440023825155,
      "SamplesPerPixel": 1,
      "ScanOptions": "FS",
      "ScanningSequence": "EP",
      "SequenceName": "epfid2d1_104",
      "SequenceVariant": [
        "SK",
        "SS"
],
      "SeriesDescription": "func_task-mario3_run-02",
      "SeriesNumber": 14,
      "SeriesTime": "155512.541000",
      "SliceLocation": -53.390975476559,
      "SliceThickness": 2.0,
      "SmallestImagePixelValue": 0,
      "SoftwareVersions": "syngo MR E11",
      "SpacingBetweenSlices": 2.000000028934,
      "SpecificCharacterSet": "ISO_IR 100",
      "StudyID": "1",
      "StudyTime": "145355.839000",
      "TransmitCoilName": "Body",
      "VariableFlipAngleFlag": "N",
      "WindowCenterWidthExplanation": "Algo1",
      "dBdt": 0.0},
    "slices": {}
  },
  "time": {
    "samples": {
      "AcquisitionNumber": [1, 2, 3, 4, 5, 6, 7, 8, 9, 10, 11, 12, 13, 14, 15, 16, 17, 18, 19, 20, 21, 22, 23, 24, 25, 26, 27, 28, 29, 30, 31, 32, 33, 34, 35, 36, 37, 38, 39, 40, 41, 42, 43, 44, 45, 46, 47, 48, 49, 50, 51, 52, 53, 54, 55, 56, 57, 58, 59, 60, 61, 62, 63, 64, 65, 66, 67, 68, 69, 70, 71, 72, 73, 74, 75, 76, 77, 78, 79, 80, 81, 82, 83, 84, 85, 86, 87, 88, 89, 90, 91, 92, 93, 94, 95, 96, 97, 98, 99, 100, 101, 102, 103, 104, 105, 106, 107, 108, 109, 110, 111, 112, 113, 114, 115, 116, 117, 118, 119, 120, 121, 122, 123, 124, 125, 126, 127, 128, 129, 130, 131, 132, 133, 134, 135, 136, 137, 138, 139, 140, 141, 142, 143, 144, 145, 146, 147, 148, 149, 150, 151, 152, 153, 154, 155, 156, 157, 158, 159, 160, 161, 162, 163, 164, 165, 166, 167, 168, 169, 170, 171, 172, 173, 174, 175, 176, 177, 178, 179, 180, 181, 182, 183, 184, 185, 186, 187, 188, 189, 190, 191, 192, 193, 194, 195, 196, 197, 198, 199, 200, 201, 202, 203, 204, 205, 206, 207, 208, 209, 210, 211, 212, 213, 214, 215, 216, 217, 218, 219, 220, 221, 222, 223, 224, 225, 226, 227, 228, 229, 230, 231, 232, 233, 234, 235, 236, 237, 238, 239, 240, 241, 242, 243, 244, 245, 246, 247, 248, 249, 250, 251, 252, 253, 254, 255, 256, 257, 258, 259, 260, 261, 262, 263, 264, 265, 266, 267, 268, 269, 270, 271, 272, 273, 274, 275, 276, 277, 278, 279, 280, 281, 282, 283, 284, 285, 286, 287, 288, 289, 290, 291, 292, 293, 294, 295, 296, 297, 298, 299, 300, 301, 302, 303, 304, 305, 306, 307, 308, 309, 310, 311, 312, 313, 314, 315, 316, 317, 318, 319, 320, 321, 322, 323, 324, 325, 326, 327, 328, 329, 330, 331, 332, 333, 334, 335, 336, 337, 338, 339, 340, 341, 342, 343, 344, 345, 346, 347, 348, 349, 350, 351, 352, 353, 354],
      "AcquisitionTime": ["155404.572500", "155406.062500", "155407.552500", "155409.042500", "155410.532500", "155412.022500", "155413.512500", "155415.002500", "155416.492500", "155417.982500", "155419.472500", "155420.962500", "155422.452500", "155423.942500", "155425.432500", "155426.922500", "155428.412500", "155429.902500", "155431.392500", "155432.882500", "155434.372500", "155435.862500", "155437.352500", "155438.842500", "155440.332500", "155441.822500", "155443.312500", "155444.802500", "155446.292500", "155447.782500", "155449.272500", "155450.762500", "155452.252500", "155453.742500", "155455.232500", "155456.722500", "155458.212500", "155459.702500", "155501.192500", "155502.682500", "155504.172500", "155505.662500", "155507.152500", "155508.642500", "155510.132500", "155511.622500", "155513.112500", "155514.602500", "155516.092500", "155517.582500", "155519.072500", "155520.562500", "155522.052500", "155523.542500", "155525.032500", "155526.522500", "155528.012500", "155529.502500", "155530.992500", "155532.482500", "155533.972500", "155535.462500", "155536.952500", "155538.442500", "155539.932500", "155541.422500", "155542.912500", "155544.402500", "155545.892500", "155547.382500", "155548.872500", "155550.362500", "155551.852500", "155553.342500", "155554.832500", "155556.322500", "155557.812500", "155559.302500", "155600.792500", "155602.282500", "155603.772500", "155605.262500", "155606.752500", "155608.242500", "155609.732500", "155611.222500", "155612.712500", "155614.202500", "155615.692500", "155617.182500", "155618.672500", "155620.162500", "155621.652500", "155623.142500", "155624.632500", "155626.122500", "155627.612500", "155629.102500", "155630.592500", "155632.082500", "155633.572500", "155635.062500", "155636.552500", "155638.042500", "155639.532500", "155641.022500", "155642.512500", "155644.002500", "155645.492500", "155646.982500", "155648.472500", "155649.962500", "155651.452500", "155652.942500", "155654.432500", "155655.922500", "155657.412500", "155658.902500", "155700.392500", "155701.882500", "155703.372500", "155704.862500", "155706.352500", "155707.842500", "155709.332500", "155710.822500", "155712.312500", "155713.802500", "155715.292500", "155716.782500", "155718.272500", "155719.762500", "155721.252500", "155722.742500", "155724.232500", "155725.722500", "155727.212500", "155728.702500", "155730.192500", "155731.682500", "155733.172500", "155734.662500", "155736.152500", "155737.642500", "155739.132500", "155740.622500", "155742.112500", "155743.602500", "155745.092500", "155746.582500", "155748.072500", "155749.562500", "155751.052500", "155752.542500", "155754.032500", "155755.522500", "155757.012500", "155758.502500", "155759.992500", "155801.482500", "155802.972500", "155804.462500", "155805.952500", "155807.442500", "155808.932500", "155810.422500", "155811.912500", "155813.402500", "155814.892500", "155816.382500", "155817.872500", "155819.362500", "155820.852500", "155822.342500", "155823.832500", "155825.322500", "155826.812500", "155828.302500", "155829.792500", "155831.282500", "155832.772500", "155834.262500", "155835.752500", "155837.242500", "155838.732500", "155840.222500", "155841.712500", "155843.202500", "155844.692500", "155846.182500", "155847.672500", "155849.162500", "155850.652500", "155852.142500", "155853.632500", "155855.122500", "155856.612500", "155858.102500", "155859.592500", "155901.082500", "155902.572500", "155904.062500", "155905.552500", "155907.042500", "155908.532500", "155910.022500", "155911.512500", "155913.002500", "155914.492500", "155915.982500", "155917.472500", "155918.962500", "155920.452500", "155921.942500", "155923.432500", "155924.922500", "155926.412500", "155927.902500", "155929.392500", "155930.882500", "155932.372500", "155933.862500", "155935.352500", "155936.842500", "155938.332500", "155939.822500", "155941.312500", "155942.802500", "155944.292500", "155945.782500", "155947.272500", "155948.762500", "155950.252500", "155951.742500", "155953.232500", "155954.722500", "155956.212500", "155957.702500", "155959.192500", "160000.682500", "160002.172500", "160003.662500", "160005.152500", "160006.642500", "160008.132500", "160009.622500", "160011.112500", "160012.602500", "160014.092500", "160015.582500", "160017.072500", "160018.562500", "160020.052500", "160021.542500", "160023.032500", "160024.522500", "160026.012500", "160027.502500", "160028.992500", "160030.482500", "160031.972500", "160033.462500", "160034.952500", "160036.442500", "160037.932500", "160039.422500", "160040.912500", "160042.402500", "160043.892500", "160045.382500", "160046.872500", "160048.362500", "160049.852500", "160051.342500", "160052.832500", "160054.322500", "160055.812500", "160057.302500", "160058.792500", "160100.282500", "160101.772500", "160103.262500", "160104.752500", "160106.242500", "160107.732500", "160109.222500", "160110.712500", "160112.202500", "160113.692500", "160115.182500", "160116.672500", "160118.162500", "160119.652500", "160121.142500", "160122.632500", "160124.122500", "160125.612500", "160127.102500", "160128.592500", "160130.082500", "160131.572500", "160133.062500", "160134.552500", "160136.042500", "160137.532500", "160139.022500", "160140.512500", "160142.002500", "160143.492500", "160144.982500", "160146.472500", "160147.962500", "160149.452500", "160150.942500", "160152.432500", "160153.922500", "160155.412500", "160156.902500", "160158.392500", "160159.882500", "160201.372500", "160202.862500", "160204.352500", "160205.842500", "160207.332500", "160208.822500", "160210.312500", "160211.802500", "160213.292500", "160214.782500", "160216.272500", "160217.762500", "160219.252500", "160220.742500", "160222.232500", "160223.722500", "160225.212500", "160226.702500", "160228.192500", "160229.682500", "160231.172500", "160232.662500", "160234.152500", "160235.642500", "160237.132500", "160238.622500", "160240.112500", "160241.602500", "160243.092500", "160244.582500", "160246.072500", "160247.562500", "160249.052500", "160250.542500"],
      "ContentTime": ["155512.544000", "155512.548000", "155512.551000", "155512.553000", "155512.556000", "155512.559000", "155512.561000", "155512.564000", "155512.567000", "155512.569000", "155512.572000", "155512.574000", "155512.577000", "155512.579000", "155512.582000", "155512.584000", "155512.587000", "155512.589000", "155532.490000", "155532.493000", "155532.495000", "155532.498000", "155532.501000", "155532.503000", "155532.506000", "155532.508000", "155532.517000", "155532.520000", "155532.522000", "155532.525000", "155532.527000", "155532.530000", "155532.533000", "155532.535000", "155532.538000", "155532.540000", "155532.543000", "155532.545000", "155552.489000", "155552.492000", "155552.494000", "155552.506000", "155552.509000", "155552.511000", "155552.514000", "155552.516000", "155552.519000", "155552.522000", "155552.524000", "155552.527000", "155552.529000", "155552.532000", "155552.534000", "155552.537000", "155552.540000", "155552.542000", "155552.545000", "155552.547000", "155612.893000", "155612.896000", "155612.899000", "155612.901000", "155612.904000", "155612.906000", "155612.909000", "155612.911000", "155612.914000", "155612.917000", "155612.919000", "155612.922000", "155612.924000", "155612.927000", "155612.929000", "155612.932000", "155612.934000", "155612.937000", "155612.939000", "155612.942000", "155612.945000", "155652.559000", "155652.562000", "155652.565000", "155652.567000", "155652.570000", "155652.573000", "155652.575000", "155652.578000", "155652.580000", "155652.583000", "155652.585000", "155652.588000", "155652.591000", "155652.593000", "155652.596000", "155652.598000", "155652.601000", "155652.603000", "155652.606000", "155652.608000", "155652.611000", "155652.614000", "155652.616000", "155652.619000", "155652.621000", "155652.624000", "155652.626000", "155652.629000", "155652.631000", "155652.634000", "155652.637000", "155652.639000", "155652.642000", "155732.532000", "155732.535000", "155732.538000", "155732.541000", "155732.543000", "155732.550000", "155732.553000", "155732.555000", "155732.558000", "155732.561000", "155732.563000", "155732.566000", "155732.568000", "155732.571000", "155732.574000", "155732.576000", "155732.579000", "155732.581000", "155732.584000", "155732.586000", "155732.589000", "155732.591000", "155732.594000", "155732.596000", "155732.599000", "155732.601000", "155732.604000", "155812.528000", "155812.531000", "155812.533000", "155812.536000", "155812.539000", "155812.541000", "155812.544000", "155812.547000", "155812.549000", "155812.552000", "155812.554000", "155812.557000", "155812.560000", "155812.562000", "155812.565000", "155812.567000", "155812.570000", "155812.572000", "155812.583000", "155812.585000", "155812.588000", "155812.590000", "155812.593000", "155812.595000", "155812.598000", "155812.600000", "155812.603000", "155852.536000", "155852.538000", "155852.541000", "155852.544000", "155852.546000", "155852.549000", "155852.557000", "155852.560000", "155852.562000", "155852.565000", "155852.567000", "155852.570000", "155852.573000", "155852.575000", "155852.578000", "155852.580000", "155852.583000", "155852.585000", "155852.588000", "155852.590000", "155852.593000", "155852.595000", "155852.598000", "155852.600000", "155852.603000", "155852.606000", "155932.521000", "155932.523000", "155932.526000", "155932.529000", "155932.531000", "155932.543000", "155932.545000", "155932.548000", "155932.550000", "155932.553000", "155932.556000", "155932.558000", "155932.561000", "155932.564000", "155932.566000", "155932.569000", "155932.571000", "155932.574000", "155932.577000", "155932.579000", "155932.582000", "155932.585000", "155932.587000", "155932.590000", "155932.592000", "155932.595000", "155932.598000", "160012.535000", "160012.538000", "160012.540000", "160012.543000", "160012.545000", "160012.548000", "160012.550000", "160012.553000", "160012.555000", "160012.558000", "160012.561000", "160012.563000", "160012.566000", "160012.569000", "160012.571000", "160012.574000", "160012.576000", "160012.579000", "160012.581000", "160012.584000", "160012.586000", "160012.589000", "160012.591000", "160012.594000", "160012.597000", "160012.599000", "160012.602000", "160052.526000", "160052.528000", "160052.531000", "160052.534000", "160052.536000", "160052.539000", "160052.541000", "160052.544000", "160052.546000", "160052.549000", "160052.551000", "160052.554000", "160052.556000", "160052.559000", "160052.561000", "160052.564000", "160052.567000", "160052.569000", "160052.572000", "160052.575000", "160052.577000", "160052.580000", "160052.582000", "160052.585000", "160052.587000", "160052.590000", "160052.592000", "160132.534000", "160132.536000", "160132.539000", "160132.541000", "160132.544000", "160132.547000", "160132.549000", "160132.552000", "160132.555000", "160132.557000", "160132.560000", "160132.562000", "160132.565000", "160132.568000", "160132.570000", "160132.573000", "160132.576000", "160132.578000", "160132.581000", "160132.583000", "160132.586000", "160132.589000", "160132.591000", "160132.594000", "160132.597000", "160132.599000", "160132.602000", "160212.537000", "160212.540000", "160212.543000", "160212.546000", "160212.549000", "160212.552000", "160212.555000", "160212.558000", "160212.561000", "160212.564000", "160212.567000", "160212.571000", "160212.574000", "160212.577000", "160212.580000", "160212.583000", "160212.586000", "160212.589000", "160212.592000", "160212.595000", "160212.598000", "160212.602000", "160212.605000", "160212.608000", "160212.610000", "160212.614000", "160212.617000", "160252.534000", "160252.536000", "160252.539000", "160252.542000", "160252.545000", "160252.548000", "160252.552000", "160252.555000", "160252.559000", "160252.563000", "160252.566000", "160252.570000", "160252.573000", "160252.576000", "160252.579000", "160252.581000", "160252.584000", "160252.587000", "160252.590000", "160252.594000", "160252.599000", "160252.602000", "160252.606000", "160252.609000", "160252.613000", "160252.616000", "160252.620000"],
      "InstanceCreationTime": ["155512.544000", "155512.548000", "155512.551000", "155512.553000", "155512.556000", "155512.559000", "155512.561000", "155512.564000", "155512.567000", "155512.569000", "155512.572000", "155512.574000", "155512.577000", "155512.579000", "155512.582000", "155512.584000", "155512.587000", "155512.589000", "155532.490000", "155532.493000", "155532.495000", "155532.498000", "155532.501000", "155532.503000", "155532.506000", "155532.508000", "155532.517000", "155532.520000", "155532.522000", "155532.525000", "155532.527000", "155532.530000", "155532.533000", "155532.535000", "155532.538000", "155532.540000", "155532.543000", "155532.545000", "155552.489000", "155552.492000", "155552.494000", "155552.506000", "155552.509000", "155552.511000", "155552.514000", "155552.516000", "155552.519000", "155552.522000", "155552.524000", "155552.527000", "155552.529000", "155552.532000", "155552.534000", "155552.537000", "155552.540000", "155552.542000", "155552.545000", "155552.547000", "155612.893000", "155612.896000", "155612.899000", "155612.901000", "155612.904000", "155612.906000", "155612.909000", "155612.911000", "155612.914000", "155612.917000", "155612.919000", "155612.922000", "155612.924000", "155612.927000", "155612.929000", "155612.932000", "155612.934000", "155612.937000", "155612.939000", "155612.942000", "155612.945000", "155652.559000", "155652.562000", "155652.565000", "155652.567000", "155652.570000", "155652.573000", "155652.575000", "155652.578000", "155652.580000", "155652.583000", "155652.585000", "155652.588000", "155652.591000", "155652.593000", "155652.596000", "155652.598000", "155652.601000", "155652.603000", "155652.606000", "155652.608000", "155652.611000", "155652.614000", "155652.616000", "155652.619000", "155652.621000", "155652.624000", "155652.626000", "155652.629000", "155652.631000", "155652.634000", "155652.637000", "155652.639000", "155652.642000", "155732.532000", "155732.535000", "155732.538000", "155732.541000", "155732.543000", "155732.550000", "155732.553000", "155732.555000", "155732.558000", "155732.561000", "155732.563000", "155732.566000", "155732.568000", "155732.571000", "155732.574000", "155732.576000", "155732.579000", "155732.581000", "155732.584000", "155732.586000", "155732.589000", "155732.591000", "155732.594000", "155732.596000", "155732.599000", "155732.601000", "155732.604000", "155812.528000", "155812.531000", "155812.533000", "155812.536000", "155812.539000", "155812.541000", "155812.544000", "155812.547000", "155812.549000", "155812.552000", "155812.554000", "155812.557000", "155812.560000", "155812.562000", "155812.565000", "155812.567000", "155812.570000", "155812.572000", "155812.583000", "155812.585000", "155812.588000", "155812.590000", "155812.593000", "155812.595000", "155812.598000", "155812.600000", "155812.603000", "155852.536000", "155852.538000", "155852.541000", "155852.544000", "155852.546000", "155852.549000", "155852.557000", "155852.560000", "155852.562000", "155852.565000", "155852.567000", "155852.570000", "155852.573000", "155852.575000", "155852.578000", "155852.580000", "155852.583000", "155852.585000", "155852.588000", "155852.590000", "155852.593000", "155852.595000", "155852.598000", "155852.600000", "155852.603000", "155852.606000", "155932.521000", "155932.523000", "155932.526000", "155932.529000", "155932.531000", "155932.543000", "155932.545000", "155932.548000", "155932.550000", "155932.553000", "155932.556000", "155932.558000", "155932.561000", "155932.564000", "155932.566000", "155932.569000", "155932.571000", "155932.574000", "155932.577000", "155932.579000", "155932.582000", "155932.585000", "155932.587000", "155932.590000", "155932.592000", "155932.595000", "155932.598000", "160012.535000", "160012.538000", "160012.540000", "160012.543000", "160012.545000", "160012.548000", "160012.550000", "160012.553000", "160012.555000", "160012.558000", "160012.561000", "160012.563000", "160012.566000", "160012.569000", "160012.571000", "160012.574000", "160012.576000", "160012.579000", "160012.581000", "160012.584000", "160012.586000", "160012.589000", "160012.591000", "160012.594000", "160012.597000", "160012.599000", "160012.602000", "160052.526000", "160052.528000", "160052.531000", "160052.534000", "160052.536000", "160052.539000", "160052.541000", "160052.544000", "160052.546000", "160052.549000", "160052.551000", "160052.554000", "160052.556000", "160052.559000", "160052.561000", "160052.564000", "160052.567000", "160052.569000", "160052.572000", "160052.575000", "160052.577000", "160052.580000", "160052.582000", "160052.585000", "160052.587000", "160052.590000", "160052.592000", "160132.534000", "160132.536000", "160132.539000", "160132.541000", "160132.544000", "160132.547000", "160132.549000", "160132.552000", "160132.555000", "160132.557000", "160132.560000", "160132.562000", "160132.565000", "160132.568000", "160132.570000", "160132.573000", "160132.576000", "160132.578000", "160132.581000", "160132.583000", "160132.586000", "160132.589000", "160132.591000", "160132.594000", "160132.597000", "160132.599000", "160132.602000", "160212.537000", "160212.540000", "160212.543000", "160212.546000", "160212.549000", "160212.552000", "160212.555000", "160212.558000", "160212.561000", "160212.564000", "160212.567000", "160212.571000", "160212.574000", "160212.577000", "160212.580000", "160212.583000", "160212.586000", "160212.589000", "160212.592000", "160212.595000", "160212.598000", "160212.602000", "160212.605000", "160212.608000", "160212.610000", "160212.614000", "160212.617000", "160252.534000", "160252.536000", "160252.539000", "160252.542000", "160252.545000", "160252.548000", "160252.552000", "160252.555000", "160252.559000", "160252.563000", "160252.566000", "160252.570000", "160252.573000", "160252.576000", "160252.579000", "160252.581000", "160252.584000", "160252.587000", "160252.590000", "160252.594000", "160252.599000", "160252.602000", "160252.606000", "160252.609000", "160252.613000", "160252.616000", "160252.620000"],
      "InstanceNumber": [1, 2, 3, 4, 5, 6, 7, 8, 9, 10, 11, 12, 13, 14, 15, 16, 17, 18, 19, 20, 21, 22, 23, 24, 25, 26, 27, 28, 29, 30, 31, 32, 33, 34, 35, 36, 37, 38, 39, 40, 41, 42, 43, 44, 45, 46, 47, 48, 49, 50, 51, 52, 53, 54, 55, 56, 57, 58, 59, 60, 61, 62, 63, 64, 65, 66, 67, 68, 69, 70, 71, 72, 73, 74, 75, 76, 77, 78, 79, 80, 81, 82, 83, 84, 85, 86, 87, 88, 89, 90, 91, 92, 93, 94, 95, 96, 97, 98, 99, 100, 101, 102, 103, 104, 105, 106, 107, 108, 109, 110, 111, 112, 113, 114, 115, 116, 117, 118, 119, 120, 121, 122, 123, 124, 125, 126, 127, 128, 129, 130, 131, 132, 133, 134, 135, 136, 137, 138, 139, 140, 141, 142, 143, 144, 145, 146, 147, 148, 149, 150, 151, 152, 153, 154, 155, 156, 157, 158, 159, 160, 161, 162, 163, 164, 165, 166, 167, 168, 169, 170, 171, 172, 173, 174, 175, 176, 177, 178, 179, 180, 181, 182, 183, 184, 185, 186, 187, 188, 189, 190, 191, 192, 193, 194, 195, 196, 197, 198, 199, 200, 201, 202, 203, 204, 205, 206, 207, 208, 209, 210, 211, 212, 213, 214, 215, 216, 217, 218, 219, 220, 221, 222, 223, 224, 225, 226, 227, 228, 229, 230, 231, 232, 233, 234, 235, 236, 237, 238, 239, 240, 241, 242, 243, 244, 245, 246, 247, 248, 249, 250, 251, 252, 253, 254, 255, 256, 257, 258, 259, 260, 261, 262, 263, 264, 265, 266, 267, 268, 269, 270, 271, 272, 273, 274, 275, 276, 277, 278, 279, 280, 281, 282, 283, 284, 285, 286, 287, 288, 289, 290, 291, 292, 293, 294, 295, 296, 297, 298, 299, 300, 301, 302, 303, 304, 305, 306, 307, 308, 309, 310, 311, 312, 313, 314, 315, 316, 317, 318, 319, 320, 321, 322, 323, 324, 325, 326, 327, 328, 329, 330, 331, 332, 333, 334, 335, 336, 337, 338, 339, 340, 341, 342, 343, 344, 345, 346, 347, 348, 349, 350, 351, 352, 353, 354],
