{
  "AcquisitionMatrixPE": 104,
  "AcquisitionNumber": 1,
  "AcquisitionTime": "16:25:45.500000",
  "BandwidthPerPixelPhaseEncode": 17.17,
  "BaseResolution": 104,
  "BodyPartExamined": "BRAIN",
  "CoilCombinationMethod": "Sum of Squares",
  "ConsistencyInfo": "N4_VE11C_LATEST_20160120",
  "ConversionSoftware": "dcm2niix",
  "ConversionSoftwareVersion": "v1.0.20220505",
  "DerivedVendorReportedEchoSpacing": 0.000560011,
  "DeviceSerialNumber": "167006",
  "DwellTime": 2.1e-06,
  "EchoTime": 0.037,
  "EchoTime1": 0.037,
  "EchoTime2": 0.001,
  "EchoTrainLength": 104,
  "EffectiveEchoSpacing": 0.000560011,
  "FlipAngle": 52,
  "HeudiconvVersion": "0.5.3.post811+g6206e14",
  "ImageComments": "Unaliased MB4/PE3/LB",
  "ImageOrientationPatientDICOM": [0.998222, 0.0142458, 0.057874, 0.0160298, 0.871069, -0.4909],
  "ImageOrientationText": "Tra>Cor(-29.5)>Sag(3.3)",
  "ImageType": [
    "ORIGINAL",
    "PRIMARY",
    "P",
    "MB",
    "ND",
    "MOSAIC",
    "PHASE"
],
  "ImagingFrequency": 123.26,
  "InPlanePhaseEncodingDirectionDICOM": "COL",
  "InstitutionAddress": "Chemin Queen-Mary 4565,Montreal,District,CA,H3W 1W5",
  "InstitutionName": "IUGM",
  "InstitutionalDepartmentName": "Department",
  "MRAcquisitionType": "2D",
  "MagneticFieldStrength": 3,
  "Manufacturer": "Siemens",
  "ManufacturersModelName": "Prisma_fit",
  "MatrixCoilMode": "SENSE",
  "Modality": "MR",
  "MultibandAccelerationFactor": 4,
  "PartialFourier": 1,
  "PatientPosition": "HFS",
  "PercentPhaseFOV": 100,
  "PercentSampling": 100,
  "PhaseEncodingDirection": "j",
  "PhaseEncodingSteps": 104,
  "PhaseResolution": 1,
  "PixelBandwidth": 2290,
  "ProcedureStepDescription": "games^mario3",
  "ProtocolName": "func_task-mario3_run-05",
  "PulseSequenceDetails": "%CustomerSeq%\\cmrr_mbep2d_bold",
  "ReceiveCoilActiveElements": "HC1-7;NC1,2",
  "ReceiveCoilName": "HeadNeck_64",
  "ReconMatrixPE": 104,
  "RepetitionTime": 1.49,
  "SAR": 0.0444002,
  "ScanOptions": "FS",
  "ScanningSequence": "EP",
  "SequenceName": "epfid2d1_104",
  "SequenceVariant": "SK\\SS",
  "SeriesDescription": "func_task-mario3_run-05",
  "SeriesNumber": 23,
  "ShimSetting": [618, -7192, -8865, 262, 5, -162, -11, 45],
  "SliceThickness": 2,
  "SliceTiming": [0, 0.7825, 0.0975, 0.8825, 0.195, 0.98, 0.2925, 1.0775, 0.3925, 1.175, 0.49, 1.2725, 0.5875, 1.3725, 0.685, 0, 0.7825, 0.0975, 0.8825, 0.195, 0.98, 0.2925, 1.0775, 0.3925, 1.175, 0.49, 1.2725, 0.5875, 1.3725, 0.685, 0, 0.7825, 0.0975, 0.8825, 0.195, 0.98, 0.2925, 1.0775, 0.3925, 1.175, 0.49, 1.2725, 0.5875, 1.3725, 0.685, 0, 0.7825, 0.0975, 0.8825, 0.195, 0.98, 0.2925, 1.0775, 0.3925, 1.175, 0.49, 1.2725, 0.5875, 1.3725, 0.685],
  "SoftwareVersions": "syngo MR E11",
  "SpacingBetweenSlices": 2,
  "StationName": "MRC35049",
  "TaskName": "mario3",
  "TotalReadoutTime": 0.0576811,
  "TxRefAmp": 251.275,
  "WipMemBlock": "7d06d0d3-d1f8-4cba-87fc-29848f7bc701||Sequence: R017 ve11c/master r/75a17815+; Jun 28 2022 16:32:11 by eja",
  "dcmmeta_affine": [
    [-1.9964444637298584, 0.03205959126353264, 0.11481092870235443, 102.78025817871094],
    [-0.028491513803601265, 1.7421371936798096, -0.981909453868866, -50.029693603515625],
    [0.11574799567461014, 0.9817994236946106, 1.7385834455490112, -96.4617919921875],
    [0.0, 0.0, 0.0, 1.0]
],
  "dcmmeta_reorient_transform": [
    [0.0, -1.0, 0.0, 103.0],
    [1.0, 0.0, 0.0, 0.0],
    [0.0, 0.0, 1.0, 0.0],
    [0.0, 0.0, 0.0, 1.0]
],
  "dcmmeta_shape": [104, 104, 60, 326],
  "dcmmeta_slice_dim": 2,
  "dcmmeta_version": 0.6,
  "global": {
    "const": {
      "AcquisitionMatrix": [104, 0, 0, 104],
      "AngioFlag": "N",
      "BitsAllocated": 16,
      "BitsStored": 16,
      "BodyPartExamined": "BRAIN",
      "Columns": 832,
      "EchoNumbers": 1,
      "EchoTime": 37.0,
      "EchoTrainLength": 104,
      "FlipAngle": 52.0,
      "HighBit": 15,
      "ImageOrientationPatient": [0.99822224910146, 0.01424575704167, 0.05787399938779, 0.01602979475898, 0.87106860813527, -0.4908997103292],
      "ImagePositionPatient": [-844.45788636301, -773.91929749371, 319.90626342095],
      "ImageType": [
        "ORIGINAL",
        "PRIMARY",
        "P",
        "MB",
        "ND",
        "MOSAIC"
],
      "ImagedNucleus": "1H",
      "ImagingFrequency": 123.260268,
      "InPlanePhaseEncodingDirection": "COL",
      "LargestImagePixelValue": 4095,
      "MRAcquisitionType": "2D",
      "MagneticFieldStrength": 3.0,
      "Manufacturer": "SIEMENS",
      "ManufacturerModelName": "Prisma_fit",
      "Modality": "MR",
      "NumberOfAverages": 1.0,
      "NumberOfPhaseEncodingSteps": 104,
      "PercentPhaseFieldOfView": 100.0,
      "PercentSampling": 100.0,
      "PerformedProcedureStepStartTime": "145356.001000",
      "PhotometricInterpretation": "MONOCHROME2",
      "PixelBandwidth": 2290.0,
      "PixelRepresentation": 0,
      "PixelSpacing": [2.0, 2.0],
      "ProtocolName": "func_task-mario3_run-05",
      "RepetitionTime": 1490.0,
      "RescaleIntercept": -4096.0,
      "RescaleSlope": 2.0,
      "RescaleType": "US",
      "Rows": 832,
      "SAR": 0.04440023825155,
      "SamplesPerPixel": 1,
      "ScanOptions": "FS",
      "ScanningSequence": "EP",
      "SequenceName": "epfid2d1_104",
      "SequenceVariant": [
        "SK",
        "SS"
],
      "SeriesDescription": "func_task-mario3_run-05",
      "SeriesNumber": 23,
      "SeriesTime": "162712.599000",
      "SliceLocation": -53.390975476559,
      "SliceThickness": 2.0,
      "SmallestImagePixelValue": 0,
      "SoftwareVersions": "syngo MR E11",
      "SpacingBetweenSlices": 2.000000028934,
      "SpecificCharacterSet": "ISO_IR 100",
      "StudyID": "1",
      "StudyTime": "145355.839000",
      "TransmitCoilName": "Body",
      "VariableFlipAngleFlag": "N",
      "WindowCenterWidthExplanation": "Algo1",
      "dBdt": 0.0},
    "slices": {}
  },
  "time": {
    "samples": {
      "AcquisitionNumber": [1, 2, 3, 4, 5, 6, 7, 8, 9, 10, 11, 12, 13, 14, 15, 16, 17, 18, 19, 20, 21, 22, 23, 24, 25, 26, 27, 28, 29, 30, 31, 32, 33, 34, 35, 36, 37, 38, 39, 40, 41, 42, 43, 44, 45, 46, 47, 48, 49, 50, 51, 52, 53, 54, 55, 56, 57, 58, 59, 60, 61, 62, 63, 64, 65, 66, 67, 68, 69, 70, 71, 72, 73, 74, 75, 76, 77, 78, 79, 80, 81, 82, 83, 84, 85, 86, 87, 88, 89, 90, 91, 92, 93, 94, 95, 96, 97, 98, 99, 100, 101, 102, 103, 104, 105, 106, 107, 108, 109, 110, 111, 112, 113, 114, 115, 116, 117, 118, 119, 120, 121, 122, 123, 124, 125, 126, 127, 128, 129, 130, 131, 132, 133, 134, 135, 136, 137, 138, 139, 140, 141, 142, 143, 144, 145, 146, 147, 148, 149, 150, 151, 152, 153, 154, 155, 156, 157, 158, 159, 160, 161, 162, 163, 164, 165, 166, 167, 168, 169, 170, 171, 172, 173, 174, 175, 176, 177, 178, 179, 180, 181, 182, 183, 184, 185, 186, 187, 188, 189, 190, 191, 192, 193, 194, 195, 196, 197, 198, 199, 200, 201, 202, 203, 204, 205, 206, 207, 208, 209, 210, 211, 212, 213, 214, 215, 216, 217, 218, 219, 220, 221, 222, 223, 224, 225, 226, 227, 228, 229, 230, 231, 232, 233, 234, 235, 236, 237, 238, 239, 240, 241, 242, 243, 244, 245, 246, 247, 248, 249, 250, 251, 252, 253, 254, 255, 256, 257, 258, 259, 260, 261, 262, 263, 264, 265, 266, 267, 268, 269, 270, 271, 272, 273, 274, 275, 276, 277, 278, 279, 280, 281, 282, 283, 284, 285, 286, 287, 288, 289, 290, 291, 292, 293, 294, 295, 296, 297, 298, 299, 300, 301, 302, 303, 304, 305, 306, 307, 308, 309, 310, 311, 312, 313, 314, 315, 316, 317, 318, 319, 320, 321, 322, 323, 324, 325, 326],
      "AcquisitionTime": ["162545.500000", "162546.990000", "162548.480000", "162549.970000", "162551.460000", "162552.950000", "162554.440000", "162555.930000", "162557.420000", "162558.910000", "162600.400000", "162601.890000", "162603.380000", "162604.870000", "162606.360000", "162607.850000", "162609.340000", "162610.830000", "162612.320000", "162613.810000", "162615.300000", "162616.790000", "162618.280000", "162619.770000", "162621.260000", "162622.750000", "162624.240000", "162625.730000", "162627.220000", "162628.710000", "162630.200000", "162631.690000", "162633.180000", "162634.670000", "162636.160000", "162637.650000", "162639.140000", "162640.630000", "162642.120000", "162643.610000", "162645.100000", "162646.590000", "162648.080000", "162649.570000", "162651.060000", "162652.550000", "162654.040000", "162655.530000", "162657.020000", "162658.510000", "162700.000000", "162701.490000", "162702.980000", "162704.470000", "162705.960000", "162707.450000", "162708.940000", "162710.430000", "162711.920000", "162713.410000", "162714.900000", "162716.390000", "162717.880000", "162719.370000", "162720.860000", "162722.350000", "162723.840000", "162725.330000", "162726.820000", "162728.310000", "162729.800000", "162731.290000", "162732.780000", "162734.270000", "162735.760000", "162737.250000", "162738.740000", "162740.230000", "162741.720000", "162743.210000", "162744.700000", "162746.190000", "162747.680000", "162749.170000", "162750.660000", "162752.150000", "162753.640000", "162755.130000", "162756.620000", "162758.110000", "162759.600000", "162801.090000", "162802.580000", "162804.070000", "162805.560000", "162807.050000", "162808.540000", "162810.030000", "162811.520000", "162813.010000", "162814.500000", "162815.990000", "162817.480000", "162818.970000", "162820.460000", "162821.950000", "162823.440000", "162824.930000", "162826.420000", "162827.910000", "162829.400000", "162830.890000", "162832.380000", "162833.870000", "162835.360000", "162836.850000", "162838.340000", "162839.830000", "162841.320000", "162842.810000", "162844.300000", "162845.790000", "162847.280000", "162848.770000", "162850.260000", "162851.750000", "162853.240000", "162854.730000", "162856.220000", "162857.710000", "162859.200000", "162900.690000", "162902.180000", "162903.670000", "162905.160000", "162906.650000", "162908.140000", "162909.630000", "162911.120000", "162912.610000", "162914.100000", "162915.590000", "162917.080000", "162918.570000", "162920.060000", "162921.550000", "162923.040000", "162924.530000", "162926.020000", "162927.510000", "162929.000000", "162930.490000", "162931.980000", "162933.470000", "162934.960000", "162936.450000", "162937.940000", "162939.430000", "162940.920000", "162942.410000", "162943.900000", "162945.390000", "162946.880000", "162948.370000", "162949.860000", "162951.350000", "162952.840000", "162954.330000", "162955.820000", "162957.310000", "162958.800000", "163000.290000", "163001.780000", "163003.270000", "163004.760000", "163006.250000", "163007.740000", "163009.230000", "163010.720000", "163012.210000", "163013.700000", "163015.190000", "163016.680000", "163018.170000", "163019.660000", "163021.150000", "163022.640000", "163024.130000", "163025.620000", "163027.110000", "163028.600000", "163030.090000", "163031.580000", "163033.070000", "163034.560000", "163036.050000", "163037.540000", "163039.030000", "163040.520000", "163042.010000", "163043.500000", "163044.990000", "163046.480000", "163047.970000", "163049.460000", "163050.950000", "163052.440000", "163053.930000", "163055.420000", "163056.910000", "163058.400000", "163059.890000", "163101.380000", "163102.870000", "163104.360000", "163105.850000", "163107.340000", "163108.830000", "163110.320000", "163111.810000", "163113.300000", "163114.790000", "163116.280000", "163117.770000", "163119.260000", "163120.750000", "163122.240000", "163123.730000", "163125.220000", "163126.710000", "163128.200000", "163129.690000", "163131.180000", "163132.670000", "163134.160000", "163135.650000", "163137.140000", "163138.630000", "163140.120000", "163141.610000", "163143.100000", "163144.590000", "163146.080000", "163147.570000", "163149.060000", "163150.550000", "163152.040000", "163153.530000", "163155.020000", "163156.510000", "163158.000000", "163159.490000", "163200.980000", "163202.470000", "163203.960000", "163205.450000", "163206.940000", "163208.430000", "163209.920000", "163211.410000", "163212.900000", "163214.390000", "163215.880000", "163217.370000", "163218.860000", "163220.350000", "163221.840000", "163223.330000", "163224.820000", "163226.310000", "163227.800000", "163229.290000", "163230.780000", "163232.270000", "163233.760000", "163235.250000", "163236.740000", "163238.230000", "163239.720000", "163241.210000", "163242.700000", "163244.190000", "163245.680000", "163247.170000", "163248.660000", "163250.150000", "163251.640000", "163253.130000", "163254.620000", "163256.110000", "163257.600000", "163259.090000", "163300.580000", "163302.070000", "163303.560000", "163305.050000", "163306.540000", "163308.030000", "163309.520000", "163311.010000", "163312.500000", "163313.990000", "163315.480000", "163316.970000", "163318.460000", "163319.950000", "163321.440000", "163322.930000", "163324.420000", "163325.910000", "163327.400000", "163328.890000", "163330.380000", "163331.870000", "163333.360000", "163334.850000", "163336.340000", "163337.830000", "163339.320000", "163340.810000", "163342.300000", "163343.790000", "163345.280000", "163346.770000", "163348.260000", "163349.750000"],
      "ContentTime": ["162712.601000", "162712.604000", "162712.607000", "162712.609000", "162712.612000", "162712.614000", "162712.617000", "162712.620000", "162712.622000", "162712.625000", "162712.627000", "162712.634000", "162712.637000", "162712.639000", "162712.642000", "162712.645000", "162712.647000", "162712.650000", "162712.652000", "162712.655000", "162712.657000", "162712.660000", "162712.662000", "162712.665000", "162712.667000", "162712.670000", "162712.672000", "162712.675000", "162712.677000", "162712.680000", "162712.682000", "162712.685000", "162712.687000", "162712.690000", "162712.692000", "162712.695000", "162712.697000", "162712.700000", "162712.702000", "162732.507000", "162732.510000", "162732.518000", "162732.521000", "162732.523000", "162732.526000", "162732.528000", "162732.531000", "162732.533000", "162732.536000", "162732.538000", "162732.541000", "162732.543000", "162732.546000", "162732.548000", "162732.551000", "162732.553000", "162732.556000", "162732.559000", "162732.561000", "162752.490000", "162752.493000", "162752.495000", "162752.498000", "162752.500000", "162752.503000", "162752.505000", "162752.508000", "162752.510000", "162752.513000", "162752.515000", "162752.518000", "162752.520000", "162752.523000", "162752.526000", "162752.528000", "162752.531000", "162752.533000", "162752.536000", "162752.538000", "162832.550000", "162832.552000", "162832.561000", "162832.564000", "162832.566000", "162832.569000", "162832.571000", "162832.574000", "162832.576000", "162832.579000", "162832.581000", "162832.584000", "162832.586000", "162832.589000", "162832.591000", "162832.594000", "162832.596000", "162832.599000", "162832.602000", "162832.604000", "162832.607000", "162832.609000", "162832.612000", "162832.614000", "162832.617000", "162832.619000", "162832.622000", "162832.624000", "162832.627000", "162832.630000", "162832.632000", "162832.635000", "162912.523000", "162912.525000", "162912.528000", "162912.530000", "162912.533000", "162912.535000", "162912.538000", "162912.541000", "162912.543000", "162912.546000", "162912.548000", "162912.551000", "162912.553000", "162912.556000", "162912.558000", "162912.561000", "162912.564000", "162912.566000", "162912.569000", "162912.571000", "162912.574000", "162912.576000", "162912.579000", "162912.581000", "162912.584000", "162912.586000", "162912.589000", "162952.519000", "162952.522000", "162952.524000", "162952.527000", "162952.529000", "162952.532000", "162952.535000", "162952.537000", "162952.540000", "162952.542000", "162952.545000", "162952.548000", "162952.556000", "162952.559000", "162952.561000", "162952.564000", "162952.567000", "162952.569000", "162952.572000", "162952.574000", "162952.577000", "162952.579000", "162952.582000", "162952.584000", "162952.587000", "162952.589000", "162952.592000", "163032.510000", "163032.513000", "163032.515000", "163032.518000", "163032.521000", "163032.523000", "163032.526000", "163032.528000", "163032.531000", "163032.533000", "163032.536000", "163032.538000", "163032.541000", "163032.543000", "163032.546000", "163032.548000", "163032.551000", "163032.554000", "163032.561000", "163032.563000", "163032.566000", "163032.568000", "163032.571000", "163032.573000", "163032.576000", "163032.578000", "163032.581000", "163112.506000", "163112.509000", "163112.512000", "163112.514000", "163112.517000", "163112.519000", "163112.526000", "163112.529000", "163112.531000", "163112.534000", "163112.536000", "163112.539000", "163112.542000", "163112.544000", "163112.547000", "163112.549000", "163112.552000", "163112.554000", "163112.557000", "163112.559000", "163112.562000", "163112.565000", "163112.567000", "163112.570000", "163112.572000", "163112.575000", "163112.577000", "163152.514000", "163152.517000", "163152.520000", "163152.523000", "163152.525000", "163152.528000", "163152.530000", "163152.533000", "163152.535000", "163152.538000", "163152.540000", "163152.543000", "163152.546000", "163152.548000", "163152.551000", "163152.553000", "163152.556000", "163152.558000", "163152.561000", "163152.563000", "163152.566000", "163152.568000", "163152.571000", "163152.574000", "163152.576000", "163152.579000", "163232.523000", "163232.526000", "163232.528000", "163232.531000", "163232.533000", "163232.536000", "163232.538000", "163232.541000", "163232.543000", "163232.546000", "163232.548000", "163232.551000", "163232.553000", "163232.556000", "163232.558000", "163232.561000", "163232.564000", "163232.566000", "163232.569000", "163232.571000", "163232.574000", "163232.576000", "163232.579000", "163232.581000", "163232.584000", "163232.586000", "163232.589000", "163312.509000", "163312.512000", "163312.514000", "163312.517000", "163312.519000", "163312.522000", "163312.524000", "163312.527000", "163312.529000", "163312.532000", "163312.534000", "163312.537000", "163312.540000", "163312.542000", "163312.545000", "163312.547000", "163312.550000", "163312.552000", "163312.555000", "163312.557000", "163312.560000", "163312.563000", "163312.565000", "163312.568000", "163312.570000", "163312.573000", "163312.575000", "163332.923000", "163332.931000", "163332.934000", "163332.936000", "163332.939000", "163332.941000", "163332.944000", "163332.947000", "163332.949000", "163332.952000", "163332.954000", "163332.957000", "163332.959000", "163332.962000", "163352.237000", "163352.240000", "163352.243000", "163352.246000", "163352.248000", "163352.251000", "163352.253000", "163352.256000", "163352.259000", "163352.261000", "163352.264000", "163352.266000", "163352.269000"],
      "InstanceCreationTime": ["162712.601000", "162712.604000", "162712.607000", "162712.609000", "162712.612000", "162712.614000", "162712.617000", "162712.620000", "162712.622000", "162712.625000", "162712.627000", "162712.634000", "162712.637000", "162712.639000", "162712.642000", "162712.645000", "162712.647000", "162712.650000", "162712.652000", "162712.655000", "162712.657000", "162712.660000", "162712.662000", "162712.665000", "162712.667000", "162712.670000", "162712.672000", "162712.675000", "162712.677000", "162712.680000", "162712.682000", "162712.685000", "162712.687000", "162712.690000", "162712.692000", "162712.695000", "162712.697000", "162712.700000", "162712.702000", "162732.507000", "162732.510000", "162732.518000", "162732.521000", "162732.523000", "162732.526000", "162732.528000", "162732.531000", "162732.533000", "162732.536000", "162732.538000", "162732.541000", "162732.543000", "162732.546000", "162732.548000", "162732.551000", "162732.553000", "162732.556000", "162732.559000", "162732.561000", "162752.490000", "162752.493000", "162752.495000", "162752.498000", "162752.500000", "162752.503000", "162752.505000", "162752.508000", "162752.510000", "162752.513000", "162752.515000", "162752.518000", "162752.520000", "162752.523000", "162752.526000", "162752.528000", "162752.531000", "162752.533000", "162752.536000", "162752.538000", "162832.550000", "162832.552000", "162832.561000", "162832.564000", "162832.566000", "162832.569000", "162832.571000", "162832.574000", "162832.576000", "162832.579000", "162832.581000", "162832.584000", "162832.586000", "162832.589000", "162832.591000", "162832.594000", "162832.596000", "162832.599000", "162832.602000", "162832.604000", "162832.607000", "162832.609000", "162832.612000", "162832.614000", "162832.617000", "162832.619000", "162832.622000", "162832.624000", "162832.627000", "162832.630000", "162832.632000", "162832.635000", "162912.523000", "162912.525000", "162912.528000", "162912.530000", "162912.533000", "162912.535000", "162912.538000", "162912.541000", "162912.543000", "162912.546000", "162912.548000", "162912.551000", "162912.553000", "162912.556000", "162912.558000", "162912.561000", "162912.564000", "162912.566000", "162912.569000", "162912.571000", "162912.574000", "162912.576000", "162912.579000", "162912.581000", "162912.584000", "162912.586000", "162912.589000", "162952.519000", "162952.522000", "162952.524000", "162952.527000", "162952.529000", "162952.532000", "162952.535000", "162952.537000", "162952.540000", "162952.542000", "162952.545000", "162952.548000", "162952.556000", "162952.559000", "162952.561000", "162952.564000", "162952.567000", "162952.569000", "162952.572000", "162952.574000", "162952.577000", "162952.579000", "162952.582000", "162952.584000", "162952.587000", "162952.589000", "162952.592000", "163032.510000", "163032.513000", "163032.515000", "163032.518000", "163032.521000", "163032.523000", "163032.526000", "163032.528000", "163032.531000", "163032.533000", "163032.536000", "163032.538000", "163032.541000", "163032.543000", "163032.546000", "163032.548000", "163032.551000", "163032.554000", "163032.561000", "163032.563000", "163032.566000", "163032.568000", "163032.571000", "163032.573000", "163032.576000", "163032.578000", "163032.581000", "163112.506000", "163112.509000", "163112.512000", "163112.514000", "163112.517000", "163112.519000", "163112.526000", "163112.529000", "163112.531000", "163112.534000", "163112.536000", "163112.539000", "163112.542000", "163112.544000", "163112.547000", "163112.549000", "163112.552000", "163112.554000", "163112.557000", "163112.559000", "163112.562000", "163112.565000", "163112.567000", "163112.570000", "163112.572000", "163112.575000", "163112.577000", "163152.514000", "163152.517000", "163152.520000", "163152.523000", "163152.525000", "163152.528000", "163152.530000", "163152.533000", "163152.535000", "163152.538000", "163152.540000", "163152.543000", "163152.546000", "163152.548000", "163152.551000", "163152.553000", "163152.556000", "163152.558000", "163152.561000", "163152.563000", "163152.566000", "163152.568000", "163152.571000", "163152.574000", "163152.576000", "163152.579000", "163232.523000", "163232.526000", "163232.528000", "163232.531000", "163232.533000", "163232.536000", "163232.538000", "163232.541000", "163232.543000", "163232.546000", "163232.548000", "163232.551000", "163232.553000", "163232.556000", "163232.558000", "163232.561000", "163232.564000", "163232.566000", "163232.569000", "163232.571000", "163232.574000", "163232.576000", "163232.579000", "163232.581000", "163232.584000", "163232.586000", "163232.589000", "163312.509000", "163312.512000", "163312.514000", "163312.517000", "163312.519000", "163312.522000", "163312.524000", "163312.527000", "163312.529000", "163312.532000", "163312.534000", "163312.537000", "163312.540000", "163312.542000", "163312.545000", "163312.547000", "163312.550000", "163312.552000", "163312.555000", "163312.557000", "163312.560000", "163312.563000", "163312.565000", "163312.568000", "163312.570000", "163312.573000", "163312.575000", "163332.923000", "163332.931000", "163332.934000", "163332.936000", "163332.939000", "163332.941000", "163332.944000", "163332.947000", "163332.949000", "163332.952000", "163332.954000", "163332.957000", "163332.959000", "163332.962000", "163352.237000", "163352.240000", "163352.243000", "163352.246000", "163352.248000", "163352.251000", "163352.253000", "163352.256000", "163352.259000", "163352.261000", "163352.264000", "163352.266000", "163352.269000"],
      "InstanceNumber": [1, 2, 3, 4, 5, 6, 7, 8, 9, 10, 11, 12, 13, 14, 15, 16, 17, 18, 19, 20, 21, 22, 23, 24, 25, 26, 27, 28, 29, 30, 31, 32, 33, 34, 35, 36, 37, 38, 39, 40, 41, 42, 43, 44, 45, 46, 47, 48, 49, 50, 51, 52, 53, 54, 55, 56, 57, 58, 59, 60, 61, 62, 63, 64, 65, 66, 67, 68, 69, 70, 71, 72, 73, 74, 75, 76, 77, 78, 79, 80, 81, 82, 83, 84, 85, 86, 87, 88, 89, 90, 91, 92, 93, 94, 95, 96, 97, 98, 99, 100, 101, 102, 103, 104, 105, 106, 107, 108, 109, 110, 111, 112, 113, 114, 115, 116, 117, 118, 119, 120, 121, 122, 123, 124, 125, 126, 127, 128, 129, 130, 131, 132, 133, 134, 135, 136, 137, 138, 139, 140, 141, 142, 143, 144, 145, 146, 147, 148, 149, 150, 151, 152, 153, 154, 155, 156, 157, 158, 159, 160, 161, 162, 163, 164, 165, 166, 167, 168, 169, 170, 171, 172, 173, 174, 175, 176, 177, 178, 179, 180, 181, 182, 183, 184, 185, 186, 187, 188, 189, 190, 191, 192, 193, 194, 195, 196, 197, 198, 199, 200, 201, 202, 203, 204, 205, 206, 207, 208, 209, 210, 211, 212, 213, 214, 215, 216, 217, 218, 219, 220, 221, 222, 223, 224, 225, 226, 227, 228, 229, 230, 231, 232, 233, 234, 235, 236, 237, 238, 239, 240, 241, 242, 243, 244, 245, 246, 247, 248, 249, 250, 251, 252, 253, 254, 255, 256, 257, 258, 259, 260, 261, 262, 263, 264, 265, 266, 267, 268, 269, 270, 271, 272, 273, 274, 275, 276, 277, 278, 279, 280, 281, 282, 283, 284, 285, 286, 287, 288, 289, 290, 291, 292, 293, 294, 295, 296, 297, 298, 299, 300, 301, 302, 303, 304, 305, 306, 307, 308, 309, 310, 311, 312, 313, 314, 315, 316, 317, 318, 319, 320, 321, 322, 323, 324, 325, 326],
      "WindowCenter": [4768.0, 4768.0, 4774.0, 4770.0, 4770.0, 4794.0, 4800.0, 4778.0, 4784.0, 4780.0, 4776.0, 4800.0, 4796.0, 4800.0, 4798.0, 4800.0, 4800.0, 4776.0, 4776.0, 4776.0, 4782.0, 4778.0, 4776.0, 4776.0, 4776.0, 4776.0, 4798.0, 4794.0, 4800.0, 4796.0, 4794.0, 4772.0, 4798.0, 4778.0, 4772.0, 4796.0, 4772.0, 4776.0, 4794.0, 4770.0, 4774.0, 4778.0, 4774.0, 4770.0, 4796.0, 4796.0, 4796.0, 4796.0, 4798.0, 4800.0, 4798.0, 4776.0, 4776.0, 4774.0, 4776.0, 4772.0, 4794.0, 4798.0, 4796.0, 4774.0, 4774.0, 4778.0, 4782.0, 4774.0, 4776.0, 4752.0, 4750.0, 4748.0, 4776.0, 4776.0, 4800.0, 4780.0, 4776.0, 4780.0, 4778.0, 4800.0, 4778.0, 4798.0, 4772.0, 4770.0, 4776.0, 4774.0, 4774.0, 4758.0, 4752.0, 4774.0, 4802.0, 4776.0, 4776.0, 4798.0, 4776.0, 4798.0, 4774.0, 4800.0, 4778.0, 4772.0, 4778.0, 4802.0, 4776.0, 4798.0, 4774.0, 4796.0, 4798.0, 4800.0, 4798.0, 4776.0, 4776.0, 4780.0, 4778.0, 4782.0, 4776.0, 4774.0, 4774.0, 4772.0, 4776.0, 4778.0, 4776.0, 4786.0, 4780.0, 4776.0, 4782.0, 4784.0, 4778.0, 4750.0, 4748.0, 4748.0, 4752.0, 4770.0, 4774.0, 4796.0, 4786.0, 4778.0, 4776.0, 4780.0, 4796.0, 4778.0, 4778.0, 4778.0, 4772.0, 4798.0, 4774.0, 4778.0, 4804.0, 4776.0, 4754.0, 4754.0, 4778.0, 4780.0, 4778.0, 4790.0, 4782.0, 4752.0, 4752.0, 4750.0, 4748.0, 4748.0, 4750.0, 4748.0, 4774.0, 4776.0, 4774.0, 4778.0, 4800.0, 4784.0, 4778.0, 4790.0, 4762.0, 4778.0, 4800.0, 4800.0, 4802.0, 4800.0, 4800.0, 4780.0, 4778.0, 4780.0, 4782.0, 4790.0, 4780.0, 4802.0, 4800.0, 4796.0, 4798.0, 4772.0, 4776.0, 4778.0, 4776.0, 4794.0, 4776.0, 4786.0, 4784.0, 4758.0, 4754.0, 4746.0, 4748.0, 4770.0, 4774.0, 4778.0, 4774.0, 4782.0, 4788.0, 4788.0, 4754.0, 4750.0, 4746.0, 4748.0, 4748.0, 4770.0, 4796.0, 4772.0, 4786.0, 4790.0, 4766.0, 4762.0, 4764.0, 4752.0, 4774.0, 4796.0, 4780.0, 4776.0, 4772.0, 4770.0, 4774.0, 4776.0, 4796.0, 4778.0, 4800.0, 4774.0, 4776.0, 4780.0, 4754.0, 4778.0, 4804.0, 4776.0, 4802.0, 4802.0, 4804.0, 4782.0, 4802.0, 4802.0, 4780.0, 4776.0, 4782.0, 4790.0, 4792.0, 4754.0, 4746.0, 4746.0, 4742.0, 4740.0, 4746.0, 4748.0, 4748.0, 4776.0, 4778.0, 4776.0, 4778.0, 4776.0, 4780.0, 4776.0, 4774.0, 4776.0, 4774.0, 4778.0, 4780.0, 4776.0, 4776.0, 4778.0, 4752.0, 4750.0, 4748.0, 4748.0, 4750.0, 4754.0, 4802.0, 4776.0, 4776.0, 4778.0, 4780.0, 4780.0, 4778.0, 4778.0, 4800.0, 4802.0, 4780.0, 4772.0, 4802.0, 4782.0, 4780.0, 4776.0, 4780.0, 4776.0, 4778.0, 4778.0, 4774.0, 4802.0, 4784.0, 4774.0, 4802.0, 4798.0, 4800.0, 4800.0, 4786.0, 4792.0, 4792.0, 4788.0, 4754.0, 4774.0, 4772.0, 4800.0, 4776.0, 4778.0, 4780.0, 4778.0, 4780.0, 4804.0, 4782.0, 4780.0, 4774.0, 4782.0, 4802.0, 4800.0, 4778.0, 4800.0, 4782.0, 4778.0],
