{
  "AcquisitionMatrixPE": 104,
  "AcquisitionNumber": 1,
  "AcquisitionTime": "16:16:38.545000",
  "BandwidthPerPixelPhaseEncode": 17.17,
  "BaseResolution": 104,
  "BodyPartExamined": "BRAIN",
  "CoilCombinationMethod": "Sum of Squares",
  "ConsistencyInfo": "N4_VE11C_LATEST_20160120",
  "ConversionSoftware": "dcm2niix",
  "ConversionSoftwareVersion": "v1.0.20220505",
  "DerivedVendorReportedEchoSpacing": 0.000560011,
  "DeviceSerialNumber": "167006",
  "DwellTime": 2.1e-06,
  "EchoTime": 0.037,
  "EchoTrainLength": 104,
  "EffectiveEchoSpacing": 0.000560011,
  "FlipAngle": 52,
  "HeudiconvVersion": "0.5.3.post811+g6206e14",
  "ImageComments": "Unaliased MB4/PE3/LB",
  "ImageOrientationPatientDICOM": [0.998222, 0.0142458, 0.057874, 0.0160298, 0.871069, -0.4909],
  "ImageOrientationText": "Tra>Cor(-29.5)>Sag(3.3)",
  "ImageType": [
    "ORIGINAL",
    "PRIMARY",
    "M",
    "MB",
    "ND",
    "MOSAIC"
],
  "ImagingFrequency": 123.26,
  "InPlanePhaseEncodingDirectionDICOM": "COL",
  "InstitutionAddress": "Chemin Queen-Mary 4565,Montreal,District,CA,H3W 1W5",
  "InstitutionName": "IUGM",
  "InstitutionalDepartmentName": "Department",
  "MRAcquisitionType": "2D",
  "MagneticFieldStrength": 3,
  "Manufacturer": "Siemens",
  "ManufacturersModelName": "Prisma_fit",
  "MatrixCoilMode": "SENSE",
  "Modality": "MR",
  "MultibandAccelerationFactor": 4,
  "PartialFourier": 1,
  "PatientPosition": "HFS",
  "PercentPhaseFOV": 100,
  "PercentSampling": 100,
  "PhaseEncodingDirection": "j",
  "PhaseEncodingSteps": 104,
  "PhaseResolution": 1,
  "PixelBandwidth": 2290,
  "ProcedureStepDescription": "games^mario3",
  "ProtocolName": "func_task-mario3_run-04",
  "PulseSequenceDetails": "%CustomerSeq%\\cmrr_mbep2d_bold",
  "ReceiveCoilActiveElements": "HC1-7;NC1,2",
  "ReceiveCoilName": "HeadNeck_64",
  "ReconMatrixPE": 104,
  "RepetitionTime": 1.49,
  "SAR": 0.0444002,
  "ScanOptions": "FS",
  "ScanningSequence": "EP",
  "SequenceName": "epfid2d1_104",
  "SequenceVariant": "SK\\SS",
  "SeriesDescription": "func_task-mario3_run-04",
  "SeriesNumber": 19,
  "ShimSetting": [618, -7192, -8865, 262, 5, -162, -11, 45],
  "SliceThickness": 2,
  "SliceTiming": [0, 0.7825, 0.0975, 0.88, 0.195, 0.98, 0.2925, 1.0775, 0.39, 1.175, 0.49, 1.2725, 0.5875, 1.37, 0.685, 0, 0.7825, 0.0975, 0.88, 0.195, 0.98, 0.2925, 1.0775, 0.39, 1.175, 0.49, 1.2725, 0.5875, 1.37, 0.685, 0, 0.7825, 0.0975, 0.88, 0.195, 0.98, 0.2925, 1.0775, 0.39, 1.175, 0.49, 1.2725, 0.5875, 1.37, 0.685, 0, 0.7825, 0.0975, 0.88, 0.195, 0.98, 0.2925, 1.0775, 0.39, 1.175, 0.49, 1.2725, 0.5875, 1.37, 0.685],
  "SoftwareVersions": "syngo MR E11",
  "SpacingBetweenSlices": 2,
  "StationName": "MRC35049",
  "TaskName": "mario3",
  "TotalReadoutTime": 0.0576811,
  "TxRefAmp": 251.275,
  "WipMemBlock": "dd127877-c2fb-4bf1-a90d-ae77b77651c1||Sequence: R017 ve11c/master r/75a17815+; Jun 28 2022 16:32:11 by eja",
  "dcmmeta_affine": [
    [-1.9964444637298584, 0.03205959126353264, 0.11481092870235443, 102.78025817871094],
    [-0.028491513803601265, 1.7421371936798096, -0.981909453868866, -50.029693603515625],
    [0.11574799567461014, 0.9817994236946106, 1.7385834455490112, -96.4617919921875],
    [0.0, 0.0, 0.0, 1.0]
],
  "dcmmeta_reorient_transform": [
    [0.0, -1.0, 0.0, 103.0],
    [1.0, 0.0, 0.0, 0.0],
    [0.0, 0.0, 1.0, 0.0],
    [0.0, 0.0, 0.0, 1.0]
],
  "dcmmeta_shape": [104, 104, 60, 328],
  "dcmmeta_slice_dim": 2,
  "dcmmeta_version": 0.6,
  "global": {
    "const": {
      "AcquisitionMatrix": [104, 0, 0, 104],
      "AngioFlag": "N",
      "BitsAllocated": 16,
      "BitsStored": 16,
      "BodyPartExamined": "BRAIN",
      "Columns": 832,
      "EchoNumbers": 1,
      "EchoTime": 37.0,
      "EchoTrainLength": 104,
      "FlipAngle": 52.0,
      "HighBit": 15,
      "ImageOrientationPatient": [0.99822224910146, 0.01424575704167, 0.05787399938779, 0.01602979475898, 0.87106860813527, -0.4908997103292],
      "ImagePositionPatient": [-844.45788636301, -773.91929749371, 319.90626342095],
      "ImageType": [
        "ORIGINAL",
        "PRIMARY",
        "M",
        "MB",
        "ND",
        "MOSAIC"
],
      "ImagedNucleus": "1H",
      "ImagingFrequency": 123.260268,
      "InPlanePhaseEncodingDirection": "COL",
      "MRAcquisitionType": "2D",
      "MagneticFieldStrength": 3.0,
      "Manufacturer": "SIEMENS",
      "ManufacturerModelName": "Prisma_fit",
      "Modality": "MR",
      "NumberOfAverages": 1.0,
      "NumberOfPhaseEncodingSteps": 104,
      "PercentPhaseFieldOfView": 100.0,
      "PercentSampling": 100.0,
      "PerformedProcedureStepStartTime": "145356.001000",
      "PhotometricInterpretation": "MONOCHROME2",
      "PixelBandwidth": 2290.0,
      "PixelRepresentation": 0,
      "PixelSpacing": [2.0, 2.0],
      "ProtocolName": "func_task-mario3_run-04",
      "RepetitionTime": 1490.0,
      "Rows": 832,
      "SAR": 0.04440023825155,
      "SamplesPerPixel": 1,
      "ScanOptions": "FS",
      "ScanningSequence": "EP",
      "SequenceName": "epfid2d1_104",
      "SequenceVariant": [
        "SK",
        "SS"
],
      "SeriesDescription": "func_task-mario3_run-04",
      "SeriesNumber": 19,
      "SeriesTime": "161801.246000",
      "SliceLocation": -53.390975476559,
      "SliceThickness": 2.0,
      "SmallestImagePixelValue": 0,
      "SoftwareVersions": "syngo MR E11",
      "SpacingBetweenSlices": 2.000000028934,
      "SpecificCharacterSet": "ISO_IR 100",
      "StudyID": "1",
      "StudyTime": "145355.839000",
      "TransmitCoilName": "Body",
      "VariableFlipAngleFlag": "N",
      "WindowCenterWidthExplanation": "Algo1",
      "dBdt": 0.0},
    "slices": {}
  },
  "time": {
    "samples": {
      "AcquisitionNumber": [1, 2, 3, 4, 5, 6, 7, 8, 9, 10, 11, 12, 13, 14, 15, 16, 17, 18, 19, 20, 21, 22, 23, 24, 25, 26, 27, 28, 29, 30, 31, 32, 33, 34, 35, 36, 37, 38, 39, 40, 41, 42, 43, 44, 45, 46, 47, 48, 49, 50, 51, 52, 53, 54, 55, 56, 57, 58, 59, 60, 61, 62, 63, 64, 65, 66, 67, 68, 69, 70, 71, 72, 73, 74, 75, 76, 77, 78, 79, 80, 81, 82, 83, 84, 85, 86, 87, 88, 89, 90, 91, 92, 93, 94, 95, 96, 97, 98, 99, 100, 101, 102, 103, 104, 105, 106, 107, 108, 109, 110, 111, 112, 113, 114, 115, 116, 117, 118, 119, 120, 121, 122, 123, 124, 125, 126, 127, 128, 129, 130, 131, 132, 133, 134, 135, 136, 137, 138, 139, 140, 141, 142, 143, 144, 145, 146, 147, 148, 149, 150, 151, 152, 153, 154, 155, 156, 157, 158, 159, 160, 161, 162, 163, 164, 165, 166, 167, 168, 169, 170, 171, 172, 173, 174, 175, 176, 177, 178, 179, 180, 181, 182, 183, 184, 185, 186, 187, 188, 189, 190, 191, 192, 193, 194, 195, 196, 197, 198, 199, 200, 201, 202, 203, 204, 205, 206, 207, 208, 209, 210, 211, 212, 213, 214, 215, 216, 217, 218, 219, 220, 221, 222, 223, 224, 225, 226, 227, 228, 229, 230, 231, 232, 233, 234, 235, 236, 237, 238, 239, 240, 241, 242, 243, 244, 245, 246, 247, 248, 249, 250, 251, 252, 253, 254, 255, 256, 257, 258, 259, 260, 261, 262, 263, 264, 265, 266, 267, 268, 269, 270, 271, 272, 273, 274, 275, 276, 277, 278, 279, 280, 281, 282, 283, 284, 285, 286, 287, 288, 289, 290, 291, 292, 293, 294, 295, 296, 297, 298, 299, 300, 301, 302, 303, 304, 305, 306, 307, 308, 309, 310, 311, 312, 313, 314, 315, 316, 317, 318, 319, 320, 321, 322, 323, 324, 325, 326, 327, 328],
      "AcquisitionTime": ["161638.545000", "161640.035000", "161641.525000", "161643.015000", "161644.505000", "161645.995000", "161647.485000", "161648.975000", "161650.465000", "161651.955000", "161653.445000", "161654.935000", "161656.425000", "161657.915000", "161659.405000", "161700.895000", "161702.385000", "161703.875000", "161705.365000", "161706.855000", "161708.345000", "161709.835000", "161711.325000", "161712.815000", "161714.305000", "161715.795000", "161717.285000", "161718.775000", "161720.265000", "161721.755000", "161723.245000", "161724.735000", "161726.225000", "161727.715000", "161729.205000", "161730.695000", "161732.185000", "161733.675000", "161735.165000", "161736.655000", "161738.145000", "161739.635000", "161741.125000", "161742.615000", "161744.105000", "161745.595000", "161747.085000", "161748.575000", "161750.065000", "161751.555000", "161753.045000", "161754.535000", "161756.025000", "161757.515000", "161759.005000", "161800.495000", "161801.985000", "161803.475000", "161804.965000", "161806.455000", "161807.945000", "161809.435000", "161810.925000", "161812.415000", "161813.905000", "161815.395000", "161816.885000", "161818.375000", "161819.865000", "161821.355000", "161822.845000", "161824.335000", "161825.825000", "161827.315000", "161828.805000", "161830.295000", "161831.785000", "161833.275000", "161834.765000", "161836.255000", "161837.745000", "161839.235000", "161840.725000", "161842.215000", "161843.705000", "161845.195000", "161846.685000", "161848.175000", "161849.665000", "161851.155000", "161852.645000", "161854.135000", "161855.625000", "161857.115000", "161858.605000", "161900.095000", "161901.585000", "161903.075000", "161904.565000", "161906.055000", "161907.545000", "161909.035000", "161910.525000", "161912.015000", "161913.505000", "161914.995000", "161916.485000", "161917.975000", "161919.465000", "161920.955000", "161922.445000", "161923.935000", "161925.425000", "161926.915000", "161928.405000", "161929.895000", "161931.385000", "161932.875000", "161934.365000", "161935.855000", "161937.345000", "161938.835000", "161940.325000", "161941.815000", "161943.305000", "161944.795000", "161946.285000", "161947.775000", "161949.265000", "161950.755000", "161952.245000", "161953.735000", "161955.225000", "161956.715000", "161958.205000", "161959.695000", "162001.185000", "162002.675000", "162004.165000", "162005.655000", "162007.145000", "162008.635000", "162010.125000", "162011.615000", "162013.105000", "162014.595000", "162016.085000", "162017.575000", "162019.065000", "162020.555000", "162022.045000", "162023.535000", "162025.025000", "162026.515000", "162028.005000", "162029.495000", "162030.985000", "162032.475000", "162033.965000", "162035.455000", "162036.945000", "162038.435000", "162039.925000", "162041.415000", "162042.905000", "162044.395000", "162045.885000", "162047.375000", "162048.865000", "162050.355000", "162051.845000", "162053.335000", "162054.825000", "162056.315000", "162057.805000", "162059.295000", "162100.785000", "162102.275000", "162103.765000", "162105.255000", "162106.745000", "162108.235000", "162109.725000", "162111.215000", "162112.705000", "162114.195000", "162115.685000", "162117.175000", "162118.665000", "162120.155000", "162121.645000", "162123.135000", "162124.625000", "162126.115000", "162127.605000", "162129.095000", "162130.585000", "162132.075000", "162133.565000", "162135.055000", "162136.545000", "162138.035000", "162139.525000", "162141.015000", "162142.505000", "162143.995000", "162145.485000", "162146.975000", "162148.465000", "162149.955000", "162151.445000", "162152.935000", "162154.425000", "162155.915000", "162157.405000", "162158.895000", "162200.385000", "162201.875000", "162203.365000", "162204.855000", "162206.345000", "162207.835000", "162209.325000", "162210.815000", "162212.305000", "162213.795000", "162215.285000", "162216.775000", "162218.265000", "162219.755000", "162221.245000", "162222.735000", "162224.225000", "162225.715000", "162227.205000", "162228.695000", "162230.185000", "162231.675000", "162233.165000", "162234.655000", "162236.145000", "162237.635000", "162239.125000", "162240.615000", "162242.105000", "162243.595000", "162245.085000", "162246.575000", "162248.065000", "162249.555000", "162251.045000", "162252.535000", "162254.025000", "162255.515000", "162257.005000", "162258.495000", "162259.985000", "162301.475000", "162302.965000", "162304.455000", "162305.945000", "162307.435000", "162308.925000", "162310.415000", "162311.905000", "162313.395000", "162314.885000", "162316.375000", "162317.865000", "162319.355000", "162320.845000", "162322.335000", "162323.825000", "162325.315000", "162326.805000", "162328.295000", "162329.785000", "162331.275000", "162332.765000", "162334.255000", "162335.745000", "162337.235000", "162338.725000", "162340.215000", "162341.705000", "162343.195000", "162344.685000", "162346.175000", "162347.665000", "162349.155000", "162350.645000", "162352.135000", "162353.625000", "162355.115000", "162356.605000", "162358.095000", "162359.585000", "162401.075000", "162402.565000", "162404.055000", "162405.545000", "162407.035000", "162408.525000", "162410.015000", "162411.505000", "162412.995000", "162414.485000", "162415.975000", "162417.465000", "162418.955000", "162420.445000", "162421.935000", "162423.425000", "162424.915000", "162426.405000", "162427.895000", "162429.385000", "162430.875000", "162432.365000", "162433.855000", "162435.345000", "162436.835000", "162438.325000", "162439.815000", "162441.305000", "162442.795000", "162444.285000", "162445.775000"],
      "ContentTime": ["161801.250000", "161801.253000", "161801.257000", "161801.260000", "161801.264000", "161801.267000", "161801.270000", "161801.274000", "161801.277000", "161801.280000", "161801.295000", "161801.299000", "161801.302000", "161801.305000", "161801.309000", "161801.312000", "161801.316000", "161801.319000", "161801.322000", "161801.326000", "161801.329000", "161801.332000", "161801.336000", "161801.339000", "161801.342000", "161801.346000", "161801.349000", "161801.352000", "161801.356000", "161801.359000", "161801.362000", "161801.366000", "161801.369000", "161801.372000", "161821.211000", "161821.215000", "161821.218000", "161821.222000", "161821.225000", "161821.228000", "161821.232000", "161821.235000", "161821.238000", "161821.242000", "161821.245000", "161821.248000", "161821.252000", "161821.255000", "161821.258000", "161821.262000", "161821.265000", "161821.269000", "161821.272000", "161821.275000", "161841.211000", "161841.215000", "161841.218000", "161841.222000", "161841.225000", "161841.229000", "161841.232000", "161841.236000", "161841.239000", "161841.242000", "161841.246000", "161841.249000", "161841.253000", "161841.256000", "161841.259000", "161841.263000", "161841.266000", "161841.269000", "161841.273000", "161841.276000", "161901.211000", "161901.215000", "161901.218000", "161901.237000", "161901.240000", "161901.243000", "161901.247000", "161901.250000", "161901.254000", "161901.257000", "161901.260000", "161901.264000", "161901.267000", "161901.277000", "161901.280000", "161901.284000", "161901.287000", "161901.290000", "161901.294000", "161901.297000", "161941.210000", "161941.214000", "161941.217000", "161941.221000", "161941.224000", "161941.227000", "161941.231000", "161941.234000", "161941.237000", "161941.241000", "161941.244000", "161941.248000", "161941.251000", "161941.254000", "161941.258000", "161941.261000", "161941.264000", "161941.268000", "161941.271000", "161941.274000", "161941.278000", "161941.281000", "161941.284000", "161941.288000", "161941.291000", "161941.294000", "161941.298000", "161941.301000", "162021.211000", "162021.215000", "162021.218000", "162021.222000", "162021.225000", "162021.229000", "162021.232000", "162021.235000", "162021.239000", "162021.243000", "162021.247000", "162021.250000", "162021.254000", "162021.257000", "162021.260000", "162021.264000", "162021.267000", "162021.271000", "162021.274000", "162021.277000", "162021.281000", "162021.284000", "162021.288000", "162021.291000", "162021.295000", "162021.298000", "162101.211000", "162101.215000", "162101.218000", "162101.222000", "162101.225000", "162101.229000", "162101.232000", "162101.235000", "162101.239000", "162101.242000", "162101.245000", "162101.249000", "162101.252000", "162101.255000", "162101.259000", "162101.262000", "162101.265000", "162101.269000", "162101.272000", "162101.275000", "162101.279000", "162101.282000", "162101.285000", "162101.289000", "162101.292000", "162101.295000", "162101.299000", "162141.211000", "162141.215000", "162141.218000", "162141.222000", "162141.225000", "162141.228000", "162141.232000", "162141.235000", "162141.239000", "162141.242000", "162141.245000", "162141.249000", "162141.252000", "162141.255000", "162141.259000", "162141.262000", "162141.265000", "162141.269000", "162141.273000", "162141.276000", "162141.279000", "162141.283000", "162141.286000", "162141.289000", "162141.293000", "162141.296000", "162141.300000", "162221.211000", "162221.215000", "162221.218000", "162221.222000", "162221.225000", "162221.228000", "162221.232000", "162221.235000", "162221.239000", "162221.242000", "162221.245000", "162221.249000", "162221.262000", "162221.265000", "162221.269000", "162221.272000", "162221.276000", "162221.279000", "162221.282000", "162221.286000", "162221.289000", "162221.292000", "162221.296000", "162221.299000", "162221.302000", "162221.306000", "162221.309000", "162301.211000", "162301.215000", "162301.218000", "162301.222000", "162301.225000", "162301.229000", "162301.232000", "162301.236000", "162301.239000", "162301.242000", "162301.250000", "162301.253000", "162301.257000", "162301.260000", "162301.263000", "162301.267000", "162301.270000", "162301.274000", "162301.277000", "162301.280000", "162301.284000", "162301.287000", "162301.290000", "162301.294000", "162301.297000", "162301.301000", "162301.304000", "162341.212000", "162341.215000", "162341.219000", "162341.222000", "162341.225000", "162341.231000", "162341.235000", "162341.238000", "162341.241000", "162341.245000", "162341.248000", "162341.251000", "162341.255000", "162341.258000", "162341.262000", "162341.265000", "162341.268000", "162341.272000", "162341.285000", "162341.288000", "162341.292000", "162341.295000", "162341.298000", "162341.302000", "162341.305000", "162341.308000", "162341.312000", "162421.210000", "162421.214000", "162421.218000", "162421.221000", "162421.225000", "162421.228000", "162421.231000", "162421.235000", "162421.238000", "162421.241000", "162421.245000", "162421.248000", "162421.253000", "162421.256000", "162421.260000", "162421.263000", "162421.267000", "162421.271000", "162421.275000", "162421.278000", "162421.282000", "162421.286000", "162421.289000", "162421.293000", "162421.296000", "162421.300000", "162449.201000", "162449.205000", "162449.209000", "162449.212000", "162449.216000", "162449.219000", "162449.222000", "162449.226000", "162449.229000", "162449.233000", "162449.236000", "162449.240000", "162449.243000", "162449.246000", "162449.250000", "162449.253000", "162449.257000", "162449.260000", "162449.264000"],
      "InstanceCreationTime": ["161801.250000", "161801.253000", "161801.257000", "161801.260000", "161801.264000", "161801.267000", "161801.270000", "161801.274000", "161801.277000", "161801.280000", "161801.295000", "161801.299000", "161801.302000", "161801.305000", "161801.309000", "161801.312000", "161801.316000", "161801.319000", "161801.322000", "161801.326000", "161801.329000", "161801.332000", "161801.336000", "161801.339000", "161801.342000", "161801.346000", "161801.349000", "161801.352000", "161801.356000", "161801.359000", "161801.362000", "161801.366000", "161801.369000", "161801.372000", "161821.211000", "161821.215000", "161821.218000", "161821.222000", "161821.225000", "161821.228000", "161821.232000", "161821.235000", "161821.238000", "161821.242000", "161821.245000", "161821.248000", "161821.252000", "161821.255000", "161821.258000", "161821.262000", "161821.265000", "161821.269000", "161821.272000", "161821.275000", "161841.211000", "161841.215000", "161841.218000", "161841.222000", "161841.225000", "161841.229000", "161841.232000", "161841.236000", "161841.239000", "161841.242000", "161841.246000", "161841.249000", "161841.253000", "161841.256000", "161841.259000", "161841.263000", "161841.266000", "161841.269000", "161841.273000", "161841.276000", "161901.211000", "161901.215000", "161901.218000", "161901.237000", "161901.240000", "161901.243000", "161901.247000", "161901.250000", "161901.254000", "161901.257000", "161901.260000", "161901.264000", "161901.267000", "161901.277000", "161901.280000", "161901.284000", "161901.287000", "161901.290000", "161901.294000", "161901.297000", "161941.210000", "161941.214000", "161941.217000", "161941.221000", "161941.224000", "161941.227000", "161941.231000", "161941.234000", "161941.237000", "161941.241000", "161941.244000", "161941.248000", "161941.251000", "161941.254000", "161941.258000", "161941.261000", "161941.264000", "161941.268000", "161941.271000", "161941.274000", "161941.278000", "161941.281000", "161941.284000", "161941.288000", "161941.291000", "161941.294000", "161941.298000", "161941.301000", "162021.211000", "162021.215000", "162021.218000", "162021.222000", "162021.225000", "162021.229000", "162021.232000", "162021.235000", "162021.239000", "162021.243000", "162021.247000", "162021.250000", "162021.254000", "162021.257000", "162021.260000", "162021.264000", "162021.267000", "162021.271000", "162021.274000", "162021.277000", "162021.281000", "162021.284000", "162021.288000", "162021.291000", "162021.295000", "162021.298000", "162101.211000", "162101.215000", "162101.218000", "162101.222000", "162101.225000", "162101.229000", "162101.232000", "162101.235000", "162101.239000", "162101.242000", "162101.245000", "162101.249000", "162101.252000", "162101.255000", "162101.259000", "162101.262000", "162101.265000", "162101.269000", "162101.272000", "162101.275000", "162101.279000", "162101.282000", "162101.285000", "162101.289000", "162101.292000", "162101.295000", "162101.299000", "162141.211000", "162141.215000", "162141.218000", "162141.222000", "162141.225000", "162141.228000", "162141.232000", "162141.235000", "162141.239000", "162141.242000", "162141.245000", "162141.249000", "162141.252000", "162141.255000", "162141.259000", "162141.262000", "162141.265000", "162141.269000", "162141.273000", "162141.276000", "162141.279000", "162141.283000", "162141.286000", "162141.289000", "162141.293000", "162141.296000", "162141.300000", "162221.211000", "162221.215000", "162221.218000", "162221.222000", "162221.225000", "162221.228000", "162221.232000", "162221.235000", "162221.239000", "162221.242000", "162221.245000", "162221.249000", "162221.262000", "162221.265000", "162221.269000", "162221.272000", "162221.276000", "162221.279000", "162221.282000", "162221.286000", "162221.289000", "162221.292000", "162221.296000", "162221.299000", "162221.302000", "162221.306000", "162221.309000", "162301.211000", "162301.215000", "162301.218000", "162301.222000", "162301.225000", "162301.229000", "162301.232000", "162301.236000", "162301.239000", "162301.242000", "162301.250000", "162301.253000", "162301.257000", "162301.260000", "162301.263000", "162301.267000", "162301.270000", "162301.274000", "162301.277000", "162301.280000", "162301.284000", "162301.287000", "162301.290000", "162301.294000", "162301.297000", "162301.301000", "162301.304000", "162341.212000", "162341.215000", "162341.219000", "162341.222000", "162341.225000", "162341.231000", "162341.235000", "162341.238000", "162341.241000", "162341.245000", "162341.248000", "162341.251000", "162341.255000", "162341.258000", "162341.262000", "162341.265000", "162341.268000", "162341.272000", "162341.285000", "162341.288000", "162341.292000", "162341.295000", "162341.298000", "162341.302000", "162341.305000", "162341.308000", "162341.312000", "162421.210000", "162421.214000", "162421.218000", "162421.221000", "162421.225000", "162421.228000", "162421.231000", "162421.235000", "162421.238000", "162421.241000", "162421.245000", "162421.248000", "162421.253000", "162421.256000", "162421.260000", "162421.263000", "162421.267000", "162421.271000", "162421.275000", "162421.278000", "162421.282000", "162421.286000", "162421.289000", "162421.293000", "162421.296000", "162421.300000", "162449.201000", "162449.205000", "162449.209000", "162449.212000", "162449.216000", "162449.219000", "162449.222000", "162449.226000", "162449.229000", "162449.233000", "162449.236000", "162449.240000", "162449.243000", "162449.246000", "162449.250000", "162449.253000", "162449.257000", "162449.260000", "162449.264000"],
      "InstanceNumber": [1, 2, 3, 4, 5, 6, 7, 8, 9, 10, 11, 12, 13, 14, 15, 16, 17, 18, 19, 20, 21, 22, 23, 24, 25, 26, 27, 28, 29, 30, 31, 32, 33, 34, 35, 36, 37, 38, 39, 40, 41, 42, 43, 44, 45, 46, 47, 48, 49, 50, 51, 52, 53, 54, 55, 56, 57, 58, 59, 60, 61, 62, 63, 64, 65, 66, 67, 68, 69, 70, 71, 72, 73, 74, 75, 76, 77, 78, 79, 80, 81, 82, 83, 84, 85, 86, 87, 88, 89, 90, 91, 92, 93, 94, 95, 96, 97, 98, 99, 100, 101, 102, 103, 104, 105, 106, 107, 108, 109, 110, 111, 112, 113, 114, 115, 116, 117, 118, 119, 120, 121, 122, 123, 124, 125, 126, 127, 128, 129, 130, 131, 132, 133, 134, 135, 136, 137, 138, 139, 140, 141, 142, 143, 144, 145, 146, 147, 148, 149, 150, 151, 152, 153, 154, 155, 156, 157, 158, 159, 160, 161, 162, 163, 164, 165, 166, 167, 168, 169, 170, 171, 172, 173, 174, 175, 176, 177, 178, 179, 180, 181, 182, 183, 184, 185, 186, 187, 188, 189, 190, 191, 192, 193, 194, 195, 196, 197, 198, 199, 200, 201, 202, 203, 204, 205, 206, 207, 208, 209, 210, 211, 212, 213, 214, 215, 216, 217, 218, 219, 220, 221, 222, 223, 224, 225, 226, 227, 228, 229, 230, 231, 232, 233, 234, 235, 236, 237, 238, 239, 240, 241, 242, 243, 244, 245, 246, 247, 248, 249, 250, 251, 252, 253, 254, 255, 256, 257, 258, 259, 260, 261, 262, 263, 264, 265, 266, 267, 268, 269, 270, 271, 272, 273, 274, 275, 276, 277, 278, 279, 280, 281, 282, 283, 284, 285, 286, 287, 288, 289, 290, 291, 292, 293, 294, 295, 296, 297, 298, 299, 300, 301, 302, 303, 304, 305, 306, 307, 308, 309, 310, 311, 312, 313, 314, 315, 316, 317, 318, 319, 320, 321, 322, 323, 324, 325, 326, 327, 328],
      "LargestImagePixelValue": [47479, 46139, 45091, 45279, 44312, 45170, 44068, 45178, 44354, 44420, 44077, 43342, 43204, 43613, 43604, 44910, 43474, 44778, 45100, 43051, 44444, 43541, 45635, 44573, 43984, 44895, 45461, 43710, 43627, 44235, 44111, 43695, 45447, 46737, 43095, 43080, 44163, 42939, 43010, 43660, 42935, 42839, 43563, 43435, 43351, 43982, 43093, 42402, 43045, 42904, 42617, 42457, 45077, 44647, 43488, 45109, 42216, 42389, 41849, 42544, 42726, 42306, 42842, 42663, 42910, 43424, 42353, 43431, 43376, 43687, 43755, 44207, 43850, 44307, 44045, 44249, 44108, 43380, 43691, 43912, 43802, 43747, 43644, 43738, 44551, 43812, 43721, 43855, 43043, 43753, 43393, 43657, 43502, 43881, 43421, 43621, 43861, 46976, 45760, 45208, 45129, 45353, 42831, 42847, 43891, 42873, 42206, 42541, 42746, 45523, 45007, 44281, 43196, 42416, 43357, 41996, 43002, 42332, 44551, 44238, 43952, 42244, 42581, 42542, 43340, 42913, 43248, 43220, 43719, 43040, 42932, 44599, 42515, 42801, 43041, 43466, 43316, 43044, 43276, 43786, 42916, 42420, 42241, 43098, 42434, 43103, 42702, 42685, 42379, 44716, 44091, 43954, 42291, 41937, 42013, 42769, 42357, 42071, 42357, 42405, 41974, 42603, 42435, 42437, 41955, 42062, 42399, 42269, 42282, 41949, 45360, 42084, 42590, 42817, 42749, 42995, 43272, 43013, 42413, 42995, 41931, 43052, 43150, 42496, 42895, 42626, 43216, 42637, 42836, 42354, 42892, 43151, 42946, 43001, 43611, 44045, 43296, 43941, 43071, 43346, 44222, 46000, 43825, 43093, 45787, 45719, 44845, 44706, 46062, 44661, 43373, 43283, 43658, 43545, 43729, 42891, 43330, 44347, 43721, 43334, 43160, 43598, 43725, 42413, 43867, 43370, 44123, 44093, 43511, 43580, 42844, 42545, 42858, 42627, 42734, 43178, 42697, 42587, 42871, 43674, 43203, 44052, 43319, 43226, 42933, 42548, 42790, 43090, 42845, 42777, 42873, 43285, 42493, 43052, 42958, 42624, 42566, 43320, 42735, 42863, 43204, 42902, 43247, 43046, 43170, 43359, 43184, 43708, 42968, 42811, 43024, 43199, 43501, 43432, 43244, 43673, 43477, 43063, 42616, 43703, 43286, 43102, 43457, 43998, 43565, 43194, 43228, 43903, 42700, 43789, 43278, 43067, 43836, 43554, 43432, 43344, 43143, 43164, 43139, 42926, 42928, 43339, 43187, 42745, 42910, 43108, 43596, 44945, 46273, 44835, 44175, 44573, 43898, 43550, 43898, 42903, 43508, 43473, 43105, 42962, 43761, 42638, 42610, 42876, 43103, 43130, 43665, 43473],
