{
  "AcquisitionMatrixPE": 104,
  "AcquisitionNumber": 1,
  "AcquisitionTime": "15:40:13.742500",
  "BandwidthPerPixelPhaseEncode": 17.17,
  "BaseResolution": 104,
  "BodyPartExamined": "BRAIN",
  "CoilCombinationMethod": "Sum of Squares",
  "ConsistencyInfo": "N4_VE11C_LATEST_20160120",
  "ConversionSoftware": "dcm2niix",
  "ConversionSoftwareVersion": "v1.0.20220505",
  "DerivedVendorReportedEchoSpacing": 0.000560011,
  "DeviceSerialNumber": "167006",
  "DwellTime": 2.1e-06,
  "EchoTime": 0.037,
  "EchoTime1": 0.037,
  "EchoTime2": 0.001,
  "EchoTrainLength": 104,
  "EffectiveEchoSpacing": 0.000560011,
  "FlipAngle": 52,
  "HeudiconvVersion": "0.5.3.post811+g6206e14",
  "ImageComments": "Unaliased MB4/PE3/LB",
  "ImageOrientationPatientDICOM": [0.998222, 0.0142458, 0.057874, 0.0160298, 0.871069, -0.4909],
  "ImageOrientationText": "Tra>Cor(-29.5)>Sag(3.3)",
  "ImageType": [
    "ORIGINAL",
    "PRIMARY",
    "P",
    "MB",
    "ND",
    "MOSAIC",
    "PHASE"
],
  "ImagingFrequency": 123.26,
  "InPlanePhaseEncodingDirectionDICOM": "COL",
  "InstitutionAddress": "Chemin Queen-Mary 4565,Montreal,District,CA,H3W 1W5",
  "InstitutionName": "IUGM",
  "InstitutionalDepartmentName": "Department",
  "MRAcquisitionType": "2D",
  "MagneticFieldStrength": 3,
  "Manufacturer": "Siemens",
  "ManufacturersModelName": "Prisma_fit",
  "MatrixCoilMode": "SENSE",
  "Modality": "MR",
  "MultibandAccelerationFactor": 4,
  "PartialFourier": 1,
  "PatientPosition": "HFS",
  "PercentPhaseFOV": 100,
  "PercentSampling": 100,
  "PhaseEncodingDirection": "j",
  "PhaseEncodingSteps": 104,
  "PhaseResolution": 1,
  "PixelBandwidth": 2290,
  "ProcedureStepDescription": "games^mario3",
  "ProtocolName": "func_task-mario3_run-01",
  "PulseSequenceDetails": "%CustomerSeq%\\cmrr_mbep2d_bold",
  "ReceiveCoilActiveElements": "HC1-7;NC1,2",
  "ReceiveCoilName": "HeadNeck_64",
  "ReconMatrixPE": 104,
  "RepetitionTime": 1.49,
  "SAR": 0.0444002,
  "ScanOptions": "FS",
  "ScanningSequence": "EP",
  "SequenceName": "epfid2d1_104",
  "SequenceVariant": "SK\\SS",
  "SeriesDescription": "func_task-mario3_run-01",
  "SeriesNumber": 11,
  "ShimSetting": [618, -7192, -8865, 262, 5, -162, -11, 45],
  "SliceThickness": 2,
  "SliceTiming": [0, 0.7825, 0.0975, 0.88, 0.195, 0.98, 0.2925, 1.0775, 0.39, 1.175, 0.49, 1.2725, 0.5875, 1.37, 0.685, 0, 0.7825, 0.0975, 0.88, 0.195, 0.98, 0.2925, 1.0775, 0.39, 1.175, 0.49, 1.2725, 0.5875, 1.37, 0.685, 0, 0.7825, 0.0975, 0.88, 0.195, 0.98, 0.2925, 1.0775, 0.39, 1.175, 0.49, 1.2725, 0.5875, 1.37, 0.685, 0, 0.7825, 0.0975, 0.88, 0.195, 0.98, 0.2925, 1.0775, 0.39, 1.175, 0.49, 1.2725, 0.5875, 1.37, 0.685],
  "SoftwareVersions": "syngo MR E11",
  "SpacingBetweenSlices": 2,
  "StationName": "MRC35049",
  "TaskName": "mario3",
  "TotalReadoutTime": 0.0576811,
  "TxRefAmp": 251.275,
  "WipMemBlock": "d3cfe07e-66f1-4bb6-aeb2-0e73cc6327ba||Sequence: R017 ve11c/master r/75a17815+; Jun 28 2022 16:32:11 by eja",
  "dcmmeta_affine": [
    [-1.9964444637298584, 0.03205959126353264, 0.11481092870235443, 102.78025817871094],
    [-0.028491513803601265, 1.7421371936798096, -0.981909453868866, -50.029693603515625],
    [0.11574799567461014, 0.9817994236946106, 1.7385834455490112, -96.4617919921875],
    [0.0, 0.0, 0.0, 1.0]
],
  "dcmmeta_reorient_transform": [
    [0.0, -1.0, 0.0, 103.0],
    [1.0, 0.0, 0.0, 0.0],
    [0.0, 0.0, 1.0, 0.0],
    [0.0, 0.0, 0.0, 1.0]
],
  "dcmmeta_shape": [104, 104, 60, 510],
  "dcmmeta_slice_dim": 2,
  "dcmmeta_version": 0.6,
  "global": {
    "const": {
      "AcquisitionMatrix": [104, 0, 0, 104],
      "AngioFlag": "N",
      "BitsAllocated": 16,
      "BitsStored": 16,
      "BodyPartExamined": "BRAIN",
      "Columns": 832,
      "EchoNumbers": 1,
      "EchoTime": 37.0,
      "EchoTrainLength": 104,
      "FlipAngle": 52.0,
      "HighBit": 15,
      "ImageOrientationPatient": [0.99822224910146, 0.01424575704167, 0.05787399938779, 0.01602979475898, 0.87106860813527, -0.4908997103292],
      "ImagePositionPatient": [-844.45788636301, -773.91929749371, 319.90626342095],
      "ImageType": [
        "ORIGINAL",
        "PRIMARY",
        "P",
        "MB",
        "ND",
        "MOSAIC"
],
      "ImagedNucleus": "1H",
      "ImagingFrequency": 123.260244,
      "InPlanePhaseEncodingDirection": "COL",
      "LargestImagePixelValue": 4095,
      "MRAcquisitionType": "2D",
      "MagneticFieldStrength": 3.0,
      "Manufacturer": "SIEMENS",
      "ManufacturerModelName": "Prisma_fit",
      "Modality": "MR",
      "NumberOfAverages": 1.0,
      "NumberOfPhaseEncodingSteps": 104,
      "PercentPhaseFieldOfView": 100.0,
      "PercentSampling": 100.0,
      "PerformedProcedureStepStartTime": "145356.001000",
      "PhotometricInterpretation": "MONOCHROME2",
      "PixelBandwidth": 2290.0,
      "PixelRepresentation": 0,
      "PixelSpacing": [2.0, 2.0],
      "ProtocolName": "func_task-mario3_run-01",
      "RepetitionTime": 1490.0,
      "RescaleIntercept": -4096.0,
      "RescaleSlope": 2.0,
      "RescaleType": "US",
      "Rows": 832,
      "SAR": 0.04440023825155,
      "SamplesPerPixel": 1,
      "ScanOptions": "FS",
      "ScanningSequence": "EP",
      "SequenceName": "epfid2d1_104",
      "SequenceVariant": [
        "SK",
        "SS"
],
      "SeriesDescription": "func_task-mario3_run-01",
      "SeriesNumber": 11,
      "SeriesTime": "154141.457000",
      "SliceLocation": -53.390975476559,
      "SliceThickness": 2.0,
      "SmallestImagePixelValue": 0,
      "SoftwareVersions": "syngo MR E11",
      "SpacingBetweenSlices": 2.000000028934,
      "SpecificCharacterSet": "ISO_IR 100",
      "StudyID": "1",
      "StudyTime": "145355.839000",
      "TransmitCoilName": "Body",
      "VariableFlipAngleFlag": "N",
      "WindowCenterWidthExplanation": "Algo1",
      "dBdt": 0.0},
    "slices": {}
  },
  "time": {
    "samples": {
      "AcquisitionNumber": [1, 2, 3, 4, 5, 6, 7, 8, 9, 10, 11, 12, 13, 14, 15, 16, 17, 18, 19, 20, 21, 22, 23, 24, 25, 26, 27, 28, 29, 30, 31, 32, 33, 34, 35, 36, 37, 38, 39, 40, 41, 42, 43, 44, 45, 46, 47, 48, 49, 50, 51, 52, 53, 54, 55, 56, 57, 58, 59, 60, 61, 62, 63, 64, 65, 66, 67, 68, 69, 70, 71, 72, 73, 74, 75, 76, 77, 78, 79, 80, 81, 82, 83, 84, 85, 86, 87, 88, 89, 90, 91, 92, 93, 94, 95, 96, 97, 98, 99, 100, 101, 102, 103, 104, 105, 106, 107, 108, 109, 110, 111, 112, 113, 114, 115, 116, 117, 118, 119, 120, 121, 122, 123, 124, 125, 126, 127, 128, 129, 130, 131, 132, 133, 134, 135, 136, 137, 138, 139, 140, 141, 142, 143, 144, 145, 146, 147, 148, 149, 150, 151, 152, 153, 154, 155, 156, 157, 158, 159, 160, 161, 162, 163, 164, 165, 166, 167, 168, 169, 170, 171, 172, 173, 174, 175, 176, 177, 178, 179, 180, 181, 182, 183, 184, 185, 186, 187, 188, 189, 190, 191, 192, 193, 194, 195, 196, 197, 198, 199, 200, 201, 202, 203, 204, 205, 206, 207, 208, 209, 210, 211, 212, 213, 214, 215, 216, 217, 218, 219, 220, 221, 222, 223, 224, 225, 226, 227, 228, 229, 230, 231, 232, 233, 234, 235, 236, 237, 238, 239, 240, 241, 242, 243, 244, 245, 246, 247, 248, 249, 250, 251, 252, 253, 254, 255, 256, 257, 258, 259, 260, 261, 262, 263, 264, 265, 266, 267, 268, 269, 270, 271, 272, 273, 274, 275, 276, 277, 278, 279, 280, 281, 282, 283, 284, 285, 286, 287, 288, 289, 290, 291, 292, 293, 294, 295, 296, 297, 298, 299, 300, 301, 302, 303, 304, 305, 306, 307, 308, 309, 310, 311, 312, 313, 314, 315, 316, 317, 318, 319, 320, 321, 322, 323, 324, 325, 326, 327, 328, 329, 330, 331, 332, 333, 334, 335, 336, 337, 338, 339, 340, 341, 342, 343, 344, 345, 346, 347, 348, 349, 350, 351, 352, 353, 354, 355, 356, 357, 358, 359, 360, 361, 362, 363, 364, 365, 366, 367, 368, 369, 370, 371, 372, 373, 374, 375, 376, 377, 378, 379, 380, 381, 382, 383, 384, 385, 386, 387, 388, 389, 390, 391, 392, 393, 394, 395, 396, 397, 398, 399, 400, 401, 402, 403, 404, 405, 406, 407, 408, 409, 410, 411, 412, 413, 414, 415, 416, 417, 418, 419, 420, 421, 422, 423, 424, 425, 426, 427, 428, 429, 430, 431, 432, 433, 434, 435, 436, 437, 438, 439, 440, 441, 442, 443, 444, 445, 446, 447, 448, 449, 450, 451, 452, 453, 454, 455, 456, 457, 458, 459, 460, 461, 462, 463, 464, 465, 466, 467, 468, 469, 470, 471, 472, 473, 474, 475, 476, 477, 478, 479, 480, 481, 482, 483, 484, 485, 486, 487, 488, 489, 490, 491, 492, 493, 494, 495, 496, 497, 498, 499, 500, 501, 502, 503, 504, 505, 506, 507, 508, 509, 510],
      "AcquisitionTime": ["154013.742500", "154015.232500", "154016.722500", "154018.212500", "154019.702500", "154021.192500", "154022.682500", "154024.172500", "154025.662500", "154027.152500", "154028.642500", "154030.132500", "154031.622500", "154033.112500", "154034.602500", "154036.092500", "154037.582500", "154039.072500", "154040.562500", "154042.052500", "154043.542500", "154045.032500", "154046.522500", "154048.012500", "154049.502500", "154050.992500", "154052.482500", "154053.972500", "154055.462500", "154056.952500", "154058.442500", "154059.932500", "154101.422500", "154102.912500", "154104.402500", "154105.892500", "154107.382500", "154108.872500", "154110.362500", "154111.852500", "154113.342500", "154114.832500", "154116.322500", "154117.812500", "154119.302500", "154120.792500", "154122.282500", "154123.772500", "154125.262500", "154126.752500", "154128.242500", "154129.732500", "154131.222500", "154132.712500", "154134.202500", "154135.692500", "154137.182500", "154138.672500", "154140.162500", "154141.652500", "154143.142500", "154144.632500", "154146.122500", "154147.612500", "154149.102500", "154150.592500", "154152.082500", "154153.572500", "154155.062500", "154156.552500", "154158.042500", "154159.532500", "154201.022500", "154202.512500", "154204.002500", "154205.492500", "154206.982500", "154208.472500", "154209.962500", "154211.452500", "154212.942500", "154214.432500", "154215.922500", "154217.412500", "154218.902500", "154220.392500", "154221.882500", "154223.372500", "154224.862500", "154226.352500", "154227.842500", "154229.332500", "154230.822500", "154232.312500", "154233.802500", "154235.292500", "154236.782500", "154238.272500", "154239.762500", "154241.252500", "154242.742500", "154244.232500", "154245.722500", "154247.212500", "154248.702500", "154250.192500", "154251.682500", "154253.172500", "154254.662500", "154256.152500", "154257.642500", "154259.132500", "154300.622500", "154302.112500", "154303.602500", "154305.092500", "154306.582500", "154308.072500", "154309.562500", "154311.052500", "154312.542500", "154314.032500", "154315.522500", "154317.012500", "154318.502500", "154319.992500", "154321.482500", "154322.972500", "154324.462500", "154325.952500", "154327.442500", "154328.932500", "154330.422500", "154331.912500", "154333.402500", "154334.892500", "154336.382500", "154337.872500", "154339.362500", "154340.852500", "154342.342500", "154343.832500", "154345.322500", "154346.812500", "154348.302500", "154349.792500", "154351.282500", "154352.772500", "154354.262500", "154355.752500", "154357.242500", "154358.732500", "154400.222500", "154401.712500", "154403.202500", "154404.692500", "154406.182500", "154407.672500", "154409.162500", "154410.652500", "154412.142500", "154413.632500", "154415.122500", "154416.612500", "154418.102500", "154419.592500", "154421.082500", "154422.572500", "154424.062500", "154425.552500", "154427.042500", "154428.532500", "154430.022500", "154431.512500", "154433.002500", "154434.492500", "154435.982500", "154437.472500", "154438.962500", "154440.452500", "154441.942500", "154443.432500", "154444.922500", "154446.412500", "154447.902500", "154449.392500", "154450.882500", "154452.372500", "154453.862500", "154455.352500", "154456.842500", "154458.332500", "154459.822500", "154501.312500", "154502.802500", "154504.292500", "154505.782500", "154507.272500", "154508.762500", "154510.252500", "154511.742500", "154513.232500", "154514.722500", "154516.212500", "154517.702500", "154519.192500", "154520.682500", "154522.172500", "154523.662500", "154525.152500", "154526.642500", "154528.132500", "154529.622500", "154531.112500", "154532.602500", "154534.092500", "154535.582500", "154537.072500", "154538.562500", "154540.052500", "154541.542500", "154543.032500", "154544.522500", "154546.012500", "154547.502500", "154548.992500", "154550.482500", "154551.972500", "154553.462500", "154554.952500", "154556.442500", "154557.932500", "154559.422500", "154600.912500", "154602.402500", "154603.892500", "154605.382500", "154606.872500", "154608.362500", "154609.852500", "154611.342500", "154612.832500", "154614.322500", "154615.812500", "154617.302500", "154618.792500", "154620.282500", "154621.772500", "154623.262500", "154624.752500", "154626.242500", "154627.732500", "154629.222500", "154630.712500", "154632.202500", "154633.692500", "154635.182500", "154636.672500", "154638.162500", "154639.652500", "154641.142500", "154642.632500", "154644.122500", "154645.612500", "154647.102500", "154648.592500", "154650.082500", "154651.572500", "154653.062500", "154654.552500", "154656.042500", "154657.532500", "154659.022500", "154700.512500", "154702.002500", "154703.492500", "154704.982500", "154706.472500", "154707.962500", "154709.452500", "154710.942500", "154712.432500", "154713.922500", "154715.412500", "154716.902500", "154718.392500", "154719.882500", "154721.372500", "154722.862500", "154724.352500", "154725.842500", "154727.332500", "154728.822500", "154730.312500", "154731.802500", "154733.292500", "154734.782500", "154736.272500", "154737.762500", "154739.252500", "154740.742500", "154742.232500", "154743.722500", "154745.212500", "154746.702500", "154748.192500", "154749.682500", "154751.172500", "154752.662500", "154754.152500", "154755.642500", "154757.132500", "154758.622500", "154800.112500", "154801.602500", "154803.092500", "154804.582500", "154806.072500", "154807.562500", "154809.052500", "154810.542500", "154812.032500", "154813.522500", "154815.012500", "154816.502500", "154817.992500", "154819.482500", "154820.972500", "154822.462500", "154823.952500", "154825.442500", "154826.932500", "154828.422500", "154829.912500", "154831.402500", "154832.892500", "154834.382500", "154835.872500", "154837.362500", "154838.852500", "154840.342500", "154841.832500", "154843.322500", "154844.812500", "154846.302500", "154847.792500", "154849.282500", "154850.772500", "154852.262500", "154853.752500", "154855.242500", "154856.732500", "154858.222500", "154859.712500", "154901.202500", "154902.692500", "154904.182500", "154905.672500", "154907.162500", "154908.652500", "154910.142500", "154911.632500", "154913.122500", "154914.612500", "154916.102500", "154917.592500", "154919.082500", "154920.572500", "154922.062500", "154923.552500", "154925.042500", "154926.532500", "154928.022500", "154929.512500", "154931.002500", "154932.492500", "154933.982500", "154935.472500", "154936.962500", "154938.452500", "154939.942500", "154941.432500", "154942.922500", "154944.412500", "154945.902500", "154947.392500", "154948.882500", "154950.372500", "154951.862500", "154953.352500", "154954.842500", "154956.332500", "154957.822500", "154959.312500", "155000.802500", "155002.292500", "155003.782500", "155005.272500", "155006.762500", "155008.252500", "155009.742500", "155011.232500", "155012.722500", "155014.212500", "155015.702500", "155017.192500", "155018.682500", "155020.172500", "155021.662500", "155023.152500", "155024.642500", "155026.132500", "155027.622500", "155029.112500", "155030.602500", "155032.092500", "155033.582500", "155035.072500", "155036.562500", "155038.052500", "155039.542500", "155041.032500", "155042.522500", "155044.012500", "155045.502500", "155046.992500", "155048.482500", "155049.972500", "155051.462500", "155052.952500", "155054.442500", "155055.932500", "155057.422500", "155058.912500", "155100.402500", "155101.892500", "155103.382500", "155104.872500", "155106.362500", "155107.852500", "155109.342500", "155110.832500", "155112.322500", "155113.812500", "155115.302500", "155116.792500", "155118.282500", "155119.772500", "155121.262500", "155122.752500", "155124.242500", "155125.732500", "155127.222500", "155128.712500", "155130.202500", "155131.692500", "155133.182500", "155134.672500", "155136.162500", "155137.652500", "155139.142500", "155140.632500", "155142.122500", "155143.612500", "155145.102500", "155146.592500", "155148.082500", "155149.572500", "155151.062500", "155152.552500", "155154.042500", "155155.532500", "155157.022500", "155158.512500", "155200.002500", "155201.492500", "155202.982500", "155204.472500", "155205.962500", "155207.452500", "155208.942500", "155210.432500", "155211.922500", "155213.412500", "155214.902500", "155216.392500", "155217.882500", "155219.372500", "155220.862500", "155222.352500", "155223.842500", "155225.332500", "155226.822500", "155228.312500", "155229.802500", "155231.292500", "155232.782500", "155234.272500", "155235.762500", "155237.252500", "155238.742500", "155240.232500", "155241.722500", "155243.212500", "155244.702500", "155246.192500", "155247.682500", "155249.172500", "155250.662500", "155252.152500"],
      "ContentTime": ["154141.460000", "154141.464000", "154141.466000", "154141.469000", "154141.471000", "154141.485000", "154141.488000", "154141.491000", "154141.493000", "154141.497000", "154141.501000", "154141.505000", "154141.507000", "154141.510000", "154141.513000", "154141.516000", "154141.520000", "154141.522000", "154141.526000", "154141.530000", "154141.539000", "154141.542000", "154141.544000", "154141.550000", "154141.553000", "154141.556000", "154141.560000", "154141.563000", "154141.567000", "154141.571000", "154141.574000", "154141.577000", "154141.581000", "154141.585000", "154141.588000", "154141.592000", "154141.595000", "154141.598000", "154201.340000", "154201.344000", "154201.348000", "154201.350000", "154201.353000", "154201.373000", "154201.375000", "154201.378000", "154201.380000", "154201.383000", "154201.385000", "154201.388000", "154201.391000", "154201.393000", "154201.396000", "154201.398000", "154201.401000", "154201.403000", "154201.406000", "154201.408000", "154221.350000", "154221.352000", "154221.355000", "154221.358000", "154221.370000", "154221.372000", "154221.375000", "154221.377000", "154221.380000", "154221.382000", "154221.385000", "154221.387000", "154221.390000", "154221.392000", "154221.395000", "154221.398000", "154221.400000", "154221.403000", "154221.405000", "154221.408000", "154241.337000", "154241.340000", "154241.342000", "154241.345000", "154241.347000", "154241.350000", "154241.352000", "154241.355000", "154241.357000", "154241.360000", "154241.362000", "154241.365000", "154241.368000", "154241.370000", "154241.373000", "154241.375000", "154241.378000", "154241.380000", "154241.383000", "154241.385000", "154321.397000", "154321.400000", "154321.403000", "154321.405000", "154321.408000", "154321.421000", "154321.424000", "154321.426000", "154321.429000", "154321.431000", "154321.434000", "154321.437000", "154321.439000", "154321.442000", "154321.444000", "154321.447000", "154321.449000", "154321.452000", "154321.454000", "154321.457000", "154321.459000", "154321.462000", "154321.464000", "154321.467000", "154321.469000", "154321.472000", "154321.475000", "154341.309000", "154341.312000", "154341.314000", "154341.317000", "154341.320000", "154341.322000", "154341.325000", "154341.327000", "154341.330000", "154341.332000", "154341.335000", "154341.337000", "154341.340000", "154421.403000", "154421.405000", "154421.408000", "154421.411000", "154421.413000", "154421.416000", "154421.419000", "154421.421000", "154421.424000", "154421.426000", "154421.429000", "154421.431000", "154421.434000", "154421.437000", "154421.439000", "154421.442000", "154421.444000", "154421.447000", "154421.449000", "154421.452000", "154421.454000", "154421.457000", "154421.460000", "154421.462000", "154421.465000", "154421.467000", "154421.470000", "154502.050000", "154502.053000", "154502.055000", "154502.058000", "154502.061000", "154502.063000", "154502.066000", "154502.068000", "154502.084000", "154502.087000", "154502.089000", "154502.092000", "154502.094000", "154502.097000", "154502.100000", "154502.102000", "154502.105000", "154502.107000", "154502.110000", "154502.112000", "154502.115000", "154502.117000", "154502.120000", "154502.123000", "154502.125000", "154502.128000", "154502.130000", "154541.373000", "154541.376000", "154541.379000", "154541.381000", "154541.384000", "154541.386000", "154541.389000", "154541.392000", "154541.394000", "154541.397000", "154541.399000", "154541.402000", "154541.404000", "154541.407000", "154541.417000", "154541.420000", "154541.422000", "154541.425000", "154541.427000", "154541.430000", "154541.433000", "154541.435000", "154541.438000", "154541.440000", "154541.443000", "154541.445000", "154541.448000", "154621.386000", "154621.389000", "154621.391000", "154621.394000", "154621.396000", "154621.399000", "154621.402000", "154621.404000", "154621.407000", "154621.409000", "154621.412000", "154621.414000", "154621.417000", "154621.419000", "154621.422000", "154621.424000", "154621.427000", "154621.430000", "154621.432000", "154621.435000", "154621.437000", "154621.440000", "154621.443000", "154621.445000", "154621.448000", "154621.450000", "154621.453000", "154701.387000", "154701.390000", "154701.393000", "154701.395000", "154701.398000", "154701.400000", "154701.403000", "154701.405000", "154701.408000", "154701.411000", "154701.413000", "154701.416000", "154701.418000", "154701.421000", "154701.423000", "154701.426000", "154701.429000", "154701.431000", "154701.434000", "154701.436000", "154701.439000", "154701.442000", "154701.444000", "154701.456000", "154701.458000", "154701.462000", "154741.362000", "154741.365000", "154741.367000", "154741.370000", "154741.373000", "154741.375000", "154741.378000", "154741.381000", "154741.384000", "154741.387000", "154741.389000", "154741.392000", "154741.395000", "154741.397000", "154741.400000", "154741.402000", "154741.405000", "154741.408000", "154741.410000", "154741.413000", "154741.415000", "154741.418000", "154741.420000", "154741.423000", "154741.426000", "154741.428000", "154741.431000", "154821.341000", "154821.344000", "154821.347000", "154821.349000", "154821.352000", "154821.355000", "154821.357000", "154821.360000", "154821.362000", "154821.365000", "154821.367000", "154821.370000", "154821.372000", "154821.375000", "154821.378000", "154821.380000", "154821.383000", "154821.385000", "154821.388000", "154821.390000", "154821.393000", "154821.395000", "154821.398000", "154821.400000", "154821.403000", "154821.406000", "154821.408000", "154901.373000", "154901.376000", "154901.378000", "154901.381000", "154901.383000", "154901.386000", "154901.388000", "154901.391000", "154901.394000", "154901.396000", "154901.399000", "154901.401000", "154901.404000", "154901.407000", "154901.409000", "154901.412000", "154901.415000", "154901.417000", "154901.420000", "154901.422000", "154901.425000", "154901.427000", "154901.430000", "154901.433000", "154901.435000", "154901.438000", "154901.440000", "154941.381000", "154941.384000", "154941.387000", "154941.389000", "154941.392000", "154941.394000", "154941.397000", "154941.400000", "154941.402000", "154941.405000", "154941.407000", "154941.410000", "154941.412000", "154941.415000", "154941.417000", "154941.420000", "154941.422000", "154941.425000", "154941.427000", "154941.430000", "154941.433000", "154941.435000", "154941.438000", "154941.440000", "154941.443000", "154941.445000", "154941.448000", "155021.384000", "155021.387000", "155021.389000", "155021.392000", "155021.395000", "155021.397000", "155021.400000", "155021.402000", "155021.405000", "155021.407000", "155021.410000", "155021.412000", "155021.415000", "155021.418000", "155021.420000", "155021.423000", "155021.425000", "155021.428000", "155021.430000", "155021.433000", "155021.435000", "155021.438000", "155021.440000", "155021.443000", "155021.446000", "155021.448000", "155021.451000", "155101.387000", "155101.390000", "155101.392000", "155101.395000", "155101.397000", "155101.400000", "155101.402000", "155101.405000", "155101.407000", "155101.410000", "155101.412000", "155101.415000", "155101.418000", "155101.420000", "155101.423000", "155101.425000", "155101.428000", "155101.431000", "155101.433000", "155101.436000", "155101.438000", "155101.441000", "155101.443000", "155101.446000", "155101.448000", "155101.451000", "155101.453000", "155141.389000", "155141.393000", "155141.395000", "155141.398000", "155141.401000", "155141.403000", "155141.407000", "155141.410000", "155141.412000", "155141.415000", "155141.418000", "155141.420000", "155141.423000", "155141.426000", "155141.429000", "155141.431000", "155141.434000", "155141.436000", "155141.439000", "155141.442000", "155141.444000", "155141.447000", "155141.449000", "155141.452000", "155141.454000", "155141.457000", "155221.370000", "155221.373000", "155221.375000", "155221.378000", "155221.380000", "155221.383000", "155221.386000", "155221.388000", "155221.391000", "155221.393000", "155221.396000", "155221.398000", "155221.401000", "155221.403000", "155221.406000", "155221.409000", "155221.411000", "155221.414000", "155221.416000", "155221.419000", "155221.421000", "155221.424000", "155221.426000", "155221.429000", "155221.432000", "155221.434000", "155221.437000", "155255.561000", "155255.564000", "155255.567000", "155255.570000", "155255.572000", "155255.575000", "155255.578000", "155255.580000", "155255.583000", "155255.585000", "155255.588000", "155255.591000", "155255.594000", "155255.597000", "155255.600000", "155255.602000", "155255.605000", "155255.608000", "155255.611000", "155255.614000", "155255.617000", "155255.619000", "155255.622000"],
