{
  "AcquisitionMatrixPE": 104,
  "AcquisitionNumber": 1,
  "AcquisitionTime": "16:16:38.545000",
  "BandwidthPerPixelPhaseEncode": 17.17,
  "BaseResolution": 104,
  "BodyPartExamined": "BRAIN",
  "CoilCombinationMethod": "Sum of Squares",
  "ConsistencyInfo": "N4_VE11C_LATEST_20160120",
  "ConversionSoftware": "dcm2niix",
  "ConversionSoftwareVersion": "v1.0.20220505",
  "DerivedVendorReportedEchoSpacing": 0.000560011,
  "DeviceSerialNumber": "167006",
  "DwellTime": 2.1e-06,
  "EchoTime": 0.037,
  "EchoTime1": 0.037,
  "EchoTime2": 0.001,
  "EchoTrainLength": 104,
  "EffectiveEchoSpacing": 0.000560011,
  "FlipAngle": 52,
  "HeudiconvVersion": "0.5.3.post811+g6206e14",
  "ImageComments": "Unaliased MB4/PE3/LB",
  "ImageOrientationPatientDICOM": [0.998222, 0.0142458, 0.057874, 0.0160298, 0.871069, -0.4909],
  "ImageOrientationText": "Tra>Cor(-29.5)>Sag(3.3)",
  "ImageType": [
    "ORIGINAL",
    "PRIMARY",
    "P",
    "MB",
    "ND",
    "MOSAIC",
    "PHASE"
],
  "ImagingFrequency": 123.26,
  "InPlanePhaseEncodingDirectionDICOM": "COL",
  "InstitutionAddress": "Chemin Queen-Mary 4565,Montreal,District,CA,H3W 1W5",
  "InstitutionName": "IUGM",
  "InstitutionalDepartmentName": "Department",
  "MRAcquisitionType": "2D",
  "MagneticFieldStrength": 3,
  "Manufacturer": "Siemens",
  "ManufacturersModelName": "Prisma_fit",
  "MatrixCoilMode": "SENSE",
  "Modality": "MR",
  "MultibandAccelerationFactor": 4,
  "PartialFourier": 1,
  "PatientPosition": "HFS",
  "PercentPhaseFOV": 100,
  "PercentSampling": 100,
  "PhaseEncodingDirection": "j",
  "PhaseEncodingSteps": 104,
  "PhaseResolution": 1,
  "PixelBandwidth": 2290,
  "ProcedureStepDescription": "games^mario3",
  "ProtocolName": "func_task-mario3_run-04",
  "PulseSequenceDetails": "%CustomerSeq%\\cmrr_mbep2d_bold",
  "ReceiveCoilActiveElements": "HC1-7;NC1,2",
  "ReceiveCoilName": "HeadNeck_64",
  "ReconMatrixPE": 104,
  "RepetitionTime": 1.49,
  "SAR": 0.0444002,
  "ScanOptions": "FS",
  "ScanningSequence": "EP",
  "SequenceName": "epfid2d1_104",
  "SequenceVariant": "SK\\SS",
  "SeriesDescription": "func_task-mario3_run-04",
  "SeriesNumber": 20,
  "ShimSetting": [618, -7192, -8865, 262, 5, -162, -11, 45],
  "SliceThickness": 2,
  "SliceTiming": [0, 0.7825, 0.0975, 0.88, 0.195, 0.98, 0.2925, 1.0775, 0.39, 1.175, 0.49, 1.2725, 0.5875, 1.37, 0.685, 0, 0.7825, 0.0975, 0.88, 0.195, 0.98, 0.2925, 1.0775, 0.39, 1.175, 0.49, 1.2725, 0.5875, 1.37, 0.685, 0, 0.7825, 0.0975, 0.88, 0.195, 0.98, 0.2925, 1.0775, 0.39, 1.175, 0.49, 1.2725, 0.5875, 1.37, 0.685, 0, 0.7825, 0.0975, 0.88, 0.195, 0.98, 0.2925, 1.0775, 0.39, 1.175, 0.49, 1.2725, 0.5875, 1.37, 0.685],
  "SoftwareVersions": "syngo MR E11",
  "SpacingBetweenSlices": 2,
  "StationName": "MRC35049",
  "TaskName": "mario3",
  "TotalReadoutTime": 0.0576811,
  "TxRefAmp": 251.275,
  "WipMemBlock": "dd127877-c2fb-4bf1-a90d-ae77b77651c1||Sequence: R017 ve11c/master r/75a17815+; Jun 28 2022 16:32:11 by eja",
  "dcmmeta_affine": [
    [-1.9964444637298584, 0.03205959126353264, 0.11481092870235443, 102.78025817871094],
    [-0.028491513803601265, 1.7421371936798096, -0.981909453868866, -50.029693603515625],
    [0.11574799567461014, 0.9817994236946106, 1.7385834455490112, -96.4617919921875],
    [0.0, 0.0, 0.0, 1.0]
],
  "dcmmeta_reorient_transform": [
    [0.0, -1.0, 0.0, 103.0],
    [1.0, 0.0, 0.0, 0.0],
    [0.0, 0.0, 1.0, 0.0],
    [0.0, 0.0, 0.0, 1.0]
],
  "dcmmeta_shape": [104, 104, 60, 328],
  "dcmmeta_slice_dim": 2,
  "dcmmeta_version": 0.6,
  "global": {
    "const": {
      "AcquisitionMatrix": [104, 0, 0, 104],
      "AngioFlag": "N",
      "BitsAllocated": 16,
      "BitsStored": 16,
      "BodyPartExamined": "BRAIN",
      "Columns": 832,
      "EchoNumbers": 1,
      "EchoTime": 37.0,
      "EchoTrainLength": 104,
      "FlipAngle": 52.0,
      "HighBit": 15,
      "ImageOrientationPatient": [0.99822224910146, 0.01424575704167, 0.05787399938779, 0.01602979475898, 0.87106860813527, -0.4908997103292],
      "ImagePositionPatient": [-844.45788636301, -773.91929749371, 319.90626342095],
      "ImageType": [
        "ORIGINAL",
        "PRIMARY",
        "P",
        "MB",
        "ND",
        "MOSAIC"
],
      "ImagedNucleus": "1H",
      "ImagingFrequency": 123.260268,
      "InPlanePhaseEncodingDirection": "COL",
      "LargestImagePixelValue": 4095,
      "MRAcquisitionType": "2D",
      "MagneticFieldStrength": 3.0,
      "Manufacturer": "SIEMENS",
      "ManufacturerModelName": "Prisma_fit",
      "Modality": "MR",
      "NumberOfAverages": 1.0,
      "NumberOfPhaseEncodingSteps": 104,
      "PercentPhaseFieldOfView": 100.0,
      "PercentSampling": 100.0,
      "PerformedProcedureStepStartTime": "145356.001000",
      "PhotometricInterpretation": "MONOCHROME2",
      "PixelBandwidth": 2290.0,
      "PixelRepresentation": 0,
      "PixelSpacing": [2.0, 2.0],
      "ProtocolName": "func_task-mario3_run-04",
      "RepetitionTime": 1490.0,
      "RescaleIntercept": -4096.0,
      "RescaleSlope": 2.0,
      "RescaleType": "US",
      "Rows": 832,
      "SAR": 0.04440023825155,
      "SamplesPerPixel": 1,
      "ScanOptions": "FS",
      "ScanningSequence": "EP",
      "SequenceName": "epfid2d1_104",
      "SequenceVariant": [
        "SK",
        "SS"
],
      "SeriesDescription": "func_task-mario3_run-04",
      "SeriesNumber": 20,
      "SeriesTime": "161801.428000",
      "SliceLocation": -53.390975476559,
      "SliceThickness": 2.0,
      "SmallestImagePixelValue": 0,
      "SoftwareVersions": "syngo MR E11",
      "SpacingBetweenSlices": 2.000000028934,
      "SpecificCharacterSet": "ISO_IR 100",
      "StudyID": "1",
      "StudyTime": "145355.839000",
      "TransmitCoilName": "Body",
      "VariableFlipAngleFlag": "N",
      "WindowCenterWidthExplanation": "Algo1",
      "dBdt": 0.0},
    "slices": {}
  },
  "time": {
    "samples": {
      "AcquisitionNumber": [1, 2, 3, 4, 5, 6, 7, 8, 9, 10, 11, 12, 13, 14, 15, 16, 17, 18, 19, 20, 21, 22, 23, 24, 25, 26, 27, 28, 29, 30, 31, 32, 33, 34, 35, 36, 37, 38, 39, 40, 41, 42, 43, 44, 45, 46, 47, 48, 49, 50, 51, 52, 53, 54, 55, 56, 57, 58, 59, 60, 61, 62, 63, 64, 65, 66, 67, 68, 69, 70, 71, 72, 73, 74, 75, 76, 77, 78, 79, 80, 81, 82, 83, 84, 85, 86, 87, 88, 89, 90, 91, 92, 93, 94, 95, 96, 97, 98, 99, 100, 101, 102, 103, 104, 105, 106, 107, 108, 109, 110, 111, 112, 113, 114, 115, 116, 117, 118, 119, 120, 121, 122, 123, 124, 125, 126, 127, 128, 129, 130, 131, 132, 133, 134, 135, 136, 137, 138, 139, 140, 141, 142, 143, 144, 145, 146, 147, 148, 149, 150, 151, 152, 153, 154, 155, 156, 157, 158, 159, 160, 161, 162, 163, 164, 165, 166, 167, 168, 169, 170, 171, 172, 173, 174, 175, 176, 177, 178, 179, 180, 181, 182, 183, 184, 185, 186, 187, 188, 189, 190, 191, 192, 193, 194, 195, 196, 197, 198, 199, 200, 201, 202, 203, 204, 205, 206, 207, 208, 209, 210, 211, 212, 213, 214, 215, 216, 217, 218, 219, 220, 221, 222, 223, 224, 225, 226, 227, 228, 229, 230, 231, 232, 233, 234, 235, 236, 237, 238, 239, 240, 241, 242, 243, 244, 245, 246, 247, 248, 249, 250, 251, 252, 253, 254, 255, 256, 257, 258, 259, 260, 261, 262, 263, 264, 265, 266, 267, 268, 269, 270, 271, 272, 273, 274, 275, 276, 277, 278, 279, 280, 281, 282, 283, 284, 285, 286, 287, 288, 289, 290, 291, 292, 293, 294, 295, 296, 297, 298, 299, 300, 301, 302, 303, 304, 305, 306, 307, 308, 309, 310, 311, 312, 313, 314, 315, 316, 317, 318, 319, 320, 321, 322, 323, 324, 325, 326, 327, 328],
      "AcquisitionTime": ["161638.545000", "161640.035000", "161641.525000", "161643.015000", "161644.505000", "161645.995000", "161647.485000", "161648.975000", "161650.465000", "161651.955000", "161653.445000", "161654.935000", "161656.425000", "161657.915000", "161659.405000", "161700.895000", "161702.385000", "161703.875000", "161705.365000", "161706.855000", "161708.345000", "161709.835000", "161711.325000", "161712.815000", "161714.305000", "161715.795000", "161717.285000", "161718.775000", "161720.265000", "161721.755000", "161723.245000", "161724.735000", "161726.225000", "161727.715000", "161729.205000", "161730.695000", "161732.185000", "161733.675000", "161735.165000", "161736.655000", "161738.145000", "161739.635000", "161741.125000", "161742.615000", "161744.105000", "161745.595000", "161747.085000", "161748.575000", "161750.065000", "161751.555000", "161753.045000", "161754.535000", "161756.025000", "161757.515000", "161759.005000", "161800.495000", "161801.985000", "161803.475000", "161804.965000", "161806.455000", "161807.945000", "161809.435000", "161810.925000", "161812.415000", "161813.905000", "161815.395000", "161816.885000", "161818.375000", "161819.865000", "161821.355000", "161822.845000", "161824.335000", "161825.825000", "161827.315000", "161828.805000", "161830.295000", "161831.785000", "161833.275000", "161834.765000", "161836.255000", "161837.745000", "161839.235000", "161840.725000", "161842.215000", "161843.705000", "161845.195000", "161846.685000", "161848.175000", "161849.665000", "161851.155000", "161852.645000", "161854.135000", "161855.625000", "161857.115000", "161858.605000", "161900.095000", "161901.585000", "161903.075000", "161904.565000", "161906.055000", "161907.545000", "161909.035000", "161910.525000", "161912.015000", "161913.505000", "161914.995000", "161916.485000", "161917.975000", "161919.465000", "161920.955000", "161922.445000", "161923.935000", "161925.425000", "161926.915000", "161928.405000", "161929.895000", "161931.385000", "161932.875000", "161934.365000", "161935.855000", "161937.345000", "161938.835000", "161940.325000", "161941.815000", "161943.305000", "161944.795000", "161946.285000", "161947.775000", "161949.265000", "161950.755000", "161952.245000", "161953.735000", "161955.225000", "161956.715000", "161958.205000", "161959.695000", "162001.185000", "162002.675000", "162004.165000", "162005.655000", "162007.145000", "162008.635000", "162010.125000", "162011.615000", "162013.105000", "162014.595000", "162016.085000", "162017.575000", "162019.065000", "162020.555000", "162022.045000", "162023.535000", "162025.025000", "162026.515000", "162028.005000", "162029.495000", "162030.985000", "162032.475000", "162033.965000", "162035.455000", "162036.945000", "162038.435000", "162039.925000", "162041.415000", "162042.905000", "162044.395000", "162045.885000", "162047.375000", "162048.865000", "162050.355000", "162051.845000", "162053.335000", "162054.825000", "162056.315000", "162057.805000", "162059.295000", "162100.785000", "162102.275000", "162103.765000", "162105.255000", "162106.745000", "162108.235000", "162109.725000", "162111.215000", "162112.705000", "162114.195000", "162115.685000", "162117.175000", "162118.665000", "162120.155000", "162121.645000", "162123.135000", "162124.625000", "162126.115000", "162127.605000", "162129.095000", "162130.585000", "162132.075000", "162133.565000", "162135.055000", "162136.545000", "162138.035000", "162139.525000", "162141.015000", "162142.505000", "162143.995000", "162145.485000", "162146.975000", "162148.465000", "162149.955000", "162151.445000", "162152.935000", "162154.425000", "162155.915000", "162157.405000", "162158.895000", "162200.385000", "162201.875000", "162203.365000", "162204.855000", "162206.345000", "162207.835000", "162209.325000", "162210.815000", "162212.305000", "162213.795000", "162215.285000", "162216.775000", "162218.265000", "162219.755000", "162221.245000", "162222.735000", "162224.225000", "162225.715000", "162227.205000", "162228.695000", "162230.185000", "162231.675000", "162233.165000", "162234.655000", "162236.145000", "162237.635000", "162239.125000", "162240.615000", "162242.105000", "162243.595000", "162245.085000", "162246.575000", "162248.065000", "162249.555000", "162251.045000", "162252.535000", "162254.025000", "162255.515000", "162257.005000", "162258.495000", "162259.985000", "162301.475000", "162302.965000", "162304.455000", "162305.945000", "162307.435000", "162308.925000", "162310.415000", "162311.905000", "162313.395000", "162314.885000", "162316.375000", "162317.865000", "162319.355000", "162320.845000", "162322.335000", "162323.825000", "162325.315000", "162326.805000", "162328.295000", "162329.785000", "162331.275000", "162332.765000", "162334.255000", "162335.745000", "162337.235000", "162338.725000", "162340.215000", "162341.705000", "162343.195000", "162344.685000", "162346.175000", "162347.665000", "162349.155000", "162350.645000", "162352.135000", "162353.625000", "162355.115000", "162356.605000", "162358.095000", "162359.585000", "162401.075000", "162402.565000", "162404.055000", "162405.545000", "162407.035000", "162408.525000", "162410.015000", "162411.505000", "162412.995000", "162414.485000", "162415.975000", "162417.465000", "162418.955000", "162420.445000", "162421.935000", "162423.425000", "162424.915000", "162426.405000", "162427.895000", "162429.385000", "162430.875000", "162432.365000", "162433.855000", "162435.345000", "162436.835000", "162438.325000", "162439.815000", "162441.305000", "162442.795000", "162444.285000", "162445.775000"],
      "ContentTime": ["161801.430000", "161801.433000", "161801.440000", "161801.442000", "161801.445000", "161801.447000", "161801.465000", "161801.468000", "161801.470000", "161801.473000", "161801.475000", "161801.484000", "161801.486000", "161801.489000", "161801.491000", "161801.494000", "161801.497000", "161801.499000", "161801.502000", "161801.504000", "161801.507000", "161801.509000", "161801.512000", "161801.514000", "161801.517000", "161801.519000", "161801.522000", "161801.524000", "161801.527000", "161801.529000", "161801.532000", "161801.534000", "161801.537000", "161801.539000", "161821.325000", "161821.327000", "161821.330000", "161821.333000", "161821.335000", "161821.338000", "161821.340000", "161821.343000", "161821.345000", "161821.348000", "161821.350000", "161821.353000", "161821.355000", "161821.358000", "161821.360000", "161821.363000", "161821.365000", "161821.368000", "161821.370000", "161821.373000", "161841.329000", "161841.332000", "161841.335000", "161841.337000", "161841.340000", "161841.342000", "161841.345000", "161841.348000", "161841.350000", "161841.353000", "161841.356000", "161841.359000", "161841.362000", "161841.364000", "161841.367000", "161841.370000", "161841.373000", "161841.376000", "161841.378000", "161841.381000", "161901.339000", "161901.342000", "161901.345000", "161901.349000", "161901.353000", "161901.355000", "161901.358000", "161901.360000", "161901.363000", "161901.366000", "161901.368000", "161901.371000", "161901.373000", "161901.376000", "161901.379000", "161901.381000", "161901.384000", "161901.386000", "161901.389000", "161901.392000", "161941.370000", "161941.373000", "161941.376000", "161941.378000", "161941.381000", "161941.383000", "161941.386000", "161941.388000", "161941.391000", "161941.394000", "161941.396000", "161941.399000", "161941.401000", "161941.404000", "161941.406000", "161941.409000", "161941.412000", "161941.414000", "161941.417000", "161941.419000", "161941.422000", "161941.425000", "161941.427000", "161941.430000", "161941.432000", "161941.435000", "161941.437000", "161941.440000", "162021.396000", "162021.399000", "162021.401000", "162021.404000", "162021.406000", "162021.409000", "162021.412000", "162021.414000", "162021.417000", "162021.419000", "162021.422000", "162021.425000", "162021.427000", "162021.430000", "162021.432000", "162021.435000", "162021.437000", "162021.440000", "162021.443000", "162021.445000", "162021.448000", "162021.450000", "162021.458000", "162021.461000", "162021.463000", "162021.466000", "162101.380000", "162101.383000", "162101.386000", "162101.388000", "162101.391000", "162101.394000", "162101.396000", "162101.399000", "162101.401000", "162101.404000", "162101.406000", "162101.409000", "162101.411000", "162101.414000", "162101.416000", "162101.419000", "162101.421000", "162101.424000", "162101.426000", "162101.429000", "162101.431000", "162101.434000", "162101.437000", "162101.439000", "162101.454000", "162101.457000", "162101.459000", "162141.359000", "162141.362000", "162141.365000", "162141.367000", "162141.370000", "162141.376000", "162141.378000", "162141.381000", "162141.383000", "162141.386000", "162141.389000", "162141.391000", "162141.394000", "162141.396000", "162141.399000", "162141.401000", "162141.404000", "162141.406000", "162141.409000", "162141.411000", "162141.414000", "162141.416000", "162141.419000", "162141.421000", "162141.424000", "162141.427000", "162141.429000", "162221.859000", "162221.861000", "162221.864000", "162221.867000", "162221.869000", "162221.872000", "162221.874000", "162221.877000", "162221.879000", "162221.882000", "162221.884000", "162221.887000", "162221.890000", "162221.892000", "162221.895000", "162221.897000", "162221.900000", "162221.902000", "162221.905000", "162221.907000", "162221.910000", "162221.912000", "162221.915000", "162221.918000", "162221.920000", "162221.923000", "162221.925000", "162301.347000", "162301.350000", "162301.353000", "162301.355000", "162301.358000", "162301.360000", "162301.363000", "162301.366000", "162301.368000", "162301.371000", "162301.373000", "162301.376000", "162301.378000", "162301.381000", "162301.383000", "162301.386000", "162301.388000", "162301.391000", "162301.393000", "162301.396000", "162301.399000", "162301.401000", "162301.404000", "162301.406000", "162301.409000", "162301.411000", "162301.414000", "162341.367000", "162341.369000", "162341.372000", "162341.375000", "162341.377000", "162341.380000", "162341.382000", "162341.385000", "162341.387000", "162341.390000", "162341.392000", "162341.395000", "162341.397000", "162341.400000", "162341.403000", "162341.405000", "162341.408000", "162341.410000", "162341.413000", "162341.415000", "162341.418000", "162341.420000", "162341.423000", "162341.425000", "162341.428000", "162341.430000", "162341.433000", "162421.368000", "162421.378000", "162421.381000", "162421.383000", "162421.386000", "162421.388000", "162421.391000", "162421.393000", "162421.401000", "162421.403000", "162421.406000", "162421.409000", "162421.411000", "162421.414000", "162421.416000", "162421.419000", "162421.422000", "162421.424000", "162421.427000", "162421.429000", "162421.432000", "162421.435000", "162421.437000", "162421.440000", "162421.442000", "162421.445000", "162449.307000", "162449.310000", "162449.312000", "162449.315000", "162449.317000", "162449.320000", "162449.322000", "162449.325000", "162449.328000", "162449.330000", "162449.333000", "162449.335000", "162449.338000", "162449.340000", "162449.343000", "162449.345000", "162449.348000", "162449.350000", "162449.353000"],
      "InstanceCreationTime": ["161801.430000", "161801.433000", "161801.440000", "161801.442000", "161801.445000", "161801.447000", "161801.465000", "161801.468000", "161801.470000", "161801.473000", "161801.475000", "161801.484000", "161801.486000", "161801.489000", "161801.491000", "161801.494000", "161801.497000", "161801.499000", "161801.502000", "161801.504000", "161801.507000", "161801.509000", "161801.512000", "161801.514000", "161801.517000", "161801.519000", "161801.522000", "161801.524000", "161801.527000", "161801.529000", "161801.532000", "161801.534000", "161801.537000", "161801.539000", "161821.325000", "161821.327000", "161821.330000", "161821.333000", "161821.335000", "161821.338000", "161821.340000", "161821.343000", "161821.345000", "161821.348000", "161821.350000", "161821.353000", "161821.355000", "161821.358000", "161821.360000", "161821.363000", "161821.365000", "161821.368000", "161821.370000", "161821.373000", "161841.329000", "161841.332000", "161841.335000", "161841.337000", "161841.340000", "161841.342000", "161841.345000", "161841.348000", "161841.350000", "161841.353000", "161841.356000", "161841.359000", "161841.362000", "161841.364000", "161841.367000", "161841.370000", "161841.373000", "161841.376000", "161841.378000", "161841.381000", "161901.339000", "161901.342000", "161901.345000", "161901.349000", "161901.353000", "161901.355000", "161901.358000", "161901.360000", "161901.363000", "161901.366000", "161901.368000", "161901.371000", "161901.373000", "161901.376000", "161901.379000", "161901.381000", "161901.384000", "161901.386000", "161901.389000", "161901.392000", "161941.370000", "161941.373000", "161941.376000", "161941.378000", "161941.381000", "161941.383000", "161941.386000", "161941.388000", "161941.391000", "161941.394000", "161941.396000", "161941.399000", "161941.401000", "161941.404000", "161941.406000", "161941.409000", "161941.412000", "161941.414000", "161941.417000", "161941.419000", "161941.422000", "161941.425000", "161941.427000", "161941.430000", "161941.432000", "161941.435000", "161941.437000", "161941.440000", "162021.396000", "162021.399000", "162021.401000", "162021.404000", "162021.406000", "162021.409000", "162021.412000", "162021.414000", "162021.417000", "162021.419000", "162021.422000", "162021.425000", "162021.427000", "162021.430000", "162021.432000", "162021.435000", "162021.437000", "162021.440000", "162021.443000", "162021.445000", "162021.448000", "162021.450000", "162021.458000", "162021.461000", "162021.463000", "162021.466000", "162101.380000", "162101.383000", "162101.386000", "162101.388000", "162101.391000", "162101.394000", "162101.396000", "162101.399000", "162101.401000", "162101.404000", "162101.406000", "162101.409000", "162101.411000", "162101.414000", "162101.416000", "162101.419000", "162101.421000", "162101.424000", "162101.426000", "162101.429000", "162101.431000", "162101.434000", "162101.437000", "162101.439000", "162101.454000", "162101.457000", "162101.459000", "162141.359000", "162141.362000", "162141.365000", "162141.367000", "162141.370000", "162141.376000", "162141.378000", "162141.381000", "162141.383000", "162141.386000", "162141.389000", "162141.391000", "162141.394000", "162141.396000", "162141.399000", "162141.401000", "162141.404000", "162141.406000", "162141.409000", "162141.411000", "162141.414000", "162141.416000", "162141.419000", "162141.421000", "162141.424000", "162141.427000", "162141.429000", "162221.859000", "162221.861000", "162221.864000", "162221.867000", "162221.869000", "162221.872000", "162221.874000", "162221.877000", "162221.879000", "162221.882000", "162221.884000", "162221.887000", "162221.890000", "162221.892000", "162221.895000", "162221.897000", "162221.900000", "162221.902000", "162221.905000", "162221.907000", "162221.910000", "162221.912000", "162221.915000", "162221.918000", "162221.920000", "162221.923000", "162221.925000", "162301.347000", "162301.350000", "162301.353000", "162301.355000", "162301.358000", "162301.360000", "162301.363000", "162301.366000", "162301.368000", "162301.371000", "162301.373000", "162301.376000", "162301.378000", "162301.381000", "162301.383000", "162301.386000", "162301.388000", "162301.391000", "162301.393000", "162301.396000", "162301.399000", "162301.401000", "162301.404000", "162301.406000", "162301.409000", "162301.411000", "162301.414000", "162341.367000", "162341.369000", "162341.372000", "162341.375000", "162341.377000", "162341.380000", "162341.382000", "162341.385000", "162341.387000", "162341.390000", "162341.392000", "162341.395000", "162341.397000", "162341.400000", "162341.403000", "162341.405000", "162341.408000", "162341.410000", "162341.413000", "162341.415000", "162341.418000", "162341.420000", "162341.423000", "162341.425000", "162341.428000", "162341.430000", "162341.433000", "162421.368000", "162421.378000", "162421.381000", "162421.383000", "162421.386000", "162421.388000", "162421.391000", "162421.393000", "162421.401000", "162421.403000", "162421.406000", "162421.409000", "162421.411000", "162421.414000", "162421.416000", "162421.419000", "162421.422000", "162421.424000", "162421.427000", "162421.429000", "162421.432000", "162421.435000", "162421.437000", "162421.440000", "162421.442000", "162421.445000", "162449.307000", "162449.310000", "162449.312000", "162449.315000", "162449.317000", "162449.320000", "162449.322000", "162449.325000", "162449.328000", "162449.330000", "162449.333000", "162449.335000", "162449.338000", "162449.340000", "162449.343000", "162449.345000", "162449.348000", "162449.350000", "162449.353000"],
      "InstanceNumber": [1, 2, 3, 4, 5, 6, 7, 8, 9, 10, 11, 12, 13, 14, 15, 16, 17, 18, 19, 20, 21, 22, 23, 24, 25, 26, 27, 28, 29, 30, 31, 32, 33, 34, 35, 36, 37, 38, 39, 40, 41, 42, 43, 44, 45, 46, 47, 48, 49, 50, 51, 52, 53, 54, 55, 56, 57, 58, 59, 60, 61, 62, 63, 64, 65, 66, 67, 68, 69, 70, 71, 72, 73, 74, 75, 76, 77, 78, 79, 80, 81, 82, 83, 84, 85, 86, 87, 88, 89, 90, 91, 92, 93, 94, 95, 96, 97, 98, 99, 100, 101, 102, 103, 104, 105, 106, 107, 108, 109, 110, 111, 112, 113, 114, 115, 116, 117, 118, 119, 120, 121, 122, 123, 124, 125, 126, 127, 128, 129, 130, 131, 132, 133, 134, 135, 136, 137, 138, 139, 140, 141, 142, 143, 144, 145, 146, 147, 148, 149, 150, 151, 152, 153, 154, 155, 156, 157, 158, 159, 160, 161, 162, 163, 164, 165, 166, 167, 168, 169, 170, 171, 172, 173, 174, 175, 176, 177, 178, 179, 180, 181, 182, 183, 184, 185, 186, 187, 188, 189, 190, 191, 192, 193, 194, 195, 196, 197, 198, 199, 200, 201, 202, 203, 204, 205, 206, 207, 208, 209, 210, 211, 212, 213, 214, 215, 216, 217, 218, 219, 220, 221, 222, 223, 224, 225, 226, 227, 228, 229, 230, 231, 232, 233, 234, 235, 236, 237, 238, 239, 240, 241, 242, 243, 244, 245, 246, 247, 248, 249, 250, 251, 252, 253, 254, 255, 256, 257, 258, 259, 260, 261, 262, 263, 264, 265, 266, 267, 268, 269, 270, 271, 272, 273, 274, 275, 276, 277, 278, 279, 280, 281, 282, 283, 284, 285, 286, 287, 288, 289, 290, 291, 292, 293, 294, 295, 296, 297, 298, 299, 300, 301, 302, 303, 304, 305, 306, 307, 308, 309, 310, 311, 312, 313, 314, 315, 316, 317, 318, 319, 320, 321, 322, 323, 324, 325, 326, 327, 328],
      "WindowCenter": [4832.0, 4824.0, 4830.0, 4830.0, 4828.0, 4830.0, 4824.0, 4832.0, 4822.0, 4834.0, 4826.0, 4800.0, 4802.0, 4802.0, 4828.0, 4800.0, 4832.0, 4828.0, 4836.0, 4836.0, 4828.0, 4800.0, 4828.0, 4834.0, 4798.0, 4830.0, 4826.0, 4826.0, 4832.0, 4794.0, 4828.0, 4800.0, 4860.0, 4828.0, 4836.0, 4834.0, 4828.0, 4824.0, 4828.0, 4836.0, 4836.0, 4826.0, 4806.0, 4802.0, 4826.0, 4830.0, 4798.0, 4864.0, 4826.0, 4866.0, 4832.0, 4830.0, 4868.0, 4774.0, 4778.0, 4824.0, 4838.0, 4896.0, 4874.0, 4900.0, 4858.0, 4858.0, 4802.0, 4804.0, 4832.0, 4802.0, 4832.0, 4830.0, 4834.0, 4862.0, 4804.0, 4826.0, 4826.0, 4834.0, 4830.0, 4832.0, 4800.0, 4802.0, 4828.0, 4828.0, 4836.0, 4798.0, 4826.0, 4800.0, 4832.0, 4828.0, 4868.0, 4836.0, 4834.0, 4796.0, 4796.0, 4830.0, 4832.0, 4866.0, 4842.0, 4868.0, 4838.0, 4828.0, 4802.0, 4802.0, 4802.0, 4802.0, 4830.0, 4836.0, 4832.0, 4800.0, 4800.0, 4830.0, 4832.0, 4824.0, 4838.0, 4830.0, 4802.0, 4798.0, 4800.0, 4830.0, 4804.0, 4798.0, 4802.0, 4802.0, 4836.0, 4836.0, 4832.0, 4866.0, 4828.0, 4802.0, 4800.0, 4798.0, 4802.0, 4798.0, 4776.0, 4830.0, 4830.0, 4866.0, 4866.0, 4834.0, 4800.0, 4798.0, 4800.0, 4802.0, 4804.0, 4800.0, 4802.0, 4830.0, 4834.0, 4834.0, 4836.0, 4862.0, 4826.0, 4802.0, 4798.0, 4802.0, 4800.0, 4796.0, 4826.0, 4838.0, 4796.0, 4796.0, 4796.0, 4802.0, 4864.0, 4832.0, 4838.0, 4870.0, 4800.0, 4800.0, 4804.0, 4830.0, 4796.0, 4798.0, 4836.0, 4802.0, 4876.0, 4832.0, 4830.0, 4860.0, 4796.0, 4798.0, 4830.0, 4798.0, 4830.0, 4826.0, 4830.0, 4838.0, 4824.0, 4862.0, 4800.0, 4826.0, 4804.0, 4832.0, 4804.0, 4834.0, 4862.0, 4862.0, 4800.0, 4800.0, 4830.0, 4828.0, 4840.0, 4830.0, 4836.0, 4868.0, 4862.0, 4802.0, 4798.0, 4798.0, 4798.0, 4802.0, 4860.0, 4832.0, 4838.0, 4860.0, 4800.0, 4804.0, 4836.0, 4796.0, 4826.0, 4826.0, 4824.0, 4840.0, 4824.0, 4832.0, 4838.0, 4832.0, 4832.0, 4826.0, 4828.0, 4800.0, 4798.0, 4826.0, 4824.0, 4832.0, 4866.0, 4832.0, 4862.0, 4864.0, 4822.0, 4828.0, 4802.0, 4796.0, 4798.0, 4830.0, 4832.0, 4858.0, 4874.0, 4860.0, 4866.0, 4828.0, 4828.0, 4826.0, 4826.0, 4832.0, 4826.0, 4858.0, 4860.0, 4832.0, 4828.0, 4800.0, 4796.0, 4800.0, 4834.0, 4836.0, 4834.0, 4834.0, 4826.0, 4830.0, 4828.0, 4828.0, 4834.0, 4832.0, 4826.0, 4826.0, 4802.0, 4828.0, 4836.0, 4840.0, 4864.0, 4834.0, 4832.0, 4826.0, 4802.0, 4830.0, 4830.0, 4870.0, 4868.0, 4868.0, 4864.0, 4864.0, 4824.0, 4834.0, 4826.0, 4828.0, 4830.0, 4828.0, 4838.0, 4868.0, 4872.0, 4864.0, 4862.0, 4862.0, 4826.0, 4832.0, 4828.0, 4832.0, 4862.0, 4828.0, 4826.0, 4836.0, 4864.0, 4830.0, 4800.0, 4822.0, 4832.0, 4836.0, 4864.0, 4826.0, 4838.0, 4778.0, 4772.0, 4772.0, 4878.0, 4906.0, 4906.0, 4874.0, 4868.0, 4800.0, 4800.0, 4798.0],
