{
  "AcquisitionMatrixPE": 104,
  "AcquisitionNumber": 1,
  "AcquisitionTime": "15:40:13.742500",
  "BandwidthPerPixelPhaseEncode": 17.17,
  "BaseResolution": 104,
  "BodyPartExamined": "BRAIN",
  "CoilCombinationMethod": "Sum of Squares",
  "ConsistencyInfo": "N4_VE11C_LATEST_20160120",
  "ConversionSoftware": "dcm2niix",
  "ConversionSoftwareVersion": "v1.0.20220505",
  "DerivedVendorReportedEchoSpacing": 0.000560011,
  "DeviceSerialNumber": "167006",
  "DwellTime": 2.1e-06,
  "EchoTime": 0.037,
  "EchoTrainLength": 104,
  "EffectiveEchoSpacing": 0.000560011,
  "FlipAngle": 52,
  "HeudiconvVersion": "0.5.3.post811+g6206e14",
  "ImageComments": "Unaliased MB4/PE3/LB",
  "ImageOrientationPatientDICOM": [0.998222, 0.0142458, 0.057874, 0.0160298, 0.871069, -0.4909],
  "ImageOrientationText": "Tra>Cor(-29.5)>Sag(3.3)",
  "ImageType": [
    "ORIGINAL",
    "PRIMARY",
    "M",
    "MB",
    "ND",
    "MOSAIC"
],
  "ImagingFrequency": 123.26,
  "InPlanePhaseEncodingDirectionDICOM": "COL",
  "InstitutionAddress": "Chemin Queen-Mary 4565,Montreal,District,CA,H3W 1W5",
  "InstitutionName": "IUGM",
  "InstitutionalDepartmentName": "Department",
  "MRAcquisitionType": "2D",
  "MagneticFieldStrength": 3,
  "Manufacturer": "Siemens",
  "ManufacturersModelName": "Prisma_fit",
  "MatrixCoilMode": "SENSE",
  "Modality": "MR",
  "MultibandAccelerationFactor": 4,
  "PartialFourier": 1,
  "PatientPosition": "HFS",
  "PercentPhaseFOV": 100,
  "PercentSampling": 100,
  "PhaseEncodingDirection": "j",
  "PhaseEncodingSteps": 104,
  "PhaseResolution": 1,
  "PixelBandwidth": 2290,
  "ProcedureStepDescription": "games^mario3",
  "ProtocolName": "func_task-mario3_run-01",
  "PulseSequenceDetails": "%CustomerSeq%\\cmrr_mbep2d_bold",
  "ReceiveCoilActiveElements": "HC1-7;NC1,2",
  "ReceiveCoilName": "HeadNeck_64",
  "ReconMatrixPE": 104,
  "RepetitionTime": 1.49,
  "SAR": 0.0444002,
  "ScanOptions": "FS",
  "ScanningSequence": "EP",
  "SequenceName": "epfid2d1_104",
  "SequenceVariant": "SK\\SS",
  "SeriesDescription": "func_task-mario3_run-01",
  "SeriesNumber": 10,
  "ShimSetting": [618, -7192, -8865, 262, 5, -162, -11, 45],
  "SliceThickness": 2,
  "SliceTiming": [0, 0.7825, 0.0975, 0.88, 0.195, 0.98, 0.2925, 1.0775, 0.39, 1.175, 0.49, 1.2725, 0.5875, 1.37, 0.685, 0, 0.7825, 0.0975, 0.88, 0.195, 0.98, 0.2925, 1.0775, 0.39, 1.175, 0.49, 1.2725, 0.5875, 1.37, 0.685, 0, 0.7825, 0.0975, 0.88, 0.195, 0.98, 0.2925, 1.0775, 0.39, 1.175, 0.49, 1.2725, 0.5875, 1.37, 0.685, 0, 0.7825, 0.0975, 0.88, 0.195, 0.98, 0.2925, 1.0775, 0.39, 1.175, 0.49, 1.2725, 0.5875, 1.37, 0.685],
  "SoftwareVersions": "syngo MR E11",
  "SpacingBetweenSlices": 2,
  "StationName": "MRC35049",
  "TaskName": "mario3",
  "TotalReadoutTime": 0.0576811,
  "TxRefAmp": 251.275,
  "WipMemBlock": "d3cfe07e-66f1-4bb6-aeb2-0e73cc6327ba||Sequence: R017 ve11c/master r/75a17815+; Jun 28 2022 16:32:11 by eja",
  "dcmmeta_affine": [
    [-1.9964444637298584, 0.03205959126353264, 0.11481092870235443, 102.78025817871094],
    [-0.028491513803601265, 1.7421371936798096, -0.981909453868866, -50.029693603515625],
    [0.11574799567461014, 0.9817994236946106, 1.7385834455490112, -96.4617919921875],
    [0.0, 0.0, 0.0, 1.0]
],
  "dcmmeta_reorient_transform": [
    [0.0, -1.0, 0.0, 103.0],
    [1.0, 0.0, 0.0, 0.0],
    [0.0, 0.0, 1.0, 0.0],
    [0.0, 0.0, 0.0, 1.0]
],
  "dcmmeta_shape": [104, 104, 60, 510],
  "dcmmeta_slice_dim": 2,
  "dcmmeta_version": 0.6,
  "global": {
    "const": {
      "AcquisitionMatrix": [104, 0, 0, 104],
      "AngioFlag": "N",
      "BitsAllocated": 16,
      "BitsStored": 16,
      "BodyPartExamined": "BRAIN",
      "Columns": 832,
      "EchoNumbers": 1,
      "EchoTime": 37.0,
      "EchoTrainLength": 104,
      "FlipAngle": 52.0,
      "HighBit": 15,
      "ImageOrientationPatient": [0.99822224910146, 0.01424575704167, 0.05787399938779, 0.01602979475898, 0.87106860813527, -0.4908997103292],
      "ImagePositionPatient": [-844.45788636301, -773.91929749371, 319.90626342095],
      "ImageType": [
        "ORIGINAL",
        "PRIMARY",
        "M",
        "MB",
        "ND",
        "MOSAIC"
],
      "ImagedNucleus": "1H",
      "ImagingFrequency": 123.260244,
      "InPlanePhaseEncodingDirection": "COL",
      "MRAcquisitionType": "2D",
      "MagneticFieldStrength": 3.0,
      "Manufacturer": "SIEMENS",
      "ManufacturerModelName": "Prisma_fit",
      "Modality": "MR",
      "NumberOfAverages": 1.0,
      "NumberOfPhaseEncodingSteps": 104,
      "PercentPhaseFieldOfView": 100.0,
      "PercentSampling": 100.0,
      "PerformedProcedureStepStartTime": "145356.001000",
      "PhotometricInterpretation": "MONOCHROME2",
      "PixelBandwidth": 2290.0,
      "PixelRepresentation": 0,
      "PixelSpacing": [2.0, 2.0],
      "ProtocolName": "func_task-mario3_run-01",
      "RepetitionTime": 1490.0,
      "Rows": 832,
      "SAR": 0.04440023825155,
      "SamplesPerPixel": 1,
      "ScanOptions": "FS",
      "ScanningSequence": "EP",
      "SequenceName": "epfid2d1_104",
      "SequenceVariant": [
        "SK",
        "SS"
],
      "SeriesDescription": "func_task-mario3_run-01",
      "SeriesNumber": 10,
      "SeriesTime": "154141.244000",
      "SliceLocation": -53.390975476559,
      "SliceThickness": 2.0,
      "SmallestImagePixelValue": 0,
      "SoftwareVersions": "syngo MR E11",
      "SpacingBetweenSlices": 2.000000028934,
      "SpecificCharacterSet": "ISO_IR 100",
      "StudyID": "1",
      "StudyTime": "145355.839000",
      "TransmitCoilName": "Body",
      "VariableFlipAngleFlag": "N",
      "WindowCenterWidthExplanation": "Algo1",
      "dBdt": 0.0},
    "slices": {}
  },
  "time": {
    "samples": {
      "AcquisitionNumber": [1, 2, 3, 4, 5, 6, 7, 8, 9, 10, 11, 12, 13, 14, 15, 16, 17, 18, 19, 20, 21, 22, 23, 24, 25, 26, 27, 28, 29, 30, 31, 32, 33, 34, 35, 36, 37, 38, 39, 40, 41, 42, 43, 44, 45, 46, 47, 48, 49, 50, 51, 52, 53, 54, 55, 56, 57, 58, 59, 60, 61, 62, 63, 64, 65, 66, 67, 68, 69, 70, 71, 72, 73, 74, 75, 76, 77, 78, 79, 80, 81, 82, 83, 84, 85, 86, 87, 88, 89, 90, 91, 92, 93, 94, 95, 96, 97, 98, 99, 100, 101, 102, 103, 104, 105, 106, 107, 108, 109, 110, 111, 112, 113, 114, 115, 116, 117, 118, 119, 120, 121, 122, 123, 124, 125, 126, 127, 128, 129, 130, 131, 132, 133, 134, 135, 136, 137, 138, 139, 140, 141, 142, 143, 144, 145, 146, 147, 148, 149, 150, 151, 152, 153, 154, 155, 156, 157, 158, 159, 160, 161, 162, 163, 164, 165, 166, 167, 168, 169, 170, 171, 172, 173, 174, 175, 176, 177, 178, 179, 180, 181, 182, 183, 184, 185, 186, 187, 188, 189, 190, 191, 192, 193, 194, 195, 196, 197, 198, 199, 200, 201, 202, 203, 204, 205, 206, 207, 208, 209, 210, 211, 212, 213, 214, 215, 216, 217, 218, 219, 220, 221, 222, 223, 224, 225, 226, 227, 228, 229, 230, 231, 232, 233, 234, 235, 236, 237, 238, 239, 240, 241, 242, 243, 244, 245, 246, 247, 248, 249, 250, 251, 252, 253, 254, 255, 256, 257, 258, 259, 260, 261, 262, 263, 264, 265, 266, 267, 268, 269, 270, 271, 272, 273, 274, 275, 276, 277, 278, 279, 280, 281, 282, 283, 284, 285, 286, 287, 288, 289, 290, 291, 292, 293, 294, 295, 296, 297, 298, 299, 300, 301, 302, 303, 304, 305, 306, 307, 308, 309, 310, 311, 312, 313, 314, 315, 316, 317, 318, 319, 320, 321, 322, 323, 324, 325, 326, 327, 328, 329, 330, 331, 332, 333, 334, 335, 336, 337, 338, 339, 340, 341, 342, 343, 344, 345, 346, 347, 348, 349, 350, 351, 352, 353, 354, 355, 356, 357, 358, 359, 360, 361, 362, 363, 364, 365, 366, 367, 368, 369, 370, 371, 372, 373, 374, 375, 376, 377, 378, 379, 380, 381, 382, 383, 384, 385, 386, 387, 388, 389, 390, 391, 392, 393, 394, 395, 396, 397, 398, 399, 400, 401, 402, 403, 404, 405, 406, 407, 408, 409, 410, 411, 412, 413, 414, 415, 416, 417, 418, 419, 420, 421, 422, 423, 424, 425, 426, 427, 428, 429, 430, 431, 432, 433, 434, 435, 436, 437, 438, 439, 440, 441, 442, 443, 444, 445, 446, 447, 448, 449, 450, 451, 452, 453, 454, 455, 456, 457, 458, 459, 460, 461, 462, 463, 464, 465, 466, 467, 468, 469, 470, 471, 472, 473, 474, 475, 476, 477, 478, 479, 480, 481, 482, 483, 484, 485, 486, 487, 488, 489, 490, 491, 492, 493, 494, 495, 496, 497, 498, 499, 500, 501, 502, 503, 504, 505, 506, 507, 508, 509, 510],
      "AcquisitionTime": ["154013.742500", "154015.232500", "154016.722500", "154018.212500", "154019.702500", "154021.192500", "154022.682500", "154024.172500", "154025.662500", "154027.152500", "154028.642500", "154030.132500", "154031.622500", "154033.112500", "154034.602500", "154036.092500", "154037.582500", "154039.072500", "154040.562500", "154042.052500", "154043.542500", "154045.032500", "154046.522500", "154048.012500", "154049.502500", "154050.992500", "154052.482500", "154053.972500", "154055.462500", "154056.952500", "154058.442500", "154059.932500", "154101.422500", "154102.912500", "154104.402500", "154105.892500", "154107.382500", "154108.872500", "154110.362500", "154111.852500", "154113.342500", "154114.832500", "154116.322500", "154117.812500", "154119.302500", "154120.792500", "154122.282500", "154123.772500", "154125.262500", "154126.752500", "154128.242500", "154129.732500", "154131.222500", "154132.712500", "154134.202500", "154135.692500", "154137.182500", "154138.672500", "154140.162500", "154141.652500", "154143.142500", "154144.632500", "154146.122500", "154147.612500", "154149.102500", "154150.592500", "154152.082500", "154153.572500", "154155.062500", "154156.552500", "154158.042500", "154159.532500", "154201.022500", "154202.512500", "154204.002500", "154205.492500", "154206.982500", "154208.472500", "154209.962500", "154211.452500", "154212.942500", "154214.432500", "154215.922500", "154217.412500", "154218.902500", "154220.392500", "154221.882500", "154223.372500", "154224.862500", "154226.352500", "154227.842500", "154229.332500", "154230.822500", "154232.312500", "154233.802500", "154235.292500", "154236.782500", "154238.272500", "154239.762500", "154241.252500", "154242.742500", "154244.232500", "154245.722500", "154247.212500", "154248.702500", "154250.192500", "154251.682500", "154253.172500", "154254.662500", "154256.152500", "154257.642500", "154259.132500", "154300.622500", "154302.112500", "154303.602500", "154305.092500", "154306.582500", "154308.072500", "154309.562500", "154311.052500", "154312.542500", "154314.032500", "154315.522500", "154317.012500", "154318.502500", "154319.992500", "154321.482500", "154322.972500", "154324.462500", "154325.952500", "154327.442500", "154328.932500", "154330.422500", "154331.912500", "154333.402500", "154334.892500", "154336.382500", "154337.872500", "154339.362500", "154340.852500", "154342.342500", "154343.832500", "154345.322500", "154346.812500", "154348.302500", "154349.792500", "154351.282500", "154352.772500", "154354.262500", "154355.752500", "154357.242500", "154358.732500", "154400.222500", "154401.712500", "154403.202500", "154404.692500", "154406.182500", "154407.672500", "154409.162500", "154410.652500", "154412.142500", "154413.632500", "154415.122500", "154416.612500", "154418.102500", "154419.592500", "154421.082500", "154422.572500", "154424.062500", "154425.552500", "154427.042500", "154428.532500", "154430.022500", "154431.512500", "154433.002500", "154434.492500", "154435.982500", "154437.472500", "154438.962500", "154440.452500", "154441.942500", "154443.432500", "154444.922500", "154446.412500", "154447.902500", "154449.392500", "154450.882500", "154452.372500", "154453.862500", "154455.352500", "154456.842500", "154458.332500", "154459.822500", "154501.312500", "154502.802500", "154504.292500", "154505.782500", "154507.272500", "154508.762500", "154510.252500", "154511.742500", "154513.232500", "154514.722500", "154516.212500", "154517.702500", "154519.192500", "154520.682500", "154522.172500", "154523.662500", "154525.152500", "154526.642500", "154528.132500", "154529.622500", "154531.112500", "154532.602500", "154534.092500", "154535.582500", "154537.072500", "154538.562500", "154540.052500", "154541.542500", "154543.032500", "154544.522500", "154546.012500", "154547.502500", "154548.992500", "154550.482500", "154551.972500", "154553.462500", "154554.952500", "154556.442500", "154557.932500", "154559.422500", "154600.912500", "154602.402500", "154603.892500", "154605.382500", "154606.872500", "154608.362500", "154609.852500", "154611.342500", "154612.832500", "154614.322500", "154615.812500", "154617.302500", "154618.792500", "154620.282500", "154621.772500", "154623.262500", "154624.752500", "154626.242500", "154627.732500", "154629.222500", "154630.712500", "154632.202500", "154633.692500", "154635.182500", "154636.672500", "154638.162500", "154639.652500", "154641.142500", "154642.632500", "154644.122500", "154645.612500", "154647.102500", "154648.592500", "154650.082500", "154651.572500", "154653.062500", "154654.552500", "154656.042500", "154657.532500", "154659.022500", "154700.512500", "154702.002500", "154703.492500", "154704.982500", "154706.472500", "154707.962500", "154709.452500", "154710.942500", "154712.432500", "154713.922500", "154715.412500", "154716.902500", "154718.392500", "154719.882500", "154721.372500", "154722.862500", "154724.352500", "154725.842500", "154727.332500", "154728.822500", "154730.312500", "154731.802500", "154733.292500", "154734.782500", "154736.272500", "154737.762500", "154739.252500", "154740.742500", "154742.232500", "154743.722500", "154745.212500", "154746.702500", "154748.192500", "154749.682500", "154751.172500", "154752.662500", "154754.152500", "154755.642500", "154757.132500", "154758.622500", "154800.112500", "154801.602500", "154803.092500", "154804.582500", "154806.072500", "154807.562500", "154809.052500", "154810.542500", "154812.032500", "154813.522500", "154815.012500", "154816.502500", "154817.992500", "154819.482500", "154820.972500", "154822.462500", "154823.952500", "154825.442500", "154826.932500", "154828.422500", "154829.912500", "154831.402500", "154832.892500", "154834.382500", "154835.872500", "154837.362500", "154838.852500", "154840.342500", "154841.832500", "154843.322500", "154844.812500", "154846.302500", "154847.792500", "154849.282500", "154850.772500", "154852.262500", "154853.752500", "154855.242500", "154856.732500", "154858.222500", "154859.712500", "154901.202500", "154902.692500", "154904.182500", "154905.672500", "154907.162500", "154908.652500", "154910.142500", "154911.632500", "154913.122500", "154914.612500", "154916.102500", "154917.592500", "154919.082500", "154920.572500", "154922.062500", "154923.552500", "154925.042500", "154926.532500", "154928.022500", "154929.512500", "154931.002500", "154932.492500", "154933.982500", "154935.472500", "154936.962500", "154938.452500", "154939.942500", "154941.432500", "154942.922500", "154944.412500", "154945.902500", "154947.392500", "154948.882500", "154950.372500", "154951.862500", "154953.352500", "154954.842500", "154956.332500", "154957.822500", "154959.312500", "155000.802500", "155002.292500", "155003.782500", "155005.272500", "155006.762500", "155008.252500", "155009.742500", "155011.232500", "155012.722500", "155014.212500", "155015.702500", "155017.192500", "155018.682500", "155020.172500", "155021.662500", "155023.152500", "155024.642500", "155026.132500", "155027.622500", "155029.112500", "155030.602500", "155032.092500", "155033.582500", "155035.072500", "155036.562500", "155038.052500", "155039.542500", "155041.032500", "155042.522500", "155044.012500", "155045.502500", "155046.992500", "155048.482500", "155049.972500", "155051.462500", "155052.952500", "155054.442500", "155055.932500", "155057.422500", "155058.912500", "155100.402500", "155101.892500", "155103.382500", "155104.872500", "155106.362500", "155107.852500", "155109.342500", "155110.832500", "155112.322500", "155113.812500", "155115.302500", "155116.792500", "155118.282500", "155119.772500", "155121.262500", "155122.752500", "155124.242500", "155125.732500", "155127.222500", "155128.712500", "155130.202500", "155131.692500", "155133.182500", "155134.672500", "155136.162500", "155137.652500", "155139.142500", "155140.632500", "155142.122500", "155143.612500", "155145.102500", "155146.592500", "155148.082500", "155149.572500", "155151.062500", "155152.552500", "155154.042500", "155155.532500", "155157.022500", "155158.512500", "155200.002500", "155201.492500", "155202.982500", "155204.472500", "155205.962500", "155207.452500", "155208.942500", "155210.432500", "155211.922500", "155213.412500", "155214.902500", "155216.392500", "155217.882500", "155219.372500", "155220.862500", "155222.352500", "155223.842500", "155225.332500", "155226.822500", "155228.312500", "155229.802500", "155231.292500", "155232.782500", "155234.272500", "155235.762500", "155237.252500", "155238.742500", "155240.232500", "155241.722500", "155243.212500", "155244.702500", "155246.192500", "155247.682500", "155249.172500", "155250.662500", "155252.152500"],
      "ContentTime": ["154141.247000", "154141.250000", "154141.254000", "154141.257000", "154141.265000", "154141.268000", "154141.272000", "154141.275000", "154141.278000", "154141.282000", "154141.285000", "154141.296000", "154141.300000", "154141.304000", "154141.307000", "154141.311000", "154141.314000", "154141.317000", "154141.321000", "154141.325000", "154141.329000", "154141.332000", "154141.336000", "154141.339000", "154141.343000", "154141.346000", "154141.350000", "154141.353000", "154141.357000", "154141.360000", "154141.364000", "154141.368000", "154141.372000", "154141.376000", "154141.379000", "154141.382000", "154141.386000", "154141.390000", "154201.211000", "154201.215000", "154201.218000", "154201.221000", "154201.225000", "154201.228000", "154201.232000", "154201.235000", "154201.239000", "154201.248000", "154201.251000", "154201.255000", "154201.258000", "154201.261000", "154201.265000", "154201.268000", "154201.272000", "154201.275000", "154201.278000", "154201.282000", "154221.210000", "154221.214000", "154221.217000", "154221.220000", "154221.224000", "154221.227000", "154221.241000", "154221.244000", "154221.247000", "154221.251000", "154221.260000", "154221.264000", "154221.267000", "154221.270000", "154221.274000", "154221.277000", "154221.280000", "154221.284000", "154221.287000", "154221.290000", "154221.301000", "154241.210000", "154241.214000", "154241.217000", "154241.221000", "154241.224000", "154241.227000", "154241.241000", "154241.245000", "154241.248000", "154241.251000", "154241.255000", "154241.258000", "154241.262000", "154241.265000", "154241.268000", "154241.272000", "154241.275000", "154241.278000", "154241.282000", "154321.211000", "154321.215000", "154321.218000", "154321.222000", "154321.225000", "154321.228000", "154321.232000", "154321.250000", "154321.253000", "154321.257000", "154321.260000", "154321.263000", "154321.267000", "154321.270000", "154321.274000", "154321.277000", "154321.280000", "154321.284000", "154321.287000", "154321.300000", "154321.304000", "154321.307000", "154321.310000", "154321.314000", "154321.317000", "154321.321000", "154321.324000", "154341.211000", "154341.215000", "154341.219000", "154341.222000", "154341.226000", "154341.229000", "154341.241000", "154341.245000", "154341.248000", "154341.251000", "154341.254000", "154341.258000", "154341.261000", "154421.211000", "154421.215000", "154421.218000", "154421.236000", "154421.240000", "154421.243000", "154421.246000", "154421.250000", "154421.253000", "154421.257000", "154421.260000", "154421.264000", "154421.267000", "154421.270000", "154421.274000", "154421.277000", "154421.281000", "154421.284000", "154421.288000", "154421.291000", "154421.295000", "154421.298000", "154421.302000", "154421.305000", "154421.309000", "154421.312000", "154421.315000", "154501.210000", "154501.214000", "154501.217000", "154501.221000", "154501.224000", "154501.228000", "154501.231000", "154501.234000", "154501.238000", "154501.241000", "154501.245000", "154501.248000", "154501.251000", "154501.255000", "154501.258000", "154501.261000", "154501.265000", "154501.268000", "154501.272000", "154501.275000", "154501.278000", "154501.282000", "154501.285000", "154501.288000", "154501.292000", "154501.295000", "154501.298000", "154541.211000", "154541.215000", "154541.218000", "154541.222000", "154541.225000", "154541.228000", "154541.232000", "154541.244000", "154541.247000", "154541.250000", "154541.254000", "154541.257000", "154541.261000", "154541.264000", "154541.267000", "154541.271000", "154541.274000", "154541.282000", "154541.286000", "154541.289000", "154541.293000", "154541.296000", "154541.299000", "154541.303000", "154541.306000", "154541.310000", "154541.313000", "154621.211000", "154621.215000", "154621.218000", "154621.233000", "154621.236000", "154621.240000", "154621.243000", "154621.246000", "154621.250000", "154621.253000", "154621.257000", "154621.260000", "154621.263000", "154621.267000", "154621.270000", "154621.274000", "154621.277000", "154621.280000", "154621.284000", "154621.287000", "154621.290000", "154621.299000", "154621.302000", "154621.306000", "154621.309000", "154621.313000", "154621.316000", "154701.221000", "154701.224000", "154701.235000", "154701.238000", "154701.242000", "154701.245000", "154701.248000", "154701.252000", "154701.255000", "154701.259000", "154701.262000", "154701.265000", "154701.269000", "154701.274000", "154701.278000", "154701.282000", "154701.285000", "154701.290000", "154701.294000", "154701.298000", "154701.302000", "154701.305000", "154701.309000", "154701.313000", "154701.316000", "154701.319000", "154741.211000", "154741.215000", "154741.218000", "154741.222000", "154741.225000", "154741.229000", "154741.232000", "154741.236000", "154741.239000", "154741.243000", "154741.246000", "154741.249000", "154741.253000", "154741.263000", "154741.267000", "154741.270000", "154741.273000", "154741.277000", "154741.280000", "154741.283000", "154741.287000", "154741.290000", "154741.294000", "154741.297000", "154741.300000", "154741.304000", "154741.307000", "154821.211000", "154821.215000", "154821.218000", "154821.222000", "154821.225000", "154821.229000", "154821.232000", "154821.235000", "154821.239000", "154821.242000", "154821.248000", "154821.251000", "154821.255000", "154821.258000", "154821.262000", "154821.265000", "154821.268000", "154821.272000", "154821.275000", "154821.278000", "154821.282000", "154821.285000", "154821.289000", "154821.292000", "154821.295000", "154821.299000", "154821.302000", "154901.212000", "154901.215000", "154901.219000", "154901.222000", "154901.234000", "154901.238000", "154901.241000", "154901.244000", "154901.248000", "154901.251000", "154901.255000", "154901.258000", "154901.261000", "154901.280000", "154901.283000", "154901.287000", "154901.290000", "154901.293000", "154901.297000", "154901.300000", "154901.303000", "154901.307000", "154901.310000", "154901.314000", "154901.317000", "154901.320000", "154901.324000", "154941.211000", "154941.223000", "154941.226000", "154941.229000", "154941.233000", "154941.236000", "154941.240000", "154941.243000", "154941.247000", "154941.250000", "154941.253000", "154941.257000", "154941.260000", "154941.264000", "154941.267000", "154941.270000", "154941.274000", "154941.277000", "154941.281000", "154941.284000", "154941.287000", "154941.291000", "154941.294000", "154941.297000", "154941.301000", "154941.304000", "154941.308000", "155021.211000", "155021.215000", "155021.218000", "155021.222000", "155021.225000", "155021.229000", "155021.233000", "155021.236000", "155021.239000", "155021.243000", "155021.246000", "155021.250000", "155021.253000", "155021.257000", "155021.260000", "155021.264000", "155021.267000", "155021.271000", "155021.274000", "155021.278000", "155021.281000", "155021.284000", "155021.288000", "155021.291000", "155021.294000", "155021.298000", "155021.302000", "155101.212000", "155101.215000", "155101.219000", "155101.222000", "155101.226000", "155101.229000", "155101.232000", "155101.236000", "155101.239000", "155101.243000", "155101.246000", "155101.249000", "155101.253000", "155101.256000", "155101.259000", "155101.263000", "155101.266000", "155101.282000", "155101.286000", "155101.296000", "155101.299000", "155101.302000", "155101.306000", "155101.309000", "155101.313000", "155101.316000", "155101.319000", "155141.210000", "155141.214000", "155141.217000", "155141.221000", "155141.224000", "155141.227000", "155141.239000", "155141.257000", "155141.260000", "155141.264000", "155141.268000", "155141.271000", "155141.275000", "155141.278000", "155141.282000", "155141.285000", "155141.288000", "155141.292000", "155141.295000", "155141.299000", "155141.302000", "155141.306000", "155141.309000", "155141.312000", "155141.316000", "155141.319000", "155221.211000", "155221.215000", "155221.219000", "155221.222000", "155221.225000", "155221.229000", "155221.232000", "155221.235000", "155221.239000", "155221.242000", "155221.246000", "155221.249000", "155221.252000", "155221.256000", "155221.259000", "155221.262000", "155221.266000", "155221.269000", "155221.272000", "155221.276000", "155221.279000", "155221.282000", "155221.286000", "155221.289000", "155221.298000", "155221.301000", "155221.305000", "155255.415000", "155255.419000", "155255.422000", "155255.434000", "155255.438000", "155255.441000", "155255.445000", "155255.449000", "155255.452000", "155255.455000", "155255.459000", "155255.462000", "155255.466000", "155255.469000", "155255.473000", "155255.476000", "155255.480000", "155255.483000", "155255.486000", "155255.490000", "155255.493000", "155255.497000", "155255.514000"],
