{
  "AcquisitionMatrixPE": 104,
  "AcquisitionNumber": 1,
  "AcquisitionTime": "19:41:34.147500",
  "BandwidthPerPixelPhaseEncode": 17.17,
  "BaseResolution": 104,
  "BodyPartExamined": "BRAIN",
  "CoilCombinationMethod": "Sum of Squares",
  "ConsistencyInfo": "N4_VE11C_LATEST_20160120",
  "ConversionSoftware": "dcm2niix",
  "ConversionSoftwareVersion": "v1.0.20220505",
  "DerivedVendorReportedEchoSpacing": 0.000560011,
  "DeviceSerialNumber": "167006",
  "DwellTime": 2.1e-06,
  "EchoTime": 0.037,
  "EchoTrainLength": 104,
  "EffectiveEchoSpacing": 0.000560011,
  "FlipAngle": 52,
  "HeudiconvVersion": "0.5.3.post811+g6206e14",
  "ImageComments": "Unaliased MB4/PE3/LB",
  "ImageOrientationPatientDICOM": [0.999892, -0.0123771, 0.00797348, 0.0144857, 0.923873, -0.382425],
  "ImageOrientationText": "Tra>Cor(-22.5)>Sag(0.2)",
  "ImageType": [
    "ORIGINAL",
    "PRIMARY",
    "M",
    "MB",
    "ND",
    "MOSAIC"
],
  "ImagingFrequency": 123.259,
  "InPlanePhaseEncodingDirectionDICOM": "COL",
  "InstitutionAddress": "Chemin Queen-Mary 4565,Montreal,District,CA,H3W 1W5",
  "InstitutionName": "IUGM",
  "InstitutionalDepartmentName": "Department",
  "MRAcquisitionType": "2D",
  "MagneticFieldStrength": 3,
  "Manufacturer": "Siemens",
  "ManufacturersModelName": "Prisma_fit",
  "MatrixCoilMode": "SENSE",
  "Modality": "MR",
  "MultibandAccelerationFactor": 4,
  "PartialFourier": 1,
  "PatientPosition": "HFS",
  "PercentPhaseFOV": 100,
  "PercentSampling": 100,
  "PhaseEncodingDirection": "j",
  "PhaseEncodingSteps": 104,
  "PhaseResolution": 1,
  "PixelBandwidth": 2290,
  "ProcedureStepDescription": "games^mario3",
  "ProtocolName": "func_task-mario3_run-05",
  "PulseSequenceDetails": "%CustomerSeq%\\cmrr_mbep2d_bold",
  "ReceiveCoilActiveElements": "HC1-7;NC1,2",
  "ReceiveCoilName": "HeadNeck_64",
  "ReconMatrixPE": 104,
  "RepetitionTime": 1.49,
  "SAR": 0.0629404,
  "ScanOptions": "FS",
  "ScanningSequence": "EP",
  "SequenceName": "epfid2d1_104",
  "SequenceVariant": "SK\\SS",
  "SeriesDescription": "func_task-mario3_run-05",
  "SeriesNumber": 30,
  "ShimSetting": [588, -7296, -8818, 399, 23, -371, -74, 95],
  "SliceThickness": 2,
  "SliceTiming": [0, 0.7825, 0.0975, 0.88, 0.195, 0.98, 0.2925, 1.0775, 0.39, 1.175, 0.49, 1.2725, 0.5875, 1.37, 0.685, 0, 0.7825, 0.0975, 0.88, 0.195, 0.98, 0.2925, 1.0775, 0.39, 1.175, 0.49, 1.2725, 0.5875, 1.37, 0.685, 0, 0.7825, 0.0975, 0.88, 0.195, 0.98, 0.2925, 1.0775, 0.39, 1.175, 0.49, 1.2725, 0.5875, 1.37, 0.685, 0, 0.7825, 0.0975, 0.88, 0.195, 0.98, 0.2925, 1.0775, 0.39, 1.175, 0.49, 1.2725, 0.5875, 1.37, 0.685],
  "SoftwareVersions": "syngo MR E11",
  "SpacingBetweenSlices": 2,
  "StationName": "MRC35049",
  "TaskName": "mario3",
  "TotalReadoutTime": 0.0576811,
  "TxRefAmp": 274.908,
  "WipMemBlock": "a5a8859a-a009-475f-905f-a053231526c1||Sequence: R017 ve11c/master r/75a17815+; Jun 28 2022 16:32:11 by eja",
  "dcmmeta_affine": [
    [-1.9997832775115967, 0.028971385210752487, 0.005266336724162102, 102.4712905883789],
    [0.024754194542765617, 1.8477458953857422, -0.7649981379508972, -69.113037109375],
    [0.015946954488754272, 0.7648500800132751, 1.8479042053222656, -63.39548110961914],
    [0.0, 0.0, 0.0, 1.0]
],
  "dcmmeta_reorient_transform": [
    [0.0, -1.0, 0.0, 103.0],
    [1.0, 0.0, 0.0, 0.0],
    [0.0, 0.0, 1.0, 0.0],
    [0.0, 0.0, 0.0, 1.0]
],
  "dcmmeta_shape": [104, 104, 60, 344],
  "dcmmeta_slice_dim": 2,
  "dcmmeta_version": 0.6,
  "global": {
    "const": {
      "AcquisitionMatrix": [104, 0, 0, 104],
      "AngioFlag": "N",
      "BitsAllocated": 16,
      "BitsStored": 16,
      "BodyPartExamined": "BRAIN",
      "Columns": 832,
      "EchoNumbers": 1,
      "EchoTime": 37.0,
      "EchoTrainLength": 104,
      "FlipAngle": 52.0,
      "HighBit": 15,
      "ImageOrientationPatient": [0.99989160968953, -0.0123770970053, 0.00797347742268, 0.01448569279931, 0.92387296784565, -0.3824250305461],
      "ImagePositionPatient": [-843.92201729753, -784.77379191035, 287.98480662435],
      "ImageType": [
        "ORIGINAL",
        "PRIMARY",
        "M",
        "MB",
        "ND",
        "MOSAIC"
],
      "ImagedNucleus": "1H",
      "ImagingFrequency": 123.258954,
      "InPlanePhaseEncodingDirection": "COL",
      "MRAcquisitionType": "2D",
      "MagneticFieldStrength": 3.0,
      "Manufacturer": "SIEMENS",
      "ManufacturerModelName": "Prisma_fit",
      "Modality": "MR",
      "NumberOfAverages": 1.0,
      "NumberOfPhaseEncodingSteps": 104,
      "PercentPhaseFieldOfView": 100.0,
      "PercentSampling": 100.0,
      "PerformedProcedureStepStartTime": "183335.830000",
      "PhotometricInterpretation": "MONOCHROME2",
      "PixelBandwidth": 2290.0,
      "PixelRepresentation": 0,
      "PixelSpacing": [2.0, 2.0],
      "ProtocolName": "func_task-mario3_run-05",
      "RepetitionTime": 1490.0,
      "Rows": 832,
      "SAR": 0.06294035882602,
      "SamplesPerPixel": 1,
      "ScanOptions": "FS",
      "ScanningSequence": "EP",
      "SequenceName": "epfid2d1_104",
      "SequenceVariant": [
        "SK",
        "SS"
],
      "SeriesDescription": "func_task-mario3_run-05",
      "SeriesNumber": 30,
      "SeriesTime": "194233.418000",
      "SliceLocation": -31.868892517599,
      "SliceThickness": 2.0,
      "SmallestImagePixelValue": 0,
      "SoftwareVersions": "syngo MR E11",
      "SpacingBetweenSlices": 1.9999999383807,
      "SpecificCharacterSet": "ISO_IR 100",
      "StudyID": "1",
      "StudyTime": "183335.756000",
      "TransmitCoilName": "Body",
      "VariableFlipAngleFlag": "N",
      "WindowCenterWidthExplanation": "Algo1",
      "dBdt": 0.0},
    "slices": {}
  },
  "time": {
    "samples": {
      "AcquisitionNumber": [1, 2, 3, 4, 5, 6, 7, 8, 9, 10, 11, 12, 13, 14, 15, 16, 17, 18, 19, 20, 21, 22, 23, 24, 25, 26, 27, 28, 29, 30, 31, 32, 33, 34, 35, 36, 37, 38, 39, 40, 41, 42, 43, 44, 45, 46, 47, 48, 49, 50, 51, 52, 53, 54, 55, 56, 57, 58, 59, 60, 61, 62, 63, 64, 65, 66, 67, 68, 69, 70, 71, 72, 73, 74, 75, 76, 77, 78, 79, 80, 81, 82, 83, 84, 85, 86, 87, 88, 89, 90, 91, 92, 93, 94, 95, 96, 97, 98, 99, 100, 101, 102, 103, 104, 105, 106, 107, 108, 109, 110, 111, 112, 113, 114, 115, 116, 117, 118, 119, 120, 121, 122, 123, 124, 125, 126, 127, 128, 129, 130, 131, 132, 133, 134, 135, 136, 137, 138, 139, 140, 141, 142, 143, 144, 145, 146, 147, 148, 149, 150, 151, 152, 153, 154, 155, 156, 157, 158, 159, 160, 161, 162, 163, 164, 165, 166, 167, 168, 169, 170, 171, 172, 173, 174, 175, 176, 177, 178, 179, 180, 181, 182, 183, 184, 185, 186, 187, 188, 189, 190, 191, 192, 193, 194, 195, 196, 197, 198, 199, 200, 201, 202, 203, 204, 205, 206, 207, 208, 209, 210, 211, 212, 213, 214, 215, 216, 217, 218, 219, 220, 221, 222, 223, 224, 225, 226, 227, 228, 229, 230, 231, 232, 233, 234, 235, 236, 237, 238, 239, 240, 241, 242, 243, 244, 245, 246, 247, 248, 249, 250, 251, 252, 253, 254, 255, 256, 257, 258, 259, 260, 261, 262, 263, 264, 265, 266, 267, 268, 269, 270, 271, 272, 273, 274, 275, 276, 277, 278, 279, 280, 281, 282, 283, 284, 285, 286, 287, 288, 289, 290, 291, 292, 293, 294, 295, 296, 297, 298, 299, 300, 301, 302, 303, 304, 305, 306, 307, 308, 309, 310, 311, 312, 313, 314, 315, 316, 317, 318, 319, 320, 321, 322, 323, 324, 325, 326, 327, 328, 329, 330, 331, 332, 333, 334, 335, 336, 337, 338, 339, 340, 341, 342, 343, 344],
      "AcquisitionTime": ["194134.147500", "194135.637500", "194137.127500", "194138.617500", "194140.107500", "194141.597500", "194143.087500", "194144.577500", "194146.067500", "194147.557500", "194149.047500", "194150.537500", "194152.027500", "194153.517500", "194155.007500", "194156.497500", "194157.987500", "194159.477500", "194200.967500", "194202.457500", "194203.947500", "194205.437500", "194206.927500", "194208.417500", "194209.907500", "194211.397500", "194212.887500", "194214.377500", "194215.867500", "194217.357500", "194218.847500", "194220.337500", "194221.827500", "194223.317500", "194224.807500", "194226.297500", "194227.787500", "194229.277500", "194230.767500", "194232.257500", "194233.747500", "194235.237500", "194236.727500", "194238.217500", "194239.707500", "194241.197500", "194242.687500", "194244.177500", "194245.667500", "194247.157500", "194248.647500", "194250.137500", "194251.627500", "194253.117500", "194254.607500", "194256.097500", "194257.587500", "194259.077500", "194300.567500", "194302.057500", "194303.547500", "194305.037500", "194306.527500", "194308.017500", "194309.507500", "194310.997500", "194312.487500", "194313.977500", "194315.467500", "194316.957500", "194318.447500", "194319.937500", "194321.427500", "194322.917500", "194324.407500", "194325.897500", "194327.387500", "194328.877500", "194330.367500", "194331.857500", "194333.347500", "194334.837500", "194336.327500", "194337.817500", "194339.307500", "194340.797500", "194342.287500", "194343.777500", "194345.267500", "194346.757500", "194348.247500", "194349.737500", "194351.227500", "194352.717500", "194354.207500", "194355.697500", "194357.187500", "194358.677500", "194400.167500", "194401.657500", "194403.147500", "194404.637500", "194406.127500", "194407.617500", "194409.107500", "194410.597500", "194412.087500", "194413.577500", "194415.067500", "194416.557500", "194418.047500", "194419.537500", "194421.027500", "194422.517500", "194424.007500", "194425.497500", "194426.987500", "194428.477500", "194429.967500", "194431.457500", "194432.947500", "194434.437500", "194435.927500", "194437.417500", "194438.907500", "194440.397500", "194441.887500", "194443.377500", "194444.867500", "194446.357500", "194447.847500", "194449.337500", "194450.827500", "194452.317500", "194453.807500", "194455.297500", "194456.787500", "194458.277500", "194459.767500", "194501.257500", "194502.747500", "194504.237500", "194505.727500", "194507.217500", "194508.707500", "194510.197500", "194511.687500", "194513.177500", "194514.667500", "194516.157500", "194517.647500", "194519.137500", "194520.627500", "194522.117500", "194523.607500", "194525.097500", "194526.587500", "194528.077500", "194529.567500", "194531.057500", "194532.547500", "194534.037500", "194535.527500", "194537.017500", "194538.507500", "194539.997500", "194541.487500", "194542.977500", "194544.467500", "194545.957500", "194547.447500", "194548.937500", "194550.427500", "194551.917500", "194553.407500", "194554.897500", "194556.387500", "194557.877500", "194559.367500", "194600.857500", "194602.347500", "194603.837500", "194605.327500", "194606.817500", "194608.307500", "194609.797500", "194611.287500", "194612.777500", "194614.267500", "194615.757500", "194617.247500", "194618.737500", "194620.227500", "194621.717500", "194623.207500", "194624.697500", "194626.187500", "194627.677500", "194629.167500", "194630.657500", "194632.147500", "194633.637500", "194635.127500", "194636.617500", "194638.107500", "194639.597500", "194641.087500", "194642.577500", "194644.067500", "194645.557500", "194647.047500", "194648.537500", "194650.027500", "194651.517500", "194653.007500", "194654.497500", "194655.987500", "194657.477500", "194658.967500", "194700.457500", "194701.947500", "194703.437500", "194704.927500", "194706.417500", "194707.907500", "194709.397500", "194710.887500", "194712.377500", "194713.867500", "194715.357500", "194716.847500", "194718.337500", "194719.827500", "194721.317500", "194722.807500", "194724.297500", "194725.787500", "194727.277500", "194728.767500", "194730.257500", "194731.747500", "194733.237500", "194734.727500", "194736.217500", "194737.707500", "194739.197500", "194740.687500", "194742.177500", "194743.667500", "194745.157500", "194746.647500", "194748.137500", "194749.627500", "194751.117500", "194752.607500", "194754.097500", "194755.587500", "194757.077500", "194758.567500", "194800.057500", "194801.547500", "194803.037500", "194804.527500", "194806.017500", "194807.507500", "194808.997500", "194810.487500", "194811.977500", "194813.467500", "194814.957500", "194816.447500", "194817.937500", "194819.427500", "194820.917500", "194822.407500", "194823.897500", "194825.387500", "194826.877500", "194828.367500", "194829.857500", "194831.347500", "194832.837500", "194834.327500", "194835.817500", "194837.307500", "194838.797500", "194840.287500", "194841.777500", "194843.267500", "194844.757500", "194846.247500", "194847.737500", "194849.227500", "194850.717500", "194852.207500", "194853.697500", "194855.187500", "194856.677500", "194858.167500", "194859.657500", "194901.147500", "194902.637500", "194904.127500", "194905.617500", "194907.107500", "194908.597500", "194910.087500", "194911.577500", "194913.067500", "194914.557500", "194916.047500", "194917.537500", "194919.027500", "194920.517500", "194922.007500", "194923.497500", "194924.987500", "194926.477500", "194927.967500", "194929.457500", "194930.947500", "194932.437500", "194933.927500", "194935.417500", "194936.907500", "194938.397500", "194939.887500", "194941.377500", "194942.867500", "194944.357500", "194945.847500", "194947.337500", "194948.827500", "194950.317500", "194951.807500", "194953.297500", "194954.787500", "194956.277500", "194957.767500", "194959.257500", "195000.747500", "195002.237500", "195003.727500", "195005.217500"],
      "ContentTime": ["194233.421000", "194233.426000", "194233.430000", "194233.433000", "194233.437000", "194233.440000", "194233.449000", "194233.452000", "194233.456000", "194253.388000", "194253.392000", "194253.399000", "194253.403000", "194253.406000", "194253.410000", "194253.413000", "194253.416000", "194253.420000", "194253.423000", "194253.426000", "194253.430000", "194253.433000", "194253.436000", "194253.467000", "194253.470000", "194253.473000", "194253.477000", "194253.480000", "194253.484000", "194313.388000", "194313.392000", "194313.439000", "194313.443000", "194313.446000", "194313.450000", "194313.453000", "194313.456000", "194313.460000", "194313.463000", "194313.466000", "194313.470000", "194313.473000", "194313.476000", "194313.480000", "194313.483000", "194313.486000", "194313.490000", "194313.493000", "194313.497000", "194313.500000", "194333.389000", "194333.393000", "194333.396000", "194333.400000", "194333.403000", "194333.406000", "194333.410000", "194333.413000", "194333.417000", "194333.420000", "194333.423000", "194333.427000", "194333.430000", "194333.433000", "194333.437000", "194333.440000", "194333.451000", "194333.455000", "194333.459000", "194333.462000", "194353.389000", "194353.393000", "194353.396000", "194353.400000", "194353.403000", "194353.407000", "194353.410000", "194353.413000", "194353.417000", "194353.420000", "194353.424000", "194353.427000", "194353.431000", "194353.434000", "194353.438000", "194353.441000", "194353.445000", "194353.448000", "194353.451000", "194353.455000", "194433.389000", "194433.393000", "194433.396000", "194433.400000", "194433.410000", "194433.413000", "194433.417000", "194433.420000", "194433.423000", "194433.427000", "194433.430000", "194433.434000", "194433.437000", "194433.440000", "194433.444000", "194433.447000", "194433.450000", "194433.454000", "194433.457000", "194433.461000", "194433.464000", "194433.467000", "194433.485000", "194433.488000", "194433.491000", "194433.495000", "194433.498000", "194433.501000", "194433.505000", "194433.508000", "194513.388000", "194513.392000", "194513.395000", "194513.399000", "194513.402000", "194513.406000", "194513.409000", "194513.413000", "194513.416000", "194513.420000", "194513.425000", "194513.428000", "194513.431000", "194513.435000", "194513.438000", "194513.442000", "194513.445000", "194513.448000", "194513.452000", "194513.455000", "194513.458000", "194513.462000", "194513.465000", "194513.469000", "194513.472000", "194513.476000", "194553.389000", "194553.393000", "194553.396000", "194553.400000", "194553.403000", "194553.407000", "194553.410000", "194553.413000", "194553.417000", "194553.420000", "194553.423000", "194553.427000", "194553.430000", "194553.434000", "194553.437000", "194553.440000", "194553.444000", "194553.447000", "194553.451000", "194553.454000", "194553.457000", "194553.461000", "194553.464000", "194553.468000", "194553.471000", "194553.474000", "194553.478000", "194633.390000", "194633.393000", "194633.397000", "194633.400000", "194633.403000", "194633.407000", "194633.410000", "194633.414000", "194633.417000", "194633.421000", "194633.424000", "194633.427000", "194633.431000", "194633.434000", "194633.438000", "194633.441000", "194633.445000", "194633.448000", "194633.452000", "194633.455000", "194633.458000", "194633.462000", "194633.465000", "194633.469000", "194633.472000", "194633.475000", "194633.479000", "194713.402000", "194713.405000", "194713.409000", "194713.412000", "194713.416000", "194713.419000", "194713.423000", "194713.426000", "194713.429000", "194713.433000", "194713.436000", "194713.440000", "194713.443000", "194713.446000", "194713.450000", "194713.453000", "194713.456000", "194713.460000", "194713.463000", "194713.467000", "194713.470000", "194713.473000", "194713.477000", "194713.480000", "194713.484000", "194713.487000", "194713.490000", "194753.388000", "194753.392000", "194753.396000", "194753.399000", "194753.402000", "194753.406000", "194753.409000", "194753.413000", "194753.417000", "194753.420000", "194753.423000", "194753.427000", "194753.430000", "194753.434000", "194753.437000", "194753.441000", "194753.454000", "194753.457000", "194753.460000", "194753.464000", "194753.467000", "194753.470000", "194753.474000", "194753.477000", "194753.481000", "194753.484000", "194753.487000", "194833.389000", "194833.393000", "194833.396000", "194833.400000", "194833.403000", "194833.407000", "194833.410000", "194833.413000", "194833.417000", "194833.420000", "194833.424000", "194833.427000", "194833.430000", "194833.434000", "194833.437000", "194833.441000", "194833.444000", "194833.448000", "194833.451000", "194833.454000", "194833.458000", "194833.461000", "194833.465000", "194833.468000", "194833.471000", "194833.475000", "194833.478000", "194913.389000", "194913.393000", "194913.396000", "194913.400000", "194913.403000", "194913.407000", "194913.410000", "194913.414000", "194913.417000", "194913.421000", "194913.424000", "194913.427000", "194913.438000", "194913.441000", "194913.445000", "194913.448000", "194913.452000", "194913.455000", "194913.458000", "194913.462000", "194913.465000", "194913.469000", "194913.472000", "194913.476000", "194913.479000", "194913.482000", "194913.486000", "194953.388000", "194953.392000", "194953.395000", "194953.400000", "194953.404000", "194953.407000", "194953.410000", "194953.414000", "194953.417000", "194953.421000", "194953.424000", "194953.427000", "194953.431000", "194953.434000", "194953.438000", "194953.441000", "194953.444000", "194953.448000", "194953.451000", "194953.455000", "194953.458000", "194953.462000", "194953.465000", "194953.468000", "194953.472000", "194953.475000", "195007.181000", "195007.216000", "195007.219000", "195007.223000", "195007.226000", "195007.229000", "195007.233000", "195007.236000", "195007.240000", "195007.243000"],
      "InstanceCreationTime": ["194233.421000", "194233.426000", "194233.430000", "194233.433000", "194233.437000", "194233.440000", "194233.449000", "194233.452000", "194233.456000", "194253.388000", "194253.392000", "194253.399000", "194253.403000", "194253.406000", "194253.410000", "194253.413000", "194253.416000", "194253.420000", "194253.423000", "194253.426000", "194253.430000", "194253.433000", "194253.436000", "194253.467000", "194253.470000", "194253.473000", "194253.477000", "194253.480000", "194253.484000", "194313.388000", "194313.392000", "194313.439000", "194313.443000", "194313.446000", "194313.450000", "194313.453000", "194313.456000", "194313.460000", "194313.463000", "194313.466000", "194313.470000", "194313.473000", "194313.476000", "194313.480000", "194313.483000", "194313.486000", "194313.490000", "194313.493000", "194313.497000", "194313.500000", "194333.389000", "194333.393000", "194333.396000", "194333.400000", "194333.403000", "194333.406000", "194333.410000", "194333.413000", "194333.417000", "194333.420000", "194333.423000", "194333.427000", "194333.430000", "194333.433000", "194333.437000", "194333.440000", "194333.451000", "194333.455000", "194333.459000", "194333.462000", "194353.389000", "194353.393000", "194353.396000", "194353.400000", "194353.403000", "194353.407000", "194353.410000", "194353.413000", "194353.417000", "194353.420000", "194353.424000", "194353.427000", "194353.431000", "194353.434000", "194353.438000", "194353.441000", "194353.445000", "194353.448000", "194353.451000", "194353.455000", "194433.389000", "194433.393000", "194433.396000", "194433.400000", "194433.410000", "194433.413000", "194433.417000", "194433.420000", "194433.423000", "194433.427000", "194433.430000", "194433.434000", "194433.437000", "194433.440000", "194433.444000", "194433.447000", "194433.450000", "194433.454000", "194433.457000", "194433.461000", "194433.464000", "194433.467000", "194433.485000", "194433.488000", "194433.491000", "194433.495000", "194433.498000", "194433.501000", "194433.505000", "194433.508000", "194513.388000", "194513.392000", "194513.395000", "194513.399000", "194513.402000", "194513.406000", "194513.409000", "194513.413000", "194513.416000", "194513.420000", "194513.425000", "194513.428000", "194513.431000", "194513.435000", "194513.438000", "194513.442000", "194513.445000", "194513.448000", "194513.452000", "194513.455000", "194513.458000", "194513.462000", "194513.465000", "194513.469000", "194513.472000", "194513.476000", "194553.389000", "194553.393000", "194553.396000", "194553.400000", "194553.403000", "194553.407000", "194553.410000", "194553.413000", "194553.417000", "194553.420000", "194553.423000", "194553.427000", "194553.430000", "194553.434000", "194553.437000", "194553.440000", "194553.444000", "194553.447000", "194553.451000", "194553.454000", "194553.457000", "194553.461000", "194553.464000", "194553.468000", "194553.471000", "194553.474000", "194553.478000", "194633.390000", "194633.393000", "194633.397000", "194633.400000", "194633.403000", "194633.407000", "194633.410000", "194633.414000", "194633.417000", "194633.421000", "194633.424000", "194633.427000", "194633.431000", "194633.434000", "194633.438000", "194633.441000", "194633.445000", "194633.448000", "194633.452000", "194633.455000", "194633.458000", "194633.462000", "194633.465000", "194633.469000", "194633.472000", "194633.475000", "194633.479000", "194713.402000", "194713.405000", "194713.409000", "194713.412000", "194713.416000", "194713.419000", "194713.423000", "194713.426000", "194713.429000", "194713.433000", "194713.436000", "194713.440000", "194713.443000", "194713.446000", "194713.450000", "194713.453000", "194713.456000", "194713.460000", "194713.463000", "194713.467000", "194713.470000", "194713.473000", "194713.477000", "194713.480000", "194713.484000", "194713.487000", "194713.490000", "194753.388000", "194753.392000", "194753.396000", "194753.399000", "194753.402000", "194753.406000", "194753.409000", "194753.413000", "194753.417000", "194753.420000", "194753.423000", "194753.427000", "194753.430000", "194753.434000", "194753.437000", "194753.441000", "194753.454000", "194753.457000", "194753.460000", "194753.464000", "194753.467000", "194753.470000", "194753.474000", "194753.477000", "194753.481000", "194753.484000", "194753.487000", "194833.389000", "194833.393000", "194833.396000", "194833.400000", "194833.403000", "194833.407000", "194833.410000", "194833.413000", "194833.417000", "194833.420000", "194833.424000", "194833.427000", "194833.430000", "194833.434000", "194833.437000", "194833.441000", "194833.444000", "194833.448000", "194833.451000", "194833.454000", "194833.458000", "194833.461000", "194833.465000", "194833.468000", "194833.471000", "194833.475000", "194833.478000", "194913.389000", "194913.393000", "194913.396000", "194913.400000", "194913.403000", "194913.407000", "194913.410000", "194913.414000", "194913.417000", "194913.421000", "194913.424000", "194913.427000", "194913.438000", "194913.441000", "194913.445000", "194913.448000", "194913.452000", "194913.455000", "194913.458000", "194913.462000", "194913.465000", "194913.469000", "194913.472000", "194913.476000", "194913.479000", "194913.482000", "194913.486000", "194953.388000", "194953.392000", "194953.395000", "194953.400000", "194953.404000", "194953.407000", "194953.410000", "194953.414000", "194953.417000", "194953.421000", "194953.424000", "194953.427000", "194953.431000", "194953.434000", "194953.438000", "194953.441000", "194953.444000", "194953.448000", "194953.451000", "194953.455000", "194953.458000", "194953.462000", "194953.465000", "194953.468000", "194953.472000", "194953.475000", "195007.181000", "195007.216000", "195007.219000", "195007.223000", "195007.226000", "195007.229000", "195007.233000", "195007.236000", "195007.240000", "195007.243000"],
      "InstanceNumber": [1, 2, 3, 4, 5, 6, 7, 8, 9, 10, 11, 12, 13, 14, 15, 16, 17, 18, 19, 20, 21, 22, 23, 24, 25, 26, 27, 28, 29, 30, 31, 32, 33, 34, 35, 36, 37, 38, 39, 40, 41, 42, 43, 44, 45, 46, 47, 48, 49, 50, 51, 52, 53, 54, 55, 56, 57, 58, 59, 60, 61, 62, 63, 64, 65, 66, 67, 68, 69, 70, 71, 72, 73, 74, 75, 76, 77, 78, 79, 80, 81, 82, 83, 84, 85, 86, 87, 88, 89, 90, 91, 92, 93, 94, 95, 96, 97, 98, 99, 100, 101, 102, 103, 104, 105, 106, 107, 108, 109, 110, 111, 112, 113, 114, 115, 116, 117, 118, 119, 120, 121, 122, 123, 124, 125, 126, 127, 128, 129, 130, 131, 132, 133, 134, 135, 136, 137, 138, 139, 140, 141, 142, 143, 144, 145, 146, 147, 148, 149, 150, 151, 152, 153, 154, 155, 156, 157, 158, 159, 160, 161, 162, 163, 164, 165, 166, 167, 168, 169, 170, 171, 172, 173, 174, 175, 176, 177, 178, 179, 180, 181, 182, 183, 184, 185, 186, 187, 188, 189, 190, 191, 192, 193, 194, 195, 196, 197, 198, 199, 200, 201, 202, 203, 204, 205, 206, 207, 208, 209, 210, 211, 212, 213, 214, 215, 216, 217, 218, 219, 220, 221, 222, 223, 224, 225, 226, 227, 228, 229, 230, 231, 232, 233, 234, 235, 236, 237, 238, 239, 240, 241, 242, 243, 244, 245, 246, 247, 248, 249, 250, 251, 252, 253, 254, 255, 256, 257, 258, 259, 260, 261, 262, 263, 264, 265, 266, 267, 268, 269, 270, 271, 272, 273, 274, 275, 276, 277, 278, 279, 280, 281, 282, 283, 284, 285, 286, 287, 288, 289, 290, 291, 292, 293, 294, 295, 296, 297, 298, 299, 300, 301, 302, 303, 304, 305, 306, 307, 308, 309, 310, 311, 312, 313, 314, 315, 316, 317, 318, 319, 320, 321, 322, 323, 324, 325, 326, 327, 328, 329, 330, 331, 332, 333, 334, 335, 336, 337, 338, 339, 340, 341, 342, 343, 344],
      "LargestImagePixelValue": [58725, 57016, 56242, 55046, 55762, 54826, 54525, 55845, 54542, 55164, 55178, 55030, 54997, 55157, 54604, 55427, 54837, 55270, 55471, 54379, 54655, 54508, 54984, 56018, 55551, 55489, 55078, 54714, 55442, 55235, 55009, 54351, 55772, 54101, 54985, 54669, 55123, 55015, 55855, 55462, 54526, 54506, 54761, 55405, 54642, 54771, 54589, 54696, 54148, 54896, 54468, 54619, 55550, 54045, 55135, 55124, 54025, 53992, 54627, 54287, 55081, 53902, 55517, 54449, 55236, 55874, 56158, 54678, 55643, 55275, 56340, 54797, 55503, 55459, 54087, 56003, 54624, 56033, 54747, 56527, 55179, 55458, 55170, 55264, 55528, 55401, 55722, 54921, 55593, 54937, 56057, 54337, 55409, 54993, 56490, 55729, 54949, 55526, 55545, 55373, 55562, 56081, 56018, 54798, 55976, 56115, 55207, 56327, 55535, 54456, 55877, 55763, 54966, 54969, 54911, 55269, 54573, 54643, 55391, 55032, 55873, 55853, 55218, 55103, 56079, 55245, 55488, 55010, 55422, 55395, 55380, 54789, 55500, 54607, 55678, 55677, 55737, 56000, 54978, 55590, 55091, 55000, 55297, 54995, 54926, 55567, 54884, 55964, 55133, 55748, 55631, 55461, 55474, 54448, 55816, 55148, 54592, 55492, 55205, 54952, 55223, 55091, 55302, 55685, 54995, 55247, 54914, 55560, 55371, 55239, 55077, 54748, 55568, 55213, 54314, 55614, 54316, 54547, 54799, 54750, 54772, 54595, 53267, 54598, 54838, 53652, 55482, 55218, 53840, 53211, 53381, 53181, 53348, 53950, 53066, 53876, 56041, 55397, 54758, 53839, 53418, 53566, 53354, 54054, 53374, 55159, 54564, 54840, 55624, 55319, 54491, 53867, 54495, 53935, 53658, 53870, 53831, 54337, 53833, 54520, 54125, 54236, 54166, 54513, 53856, 54529, 53692, 54138, 54265, 53526, 54300, 54041, 53749, 53733, 53824, 54136, 53522, 54350, 54129, 54610, 54566, 54919, 55016, 55353, 55738, 54768, 55119, 55029, 55964, 54689, 54814, 54804, 54392, 54298, 54681, 55311, 55121, 54901, 55287, 55773, 55425, 55739, 55533, 55964, 55285, 55870, 55228, 55325, 55154, 54609, 55332, 55451, 55711, 55078, 55479, 55348, 55228, 55520, 55587, 55390, 55524, 55478, 55403, 55510, 55361, 55548, 55221, 55214, 55253, 55181, 55386, 55121, 55601, 55590, 55289, 55268, 55825, 55410, 55288, 55347, 55685, 55530, 55532, 55424, 55687, 55274, 55674, 55919, 55974, 55517, 55766, 55753, 55696, 55723, 55858, 55552, 55297, 55493, 55605, 55657, 55472, 55749, 54875, 56054, 55565, 54781, 54738, 54823, 55330, 54936, 55048, 54893, 55009, 55348, 54822, 54997, 54650, 55015, 54732, 54768, 54617, 54949, 54837, 55506],
