{
  "AcquisitionMatrixPE": 104,
  "AcquisitionNumber": 1,
  "AcquisitionTime": "19:30:47.477500",
  "BandwidthPerPixelPhaseEncode": 17.17,
  "BaseResolution": 104,
  "BodyPartExamined": "BRAIN",
  "CoilCombinationMethod": "Sum of Squares",
  "ConsistencyInfo": "N4_VE11C_LATEST_20160120",
  "ConversionSoftware": "dcm2niix",
  "ConversionSoftwareVersion": "v1.0.20220505",
  "DerivedVendorReportedEchoSpacing": 0.000560011,
  "DeviceSerialNumber": "167006",
  "DwellTime": 2.1e-06,
  "EchoTime": 0.037,
  "EchoTime1": 0.037,
  "EchoTime2": 0.001,
  "EchoTrainLength": 104,
  "EffectiveEchoSpacing": 0.000560011,
  "FlipAngle": 52,
  "HeudiconvVersion": "0.5.3.post811+g6206e14",
  "ImageComments": "Unaliased MB4/PE3/LB",
  "ImageOrientationPatientDICOM": [0.999892, -0.0123771, 0.00797348, 0.0144857, 0.923873, -0.382425],
  "ImageOrientationText": "Tra>Cor(-22.5)>Sag(0.2)",
  "ImageType": [
    "ORIGINAL",
    "PRIMARY",
    "P",
    "MB",
    "ND",
    "MOSAIC",
    "PHASE"
],
  "ImagingFrequency": 123.259,
  "InPlanePhaseEncodingDirectionDICOM": "COL",
  "InstitutionAddress": "Chemin Queen-Mary 4565,Montreal,District,CA,H3W 1W5",
  "InstitutionName": "IUGM",
  "InstitutionalDepartmentName": "Department",
  "MRAcquisitionType": "2D",
  "MagneticFieldStrength": 3,
  "Manufacturer": "Siemens",
  "ManufacturersModelName": "Prisma_fit",
  "MatrixCoilMode": "SENSE",
  "Modality": "MR",
  "MultibandAccelerationFactor": 4,
  "PartialFourier": 1,
  "PatientPosition": "HFS",
  "PercentPhaseFOV": 100,
  "PercentSampling": 100,
  "PhaseEncodingDirection": "j",
  "PhaseEncodingSteps": 104,
  "PhaseResolution": 1,
  "PixelBandwidth": 2290,
  "ProcedureStepDescription": "games^mario3",
  "ProtocolName": "func_task-mario3_run-04",
  "PulseSequenceDetails": "%CustomerSeq%\\cmrr_mbep2d_bold",
  "ReceiveCoilActiveElements": "HC1-7;NC1,2",
  "ReceiveCoilName": "HeadNeck_64",
  "ReconMatrixPE": 104,
  "RepetitionTime": 1.49,
  "SAR": 0.0629404,
  "ScanOptions": "FS",
  "ScanningSequence": "EP",
  "SequenceName": "epfid2d1_104",
  "SequenceVariant": "SK\\SS",
  "SeriesDescription": "func_task-mario3_run-04",
  "SeriesNumber": 28,
  "ShimSetting": [588, -7296, -8818, 399, 23, -371, -74, 95],
  "SliceThickness": 2,
  "SliceTiming": [0, 0.785, 0.1, 0.8825, 0.1975, 0.98, 0.295, 1.08, 0.3925, 1.1775, 0.49, 1.275, 0.59, 1.3725, 0.6875, 0, 0.785, 0.1, 0.8825, 0.1975, 0.98, 0.295, 1.08, 0.3925, 1.1775, 0.49, 1.275, 0.59, 1.3725, 0.6875, 0, 0.785, 0.1, 0.8825, 0.1975, 0.98, 0.295, 1.08, 0.3925, 1.1775, 0.49, 1.275, 0.59, 1.3725, 0.6875, 0, 0.785, 0.1, 0.8825, 0.1975, 0.98, 0.295, 1.08, 0.3925, 1.1775, 0.49, 1.275, 0.59, 1.3725, 0.6875],
  "SoftwareVersions": "syngo MR E11",
  "SpacingBetweenSlices": 2,
  "StationName": "MRC35049",
  "TaskName": "mario3",
  "TotalReadoutTime": 0.0576811,
  "TxRefAmp": 274.908,
  "WipMemBlock": "d3f10537-6cf7-4f1a-9083-d0f49e091a2d||Sequence: R017 ve11c/master r/75a17815+; Jun 28 2022 16:32:11 by eja",
  "dcmmeta_affine": [
    [-1.9997832775115967, 0.028971385210752487, 0.005266336724162102, 102.4712905883789],
    [0.024754194542765617, 1.8477458953857422, -0.7649981379508972, -69.113037109375],
    [0.015946954488754272, 0.7648500800132751, 1.8479042053222656, -63.39548110961914],
    [0.0, 0.0, 0.0, 1.0]
],
  "dcmmeta_reorient_transform": [
    [0.0, -1.0, 0.0, 103.0],
    [1.0, 0.0, 0.0, 0.0],
    [0.0, 0.0, 1.0, 0.0],
    [0.0, 0.0, 0.0, 1.0]
],
  "dcmmeta_shape": [104, 104, 60, 354],
  "dcmmeta_slice_dim": 2,
  "dcmmeta_version": 0.6,
  "global": {
    "const": {
      "AcquisitionMatrix": [104, 0, 0, 104],
      "AngioFlag": "N",
      "BitsAllocated": 16,
      "BitsStored": 16,
      "BodyPartExamined": "BRAIN",
      "Columns": 832,
      "EchoNumbers": 1,
      "EchoTime": 37.0,
      "EchoTrainLength": 104,
      "FlipAngle": 52.0,
      "HighBit": 15,
      "ImageOrientationPatient": [0.99989160968953, -0.0123770970053, 0.00797347742268, 0.01448569279931, 0.92387296784565, -0.3824250305461],
      "ImagePositionPatient": [-843.92201729753, -784.77379191035, 287.98480662435],
      "ImageType": [
        "ORIGINAL",
        "PRIMARY",
        "P",
        "MB",
        "ND",
        "MOSAIC"
],
      "ImagedNucleus": "1H",
      "ImagingFrequency": 123.258949,
      "InPlanePhaseEncodingDirection": "COL",
      "LargestImagePixelValue": 4095,
      "MRAcquisitionType": "2D",
      "MagneticFieldStrength": 3.0,
      "Manufacturer": "SIEMENS",
      "ManufacturerModelName": "Prisma_fit",
      "Modality": "MR",
      "NumberOfAverages": 1.0,
      "NumberOfPhaseEncodingSteps": 104,
      "PercentPhaseFieldOfView": 100.0,
      "PercentSampling": 100.0,
      "PerformedProcedureStepStartTime": "183335.830000",
      "PhotometricInterpretation": "MONOCHROME2",
      "PixelBandwidth": 2290.0,
      "PixelRepresentation": 0,
      "PixelSpacing": [2.0, 2.0],
      "ProtocolName": "func_task-mario3_run-04",
      "RepetitionTime": 1490.0,
      "RescaleIntercept": -4096.0,
      "RescaleSlope": 2.0,
      "RescaleType": "US",
      "Rows": 832,
      "SAR": 0.06294035882602,
      "SamplesPerPixel": 1,
      "ScanOptions": "FS",
      "ScanningSequence": "EP",
      "SequenceName": "epfid2d1_104",
      "SequenceVariant": [
        "SK",
        "SS"
],
      "SeriesDescription": "func_task-mario3_run-04",
      "SeriesNumber": 28,
      "SeriesTime": "193139.787000",
      "SliceLocation": -31.868892517599,
      "SliceThickness": 2.0,
      "SmallestImagePixelValue": 0,
      "SoftwareVersions": "syngo MR E11",
      "SpacingBetweenSlices": 1.9999999383807,
      "SpecificCharacterSet": "ISO_IR 100",
      "StudyID": "1",
      "StudyTime": "183335.756000",
      "TransmitCoilName": "Body",
      "VariableFlipAngleFlag": "N",
      "WindowCenterWidthExplanation": "Algo1",
      "dBdt": 0.0},
    "slices": {}
  },
  "time": {
    "samples": {
      "AcquisitionNumber": [1, 2, 3, 4, 5, 6, 7, 8, 9, 10, 11, 12, 13, 14, 15, 16, 17, 18, 19, 20, 21, 22, 23, 24, 25, 26, 27, 28, 29, 30, 31, 32, 33, 34, 35, 36, 37, 38, 39, 40, 41, 42, 43, 44, 45, 46, 47, 48, 49, 50, 51, 52, 53, 54, 55, 56, 57, 58, 59, 60, 61, 62, 63, 64, 65, 66, 67, 68, 69, 70, 71, 72, 73, 74, 75, 76, 77, 78, 79, 80, 81, 82, 83, 84, 85, 86, 87, 88, 89, 90, 91, 92, 93, 94, 95, 96, 97, 98, 99, 100, 101, 102, 103, 104, 105, 106, 107, 108, 109, 110, 111, 112, 113, 114, 115, 116, 117, 118, 119, 120, 121, 122, 123, 124, 125, 126, 127, 128, 129, 130, 131, 132, 133, 134, 135, 136, 137, 138, 139, 140, 141, 142, 143, 144, 145, 146, 147, 148, 149, 150, 151, 152, 153, 154, 155, 156, 157, 158, 159, 160, 161, 162, 163, 164, 165, 166, 167, 168, 169, 170, 171, 172, 173, 174, 175, 176, 177, 178, 179, 180, 181, 182, 183, 184, 185, 186, 187, 188, 189, 190, 191, 192, 193, 194, 195, 196, 197, 198, 199, 200, 201, 202, 203, 204, 205, 206, 207, 208, 209, 210, 211, 212, 213, 214, 215, 216, 217, 218, 219, 220, 221, 222, 223, 224, 225, 226, 227, 228, 229, 230, 231, 232, 233, 234, 235, 236, 237, 238, 239, 240, 241, 242, 243, 244, 245, 246, 247, 248, 249, 250, 251, 252, 253, 254, 255, 256, 257, 258, 259, 260, 261, 262, 263, 264, 265, 266, 267, 268, 269, 270, 271, 272, 273, 274, 275, 276, 277, 278, 279, 280, 281, 282, 283, 284, 285, 286, 287, 288, 289, 290, 291, 292, 293, 294, 295, 296, 297, 298, 299, 300, 301, 302, 303, 304, 305, 306, 307, 308, 309, 310, 311, 312, 313, 314, 315, 316, 317, 318, 319, 320, 321, 322, 323, 324, 325, 326, 327, 328, 329, 330, 331, 332, 333, 334, 335, 336, 337, 338, 339, 340, 341, 342, 343, 344, 345, 346, 347, 348, 349, 350, 351, 352, 353, 354],
      "AcquisitionTime": ["193047.477500", "193048.967500", "193050.457500", "193051.947500", "193053.437500", "193054.927500", "193056.417500", "193057.907500", "193059.397500", "193100.887500", "193102.377500", "193103.867500", "193105.357500", "193106.847500", "193108.337500", "193109.827500", "193111.317500", "193112.807500", "193114.297500", "193115.787500", "193117.277500", "193118.767500", "193120.257500", "193121.747500", "193123.237500", "193124.727500", "193126.217500", "193127.707500", "193129.197500", "193130.687500", "193132.177500", "193133.667500", "193135.157500", "193136.647500", "193138.137500", "193139.627500", "193141.117500", "193142.607500", "193144.097500", "193145.587500", "193147.077500", "193148.567500", "193150.057500", "193151.547500", "193153.037500", "193154.527500", "193156.017500", "193157.507500", "193158.997500", "193200.487500", "193201.977500", "193203.467500", "193204.957500", "193206.447500", "193207.937500", "193209.427500", "193210.917500", "193212.407500", "193213.897500", "193215.387500", "193216.877500", "193218.367500", "193219.857500", "193221.347500", "193222.837500", "193224.327500", "193225.817500", "193227.307500", "193228.797500", "193230.287500", "193231.777500", "193233.267500", "193234.757500", "193236.247500", "193237.737500", "193239.227500", "193240.717500", "193242.207500", "193243.697500", "193245.187500", "193246.677500", "193248.167500", "193249.657500", "193251.147500", "193252.637500", "193254.127500", "193255.617500", "193257.107500", "193258.597500", "193300.087500", "193301.577500", "193303.067500", "193304.557500", "193306.047500", "193307.537500", "193309.027500", "193310.517500", "193312.007500", "193313.497500", "193314.987500", "193316.477500", "193317.967500", "193319.457500", "193320.947500", "193322.437500", "193323.927500", "193325.417500", "193326.907500", "193328.397500", "193329.887500", "193331.377500", "193332.867500", "193334.357500", "193335.847500", "193337.337500", "193338.827500", "193340.317500", "193341.807500", "193343.297500", "193344.787500", "193346.277500", "193347.767500", "193349.257500", "193350.747500", "193352.237500", "193353.727500", "193355.217500", "193356.707500", "193358.197500", "193359.687500", "193401.177500", "193402.667500", "193404.157500", "193405.647500", "193407.137500", "193408.627500", "193410.117500", "193411.607500", "193413.097500", "193414.587500", "193416.077500", "193417.567500", "193419.057500", "193420.547500", "193422.037500", "193423.527500", "193425.017500", "193426.507500", "193427.997500", "193429.487500", "193430.977500", "193432.467500", "193433.957500", "193435.447500", "193436.937500", "193438.427500", "193439.917500", "193441.407500", "193442.897500", "193444.387500", "193445.877500", "193447.367500", "193448.857500", "193450.347500", "193451.837500", "193453.327500", "193454.817500", "193456.307500", "193457.797500", "193459.287500", "193500.777500", "193502.267500", "193503.757500", "193505.247500", "193506.737500", "193508.227500", "193509.717500", "193511.207500", "193512.697500", "193514.187500", "193515.677500", "193517.167500", "193518.657500", "193520.147500", "193521.637500", "193523.127500", "193524.617500", "193526.107500", "193527.597500", "193529.087500", "193530.577500", "193532.067500", "193533.557500", "193535.047500", "193536.537500", "193538.027500", "193539.517500", "193541.007500", "193542.497500", "193543.987500", "193545.477500", "193546.967500", "193548.457500", "193549.947500", "193551.437500", "193552.927500", "193554.417500", "193555.907500", "193557.397500", "193558.887500", "193600.377500", "193601.867500", "193603.357500", "193604.847500", "193606.337500", "193607.827500", "193609.317500", "193610.807500", "193612.297500", "193613.787500", "193615.277500", "193616.767500", "193618.257500", "193619.747500", "193621.237500", "193622.727500", "193624.217500", "193625.707500", "193627.197500", "193628.687500", "193630.177500", "193631.667500", "193633.157500", "193634.647500", "193636.137500", "193637.627500", "193639.117500", "193640.607500", "193642.097500", "193643.587500", "193645.077500", "193646.567500", "193648.057500", "193649.547500", "193651.037500", "193652.527500", "193654.017500", "193655.507500", "193656.997500", "193658.487500", "193659.977500", "193701.467500", "193702.957500", "193704.447500", "193705.937500", "193707.427500", "193708.917500", "193710.407500", "193711.897500", "193713.387500", "193714.877500", "193716.367500", "193717.857500", "193719.347500", "193720.837500", "193722.327500", "193723.817500", "193725.307500", "193726.797500", "193728.287500", "193729.777500", "193731.267500", "193732.757500", "193734.247500", "193735.737500", "193737.227500", "193738.717500", "193740.207500", "193741.697500", "193743.187500", "193744.677500", "193746.167500", "193747.657500", "193749.147500", "193750.637500", "193752.127500", "193753.617500", "193755.107500", "193756.597500", "193758.087500", "193759.577500", "193801.067500", "193802.557500", "193804.047500", "193805.537500", "193807.027500", "193808.517500", "193810.007500", "193811.497500", "193812.987500", "193814.477500", "193815.967500", "193817.457500", "193818.947500", "193820.437500", "193821.927500", "193823.417500", "193824.907500", "193826.397500", "193827.887500", "193829.377500", "193830.867500", "193832.357500", "193833.847500", "193835.337500", "193836.827500", "193838.317500", "193839.807500", "193841.297500", "193842.787500", "193844.277500", "193845.767500", "193847.257500", "193848.747500", "193850.237500", "193851.727500", "193853.217500", "193854.707500", "193856.197500", "193857.687500", "193859.177500", "193900.667500", "193902.157500", "193903.647500", "193905.137500", "193906.627500", "193908.117500", "193909.607500", "193911.097500", "193912.587500", "193914.077500", "193915.567500", "193917.057500", "193918.547500", "193920.037500", "193921.527500", "193923.017500", "193924.507500", "193925.997500", "193927.487500", "193928.977500", "193930.467500", "193931.957500", "193933.447500"],
      "ContentTime": ["193139.789000", "193139.791000", "193139.803000", "193159.827000", "193159.833000", "193159.835000", "193159.838000", "193159.841000", "193159.843000", "193159.846000", "193159.848000", "193159.851000", "193159.853000", "193159.856000", "193159.858000", "193159.861000", "193159.863000", "193159.866000", "193159.868000", "193159.871000", "193159.873000", "193159.876000", "193159.878000", "193219.837000", "193219.840000", "193219.842000", "193219.845000", "193219.847000", "193219.850000", "193219.852000", "193219.855000", "193219.857000", "193219.860000", "193219.863000", "193219.865000", "193219.868000", "193219.874000", "193219.876000", "193219.879000", "193219.881000", "193219.884000", "193219.886000", "193219.889000", "193239.837000", "193239.839000", "193239.842000", "193239.844000", "193239.847000", "193239.849000", "193239.852000", "193239.855000", "193239.857000", "193239.860000", "193239.862000", "193239.865000", "193239.867000", "193239.870000", "193239.872000", "193239.875000", "193239.877000", "193239.880000", "193239.882000", "193239.885000", "193259.835000", "193259.838000", "193259.841000", "193259.843000", "193259.846000", "193259.848000", "193259.851000", "193259.853000", "193259.858000", "193259.861000", "193259.863000", "193259.866000", "193259.868000", "193259.871000", "193259.874000", "193259.876000", "193259.879000", "193259.881000", "193259.884000", "193259.886000", "193259.889000", "193339.890000", "193339.893000", "193339.896000", "193339.898000", "193339.901000", "193339.903000", "193339.906000", "193339.908000", "193339.911000", "193339.913000", "193339.916000", "193339.918000", "193339.921000", "193339.923000", "193339.926000", "193339.928000", "193339.931000", "193339.933000", "193339.936000", "193339.939000", "193339.941000", "193339.944000", "193339.946000", "193339.949000", "193339.951000", "193339.954000", "193339.956000", "193339.959000", "193339.962000", "193339.964000", "193339.967000", "193419.875000", "193419.877000", "193419.880000", "193419.883000", "193419.885000", "193419.888000", "193419.890000", "193419.893000", "193419.895000", "193419.898000", "193419.900000", "193419.903000", "193419.905000", "193419.908000", "193419.911000", "193419.913000", "193419.916000", "193419.918000", "193419.921000", "193419.923000", "193419.926000", "193419.928000", "193419.931000", "193419.933000", "193419.936000", "193419.938000", "193459.859000", "193459.862000", "193459.865000", "193459.867000", "193459.870000", "193459.873000", "193459.875000", "193459.878000", "193459.880000", "193459.883000", "193459.885000", "193459.888000", "193459.891000", "193459.893000", "193459.896000", "193459.898000", "193459.901000", "193459.903000", "193459.906000", "193459.908000", "193459.911000", "193459.913000", "193459.916000", "193459.918000", "193459.921000", "193459.924000", "193459.926000", "193539.868000", "193539.871000", "193539.873000", "193539.876000", "193539.878000", "193539.881000", "193539.890000", "193539.892000", "193539.895000", "193539.897000", "193539.900000", "193539.903000", "193539.905000", "193539.908000", "193539.910000", "193539.913000", "193539.915000", "193539.918000", "193539.920000", "193539.923000", "193539.925000", "193539.928000", "193539.930000", "193539.933000", "193539.936000", "193539.938000", "193539.941000", "193619.853000", "193619.856000", "193619.858000", "193619.861000", "193619.864000", "193619.866000", "193619.869000", "193619.871000", "193619.874000", "193619.876000", "193619.879000", "193619.881000", "193619.884000", "193619.886000", "193619.889000", "193619.891000", "193619.894000", "193619.897000", "193619.907000", "193619.910000", "193619.912000", "193619.915000", "193619.918000", "193619.921000", "193619.924000", "193619.926000", "193619.929000", "193659.855000", "193659.858000", "193659.860000", "193659.863000", "193659.865000", "193659.868000", "193659.870000", "193659.873000", "193659.876000", "193659.878000", "193659.881000", "193659.883000", "193659.886000", "193659.888000", "193659.891000", "193659.893000", "193659.896000", "193659.898000", "193659.901000", "193659.903000", "193659.906000", "193659.909000", "193659.911000", "193659.914000", "193659.916000", "193659.919000", "193659.921000", "193739.863000", "193739.866000", "193739.868000", "193739.871000", "193739.873000", "193739.876000", "193739.878000", "193739.881000", "193739.883000", "193739.886000", "193739.888000", "193739.891000", "193739.894000", "193739.896000", "193739.899000", "193739.901000", "193739.904000", "193739.906000", "193739.909000", "193739.911000", "193739.914000", "193739.916000", "193739.919000", "193739.922000", "193739.924000", "193739.927000", "193739.929000", "193819.878000", "193819.880000", "193819.883000", "193819.886000", "193819.888000", "193819.891000", "193819.893000", "193819.896000", "193819.898000", "193819.901000", "193819.904000", "193819.906000", "193819.909000", "193819.911000", "193819.914000", "193819.916000", "193819.919000", "193819.921000", "193819.924000", "193819.926000", "193819.929000", "193819.931000", "193819.934000", "193819.936000", "193819.939000", "193819.942000", "193819.944000", "193859.858000", "193859.862000", "193859.865000", "193859.868000", "193859.870000", "193859.873000", "193859.875000", "193859.878000", "193859.880000", "193859.883000", "193859.885000", "193859.888000", "193859.890000", "193859.893000", "193859.896000", "193859.898000", "193859.901000", "193859.903000", "193859.906000", "193859.908000", "193859.911000", "193859.913000", "193859.916000", "193859.918000", "193859.921000", "193859.923000", "193936.242000", "193936.244000", "193936.247000", "193936.250000", "193936.252000", "193936.255000", "193936.257000", "193936.260000", "193936.262000", "193936.265000", "193936.268000", "193936.270000", "193936.273000", "193936.275000", "193936.278000", "193936.280000", "193936.283000", "193936.285000", "193936.288000", "193936.290000", "193936.293000", "193936.296000", "193936.298000", "193936.301000", "193936.303000"],
      "InstanceCreationTime": ["193139.789000", "193139.791000", "193139.803000", "193159.827000", "193159.833000", "193159.835000", "193159.838000", "193159.841000", "193159.843000", "193159.846000", "193159.848000", "193159.851000", "193159.853000", "193159.856000", "193159.858000", "193159.861000", "193159.863000", "193159.866000", "193159.868000", "193159.871000", "193159.873000", "193159.876000", "193159.878000", "193219.837000", "193219.840000", "193219.842000", "193219.845000", "193219.847000", "193219.850000", "193219.852000", "193219.855000", "193219.857000", "193219.860000", "193219.863000", "193219.865000", "193219.868000", "193219.874000", "193219.876000", "193219.879000", "193219.881000", "193219.884000", "193219.886000", "193219.889000", "193239.837000", "193239.839000", "193239.842000", "193239.844000", "193239.847000", "193239.849000", "193239.852000", "193239.855000", "193239.857000", "193239.860000", "193239.862000", "193239.865000", "193239.867000", "193239.870000", "193239.872000", "193239.875000", "193239.877000", "193239.880000", "193239.882000", "193239.885000", "193259.835000", "193259.838000", "193259.841000", "193259.843000", "193259.846000", "193259.848000", "193259.851000", "193259.853000", "193259.858000", "193259.861000", "193259.863000", "193259.866000", "193259.868000", "193259.871000", "193259.874000", "193259.876000", "193259.879000", "193259.881000", "193259.884000", "193259.886000", "193259.889000", "193339.890000", "193339.893000", "193339.896000", "193339.898000", "193339.901000", "193339.903000", "193339.906000", "193339.908000", "193339.911000", "193339.913000", "193339.916000", "193339.918000", "193339.921000", "193339.923000", "193339.926000", "193339.928000", "193339.931000", "193339.933000", "193339.936000", "193339.939000", "193339.941000", "193339.944000", "193339.946000", "193339.949000", "193339.951000", "193339.954000", "193339.956000", "193339.959000", "193339.962000", "193339.964000", "193339.967000", "193419.875000", "193419.877000", "193419.880000", "193419.883000", "193419.885000", "193419.888000", "193419.890000", "193419.893000", "193419.895000", "193419.898000", "193419.900000", "193419.903000", "193419.905000", "193419.908000", "193419.911000", "193419.913000", "193419.916000", "193419.918000", "193419.921000", "193419.923000", "193419.926000", "193419.928000", "193419.931000", "193419.933000", "193419.936000", "193419.938000", "193459.859000", "193459.862000", "193459.865000", "193459.867000", "193459.870000", "193459.873000", "193459.875000", "193459.878000", "193459.880000", "193459.883000", "193459.885000", "193459.888000", "193459.891000", "193459.893000", "193459.896000", "193459.898000", "193459.901000", "193459.903000", "193459.906000", "193459.908000", "193459.911000", "193459.913000", "193459.916000", "193459.918000", "193459.921000", "193459.924000", "193459.926000", "193539.868000", "193539.871000", "193539.873000", "193539.876000", "193539.878000", "193539.881000", "193539.890000", "193539.892000", "193539.895000", "193539.897000", "193539.900000", "193539.903000", "193539.905000", "193539.908000", "193539.910000", "193539.913000", "193539.915000", "193539.918000", "193539.920000", "193539.923000", "193539.925000", "193539.928000", "193539.930000", "193539.933000", "193539.936000", "193539.938000", "193539.941000", "193619.853000", "193619.856000", "193619.858000", "193619.861000", "193619.864000", "193619.866000", "193619.869000", "193619.871000", "193619.874000", "193619.876000", "193619.879000", "193619.881000", "193619.884000", "193619.886000", "193619.889000", "193619.891000", "193619.894000", "193619.897000", "193619.907000", "193619.910000", "193619.912000", "193619.915000", "193619.918000", "193619.921000", "193619.924000", "193619.926000", "193619.929000", "193659.855000", "193659.858000", "193659.860000", "193659.863000", "193659.865000", "193659.868000", "193659.870000", "193659.873000", "193659.876000", "193659.878000", "193659.881000", "193659.883000", "193659.886000", "193659.888000", "193659.891000", "193659.893000", "193659.896000", "193659.898000", "193659.901000", "193659.903000", "193659.906000", "193659.909000", "193659.911000", "193659.914000", "193659.916000", "193659.919000", "193659.921000", "193739.863000", "193739.866000", "193739.868000", "193739.871000", "193739.873000", "193739.876000", "193739.878000", "193739.881000", "193739.883000", "193739.886000", "193739.888000", "193739.891000", "193739.894000", "193739.896000", "193739.899000", "193739.901000", "193739.904000", "193739.906000", "193739.909000", "193739.911000", "193739.914000", "193739.916000", "193739.919000", "193739.922000", "193739.924000", "193739.927000", "193739.929000", "193819.878000", "193819.880000", "193819.883000", "193819.886000", "193819.888000", "193819.891000", "193819.893000", "193819.896000", "193819.898000", "193819.901000", "193819.904000", "193819.906000", "193819.909000", "193819.911000", "193819.914000", "193819.916000", "193819.919000", "193819.921000", "193819.924000", "193819.926000", "193819.929000", "193819.931000", "193819.934000", "193819.936000", "193819.939000", "193819.942000", "193819.944000", "193859.858000", "193859.862000", "193859.865000", "193859.868000", "193859.870000", "193859.873000", "193859.875000", "193859.878000", "193859.880000", "193859.883000", "193859.885000", "193859.888000", "193859.890000", "193859.893000", "193859.896000", "193859.898000", "193859.901000", "193859.903000", "193859.906000", "193859.908000", "193859.911000", "193859.913000", "193859.916000", "193859.918000", "193859.921000", "193859.923000", "193936.242000", "193936.244000", "193936.247000", "193936.250000", "193936.252000", "193936.255000", "193936.257000", "193936.260000", "193936.262000", "193936.265000", "193936.268000", "193936.270000", "193936.273000", "193936.275000", "193936.278000", "193936.280000", "193936.283000", "193936.285000", "193936.288000", "193936.290000", "193936.293000", "193936.296000", "193936.298000", "193936.301000", "193936.303000"],
      "InstanceNumber": [1, 2, 3, 4, 5, 6, 7, 8, 9, 10, 11, 12, 13, 14, 15, 16, 17, 18, 19, 20, 21, 22, 23, 24, 25, 26, 27, 28, 29, 30, 31, 32, 33, 34, 35, 36, 37, 38, 39, 40, 41, 42, 43, 44, 45, 46, 47, 48, 49, 50, 51, 52, 53, 54, 55, 56, 57, 58, 59, 60, 61, 62, 63, 64, 65, 66, 67, 68, 69, 70, 71, 72, 73, 74, 75, 76, 77, 78, 79, 80, 81, 82, 83, 84, 85, 86, 87, 88, 89, 90, 91, 92, 93, 94, 95, 96, 97, 98, 99, 100, 101, 102, 103, 104, 105, 106, 107, 108, 109, 110, 111, 112, 113, 114, 115, 116, 117, 118, 119, 120, 121, 122, 123, 124, 125, 126, 127, 128, 129, 130, 131, 132, 133, 134, 135, 136, 137, 138, 139, 140, 141, 142, 143, 144, 145, 146, 147, 148, 149, 150, 151, 152, 153, 154, 155, 156, 157, 158, 159, 160, 161, 162, 163, 164, 165, 166, 167, 168, 169, 170, 171, 172, 173, 174, 175, 176, 177, 178, 179, 180, 181, 182, 183, 184, 185, 186, 187, 188, 189, 190, 191, 192, 193, 194, 195, 196, 197, 198, 199, 200, 201, 202, 203, 204, 205, 206, 207, 208, 209, 210, 211, 212, 213, 214, 215, 216, 217, 218, 219, 220, 221, 222, 223, 224, 225, 226, 227, 228, 229, 230, 231, 232, 233, 234, 235, 236, 237, 238, 239, 240, 241, 242, 243, 244, 245, 246, 247, 248, 249, 250, 251, 252, 253, 254, 255, 256, 257, 258, 259, 260, 261, 262, 263, 264, 265, 266, 267, 268, 269, 270, 271, 272, 273, 274, 275, 276, 277, 278, 279, 280, 281, 282, 283, 284, 285, 286, 287, 288, 289, 290, 291, 292, 293, 294, 295, 296, 297, 298, 299, 300, 301, 302, 303, 304, 305, 306, 307, 308, 309, 310, 311, 312, 313, 314, 315, 316, 317, 318, 319, 320, 321, 322, 323, 324, 325, 326, 327, 328, 329, 330, 331, 332, 333, 334, 335, 336, 337, 338, 339, 340, 341, 342, 343, 344, 345, 346, 347, 348, 349, 350, 351, 352, 353, 354],
