{
  "AcquisitionMatrixPE": 104,
  "AcquisitionNumber": 1,
  "AcquisitionTime": "18:36:55.515000",
  "BandwidthPerPixelPhaseEncode": 17.17,
  "BaseResolution": 104,
  "BodyPartExamined": "BRAIN",
  "CoilCombinationMethod": "Sum of Squares",
  "ConsistencyInfo": "N4_VE11C_LATEST_20160120",
  "ConversionSoftware": "dcm2niix",
  "ConversionSoftwareVersion": "v1.0.20220505",
  "DerivedVendorReportedEchoSpacing": 0.000560011,
  "DeviceSerialNumber": "167006",
  "DwellTime": 2.1e-06,
  "EchoTime": 0.037,
  "EchoTime1": 0.037,
  "EchoTime2": 0.001,
  "EchoTrainLength": 104,
  "EffectiveEchoSpacing": 0.000560011,
  "FlipAngle": 52,
  "HeudiconvVersion": "0.5.3.post811+g6206e14",
  "ImageComments": "Unaliased MB4/PE3/LB",
  "ImageOrientationPatientDICOM": [0.9997, -0.02448, 0.000551984, 0.0226864, 0.917499, -0.39709],
  "ImageOrientationText": "Tra>Cor(-23.4)>Sag(-0.5)",
  "ImageType": [
    "ORIGINAL",
    "PRIMARY",
    "P",
    "MB",
    "ND",
    "MOSAIC",
    "PHASE"
],
  "ImagingFrequency": 123.259,
  "InPlanePhaseEncodingDirectionDICOM": "COL",
  "InstitutionAddress": "Chemin Queen-Mary 4565,Montreal,District,CA,H3W 1W5",
  "InstitutionName": "IUGM",
  "InstitutionalDepartmentName": "Department",
  "MRAcquisitionType": "2D",
  "MagneticFieldStrength": 3,
  "Manufacturer": "Siemens",
  "ManufacturersModelName": "Prisma_fit",
  "MatrixCoilMode": "SENSE",
  "Modality": "MR",
  "MultibandAccelerationFactor": 4,
  "PartialFourier": 1,
  "PatientPosition": "HFS",
  "PercentPhaseFOV": 100,
  "PercentSampling": 100,
  "PhaseEncodingDirection": "j",
  "PhaseEncodingSteps": 104,
  "PhaseResolution": 1,
  "PixelBandwidth": 2290,
  "ProcedureStepDescription": "games^mario3",
  "ProtocolName": "func_task-mario3_run-01",
  "PulseSequenceDetails": "%CustomerSeq%\\cmrr_mbep2d_bold",
  "ReceiveCoilActiveElements": "HC1-7;NC1,2",
  "ReceiveCoilName": "HeadNeck_64",
  "ReconMatrixPE": 104,
  "RepetitionTime": 1.49,
  "SAR": 0.0780156,
  "ScanOptions": "FS",
  "ScanningSequence": "EP",
  "SequenceName": "epfid2d1_104",
  "SequenceVariant": "SK\\SS",
  "SeriesDescription": "func_task-mario3_run-01",
  "SeriesNumber": 11,
  "ShimSetting": [580, -7304, -8798, 410, 13, -379, -47, 94],
  "SliceThickness": 2,
  "SliceTiming": [0, 0.7825, 0.0975, 0.88, 0.195, 0.98, 0.2925, 1.0775, 0.39, 1.175, 0.49, 1.2725, 0.5875, 1.37, 0.685, 0, 0.7825, 0.0975, 0.88, 0.195, 0.98, 0.2925, 1.0775, 0.39, 1.175, 0.49, 1.2725, 0.5875, 1.37, 0.685, 0, 0.7825, 0.0975, 0.88, 0.195, 0.98, 0.2925, 1.0775, 0.39, 1.175, 0.49, 1.2725, 0.5875, 1.37, 0.685, 0, 0.7825, 0.0975, 0.88, 0.195, 0.98, 0.2925, 1.0775, 0.39, 1.175, 0.49, 1.2725, 0.5875, 1.37, 0.685],
  "SoftwareVersions": "syngo MR E11",
  "SpacingBetweenSlices": 2,
  "StationName": "MRC35049",
  "TaskName": "mario3",
  "TotalReadoutTime": 0.0576811,
  "TxRefAmp": 298.107,
  "WipMemBlock": "acdf2a41-f67a-4a97-870d-786d045cb669||Sequence: R017 ve11c/master r/75a17815+; Jun 28 2022 16:32:11 by eja",
  "dcmmeta_affine": [
    [-1.9994003772735596, 0.04537273570895195, -0.01842864789068699, 102.89845275878906],
    [0.04895999655127525, 1.8349982500076294, -0.7939674258232117, -69.80879211425781],
    [0.0011039678938686848, 0.7941805124282837, 1.8355587720870972, -57.40959548950195],
    [0.0, 0.0, 0.0, 1.0]
],
  "dcmmeta_reorient_transform": [
    [0.0, -1.0, 0.0, 103.0],
    [1.0, 0.0, 0.0, 0.0],
    [0.0, 0.0, 1.0, 0.0],
    [0.0, 0.0, 0.0, 1.0]
],
  "dcmmeta_shape": [104, 104, 60, 314],
  "dcmmeta_slice_dim": 2,
  "dcmmeta_version": 0.6,
  "global": {
    "const": {
      "AcquisitionMatrix": [104, 0, 0, 104],
      "AngioFlag": "N",
      "BitsAllocated": 16,
      "BitsStored": 16,
      "BodyPartExamined": "BRAIN",
      "Columns": 832,
      "EchoNumbers": 1,
      "EchoTime": 37.0,
      "EchoTrainLength": 104,
      "FlipAngle": 52.0,
      "HighBit": 15,
      "ImageOrientationPatient": [0.99970016752865, -0.0244799991199, 0.00055198395506, 0.02268636756887, 0.9174991348131, -0.3970902496206],
      "ImagePositionPatient": [-851.86924155787, -769.31395954727, 313.07085326907],
      "ImageType": [
        "ORIGINAL",
        "PRIMARY",
        "P",
        "MB",
        "ND",
        "MOSAIC"
],
      "ImagedNucleus": "1H",
      "ImagingFrequency": 123.258935,
      "InPlanePhaseEncodingDirection": "COL",
      "LargestImagePixelValue": 4095,
      "MRAcquisitionType": "2D",
      "MagneticFieldStrength": 3.0,
      "Manufacturer": "SIEMENS",
      "ManufacturerModelName": "Prisma_fit",
      "Modality": "MR",
      "NumberOfAverages": 1.0,
      "NumberOfPhaseEncodingSteps": 104,
      "PercentPhaseFieldOfView": 100.0,
      "PercentSampling": 100.0,
      "PerformedProcedureStepStartTime": "183335.830000",
      "PhotometricInterpretation": "MONOCHROME2",
      "PixelBandwidth": 2290.0,
      "PixelRepresentation": 0,
      "PixelSpacing": [2.0, 2.0],
      "ProtocolName": "func_task-mario3_run-01",
      "RepetitionTime": 1490.0,
      "RescaleIntercept": -4096.0,
      "RescaleSlope": 2.0,
      "RescaleType": "US",
      "Rows": 832,
      "SAR": 0.07801556307428,
      "SamplesPerPixel": 1,
      "ScanOptions": "FS",
      "ScanningSequence": "EP",
      "SequenceName": "epfid2d1_104",
      "SequenceVariant": [
        "SK",
        "SS"
],
      "SeriesDescription": "func_task-mario3_run-01",
      "SeriesNumber": 11,
      "SeriesTime": "183822.664000",
      "SliceLocation": -25.924530169712,
      "SliceThickness": 2.0,
      "SmallestImagePixelValue": 0,
      "SoftwareVersions": "syngo MR E11",
      "SpacingBetweenSlices": 1.9999999487844,
      "SpecificCharacterSet": "ISO_IR 100",
      "StudyID": "1",
      "StudyTime": "183335.756000",
      "TransmitCoilName": "Body",
      "VariableFlipAngleFlag": "N",
      "WindowCenterWidthExplanation": "Algo1",
      "dBdt": 0.0},
    "slices": {}
  },
  "time": {
    "samples": {
      "AcquisitionNumber": [1, 2, 3, 4, 5, 6, 7, 8, 9, 10, 11, 12, 13, 14, 15, 16, 17, 18, 19, 20, 21, 22, 23, 24, 25, 26, 27, 28, 29, 30, 31, 32, 33, 34, 35, 36, 37, 38, 39, 40, 41, 42, 43, 44, 45, 46, 47, 48, 49, 50, 51, 52, 53, 54, 55, 56, 57, 58, 59, 60, 61, 62, 63, 64, 65, 66, 67, 68, 69, 70, 71, 72, 73, 74, 75, 76, 77, 78, 79, 80, 81, 82, 83, 84, 85, 86, 87, 88, 89, 90, 91, 92, 93, 94, 95, 96, 97, 98, 99, 100, 101, 102, 103, 104, 105, 106, 107, 108, 109, 110, 111, 112, 113, 114, 115, 116, 117, 118, 119, 120, 121, 122, 123, 124, 125, 126, 127, 128, 129, 130, 131, 132, 133, 134, 135, 136, 137, 138, 139, 140, 141, 142, 143, 144, 145, 146, 147, 148, 149, 150, 151, 152, 153, 154, 155, 156, 157, 158, 159, 160, 161, 162, 163, 164, 165, 166, 167, 168, 169, 170, 171, 172, 173, 174, 175, 176, 177, 178, 179, 180, 181, 182, 183, 184, 185, 186, 187, 188, 189, 190, 191, 192, 193, 194, 195, 196, 197, 198, 199, 200, 201, 202, 203, 204, 205, 206, 207, 208, 209, 210, 211, 212, 213, 214, 215, 216, 217, 218, 219, 220, 221, 222, 223, 224, 225, 226, 227, 228, 229, 230, 231, 232, 233, 234, 235, 236, 237, 238, 239, 240, 241, 242, 243, 244, 245, 246, 247, 248, 249, 250, 251, 252, 253, 254, 255, 256, 257, 258, 259, 260, 261, 262, 263, 264, 265, 266, 267, 268, 269, 270, 271, 272, 273, 274, 275, 276, 277, 278, 279, 280, 281, 282, 283, 284, 285, 286, 287, 288, 289, 290, 291, 292, 293, 294, 295, 296, 297, 298, 299, 300, 301, 302, 303, 304, 305, 306, 307, 308, 309, 310, 311, 312, 313, 314],
      "AcquisitionTime": ["183655.515000", "183657.005000", "183658.495000", "183659.985000", "183701.475000", "183702.965000", "183704.455000", "183705.945000", "183707.435000", "183708.925000", "183710.415000", "183711.905000", "183713.395000", "183714.885000", "183716.375000", "183717.865000", "183719.355000", "183720.845000", "183722.335000", "183723.825000", "183725.315000", "183726.805000", "183728.295000", "183729.785000", "183731.275000", "183732.765000", "183734.255000", "183735.745000", "183737.235000", "183738.725000", "183740.215000", "183741.705000", "183743.195000", "183744.685000", "183746.175000", "183747.665000", "183749.155000", "183750.645000", "183752.135000", "183753.625000", "183755.115000", "183756.605000", "183758.095000", "183759.585000", "183801.075000", "183802.565000", "183804.055000", "183805.545000", "183807.035000", "183808.525000", "183810.015000", "183811.505000", "183812.995000", "183814.485000", "183815.975000", "183817.465000", "183818.955000", "183820.445000", "183821.935000", "183823.425000", "183824.915000", "183826.405000", "183827.895000", "183829.385000", "183830.875000", "183832.365000", "183833.855000", "183835.345000", "183836.835000", "183838.325000", "183839.815000", "183841.305000", "183842.795000", "183844.285000", "183845.775000", "183847.265000", "183848.755000", "183850.245000", "183851.735000", "183853.225000", "183854.715000", "183856.205000", "183857.695000", "183859.185000", "183900.675000", "183902.165000", "183903.655000", "183905.145000", "183906.635000", "183908.125000", "183909.615000", "183911.105000", "183912.595000", "183914.085000", "183915.575000", "183917.065000", "183918.555000", "183920.045000", "183921.535000", "183923.025000", "183924.515000", "183926.005000", "183927.495000", "183928.985000", "183930.475000", "183931.965000", "183933.455000", "183934.945000", "183936.435000", "183937.925000", "183939.415000", "183940.905000", "183942.395000", "183943.885000", "183945.375000", "183946.865000", "183948.355000", "183949.845000", "183951.335000", "183952.825000", "183954.315000", "183955.805000", "183957.295000", "183958.785000", "184000.275000", "184001.765000", "184003.255000", "184004.745000", "184006.235000", "184007.725000", "184009.215000", "184010.705000", "184012.195000", "184013.685000", "184015.175000", "184016.665000", "184018.155000", "184019.645000", "184021.135000", "184022.625000", "184024.115000", "184025.605000", "184027.095000", "184028.585000", "184030.075000", "184031.565000", "184033.055000", "184034.545000", "184036.035000", "184037.525000", "184039.015000", "184040.505000", "184041.995000", "184043.485000", "184044.975000", "184046.465000", "184047.955000", "184049.445000", "184050.935000", "184052.425000", "184053.915000", "184055.405000", "184056.895000", "184058.385000", "184059.875000", "184101.365000", "184102.855000", "184104.345000", "184105.835000", "184107.325000", "184108.815000", "184110.305000", "184111.795000", "184113.285000", "184114.775000", "184116.265000", "184117.755000", "184119.245000", "184120.735000", "184122.225000", "184123.715000", "184125.205000", "184126.695000", "184128.185000", "184129.675000", "184131.165000", "184132.655000", "184134.145000", "184135.635000", "184137.125000", "184138.615000", "184140.105000", "184141.595000", "184143.085000", "184144.575000", "184146.065000", "184147.555000", "184149.045000", "184150.535000", "184152.025000", "184153.515000", "184155.005000", "184156.495000", "184157.985000", "184159.475000", "184200.965000", "184202.455000", "184203.945000", "184205.435000", "184206.925000", "184208.415000", "184209.905000", "184211.395000", "184212.885000", "184214.375000", "184215.865000", "184217.355000", "184218.845000", "184220.335000", "184221.825000", "184223.315000", "184224.805000", "184226.295000", "184227.785000", "184229.275000", "184230.765000", "184232.255000", "184233.745000", "184235.235000", "184236.725000", "184238.215000", "184239.705000", "184241.195000", "184242.685000", "184244.175000", "184245.665000", "184247.155000", "184248.645000", "184250.135000", "184251.625000", "184253.115000", "184254.605000", "184256.095000", "184257.585000", "184259.075000", "184300.565000", "184302.055000", "184303.545000", "184305.035000", "184306.525000", "184308.015000", "184309.505000", "184310.995000", "184312.485000", "184313.975000", "184315.465000", "184316.955000", "184318.445000", "184319.935000", "184321.425000", "184322.915000", "184324.405000", "184325.895000", "184327.385000", "184328.875000", "184330.365000", "184331.855000", "184333.345000", "184334.835000", "184336.325000", "184337.815000", "184339.305000", "184340.795000", "184342.285000", "184343.775000", "184345.265000", "184346.755000", "184348.245000", "184349.735000", "184351.225000", "184352.715000", "184354.205000", "184355.695000", "184357.185000", "184358.675000", "184400.165000", "184401.655000", "184403.145000", "184404.635000", "184406.125000", "184407.615000", "184409.105000", "184410.595000", "184412.085000", "184413.575000", "184415.065000", "184416.555000", "184418.045000", "184419.535000", "184421.025000", "184422.515000", "184424.005000", "184425.495000", "184426.985000", "184428.475000", "184429.965000", "184431.455000", "184432.945000", "184434.435000", "184435.925000", "184437.415000", "184438.905000", "184440.395000", "184441.885000"],
      "ContentTime": ["183822.666000", "183822.669000", "183822.671000", "183822.674000", "183822.676000", "183822.679000", "183822.681000", "183822.684000", "183822.687000", "183822.689000", "183822.692000", "183822.694000", "183822.697000", "183822.699000", "183822.702000", "183822.704000", "183822.707000", "183822.709000", "183822.712000", "183822.714000", "183822.717000", "183822.719000", "183822.722000", "183822.725000", "183822.727000", "183822.730000", "183822.732000", "183822.735000", "183822.737000", "183822.740000", "183822.742000", "183822.745000", "183822.747000", "183822.750000", "183822.753000", "183822.755000", "183822.758000", "183822.760000", "183822.763000", "183842.561000", "183842.563000", "183842.566000", "183842.568000", "183842.571000", "183842.573000", "183842.576000", "183842.579000", "183842.581000", "183842.584000", "183842.586000", "183842.589000", "183842.591000", "183842.594000", "183842.596000", "183842.599000", "183842.601000", "183842.604000", "183842.606000", "183842.609000", "183902.554000", "183902.557000", "183902.559000", "183902.562000", "183902.565000", "183902.567000", "183902.570000", "183902.572000", "183902.575000", "183902.578000", "183902.580000", "183902.583000", "183902.587000", "183902.590000", "183902.593000", "183902.596000", "183902.599000", "183902.601000", "183902.604000", "183902.606000", "183942.614000", "183942.617000", "183942.619000", "183942.622000", "183942.624000", "183942.627000", "183942.630000", "183942.632000", "183942.635000", "183942.637000", "183942.640000", "183942.642000", "183942.645000", "183942.647000", "183942.650000", "183942.652000", "183942.655000", "183942.658000", "183942.660000", "183942.663000", "183942.665000", "183942.668000", "183942.670000", "183942.673000", "183942.675000", "183942.678000", "183942.680000", "183942.683000", "183942.685000", "183942.688000", "183942.690000", "183942.693000", "184023.284000", "184023.287000", "184023.290000", "184023.292000", "184023.295000", "184023.298000", "184023.300000", "184023.303000", "184023.305000", "184023.308000", "184023.310000", "184023.313000", "184023.316000", "184023.318000", "184023.321000", "184023.323000", "184023.326000", "184023.328000", "184023.331000", "184023.333000", "184023.336000", "184023.338000", "184023.341000", "184023.343000", "184023.346000", "184023.348000", "184023.351000", "184102.582000", "184102.585000", "184102.587000", "184102.590000", "184102.592000", "184102.595000", "184102.597000", "184102.600000", "184102.602000", "184102.605000", "184102.608000", "184102.610000", "184102.613000", "184102.615000", "184102.618000", "184102.620000", "184102.623000", "184102.625000", "184102.628000", "184102.630000", "184102.639000", "184102.642000", "184102.645000", "184102.647000", "184102.650000", "184102.652000", "184102.655000", "184142.610000", "184142.612000", "184142.615000", "184142.617000", "184142.620000", "184142.623000", "184142.625000", "184142.628000", "184142.630000", "184142.633000", "184142.635000", "184142.638000", "184142.640000", "184142.643000", "184142.645000", "184142.648000", "184142.650000", "184142.653000", "184142.655000", "184142.658000", "184142.660000", "184142.663000", "184142.666000", "184142.668000", "184142.671000", "184142.673000", "184142.676000", "184222.584000", "184222.587000", "184222.590000", "184222.593000", "184222.595000", "184222.598000", "184222.600000", "184222.603000", "184222.605000", "184222.608000", "184222.610000", "184222.613000", "184222.616000", "184222.618000", "184222.621000", "184222.623000", "184222.626000", "184222.628000", "184222.631000", "184222.633000", "184222.636000", "184222.638000", "184222.641000", "184222.644000", "184222.647000", "184222.649000", "184302.581000", "184302.584000", "184302.586000", "184302.589000", "184302.592000", "184302.594000", "184302.597000", "184302.599000", "184302.602000", "184302.604000", "184302.607000", "184302.609000", "184302.612000", "184302.615000", "184302.617000", "184302.620000", "184302.623000", "184302.625000", "184302.628000", "184302.631000", "184302.633000", "184302.636000", "184302.638000", "184302.641000", "184302.643000", "184302.646000", "184302.648000", "184342.589000", "184342.592000", "184342.595000", "184342.597000", "184342.600000", "184342.602000", "184342.605000", "184342.607000", "184342.610000", "184342.612000", "184342.615000", "184342.617000", "184342.620000", "184342.622000", "184342.625000", "184342.628000", "184342.630000", "184342.633000", "184342.635000", "184342.638000", "184342.640000", "184342.643000", "184342.645000", "184342.648000", "184342.650000", "184342.653000", "184342.656000", "184422.586000", "184422.589000", "184422.591000", "184422.594000", "184422.597000", "184422.599000", "184422.602000", "184422.604000", "184422.607000", "184422.609000", "184422.612000", "184422.614000", "184422.617000", "184422.619000", "184422.622000", "184422.624000", "184422.627000", "184422.629000", "184422.632000", "184422.635000", "184422.637000", "184422.640000", "184422.642000", "184422.645000", "184422.647000", "184422.650000", "184422.653000", "184445.613000", "184445.616000", "184445.619000", "184445.621000", "184445.624000", "184445.626000", "184445.629000", "184445.631000", "184445.634000", "184445.636000", "184445.639000", "184445.642000", "184445.644000", "184445.647000", "184445.649000"],
      "InstanceCreationTime": ["183822.666000", "183822.669000", "183822.671000", "183822.674000", "183822.676000", "183822.679000", "183822.681000", "183822.684000", "183822.687000", "183822.689000", "183822.692000", "183822.694000", "183822.697000", "183822.699000", "183822.702000", "183822.704000", "183822.707000", "183822.709000", "183822.712000", "183822.714000", "183822.717000", "183822.719000", "183822.722000", "183822.725000", "183822.727000", "183822.730000", "183822.732000", "183822.735000", "183822.737000", "183822.740000", "183822.742000", "183822.745000", "183822.747000", "183822.750000", "183822.753000", "183822.755000", "183822.758000", "183822.760000", "183822.763000", "183842.561000", "183842.563000", "183842.566000", "183842.568000", "183842.571000", "183842.573000", "183842.576000", "183842.579000", "183842.581000", "183842.584000", "183842.586000", "183842.589000", "183842.591000", "183842.594000", "183842.596000", "183842.599000", "183842.601000", "183842.604000", "183842.606000", "183842.609000", "183902.554000", "183902.557000", "183902.559000", "183902.562000", "183902.565000", "183902.567000", "183902.570000", "183902.572000", "183902.575000", "183902.578000", "183902.580000", "183902.583000", "183902.587000", "183902.590000", "183902.593000", "183902.596000", "183902.599000", "183902.601000", "183902.604000", "183902.606000", "183942.614000", "183942.617000", "183942.619000", "183942.622000", "183942.624000", "183942.627000", "183942.630000", "183942.632000", "183942.635000", "183942.637000", "183942.640000", "183942.642000", "183942.645000", "183942.647000", "183942.650000", "183942.652000", "183942.655000", "183942.658000", "183942.660000", "183942.663000", "183942.665000", "183942.668000", "183942.670000", "183942.673000", "183942.675000", "183942.678000", "183942.680000", "183942.683000", "183942.685000", "183942.688000", "183942.690000", "183942.693000", "184023.284000", "184023.287000", "184023.290000", "184023.292000", "184023.295000", "184023.298000", "184023.300000", "184023.303000", "184023.305000", "184023.308000", "184023.310000", "184023.313000", "184023.316000", "184023.318000", "184023.321000", "184023.323000", "184023.326000", "184023.328000", "184023.331000", "184023.333000", "184023.336000", "184023.338000", "184023.341000", "184023.343000", "184023.346000", "184023.348000", "184023.351000", "184102.582000", "184102.585000", "184102.587000", "184102.590000", "184102.592000", "184102.595000", "184102.597000", "184102.600000", "184102.602000", "184102.605000", "184102.608000", "184102.610000", "184102.613000", "184102.615000", "184102.618000", "184102.620000", "184102.623000", "184102.625000", "184102.628000", "184102.630000", "184102.639000", "184102.642000", "184102.645000", "184102.647000", "184102.650000", "184102.652000", "184102.655000", "184142.610000", "184142.612000", "184142.615000", "184142.617000", "184142.620000", "184142.623000", "184142.625000", "184142.628000", "184142.630000", "184142.633000", "184142.635000", "184142.638000", "184142.640000", "184142.643000", "184142.645000", "184142.648000", "184142.650000", "184142.653000", "184142.655000", "184142.658000", "184142.660000", "184142.663000", "184142.666000", "184142.668000", "184142.671000", "184142.673000", "184142.676000", "184222.584000", "184222.587000", "184222.590000", "184222.593000", "184222.595000", "184222.598000", "184222.600000", "184222.603000", "184222.605000", "184222.608000", "184222.610000", "184222.613000", "184222.616000", "184222.618000", "184222.621000", "184222.623000", "184222.626000", "184222.628000", "184222.631000", "184222.633000", "184222.636000", "184222.638000", "184222.641000", "184222.644000", "184222.647000", "184222.649000", "184302.581000", "184302.584000", "184302.586000", "184302.589000", "184302.592000", "184302.594000", "184302.597000", "184302.599000", "184302.602000", "184302.604000", "184302.607000", "184302.609000", "184302.612000", "184302.615000", "184302.617000", "184302.620000", "184302.623000", "184302.625000", "184302.628000", "184302.631000", "184302.633000", "184302.636000", "184302.638000", "184302.641000", "184302.643000", "184302.646000", "184302.648000", "184342.589000", "184342.592000", "184342.595000", "184342.597000", "184342.600000", "184342.602000", "184342.605000", "184342.607000", "184342.610000", "184342.612000", "184342.615000", "184342.617000", "184342.620000", "184342.622000", "184342.625000", "184342.628000", "184342.630000", "184342.633000", "184342.635000", "184342.638000", "184342.640000", "184342.643000", "184342.645000", "184342.648000", "184342.650000", "184342.653000", "184342.656000", "184422.586000", "184422.589000", "184422.591000", "184422.594000", "184422.597000", "184422.599000", "184422.602000", "184422.604000", "184422.607000", "184422.609000", "184422.612000", "184422.614000", "184422.617000", "184422.619000", "184422.622000", "184422.624000", "184422.627000", "184422.629000", "184422.632000", "184422.635000", "184422.637000", "184422.640000", "184422.642000", "184422.645000", "184422.647000", "184422.650000", "184422.653000", "184445.613000", "184445.616000", "184445.619000", "184445.621000", "184445.624000", "184445.626000", "184445.629000", "184445.631000", "184445.634000", "184445.636000", "184445.639000", "184445.642000", "184445.644000", "184445.647000", "184445.649000"],
      "InstanceNumber": [1, 2, 3, 4, 5, 6, 7, 8, 9, 10, 11, 12, 13, 14, 15, 16, 17, 18, 19, 20, 21, 22, 23, 24, 25, 26, 27, 28, 29, 30, 31, 32, 33, 34, 35, 36, 37, 38, 39, 40, 41, 42, 43, 44, 45, 46, 47, 48, 49, 50, 51, 52, 53, 54, 55, 56, 57, 58, 59, 60, 61, 62, 63, 64, 65, 66, 67, 68, 69, 70, 71, 72, 73, 74, 75, 76, 77, 78, 79, 80, 81, 82, 83, 84, 85, 86, 87, 88, 89, 90, 91, 92, 93, 94, 95, 96, 97, 98, 99, 100, 101, 102, 103, 104, 105, 106, 107, 108, 109, 110, 111, 112, 113, 114, 115, 116, 117, 118, 119, 120, 121, 122, 123, 124, 125, 126, 127, 128, 129, 130, 131, 132, 133, 134, 135, 136, 137, 138, 139, 140, 141, 142, 143, 144, 145, 146, 147, 148, 149, 150, 151, 152, 153, 154, 155, 156, 157, 158, 159, 160, 161, 162, 163, 164, 165, 166, 167, 168, 169, 170, 171, 172, 173, 174, 175, 176, 177, 178, 179, 180, 181, 182, 183, 184, 185, 186, 187, 188, 189, 190, 191, 192, 193, 194, 195, 196, 197, 198, 199, 200, 201, 202, 203, 204, 205, 206, 207, 208, 209, 210, 211, 212, 213, 214, 215, 216, 217, 218, 219, 220, 221, 222, 223, 224, 225, 226, 227, 228, 229, 230, 231, 232, 233, 234, 235, 236, 237, 238, 239, 240, 241, 242, 243, 244, 245, 246, 247, 248, 249, 250, 251, 252, 253, 254, 255, 256, 257, 258, 259, 260, 261, 262, 263, 264, 265, 266, 267, 268, 269, 270, 271, 272, 273, 274, 275, 276, 277, 278, 279, 280, 281, 282, 283, 284, 285, 286, 287, 288, 289, 290, 291, 292, 293, 294, 295, 296, 297, 298, 299, 300, 301, 302, 303, 304, 305, 306, 307, 308, 309, 310, 311, 312, 313, 314],
      "WindowCenter": [4736.0, 4734.0, 4740.0, 4748.0, 4754.0, 4736.0, 4736.0, 4732.0, 4754.0, 4736.0, 4734.0, 4740.0, 4744.0, 4748.0, 4744.0, 4742.0, 4738.0, 4736.0, 4734.0, 4736.0, 4736.0, 4740.0, 4738.0, 4740.0, 4744.0, 4740.0, 4742.0, 4738.0, 4734.0, 4736.0, 4740.0, 4738.0, 4736.0, 4738.0, 4738.0, 4742.0, 4740.0, 4740.0, 4718.0, 4738.0, 4740.0, 4740.0, 4740.0, 4738.0, 4740.0, 4738.0, 4738.0, 4742.0, 4740.0, 4738.0, 4742.0, 4742.0, 4738.0, 4736.0, 4740.0, 4716.0, 4734.0, 4712.0, 4738.0, 4736.0, 4738.0, 4744.0, 4742.0, 4738.0, 4738.0, 4738.0, 4740.0, 4738.0, 4740.0, 4738.0, 4738.0, 4742.0, 4740.0, 4738.0, 4740.0, 4718.0, 4742.0, 4738.0, 4736.0, 4740.0, 4738.0, 4736.0, 4742.0, 4736.0, 4736.0, 4736.0, 4738.0, 4740.0, 4744.0, 4740.0, 4740.0, 4740.0, 4736.0, 4738.0, 4738.0, 4738.0, 4740.0, 4740.0, 4742.0, 4740.0, 4744.0, 4740.0, 4738.0, 4736.0, 4738.0, 4740.0, 4738.0, 4742.0, 4744.0, 4740.0, 4718.0, 4740.0, 4742.0, 4744.0, 4742.0, 4740.0, 4742.0, 4746.0, 4742.0, 4744.0, 4740.0, 4740.0, 4738.0, 4740.0, 4744.0, 4738.0, 4736.0, 4742.0, 4742.0, 4740.0, 4742.0, 4742.0, 4740.0, 4738.0, 4740.0, 4738.0, 4716.0, 4740.0, 4740.0, 4740.0, 4746.0, 4718.0, 4738.0, 4740.0, 4738.0, 4740.0, 4742.0, 4740.0, 4714.0, 4740.0, 4744.0, 4742.0, 4744.0, 4740.0, 4740.0, 4738.0, 4740.0, 4742.0, 4740.0, 4738.0, 4740.0, 4742.0, 4740.0, 4740.0, 4744.0, 4740.0, 4740.0, 4742.0, 4740.0, 4740.0, 4738.0, 4742.0, 4740.0, 4744.0, 4740.0, 4748.0, 4742.0, 4738.0, 4740.0, 4740.0, 4740.0, 4738.0, 4742.0, 4736.0, 4740.0, 4740.0, 4742.0, 4744.0, 4742.0, 4742.0, 4740.0, 4740.0, 4738.0, 4740.0, 4748.0, 4752.0, 4744.0, 4714.0, 4736.0, 4716.0, 4736.0, 4740.0, 4738.0, 4742.0, 4742.0, 4746.0, 4740.0, 4744.0, 4738.0, 4738.0, 4714.0, 4734.0, 4742.0, 4740.0, 4746.0, 4742.0, 4742.0, 4742.0, 4742.0, 4744.0, 4742.0, 4742.0, 4740.0, 4738.0, 4736.0, 4742.0, 4742.0, 4748.0, 4742.0, 4744.0, 4740.0, 4738.0, 4740.0, 4738.0, 4742.0, 4742.0, 4746.0, 4748.0, 4742.0, 4742.0, 4736.0, 4738.0, 4736.0, 4738.0, 4744.0, 4744.0, 4742.0, 4742.0, 4746.0, 4740.0, 4740.0, 4744.0, 4740.0, 4746.0, 4742.0, 4742.0, 4744.0, 4744.0, 4752.0, 4738.0, 4734.0, 4734.0, 4718.0, 4746.0, 4756.0, 4752.0, 4752.0, 4744.0, 4740.0, 4736.0, 4736.0, 4742.0, 4738.0, 4742.0, 4740.0, 4742.0, 4740.0, 4744.0, 4746.0, 4746.0, 4742.0, 4744.0, 4740.0, 4742.0, 4746.0, 4742.0, 4742.0, 4742.0, 4748.0, 4752.0, 4750.0, 4742.0, 4740.0, 4746.0, 4746.0, 4738.0, 4740.0, 4742.0, 4744.0, 4740.0, 4746.0, 4744.0, 4746.0, 4742.0, 4744.0, 4744.0, 4744.0, 4744.0, 4748.0, 4744.0, 4740.0, 4744.0, 4740.0, 4744.0],
