{
  "AcquisitionMatrixPE": 104,
  "AcquisitionNumber": 1,
  "AcquisitionTime": "19:41:34.147500",
  "BandwidthPerPixelPhaseEncode": 17.17,
  "BaseResolution": 104,
  "BodyPartExamined": "BRAIN",
  "CoilCombinationMethod": "Sum of Squares",
  "ConsistencyInfo": "N4_VE11C_LATEST_20160120",
  "ConversionSoftware": "dcm2niix",
  "ConversionSoftwareVersion": "v1.0.20220505",
  "DerivedVendorReportedEchoSpacing": 0.000560011,
  "DeviceSerialNumber": "167006",
  "DwellTime": 2.1e-06,
  "EchoTime": 0.037,
  "EchoTime1": 0.037,
  "EchoTime2": 0.001,
  "EchoTrainLength": 104,
  "EffectiveEchoSpacing": 0.000560011,
  "FlipAngle": 52,
  "HeudiconvVersion": "0.5.3.post811+g6206e14",
  "ImageComments": "Unaliased MB4/PE3/LB",
  "ImageOrientationPatientDICOM": [0.999892, -0.0123771, 0.00797348, 0.0144857, 0.923873, -0.382425],
  "ImageOrientationText": "Tra>Cor(-22.5)>Sag(0.2)",
  "ImageType": [
    "ORIGINAL",
    "PRIMARY",
    "P",
    "MB",
    "ND",
    "MOSAIC",
    "PHASE"
],
  "ImagingFrequency": 123.259,
  "InPlanePhaseEncodingDirectionDICOM": "COL",
  "InstitutionAddress": "Chemin Queen-Mary 4565,Montreal,District,CA,H3W 1W5",
  "InstitutionName": "IUGM",
  "InstitutionalDepartmentName": "Department",
  "MRAcquisitionType": "2D",
  "MagneticFieldStrength": 3,
  "Manufacturer": "Siemens",
  "ManufacturersModelName": "Prisma_fit",
  "MatrixCoilMode": "SENSE",
  "Modality": "MR",
  "MultibandAccelerationFactor": 4,
  "PartialFourier": 1,
  "PatientPosition": "HFS",
  "PercentPhaseFOV": 100,
  "PercentSampling": 100,
  "PhaseEncodingDirection": "j",
  "PhaseEncodingSteps": 104,
  "PhaseResolution": 1,
  "PixelBandwidth": 2290,
  "ProcedureStepDescription": "games^mario3",
  "ProtocolName": "func_task-mario3_run-05",
  "PulseSequenceDetails": "%CustomerSeq%\\cmrr_mbep2d_bold",
  "ReceiveCoilActiveElements": "HC1-7;NC1,2",
  "ReceiveCoilName": "HeadNeck_64",
  "ReconMatrixPE": 104,
  "RepetitionTime": 1.49,
  "SAR": 0.0629404,
  "ScanOptions": "FS",
  "ScanningSequence": "EP",
  "SequenceName": "epfid2d1_104",
  "SequenceVariant": "SK\\SS",
  "SeriesDescription": "func_task-mario3_run-05",
  "SeriesNumber": 31,
  "ShimSetting": [588, -7296, -8818, 399, 23, -371, -74, 95],
  "SliceThickness": 2,
  "SliceTiming": [0, 0.7825, 0.0975, 0.88, 0.195, 0.98, 0.2925, 1.0775, 0.39, 1.175, 0.49, 1.2725, 0.5875, 1.37, 0.685, 0, 0.7825, 0.0975, 0.88, 0.195, 0.98, 0.2925, 1.0775, 0.39, 1.175, 0.49, 1.2725, 0.5875, 1.37, 0.685, 0, 0.7825, 0.0975, 0.88, 0.195, 0.98, 0.2925, 1.0775, 0.39, 1.175, 0.49, 1.2725, 0.5875, 1.37, 0.685, 0, 0.7825, 0.0975, 0.88, 0.195, 0.98, 0.2925, 1.0775, 0.39, 1.175, 0.49, 1.2725, 0.5875, 1.37, 0.685],
  "SoftwareVersions": "syngo MR E11",
  "SpacingBetweenSlices": 2,
  "StationName": "MRC35049",
  "TaskName": "mario3",
  "TotalReadoutTime": 0.0576811,
  "TxRefAmp": 274.908,
  "WipMemBlock": "a5a8859a-a009-475f-905f-a053231526c1||Sequence: R017 ve11c/master r/75a17815+; Jun 28 2022 16:32:11 by eja",
  "dcmmeta_affine": [
    [-1.9997832775115967, 0.028971385210752487, 0.005266336724162102, 102.4712905883789],
    [0.024754194542765617, 1.8477458953857422, -0.7649981379508972, -69.113037109375],
    [0.015946954488754272, 0.7648500800132751, 1.8479042053222656, -63.39548110961914],
    [0.0, 0.0, 0.0, 1.0]
],
  "dcmmeta_reorient_transform": [
    [0.0, -1.0, 0.0, 103.0],
    [1.0, 0.0, 0.0, 0.0],
    [0.0, 0.0, 1.0, 0.0],
    [0.0, 0.0, 0.0, 1.0]
],
  "dcmmeta_shape": [104, 104, 60, 344],
  "dcmmeta_slice_dim": 2,
  "dcmmeta_version": 0.6,
  "global": {
    "const": {
      "AcquisitionMatrix": [104, 0, 0, 104],
      "AngioFlag": "N",
      "BitsAllocated": 16,
      "BitsStored": 16,
      "BodyPartExamined": "BRAIN",
      "Columns": 832,
      "EchoNumbers": 1,
      "EchoTime": 37.0,
      "EchoTrainLength": 104,
      "FlipAngle": 52.0,
      "HighBit": 15,
      "ImageOrientationPatient": [0.99989160968953, -0.0123770970053, 0.00797347742268, 0.01448569279931, 0.92387296784565, -0.3824250305461],
      "ImagePositionPatient": [-843.92201729753, -784.77379191035, 287.98480662435],
      "ImageType": [
        "ORIGINAL",
        "PRIMARY",
        "P",
        "MB",
        "ND",
        "MOSAIC"
],
      "ImagedNucleus": "1H",
      "ImagingFrequency": 123.258954,
      "InPlanePhaseEncodingDirection": "COL",
      "LargestImagePixelValue": 4095,
      "MRAcquisitionType": "2D",
      "MagneticFieldStrength": 3.0,
      "Manufacturer": "SIEMENS",
      "ManufacturerModelName": "Prisma_fit",
      "Modality": "MR",
      "NumberOfAverages": 1.0,
      "NumberOfPhaseEncodingSteps": 104,
      "PercentPhaseFieldOfView": 100.0,
      "PercentSampling": 100.0,
      "PerformedProcedureStepStartTime": "183335.830000",
      "PhotometricInterpretation": "MONOCHROME2",
      "PixelBandwidth": 2290.0,
      "PixelRepresentation": 0,
      "PixelSpacing": [2.0, 2.0],
      "ProtocolName": "func_task-mario3_run-05",
      "RepetitionTime": 1490.0,
      "RescaleIntercept": -4096.0,
      "RescaleSlope": 2.0,
      "RescaleType": "US",
      "Rows": 832,
      "SAR": 0.06294035882602,
      "SamplesPerPixel": 1,
      "ScanOptions": "FS",
      "ScanningSequence": "EP",
      "SequenceName": "epfid2d1_104",
      "SequenceVariant": [
        "SK",
        "SS"
],
      "SeriesDescription": "func_task-mario3_run-05",
      "SeriesNumber": 31,
      "SeriesTime": "194233.475000",
      "SliceLocation": -31.868892517599,
      "SliceThickness": 2.0,
      "SmallestImagePixelValue": 0,
      "SoftwareVersions": "syngo MR E11",
      "SpacingBetweenSlices": 1.9999999383807,
      "SpecificCharacterSet": "ISO_IR 100",
      "StudyID": "1",
      "StudyTime": "183335.756000",
      "TransmitCoilName": "Body",
      "VariableFlipAngleFlag": "N",
      "WindowCenterWidthExplanation": "Algo1",
      "dBdt": 0.0},
    "slices": {}
  },
  "time": {
    "samples": {
      "AcquisitionNumber": [1, 2, 3, 4, 5, 6, 7, 8, 9, 10, 11, 12, 13, 14, 15, 16, 17, 18, 19, 20, 21, 22, 23, 24, 25, 26, 27, 28, 29, 30, 31, 32, 33, 34, 35, 36, 37, 38, 39, 40, 41, 42, 43, 44, 45, 46, 47, 48, 49, 50, 51, 52, 53, 54, 55, 56, 57, 58, 59, 60, 61, 62, 63, 64, 65, 66, 67, 68, 69, 70, 71, 72, 73, 74, 75, 76, 77, 78, 79, 80, 81, 82, 83, 84, 85, 86, 87, 88, 89, 90, 91, 92, 93, 94, 95, 96, 97, 98, 99, 100, 101, 102, 103, 104, 105, 106, 107, 108, 109, 110, 111, 112, 113, 114, 115, 116, 117, 118, 119, 120, 121, 122, 123, 124, 125, 126, 127, 128, 129, 130, 131, 132, 133, 134, 135, 136, 137, 138, 139, 140, 141, 142, 143, 144, 145, 146, 147, 148, 149, 150, 151, 152, 153, 154, 155, 156, 157, 158, 159, 160, 161, 162, 163, 164, 165, 166, 167, 168, 169, 170, 171, 172, 173, 174, 175, 176, 177, 178, 179, 180, 181, 182, 183, 184, 185, 186, 187, 188, 189, 190, 191, 192, 193, 194, 195, 196, 197, 198, 199, 200, 201, 202, 203, 204, 205, 206, 207, 208, 209, 210, 211, 212, 213, 214, 215, 216, 217, 218, 219, 220, 221, 222, 223, 224, 225, 226, 227, 228, 229, 230, 231, 232, 233, 234, 235, 236, 237, 238, 239, 240, 241, 242, 243, 244, 245, 246, 247, 248, 249, 250, 251, 252, 253, 254, 255, 256, 257, 258, 259, 260, 261, 262, 263, 264, 265, 266, 267, 268, 269, 270, 271, 272, 273, 274, 275, 276, 277, 278, 279, 280, 281, 282, 283, 284, 285, 286, 287, 288, 289, 290, 291, 292, 293, 294, 295, 296, 297, 298, 299, 300, 301, 302, 303, 304, 305, 306, 307, 308, 309, 310, 311, 312, 313, 314, 315, 316, 317, 318, 319, 320, 321, 322, 323, 324, 325, 326, 327, 328, 329, 330, 331, 332, 333, 334, 335, 336, 337, 338, 339, 340, 341, 342, 343, 344],
      "AcquisitionTime": ["194134.147500", "194135.637500", "194137.127500", "194138.617500", "194140.107500", "194141.597500", "194143.087500", "194144.577500", "194146.067500", "194147.557500", "194149.047500", "194150.537500", "194152.027500", "194153.517500", "194155.007500", "194156.497500", "194157.987500", "194159.477500", "194200.967500", "194202.457500", "194203.947500", "194205.437500", "194206.927500", "194208.417500", "194209.907500", "194211.397500", "194212.887500", "194214.377500", "194215.867500", "194217.357500", "194218.847500", "194220.337500", "194221.827500", "194223.317500", "194224.807500", "194226.297500", "194227.787500", "194229.277500", "194230.767500", "194232.257500", "194233.747500", "194235.237500", "194236.727500", "194238.217500", "194239.707500", "194241.197500", "194242.687500", "194244.177500", "194245.667500", "194247.157500", "194248.647500", "194250.137500", "194251.627500", "194253.117500", "194254.607500", "194256.097500", "194257.587500", "194259.077500", "194300.567500", "194302.057500", "194303.547500", "194305.037500", "194306.527500", "194308.017500", "194309.507500", "194310.997500", "194312.487500", "194313.977500", "194315.467500", "194316.957500", "194318.447500", "194319.937500", "194321.427500", "194322.917500", "194324.407500", "194325.897500", "194327.387500", "194328.877500", "194330.367500", "194331.857500", "194333.347500", "194334.837500", "194336.327500", "194337.817500", "194339.307500", "194340.797500", "194342.287500", "194343.777500", "194345.267500", "194346.757500", "194348.247500", "194349.737500", "194351.227500", "194352.717500", "194354.207500", "194355.697500", "194357.187500", "194358.677500", "194400.167500", "194401.657500", "194403.147500", "194404.637500", "194406.127500", "194407.617500", "194409.107500", "194410.597500", "194412.087500", "194413.577500", "194415.067500", "194416.557500", "194418.047500", "194419.537500", "194421.027500", "194422.517500", "194424.007500", "194425.497500", "194426.987500", "194428.477500", "194429.967500", "194431.457500", "194432.947500", "194434.437500", "194435.927500", "194437.417500", "194438.907500", "194440.397500", "194441.887500", "194443.377500", "194444.867500", "194446.357500", "194447.847500", "194449.337500", "194450.827500", "194452.317500", "194453.807500", "194455.297500", "194456.787500", "194458.277500", "194459.767500", "194501.257500", "194502.747500", "194504.237500", "194505.727500", "194507.217500", "194508.707500", "194510.197500", "194511.687500", "194513.177500", "194514.667500", "194516.157500", "194517.647500", "194519.137500", "194520.627500", "194522.117500", "194523.607500", "194525.097500", "194526.587500", "194528.077500", "194529.567500", "194531.057500", "194532.547500", "194534.037500", "194535.527500", "194537.017500", "194538.507500", "194539.997500", "194541.487500", "194542.977500", "194544.467500", "194545.957500", "194547.447500", "194548.937500", "194550.427500", "194551.917500", "194553.407500", "194554.897500", "194556.387500", "194557.877500", "194559.367500", "194600.857500", "194602.347500", "194603.837500", "194605.327500", "194606.817500", "194608.307500", "194609.797500", "194611.287500", "194612.777500", "194614.267500", "194615.757500", "194617.247500", "194618.737500", "194620.227500", "194621.717500", "194623.207500", "194624.697500", "194626.187500", "194627.677500", "194629.167500", "194630.657500", "194632.147500", "194633.637500", "194635.127500", "194636.617500", "194638.107500", "194639.597500", "194641.087500", "194642.577500", "194644.067500", "194645.557500", "194647.047500", "194648.537500", "194650.027500", "194651.517500", "194653.007500", "194654.497500", "194655.987500", "194657.477500", "194658.967500", "194700.457500", "194701.947500", "194703.437500", "194704.927500", "194706.417500", "194707.907500", "194709.397500", "194710.887500", "194712.377500", "194713.867500", "194715.357500", "194716.847500", "194718.337500", "194719.827500", "194721.317500", "194722.807500", "194724.297500", "194725.787500", "194727.277500", "194728.767500", "194730.257500", "194731.747500", "194733.237500", "194734.727500", "194736.217500", "194737.707500", "194739.197500", "194740.687500", "194742.177500", "194743.667500", "194745.157500", "194746.647500", "194748.137500", "194749.627500", "194751.117500", "194752.607500", "194754.097500", "194755.587500", "194757.077500", "194758.567500", "194800.057500", "194801.547500", "194803.037500", "194804.527500", "194806.017500", "194807.507500", "194808.997500", "194810.487500", "194811.977500", "194813.467500", "194814.957500", "194816.447500", "194817.937500", "194819.427500", "194820.917500", "194822.407500", "194823.897500", "194825.387500", "194826.877500", "194828.367500", "194829.857500", "194831.347500", "194832.837500", "194834.327500", "194835.817500", "194837.307500", "194838.797500", "194840.287500", "194841.777500", "194843.267500", "194844.757500", "194846.247500", "194847.737500", "194849.227500", "194850.717500", "194852.207500", "194853.697500", "194855.187500", "194856.677500", "194858.167500", "194859.657500", "194901.147500", "194902.637500", "194904.127500", "194905.617500", "194907.107500", "194908.597500", "194910.087500", "194911.577500", "194913.067500", "194914.557500", "194916.047500", "194917.537500", "194919.027500", "194920.517500", "194922.007500", "194923.497500", "194924.987500", "194926.477500", "194927.967500", "194929.457500", "194930.947500", "194932.437500", "194933.927500", "194935.417500", "194936.907500", "194938.397500", "194939.887500", "194941.377500", "194942.867500", "194944.357500", "194945.847500", "194947.337500", "194948.827500", "194950.317500", "194951.807500", "194953.297500", "194954.787500", "194956.277500", "194957.767500", "194959.257500", "195000.747500", "195002.237500", "195003.727500", "195005.217500"],
      "ContentTime": ["194233.477000", "194233.480000", "194233.491000", "194233.493000", "194233.496000", "194233.498000", "194233.501000", "194233.503000", "194233.511000", "194253.526000", "194253.529000", "194253.531000", "194253.534000", "194253.536000", "194253.539000", "194253.542000", "194253.544000", "194253.547000", "194253.549000", "194253.552000", "194253.554000", "194253.566000", "194253.568000", "194253.571000", "194253.573000", "194253.576000", "194253.579000", "194253.581000", "194253.584000", "194313.542000", "194313.545000", "194313.548000", "194313.550000", "194313.553000", "194313.555000", "194313.558000", "194313.560000", "194313.563000", "194313.566000", "194313.568000", "194313.571000", "194313.573000", "194313.576000", "194313.578000", "194313.580000", "194313.583000", "194313.586000", "194313.588000", "194313.591000", "194313.593000", "194333.502000", "194333.505000", "194333.507000", "194333.510000", "194333.513000", "194333.515000", "194333.518000", "194333.520000", "194333.523000", "194333.525000", "194333.528000", "194333.530000", "194333.533000", "194333.535000", "194333.538000", "194333.540000", "194333.543000", "194333.545000", "194333.548000", "194333.551000", "194353.495000", "194353.498000", "194353.501000", "194353.503000", "194353.506000", "194353.509000", "194353.511000", "194353.514000", "194353.516000", "194353.519000", "194353.521000", "194353.524000", "194353.526000", "194353.529000", "194353.531000", "194353.534000", "194353.536000", "194353.539000", "194353.541000", "194353.544000", "194433.573000", "194433.575000", "194433.578000", "194433.580000", "194433.583000", "194433.586000", "194433.588000", "194433.591000", "194433.593000", "194433.596000", "194433.609000", "194433.612000", "194433.614000", "194433.617000", "194433.619000", "194433.622000", "194433.624000", "194433.627000", "194433.630000", "194433.632000", "194433.635000", "194433.637000", "194433.640000", "194433.642000", "194433.645000", "194433.648000", "194433.650000", "194433.653000", "194433.655000", "194433.658000", "194513.528000", "194513.531000", "194513.533000", "194513.536000", "194513.538000", "194513.541000", "194513.543000", "194513.546000", "194513.548000", "194513.551000", "194513.554000", "194513.556000", "194513.559000", "194513.561000", "194513.564000", "194513.567000", "194513.569000", "194513.572000", "194513.574000", "194513.577000", "194513.579000", "194513.582000", "194513.584000", "194513.587000", "194513.589000", "194513.592000", "194553.526000", "194553.528000", "194553.531000", "194553.533000", "194553.536000", "194553.539000", "194553.541000", "194553.544000", "194553.546000", "194553.549000", "194553.551000", "194553.554000", "194553.556000", "194553.559000", "194553.562000", "194553.564000", "194553.567000", "194553.569000", "194553.572000", "194553.575000", "194553.577000", "194553.580000", "194553.582000", "194553.585000", "194553.587000", "194553.590000", "194553.592000", "194633.533000", "194633.536000", "194633.538000", "194633.541000", "194633.544000", "194633.546000", "194633.549000", "194633.551000", "194633.554000", "194633.556000", "194633.559000", "194633.562000", "194633.564000", "194633.567000", "194633.569000", "194633.572000", "194633.574000", "194633.577000", "194633.579000", "194633.582000", "194633.584000", "194633.587000", "194633.590000", "194633.592000", "194633.595000", "194633.597000", "194633.600000", "194713.541000", "194713.544000", "194713.546000", "194713.549000", "194713.551000", "194713.554000", "194713.557000", "194713.559000", "194713.562000", "194713.564000", "194713.567000", "194713.569000", "194713.572000", "194713.574000", "194713.577000", "194713.580000", "194713.582000", "194713.585000", "194713.587000", "194713.590000", "194713.593000", "194713.600000", "194713.603000", "194713.606000", "194713.608000", "194713.611000", "194713.613000", "194753.542000", "194753.545000", "194753.548000", "194753.550000", "194753.553000", "194753.556000", "194753.558000", "194753.561000", "194753.563000", "194753.566000", "194753.568000", "194753.571000", "194753.574000", "194753.576000", "194753.579000", "194753.581000", "194753.584000", "194753.586000", "194753.589000", "194753.592000", "194753.594000", "194753.597000", "194753.599000", "194753.602000", "194753.604000", "194753.607000", "194753.609000", "194833.534000", "194833.537000", "194833.539000", "194833.542000", "194833.545000", "194833.547000", "194833.550000", "194833.552000", "194833.555000", "194833.557000", "194833.560000", "194833.563000", "194833.565000", "194833.568000", "194833.570000", "194833.573000", "194833.575000", "194833.578000", "194833.580000", "194833.583000", "194833.585000", "194833.588000", "194833.591000", "194833.593000", "194833.596000", "194833.598000", "194833.601000", "194913.542000", "194913.545000", "194913.548000", "194913.550000", "194913.553000", "194913.555000", "194913.558000", "194913.561000", "194913.563000", "194913.566000", "194913.568000", "194913.571000", "194913.573000", "194913.576000", "194913.578000", "194913.581000", "194913.583000", "194913.586000", "194913.589000", "194913.591000", "194913.594000", "194913.596000", "194913.599000", "194913.601000", "194913.604000", "194913.606000", "194913.609000", "194953.516000", "194953.519000", "194953.521000", "194953.524000", "194953.527000", "194953.529000", "194953.532000", "194953.535000", "194953.539000", "194953.542000", "194953.545000", "194953.547000", "194953.550000", "194953.553000", "194953.555000", "194953.558000", "194953.560000", "194953.563000", "194953.565000", "194953.568000", "194953.570000", "194953.573000", "194953.576000", "194953.578000", "194953.581000", "194953.583000", "195007.302000", "195007.305000", "195007.308000", "195007.310000", "195007.313000", "195007.315000", "195007.318000", "195007.320000", "195007.323000", "195007.326000"],
      "InstanceCreationTime": ["194233.477000", "194233.480000", "194233.491000", "194233.493000", "194233.496000", "194233.498000", "194233.501000", "194233.503000", "194233.511000", "194253.526000", "194253.529000", "194253.531000", "194253.534000", "194253.536000", "194253.539000", "194253.542000", "194253.544000", "194253.547000", "194253.549000", "194253.552000", "194253.554000", "194253.566000", "194253.568000", "194253.571000", "194253.573000", "194253.576000", "194253.579000", "194253.581000", "194253.584000", "194313.542000", "194313.545000", "194313.548000", "194313.550000", "194313.553000", "194313.555000", "194313.558000", "194313.560000", "194313.563000", "194313.566000", "194313.568000", "194313.571000", "194313.573000", "194313.576000", "194313.578000", "194313.580000", "194313.583000", "194313.586000", "194313.588000", "194313.591000", "194313.593000", "194333.502000", "194333.505000", "194333.507000", "194333.510000", "194333.513000", "194333.515000", "194333.518000", "194333.520000", "194333.523000", "194333.525000", "194333.528000", "194333.530000", "194333.533000", "194333.535000", "194333.538000", "194333.540000", "194333.543000", "194333.545000", "194333.548000", "194333.551000", "194353.495000", "194353.498000", "194353.501000", "194353.503000", "194353.506000", "194353.509000", "194353.511000", "194353.514000", "194353.516000", "194353.519000", "194353.521000", "194353.524000", "194353.526000", "194353.529000", "194353.531000", "194353.534000", "194353.536000", "194353.539000", "194353.541000", "194353.544000", "194433.573000", "194433.575000", "194433.578000", "194433.580000", "194433.583000", "194433.586000", "194433.588000", "194433.591000", "194433.593000", "194433.596000", "194433.609000", "194433.612000", "194433.614000", "194433.617000", "194433.619000", "194433.622000", "194433.624000", "194433.627000", "194433.630000", "194433.632000", "194433.635000", "194433.637000", "194433.640000", "194433.642000", "194433.645000", "194433.648000", "194433.650000", "194433.653000", "194433.655000", "194433.658000", "194513.528000", "194513.531000", "194513.533000", "194513.536000", "194513.538000", "194513.541000", "194513.543000", "194513.546000", "194513.548000", "194513.551000", "194513.554000", "194513.556000", "194513.559000", "194513.561000", "194513.564000", "194513.567000", "194513.569000", "194513.572000", "194513.574000", "194513.577000", "194513.579000", "194513.582000", "194513.584000", "194513.587000", "194513.589000", "194513.592000", "194553.526000", "194553.528000", "194553.531000", "194553.533000", "194553.536000", "194553.539000", "194553.541000", "194553.544000", "194553.546000", "194553.549000", "194553.551000", "194553.554000", "194553.556000", "194553.559000", "194553.562000", "194553.564000", "194553.567000", "194553.569000", "194553.572000", "194553.575000", "194553.577000", "194553.580000", "194553.582000", "194553.585000", "194553.587000", "194553.590000", "194553.592000", "194633.533000", "194633.536000", "194633.538000", "194633.541000", "194633.544000", "194633.546000", "194633.549000", "194633.551000", "194633.554000", "194633.556000", "194633.559000", "194633.562000", "194633.564000", "194633.567000", "194633.569000", "194633.572000", "194633.574000", "194633.577000", "194633.579000", "194633.582000", "194633.584000", "194633.587000", "194633.590000", "194633.592000", "194633.595000", "194633.597000", "194633.600000", "194713.541000", "194713.544000", "194713.546000", "194713.549000", "194713.551000", "194713.554000", "194713.557000", "194713.559000", "194713.562000", "194713.564000", "194713.567000", "194713.569000", "194713.572000", "194713.574000", "194713.577000", "194713.580000", "194713.582000", "194713.585000", "194713.587000", "194713.590000", "194713.593000", "194713.600000", "194713.603000", "194713.606000", "194713.608000", "194713.611000", "194713.613000", "194753.542000", "194753.545000", "194753.548000", "194753.550000", "194753.553000", "194753.556000", "194753.558000", "194753.561000", "194753.563000", "194753.566000", "194753.568000", "194753.571000", "194753.574000", "194753.576000", "194753.579000", "194753.581000", "194753.584000", "194753.586000", "194753.589000", "194753.592000", "194753.594000", "194753.597000", "194753.599000", "194753.602000", "194753.604000", "194753.607000", "194753.609000", "194833.534000", "194833.537000", "194833.539000", "194833.542000", "194833.545000", "194833.547000", "194833.550000", "194833.552000", "194833.555000", "194833.557000", "194833.560000", "194833.563000", "194833.565000", "194833.568000", "194833.570000", "194833.573000", "194833.575000", "194833.578000", "194833.580000", "194833.583000", "194833.585000", "194833.588000", "194833.591000", "194833.593000", "194833.596000", "194833.598000", "194833.601000", "194913.542000", "194913.545000", "194913.548000", "194913.550000", "194913.553000", "194913.555000", "194913.558000", "194913.561000", "194913.563000", "194913.566000", "194913.568000", "194913.571000", "194913.573000", "194913.576000", "194913.578000", "194913.581000", "194913.583000", "194913.586000", "194913.589000", "194913.591000", "194913.594000", "194913.596000", "194913.599000", "194913.601000", "194913.604000", "194913.606000", "194913.609000", "194953.516000", "194953.519000", "194953.521000", "194953.524000", "194953.527000", "194953.529000", "194953.532000", "194953.535000", "194953.539000", "194953.542000", "194953.545000", "194953.547000", "194953.550000", "194953.553000", "194953.555000", "194953.558000", "194953.560000", "194953.563000", "194953.565000", "194953.568000", "194953.570000", "194953.573000", "194953.576000", "194953.578000", "194953.581000", "194953.583000", "195007.302000", "195007.305000", "195007.308000", "195007.310000", "195007.313000", "195007.315000", "195007.318000", "195007.320000", "195007.323000", "195007.326000"],
      "InstanceNumber": [1, 2, 3, 4, 5, 6, 7, 8, 9, 10, 11, 12, 13, 14, 15, 16, 17, 18, 19, 20, 21, 22, 23, 24, 25, 26, 27, 28, 29, 30, 31, 32, 33, 34, 35, 36, 37, 38, 39, 40, 41, 42, 43, 44, 45, 46, 47, 48, 49, 50, 51, 52, 53, 54, 55, 56, 57, 58, 59, 60, 61, 62, 63, 64, 65, 66, 67, 68, 69, 70, 71, 72, 73, 74, 75, 76, 77, 78, 79, 80, 81, 82, 83, 84, 85, 86, 87, 88, 89, 90, 91, 92, 93, 94, 95, 96, 97, 98, 99, 100, 101, 102, 103, 104, 105, 106, 107, 108, 109, 110, 111, 112, 113, 114, 115, 116, 117, 118, 119, 120, 121, 122, 123, 124, 125, 126, 127, 128, 129, 130, 131, 132, 133, 134, 135, 136, 137, 138, 139, 140, 141, 142, 143, 144, 145, 146, 147, 148, 149, 150, 151, 152, 153, 154, 155, 156, 157, 158, 159, 160, 161, 162, 163, 164, 165, 166, 167, 168, 169, 170, 171, 172, 173, 174, 175, 176, 177, 178, 179, 180, 181, 182, 183, 184, 185, 186, 187, 188, 189, 190, 191, 192, 193, 194, 195, 196, 197, 198, 199, 200, 201, 202, 203, 204, 205, 206, 207, 208, 209, 210, 211, 212, 213, 214, 215, 216, 217, 218, 219, 220, 221, 222, 223, 224, 225, 226, 227, 228, 229, 230, 231, 232, 233, 234, 235, 236, 237, 238, 239, 240, 241, 242, 243, 244, 245, 246, 247, 248, 249, 250, 251, 252, 253, 254, 255, 256, 257, 258, 259, 260, 261, 262, 263, 264, 265, 266, 267, 268, 269, 270, 271, 272, 273, 274, 275, 276, 277, 278, 279, 280, 281, 282, 283, 284, 285, 286, 287, 288, 289, 290, 291, 292, 293, 294, 295, 296, 297, 298, 299, 300, 301, 302, 303, 304, 305, 306, 307, 308, 309, 310, 311, 312, 313, 314, 315, 316, 317, 318, 319, 320, 321, 322, 323, 324, 325, 326, 327, 328, 329, 330, 331, 332, 333, 334, 335, 336, 337, 338, 339, 340, 341, 342, 343, 344],
      "WindowCenter": [4754.0, 4730.0, 4756.0, 4754.0, 4754.0, 4754.0, 4752.0, 4754.0, 4756.0, 4754.0, 4750.0, 4754.0, 4730.0, 4756.0, 4752.0, 4756.0, 4752.0, 4752.0, 4752.0, 4732.0, 4752.0, 4732.0, 4752.0, 4758.0, 4754.0, 4756.0, 4754.0, 4752.0, 4754.0, 4754.0, 4758.0, 4754.0, 4756.0, 4754.0, 4750.0, 4754.0, 4754.0, 4730.0, 4732.0, 4732.0, 4754.0, 4756.0, 4756.0, 4758.0, 4754.0, 4754.0, 4754.0, 4756.0, 4752.0, 4756.0, 4754.0, 4730.0, 4756.0, 4752.0, 4754.0, 4758.0, 4758.0, 4754.0, 4756.0, 4754.0, 4758.0, 4732.0, 4756.0, 4754.0, 4732.0, 4732.0, 4782.0, 4754.0, 4780.0, 4752.0, 4756.0, 4754.0, 4730.0, 4730.0, 4754.0, 4752.0, 4756.0, 4754.0, 4756.0, 4756.0, 4754.0, 4758.0, 4732.0, 4752.0, 4754.0, 4754.0, 4756.0, 4754.0, 4760.0, 4730.0, 4756.0, 4758.0, 4752.0, 4758.0, 4756.0, 4756.0, 4732.0, 4756.0, 4736.0, 4732.0, 4760.0, 4756.0, 4760.0, 4734.0, 4758.0, 4758.0, 4758.0, 4758.0, 4734.0, 4732.0, 4756.0, 4758.0, 4756.0, 4760.0, 4756.0, 4756.0, 4756.0, 4754.0, 4756.0, 4732.0, 4756.0, 4734.0, 4756.0, 4734.0, 4730.0, 4756.0, 4756.0, 4758.0, 4760.0, 4756.0, 4754.0, 4736.0, 4734.0, 4734.0, 4756.0, 4738.0, 4732.0, 4758.0, 4754.0, 4786.0, 4758.0, 4760.0, 4756.0, 4758.0, 4734.0, 4734.0, 4736.0, 4756.0, 4732.0, 4756.0, 4758.0, 4754.0, 4760.0, 4730.0, 4754.0, 4754.0, 4758.0, 4756.0, 4760.0, 4756.0, 4756.0, 4756.0, 4758.0, 4758.0, 4736.0, 4758.0, 4732.0, 4732.0, 4756.0, 4734.0, 4754.0, 4760.0, 4758.0, 4758.0, 4758.0, 4758.0, 4754.0, 4758.0, 4734.0, 4732.0, 4754.0, 4756.0, 4736.0, 4728.0, 4730.0, 4736.0, 4758.0, 4760.0, 4788.0, 4754.0, 4730.0, 4732.0, 4732.0, 4732.0, 4734.0, 4746.0, 4736.0, 4758.0, 4846.0, 4850.0, 4820.0, 4790.0, 4752.0, 4732.0, 4732.0, 4738.0, 4738.0, 4734.0, 4730.0, 4756.0, 4786.0, 4784.0, 4786.0, 4756.0, 4758.0, 4734.0, 4730.0, 4734.0, 4736.0, 4732.0, 4752.0, 4762.0, 4754.0, 4754.0, 4754.0, 4756.0, 4730.0, 4730.0, 4734.0, 4732.0, 4754.0, 4756.0, 4756.0, 4758.0, 4756.0, 4758.0, 4756.0, 4758.0, 4734.0, 4732.0, 4754.0, 4732.0, 4732.0, 4756.0, 4758.0, 4754.0, 4754.0, 4756.0, 4732.0, 4752.0, 4730.0, 4758.0, 4758.0, 4756.0, 4760.0, 4756.0, 4754.0, 4730.0, 4730.0, 4732.0, 4730.0, 4756.0, 4734.0, 4756.0, 4734.0, 4752.0, 4756.0, 4732.0, 4762.0, 4754.0, 4758.0, 4754.0, 4760.0, 4756.0, 4756.0, 4730.0, 4730.0, 4732.0, 4754.0, 4758.0, 4754.0, 4782.0, 4752.0, 4756.0, 4754.0, 4752.0, 4732.0, 4756.0, 4754.0, 4732.0, 4756.0, 4754.0, 4752.0, 4754.0, 4758.0, 4732.0, 4754.0, 4730.0, 4754.0, 4732.0, 4754.0, 4734.0, 4756.0, 4734.0, 4758.0, 4754.0, 4734.0, 4730.0, 4758.0, 4732.0, 4760.0, 4756.0, 4754.0, 4752.0, 4730.0, 4732.0, 4732.0, 4732.0, 4732.0, 4756.0, 4754.0, 4758.0, 4756.0, 4756.0, 4754.0, 4756.0, 4756.0, 4732.0, 4756.0, 4756.0, 4756.0, 4732.0, 4730.0, 4752.0, 4730.0, 4754.0, 4730.0, 4756.0, 4730.0, 4752.0, 4754.0, 4756.0, 4752.0, 4732.0],
