{
  "AcquisitionMatrixPE": 104,
  "AcquisitionNumber": 1,
  "AcquisitionTime": "19:51:23.140000",
  "BandwidthPerPixelPhaseEncode": 17.17,
  "BaseResolution": 104,
  "BodyPartExamined": "BRAIN",
  "CoilCombinationMethod": "Sum of Squares",
  "ConsistencyInfo": "N4_VE11C_LATEST_20160120",
  "ConversionSoftware": "dcm2niix",
  "ConversionSoftwareVersion": "v1.0.20220505",
  "DerivedVendorReportedEchoSpacing": 0.000560011,
  "DeviceSerialNumber": "167006",
  "DwellTime": 2.1e-06,
  "EchoTime": 0.037,
  "EchoTime1": 0.037,
  "EchoTime2": 0.001,
  "EchoTrainLength": 104,
  "EffectiveEchoSpacing": 0.000560011,
  "FlipAngle": 52,
  "HeudiconvVersion": "0.5.3.post811+g6206e14",
  "ImageComments": "Unaliased MB4/PE3/LB",
  "ImageOrientationPatientDICOM": [0.999892, -0.0123771, 0.00797348, 0.0144857, 0.923873, -0.382425],
  "ImageOrientationText": "Tra>Cor(-22.5)>Sag(0.2)",
  "ImageType": [
    "ORIGINAL",
    "PRIMARY",
    "P",
    "MB",
    "ND",
    "MOSAIC",
    "PHASE"
],
  "ImagingFrequency": 123.259,
  "InPlanePhaseEncodingDirectionDICOM": "COL",
  "InstitutionAddress": "Chemin Queen-Mary 4565,Montreal,District,CA,H3W 1W5",
  "InstitutionName": "IUGM",
  "InstitutionalDepartmentName": "Department",
  "MRAcquisitionType": "2D",
  "MagneticFieldStrength": 3,
  "Manufacturer": "Siemens",
  "ManufacturersModelName": "Prisma_fit",
  "MatrixCoilMode": "SENSE",
  "Modality": "MR",
  "MultibandAccelerationFactor": 4,
  "PartialFourier": 1,
  "PatientPosition": "HFS",
  "PercentPhaseFOV": 100,
  "PercentSampling": 100,
  "PhaseEncodingDirection": "j",
  "PhaseEncodingSteps": 104,
  "PhaseResolution": 1,
  "PixelBandwidth": 2290,
  "ProcedureStepDescription": "games^mario3",
  "ProtocolName": "func_task-mario3_run-06",
  "PulseSequenceDetails": "%CustomerSeq%\\cmrr_mbep2d_bold",
  "ReceiveCoilActiveElements": "HC1-7;NC1,2",
  "ReceiveCoilName": "HeadNeck_64",
  "ReconMatrixPE": 104,
  "RepetitionTime": 1.49,
  "SAR": 0.0629404,
  "ScanOptions": "FS",
  "ScanningSequence": "EP",
  "SequenceName": "epfid2d1_104",
  "SequenceVariant": "SK\\SS",
  "SeriesDescription": "func_task-mario3_run-06",
  "SeriesNumber": 34,
  "ShimSetting": [588, -7296, -8818, 399, 23, -371, -74, 95],
  "SliceThickness": 2,
  "SliceTiming": [0, 0.785, 0.0975, 0.8825, 0.1975, 0.98, 0.295, 1.0775, 0.3925, 1.175, 0.49, 1.275, 0.5875, 1.3725, 0.685, 0, 0.785, 0.0975, 0.8825, 0.1975, 0.98, 0.295, 1.0775, 0.3925, 1.175, 0.49, 1.275, 0.5875, 1.3725, 0.685, 0, 0.785, 0.0975, 0.8825, 0.1975, 0.98, 0.295, 1.0775, 0.3925, 1.175, 0.49, 1.275, 0.5875, 1.3725, 0.685, 0, 0.785, 0.0975, 0.8825, 0.1975, 0.98, 0.295, 1.0775, 0.3925, 1.175, 0.49, 1.275, 0.5875, 1.3725, 0.685],
  "SoftwareVersions": "syngo MR E11",
  "SpacingBetweenSlices": 2,
  "StationName": "MRC35049",
  "TaskName": "mario3",
  "TotalReadoutTime": 0.0576811,
  "TxRefAmp": 274.908,
  "WipMemBlock": "131bf780-4962-425a-ab93-818b158f0f6a||Sequence: R017 ve11c/master r/75a17815+; Jun 28 2022 16:32:11 by eja",
  "dcmmeta_affine": [
    [-1.9997832775115967, 0.028971385210752487, 0.005266336724162102, 102.4712905883789],
    [0.024754194542765617, 1.8477458953857422, -0.7649981379508972, -69.113037109375],
    [0.015946954488754272, 0.7648500800132751, 1.8479042053222656, -63.39548110961914],
    [0.0, 0.0, 0.0, 1.0]
],
  "dcmmeta_reorient_transform": [
    [0.0, -1.0, 0.0, 103.0],
    [1.0, 0.0, 0.0, 0.0],
    [0.0, 0.0, 1.0, 0.0],
    [0.0, 0.0, 0.0, 1.0]
],
  "dcmmeta_shape": [104, 104, 60, 334],
  "dcmmeta_slice_dim": 2,
  "dcmmeta_version": 0.6,
  "global": {
    "const": {
      "AcquisitionMatrix": [104, 0, 0, 104],
      "AngioFlag": "N",
      "BitsAllocated": 16,
      "BitsStored": 16,
      "BodyPartExamined": "BRAIN",
      "Columns": 832,
      "EchoNumbers": 1,
      "EchoTime": 37.0,
      "EchoTrainLength": 104,
      "FlipAngle": 52.0,
      "HighBit": 15,
      "ImageOrientationPatient": [0.99989160968953, -0.0123770970053, 0.00797347742268, 0.01448569279931, 0.92387296784565, -0.3824250305461],
      "ImagePositionPatient": [-843.92201729753, -784.77379191035, 287.98480662435],
      "ImageType": [
        "ORIGINAL",
        "PRIMARY",
        "P",
        "MB",
        "ND",
        "MOSAIC"
],
      "ImagedNucleus": "1H",
      "ImagingFrequency": 123.258957,
      "InPlanePhaseEncodingDirection": "COL",
      "LargestImagePixelValue": 4095,
      "MRAcquisitionType": "2D",
      "MagneticFieldStrength": 3.0,
      "Manufacturer": "SIEMENS",
      "ManufacturerModelName": "Prisma_fit",
      "Modality": "MR",
      "NumberOfAverages": 1.0,
      "NumberOfPhaseEncodingSteps": 104,
      "PercentPhaseFieldOfView": 100.0,
      "PercentSampling": 100.0,
      "PerformedProcedureStepStartTime": "183335.830000",
      "PhotometricInterpretation": "MONOCHROME2",
      "PixelBandwidth": 2290.0,
      "PixelRepresentation": 0,
      "PixelSpacing": [2.0, 2.0],
      "ProtocolName": "func_task-mario3_run-06",
      "RepetitionTime": 1490.0,
      "RescaleIntercept": -4096.0,
      "RescaleSlope": 2.0,
      "RescaleType": "US",
      "Rows": 832,
      "SAR": 0.06294035882602,
      "SamplesPerPixel": 1,
      "ScanOptions": "FS",
      "ScanningSequence": "EP",
      "SequenceName": "epfid2d1_104",
      "SequenceVariant": [
        "SK",
        "SS"
],
      "SeriesDescription": "func_task-mario3_run-06",
      "SeriesNumber": 34,
      "SeriesTime": "195222.543000",
      "SliceLocation": -31.868892517599,
      "SliceThickness": 2.0,
      "SmallestImagePixelValue": 0,
      "SoftwareVersions": "syngo MR E11",
      "SpacingBetweenSlices": 1.9999999383807,
      "SpecificCharacterSet": "ISO_IR 100",
      "StudyID": "1",
      "StudyTime": "183335.756000",
      "TransmitCoilName": "Body",
      "VariableFlipAngleFlag": "N",
      "WindowCenterWidthExplanation": "Algo1",
      "dBdt": 0.0},
    "slices": {}
  },
  "time": {
    "samples": {
      "AcquisitionNumber": [1, 2, 3, 4, 5, 6, 7, 8, 9, 10, 11, 12, 13, 14, 15, 16, 17, 18, 19, 20, 21, 22, 23, 24, 25, 26, 27, 28, 29, 30, 31, 32, 33, 34, 35, 36, 37, 38, 39, 40, 41, 42, 43, 44, 45, 46, 47, 48, 49, 50, 51, 52, 53, 54, 55, 56, 57, 58, 59, 60, 61, 62, 63, 64, 65, 66, 67, 68, 69, 70, 71, 72, 73, 74, 75, 76, 77, 78, 79, 80, 81, 82, 83, 84, 85, 86, 87, 88, 89, 90, 91, 92, 93, 94, 95, 96, 97, 98, 99, 100, 101, 102, 103, 104, 105, 106, 107, 108, 109, 110, 111, 112, 113, 114, 115, 116, 117, 118, 119, 120, 121, 122, 123, 124, 125, 126, 127, 128, 129, 130, 131, 132, 133, 134, 135, 136, 137, 138, 139, 140, 141, 142, 143, 144, 145, 146, 147, 148, 149, 150, 151, 152, 153, 154, 155, 156, 157, 158, 159, 160, 161, 162, 163, 164, 165, 166, 167, 168, 169, 170, 171, 172, 173, 174, 175, 176, 177, 178, 179, 180, 181, 182, 183, 184, 185, 186, 187, 188, 189, 190, 191, 192, 193, 194, 195, 196, 197, 198, 199, 200, 201, 202, 203, 204, 205, 206, 207, 208, 209, 210, 211, 212, 213, 214, 215, 216, 217, 218, 219, 220, 221, 222, 223, 224, 225, 226, 227, 228, 229, 230, 231, 232, 233, 234, 235, 236, 237, 238, 239, 240, 241, 242, 243, 244, 245, 246, 247, 248, 249, 250, 251, 252, 253, 254, 255, 256, 257, 258, 259, 260, 261, 262, 263, 264, 265, 266, 267, 268, 269, 270, 271, 272, 273, 274, 275, 276, 277, 278, 279, 280, 281, 282, 283, 284, 285, 286, 287, 288, 289, 290, 291, 292, 293, 294, 295, 296, 297, 298, 299, 300, 301, 302, 303, 304, 305, 306, 307, 308, 309, 310, 311, 312, 313, 314, 315, 316, 317, 318, 319, 320, 321, 322, 323, 324, 325, 326, 327, 328, 329, 330, 331, 332, 333, 334],
      "AcquisitionTime": ["195123.140000", "195124.630000", "195126.120000", "195127.610000", "195129.100000", "195130.590000", "195132.080000", "195133.570000", "195135.060000", "195136.550000", "195138.040000", "195139.530000", "195141.020000", "195142.510000", "195144.000000", "195145.490000", "195146.980000", "195148.470000", "195149.960000", "195151.450000", "195152.940000", "195154.430000", "195155.920000", "195157.410000", "195158.900000", "195200.390000", "195201.880000", "195203.370000", "195204.860000", "195206.350000", "195207.840000", "195209.330000", "195210.820000", "195212.310000", "195213.800000", "195215.290000", "195216.780000", "195218.270000", "195219.760000", "195221.250000", "195222.740000", "195224.230000", "195225.720000", "195227.210000", "195228.700000", "195230.190000", "195231.680000", "195233.170000", "195234.660000", "195236.150000", "195237.640000", "195239.130000", "195240.620000", "195242.110000", "195243.600000", "195245.090000", "195246.580000", "195248.070000", "195249.560000", "195251.050000", "195252.540000", "195254.030000", "195255.520000", "195257.010000", "195258.500000", "195259.990000", "195301.480000", "195302.970000", "195304.460000", "195305.950000", "195307.440000", "195308.930000", "195310.420000", "195311.910000", "195313.400000", "195314.890000", "195316.380000", "195317.870000", "195319.360000", "195320.850000", "195322.340000", "195323.830000", "195325.320000", "195326.810000", "195328.300000", "195329.790000", "195331.280000", "195332.770000", "195334.260000", "195335.750000", "195337.240000", "195338.730000", "195340.220000", "195341.710000", "195343.200000", "195344.690000", "195346.180000", "195347.670000", "195349.160000", "195350.650000", "195352.140000", "195353.630000", "195355.120000", "195356.610000", "195358.100000", "195359.590000", "195401.080000", "195402.570000", "195404.060000", "195405.550000", "195407.040000", "195408.530000", "195410.020000", "195411.510000", "195413.000000", "195414.490000", "195415.980000", "195417.470000", "195418.960000", "195420.450000", "195421.940000", "195423.430000", "195424.920000", "195426.410000", "195427.900000", "195429.390000", "195430.880000", "195432.370000", "195433.860000", "195435.350000", "195436.840000", "195438.330000", "195439.820000", "195441.310000", "195442.800000", "195444.290000", "195445.780000", "195447.270000", "195448.760000", "195450.250000", "195451.740000", "195453.230000", "195454.720000", "195456.210000", "195457.700000", "195459.190000", "195500.680000", "195502.170000", "195503.660000", "195505.150000", "195506.640000", "195508.130000", "195509.620000", "195511.110000", "195512.600000", "195514.090000", "195515.580000", "195517.070000", "195518.560000", "195520.050000", "195521.540000", "195523.030000", "195524.520000", "195526.010000", "195527.500000", "195528.990000", "195530.480000", "195531.970000", "195533.460000", "195534.950000", "195536.440000", "195537.930000", "195539.420000", "195540.910000", "195542.400000", "195543.890000", "195545.380000", "195546.870000", "195548.360000", "195549.850000", "195551.340000", "195552.830000", "195554.320000", "195555.810000", "195557.300000", "195558.790000", "195600.280000", "195601.770000", "195603.260000", "195604.750000", "195606.240000", "195607.730000", "195609.220000", "195610.710000", "195612.200000", "195613.690000", "195615.180000", "195616.670000", "195618.160000", "195619.650000", "195621.140000", "195622.630000", "195624.120000", "195625.610000", "195627.100000", "195628.590000", "195630.080000", "195631.570000", "195633.060000", "195634.550000", "195636.040000", "195637.530000", "195639.020000", "195640.510000", "195642.000000", "195643.490000", "195644.980000", "195646.470000", "195647.960000", "195649.450000", "195650.940000", "195652.430000", "195653.920000", "195655.410000", "195656.900000", "195658.390000", "195659.880000", "195701.370000", "195702.860000", "195704.350000", "195705.840000", "195707.330000", "195708.820000", "195710.310000", "195711.800000", "195713.290000", "195714.780000", "195716.270000", "195717.760000", "195719.250000", "195720.740000", "195722.230000", "195723.720000", "195725.210000", "195726.700000", "195728.190000", "195729.680000", "195731.170000", "195732.660000", "195734.150000", "195735.640000", "195737.130000", "195738.620000", "195740.110000", "195741.600000", "195743.090000", "195744.580000", "195746.070000", "195747.560000", "195749.050000", "195750.540000", "195752.030000", "195753.520000", "195755.010000", "195756.500000", "195757.990000", "195759.480000", "195800.970000", "195802.460000", "195803.950000", "195805.440000", "195806.930000", "195808.420000", "195809.910000", "195811.400000", "195812.890000", "195814.380000", "195815.870000", "195817.360000", "195818.850000", "195820.340000", "195821.830000", "195823.320000", "195824.810000", "195826.300000", "195827.790000", "195829.280000", "195830.770000", "195832.260000", "195833.750000", "195835.240000", "195836.730000", "195838.220000", "195839.710000", "195841.200000", "195842.690000", "195844.180000", "195845.670000", "195847.160000", "195848.650000", "195850.140000", "195851.630000", "195853.120000", "195854.610000", "195856.100000", "195857.590000", "195859.080000", "195900.570000", "195902.060000", "195903.550000", "195905.040000", "195906.530000", "195908.020000", "195909.510000", "195911.000000", "195912.490000", "195913.980000", "195915.470000", "195916.960000", "195918.450000", "195919.940000", "195921.430000", "195922.920000", "195924.410000", "195925.900000", "195927.390000", "195928.880000", "195930.370000", "195931.860000", "195933.350000", "195934.840000", "195936.330000", "195937.820000", "195939.310000"],
      "ContentTime": ["195222.545000", "195222.548000", "195222.550000", "195222.553000", "195222.555000", "195222.558000", "195222.560000", "195222.563000", "195222.565000", "195222.568000", "195242.548000", "195242.551000", "195242.554000", "195242.556000", "195242.559000", "195242.561000", "195242.564000", "195242.566000", "195242.569000", "195242.571000", "195242.574000", "195242.576000", "195242.587000", "195242.590000", "195242.592000", "195242.595000", "195242.597000", "195242.600000", "195242.602000", "195242.605000", "195302.565000", "195302.567000", "195302.570000", "195302.572000", "195302.575000", "195302.577000", "195302.580000", "195302.582000", "195302.585000", "195302.588000", "195302.591000", "195302.593000", "195302.596000", "195302.598000", "195302.601000", "195302.603000", "195302.612000", "195302.615000", "195302.617000", "195302.620000", "195322.546000", "195322.549000", "195322.552000", "195322.554000", "195322.557000", "195322.559000", "195322.562000", "195322.564000", "195322.567000", "195322.569000", "195322.572000", "195322.575000", "195322.577000", "195322.580000", "195322.582000", "195322.584000", "195322.587000", "195322.590000", "195322.592000", "195322.595000", "195322.597000", "195342.543000", "195342.546000", "195342.548000", "195342.551000", "195342.553000", "195342.556000", "195342.559000", "195342.561000", "195342.564000", "195342.566000", "195342.569000", "195342.571000", "195342.574000", "195342.577000", "195342.579000", "195342.582000", "195342.584000", "195342.587000", "195342.589000", "195342.592000", "195422.587000", "195422.590000", "195422.592000", "195422.595000", "195422.597000", "195422.600000", "195422.603000", "195422.605000", "195422.608000", "195422.610000", "195422.613000", "195422.615000", "195422.618000", "195422.621000", "195422.623000", "195422.626000", "195422.628000", "195422.631000", "195422.633000", "195422.636000", "195422.638000", "195422.641000", "195422.643000", "195422.646000", "195422.648000", "195422.651000", "195422.654000", "195422.656000", "195422.660000", "195502.578000", "195502.580000", "195502.583000", "195502.586000", "195502.588000", "195502.591000", "195502.593000", "195502.596000", "195502.598000", "195502.601000", "195502.603000", "195502.606000", "195502.608000", "195502.611000", "195502.613000", "195502.616000", "195502.619000", "195502.621000", "195502.624000", "195502.626000", "195502.629000", "195502.631000", "195502.634000", "195502.636000", "195502.639000", "195502.642000", "195502.644000", "195542.591000", "195542.594000", "195542.596000", "195542.599000", "195542.602000", "195542.604000", "195542.607000", "195542.609000", "195542.612000", "195542.614000", "195542.617000", "195542.620000", "195542.622000", "195542.625000", "195542.627000", "195542.630000", "195542.632000", "195542.635000", "195542.637000", "195542.640000", "195542.642000", "195542.645000", "195542.648000", "195542.650000", "195542.653000", "195542.655000", "195622.571000", "195622.573000", "195622.576000", "195622.578000", "195622.581000", "195622.583000", "195622.586000", "195622.588000", "195622.591000", "195622.594000", "195622.596000", "195622.599000", "195622.601000", "195622.604000", "195622.606000", "195622.609000", "195622.611000", "195622.614000", "195622.616000", "195622.619000", "195622.621000", "195622.624000", "195622.626000", "195622.629000", "195622.632000", "195622.634000", "195622.637000", "195702.578000", "195702.581000", "195702.584000", "195702.586000", "195702.589000", "195702.591000", "195702.594000", "195702.596000", "195702.599000", "195702.602000", "195702.604000", "195702.607000", "195702.609000", "195702.612000", "195702.614000", "195702.617000", "195702.619000", "195702.622000", "195702.624000", "195702.627000", "195702.630000", "195702.632000", "195702.635000", "195702.637000", "195702.649000", "195702.651000", "195702.654000", "195742.586000", "195742.589000", "195742.591000", "195742.594000", "195742.597000", "195742.599000", "195742.602000", "195742.604000", "195742.607000", "195742.609000", "195742.612000", "195742.615000", "195742.617000", "195742.620000", "195742.622000", "195742.625000", "195742.627000", "195742.630000", "195742.632000", "195742.635000", "195742.638000", "195742.640000", "195742.643000", "195742.645000", "195742.648000", "195742.650000", "195742.653000", "195822.577000", "195822.580000", "195822.582000", "195822.585000", "195822.587000", "195822.590000", "195822.592000", "195822.595000", "195822.598000", "195822.600000", "195822.603000", "195822.605000", "195822.608000", "195822.610000", "195822.613000", "195822.615000", "195822.618000", "195822.620000", "195822.623000", "195822.626000", "195822.628000", "195822.631000", "195822.633000", "195822.636000", "195822.638000", "195822.641000", "195822.644000", "195902.580000", "195902.583000", "195902.585000", "195902.588000", "195902.590000", "195902.593000", "195902.595000", "195902.598000", "195902.601000", "195902.603000", "195902.606000", "195902.608000", "195902.611000", "195902.613000", "195902.616000", "195902.619000", "195902.621000", "195902.624000", "195902.626000", "195902.629000", "195902.631000", "195902.634000", "195902.636000", "195902.639000", "195902.641000", "195902.644000", "195902.647000", "195942.810000", "195942.813000", "195942.816000", "195942.818000", "195942.821000", "195942.823000", "195942.826000", "195942.828000", "195942.831000", "195942.833000", "195942.836000", "195942.839000", "195942.841000", "195942.844000", "195942.846000", "195942.849000", "195942.851000", "195942.854000", "195942.857000", "195942.859000", "195942.862000", "195942.865000", "195942.867000", "195942.870000", "195942.872000", "195942.875000"],
      "InstanceCreationTime": ["195222.545000", "195222.548000", "195222.550000", "195222.553000", "195222.555000", "195222.558000", "195222.560000", "195222.563000", "195222.565000", "195222.568000", "195242.548000", "195242.551000", "195242.554000", "195242.556000", "195242.559000", "195242.561000", "195242.564000", "195242.566000", "195242.569000", "195242.571000", "195242.574000", "195242.576000", "195242.587000", "195242.590000", "195242.592000", "195242.595000", "195242.597000", "195242.600000", "195242.602000", "195242.605000", "195302.565000", "195302.567000", "195302.570000", "195302.572000", "195302.575000", "195302.577000", "195302.580000", "195302.582000", "195302.585000", "195302.588000", "195302.591000", "195302.593000", "195302.596000", "195302.598000", "195302.601000", "195302.603000", "195302.612000", "195302.615000", "195302.617000", "195302.620000", "195322.546000", "195322.549000", "195322.552000", "195322.554000", "195322.557000", "195322.559000", "195322.562000", "195322.564000", "195322.567000", "195322.569000", "195322.572000", "195322.575000", "195322.577000", "195322.580000", "195322.582000", "195322.584000", "195322.587000", "195322.590000", "195322.592000", "195322.595000", "195322.597000", "195342.543000", "195342.546000", "195342.548000", "195342.551000", "195342.553000", "195342.556000", "195342.559000", "195342.561000", "195342.564000", "195342.566000", "195342.569000", "195342.571000", "195342.574000", "195342.577000", "195342.579000", "195342.582000", "195342.584000", "195342.587000", "195342.589000", "195342.592000", "195422.587000", "195422.590000", "195422.592000", "195422.595000", "195422.597000", "195422.600000", "195422.603000", "195422.605000", "195422.608000", "195422.610000", "195422.613000", "195422.615000", "195422.618000", "195422.621000", "195422.623000", "195422.626000", "195422.628000", "195422.631000", "195422.633000", "195422.636000", "195422.638000", "195422.641000", "195422.643000", "195422.646000", "195422.648000", "195422.651000", "195422.654000", "195422.656000", "195422.660000", "195502.578000", "195502.580000", "195502.583000", "195502.586000", "195502.588000", "195502.591000", "195502.593000", "195502.596000", "195502.598000", "195502.601000", "195502.603000", "195502.606000", "195502.608000", "195502.611000", "195502.613000", "195502.616000", "195502.619000", "195502.621000", "195502.624000", "195502.626000", "195502.629000", "195502.631000", "195502.634000", "195502.636000", "195502.639000", "195502.642000", "195502.644000", "195542.591000", "195542.594000", "195542.596000", "195542.599000", "195542.602000", "195542.604000", "195542.607000", "195542.609000", "195542.612000", "195542.614000", "195542.617000", "195542.620000", "195542.622000", "195542.625000", "195542.627000", "195542.630000", "195542.632000", "195542.635000", "195542.637000", "195542.640000", "195542.642000", "195542.645000", "195542.648000", "195542.650000", "195542.653000", "195542.655000", "195622.571000", "195622.573000", "195622.576000", "195622.578000", "195622.581000", "195622.583000", "195622.586000", "195622.588000", "195622.591000", "195622.594000", "195622.596000", "195622.599000", "195622.601000", "195622.604000", "195622.606000", "195622.609000", "195622.611000", "195622.614000", "195622.616000", "195622.619000", "195622.621000", "195622.624000", "195622.626000", "195622.629000", "195622.632000", "195622.634000", "195622.637000", "195702.578000", "195702.581000", "195702.584000", "195702.586000", "195702.589000", "195702.591000", "195702.594000", "195702.596000", "195702.599000", "195702.602000", "195702.604000", "195702.607000", "195702.609000", "195702.612000", "195702.614000", "195702.617000", "195702.619000", "195702.622000", "195702.624000", "195702.627000", "195702.630000", "195702.632000", "195702.635000", "195702.637000", "195702.649000", "195702.651000", "195702.654000", "195742.586000", "195742.589000", "195742.591000", "195742.594000", "195742.597000", "195742.599000", "195742.602000", "195742.604000", "195742.607000", "195742.609000", "195742.612000", "195742.615000", "195742.617000", "195742.620000", "195742.622000", "195742.625000", "195742.627000", "195742.630000", "195742.632000", "195742.635000", "195742.638000", "195742.640000", "195742.643000", "195742.645000", "195742.648000", "195742.650000", "195742.653000", "195822.577000", "195822.580000", "195822.582000", "195822.585000", "195822.587000", "195822.590000", "195822.592000", "195822.595000", "195822.598000", "195822.600000", "195822.603000", "195822.605000", "195822.608000", "195822.610000", "195822.613000", "195822.615000", "195822.618000", "195822.620000", "195822.623000", "195822.626000", "195822.628000", "195822.631000", "195822.633000", "195822.636000", "195822.638000", "195822.641000", "195822.644000", "195902.580000", "195902.583000", "195902.585000", "195902.588000", "195902.590000", "195902.593000", "195902.595000", "195902.598000", "195902.601000", "195902.603000", "195902.606000", "195902.608000", "195902.611000", "195902.613000", "195902.616000", "195902.619000", "195902.621000", "195902.624000", "195902.626000", "195902.629000", "195902.631000", "195902.634000", "195902.636000", "195902.639000", "195902.641000", "195902.644000", "195902.647000", "195942.810000", "195942.813000", "195942.816000", "195942.818000", "195942.821000", "195942.823000", "195942.826000", "195942.828000", "195942.831000", "195942.833000", "195942.836000", "195942.839000", "195942.841000", "195942.844000", "195942.846000", "195942.849000", "195942.851000", "195942.854000", "195942.857000", "195942.859000", "195942.862000", "195942.865000", "195942.867000", "195942.870000", "195942.872000", "195942.875000"],
      "InstanceNumber": [1, 2, 3, 4, 5, 6, 7, 8, 9, 10, 11, 12, 13, 14, 15, 16, 17, 18, 19, 20, 21, 22, 23, 24, 25, 26, 27, 28, 29, 30, 31, 32, 33, 34, 35, 36, 37, 38, 39, 40, 41, 42, 43, 44, 45, 46, 47, 48, 49, 50, 51, 52, 53, 54, 55, 56, 57, 58, 59, 60, 61, 62, 63, 64, 65, 66, 67, 68, 69, 70, 71, 72, 73, 74, 75, 76, 77, 78, 79, 80, 81, 82, 83, 84, 85, 86, 87, 88, 89, 90, 91, 92, 93, 94, 95, 96, 97, 98, 99, 100, 101, 102, 103, 104, 105, 106, 107, 108, 109, 110, 111, 112, 113, 114, 115, 116, 117, 118, 119, 120, 121, 122, 123, 124, 125, 126, 127, 128, 129, 130, 131, 132, 133, 134, 135, 136, 137, 138, 139, 140, 141, 142, 143, 144, 145, 146, 147, 148, 149, 150, 151, 152, 153, 154, 155, 156, 157, 158, 159, 160, 161, 162, 163, 164, 165, 166, 167, 168, 169, 170, 171, 172, 173, 174, 175, 176, 177, 178, 179, 180, 181, 182, 183, 184, 185, 186, 187, 188, 189, 190, 191, 192, 193, 194, 195, 196, 197, 198, 199, 200, 201, 202, 203, 204, 205, 206, 207, 208, 209, 210, 211, 212, 213, 214, 215, 216, 217, 218, 219, 220, 221, 222, 223, 224, 225, 226, 227, 228, 229, 230, 231, 232, 233, 234, 235, 236, 237, 238, 239, 240, 241, 242, 243, 244, 245, 246, 247, 248, 249, 250, 251, 252, 253, 254, 255, 256, 257, 258, 259, 260, 261, 262, 263, 264, 265, 266, 267, 268, 269, 270, 271, 272, 273, 274, 275, 276, 277, 278, 279, 280, 281, 282, 283, 284, 285, 286, 287, 288, 289, 290, 291, 292, 293, 294, 295, 296, 297, 298, 299, 300, 301, 302, 303, 304, 305, 306, 307, 308, 309, 310, 311, 312, 313, 314, 315, 316, 317, 318, 319, 320, 321, 322, 323, 324, 325, 326, 327, 328, 329, 330, 331, 332, 333, 334],
      "WindowCenter": [4756.0, 4758.0, 4758.0, 4780.0, 4754.0, 4754.0, 4754.0, 4752.0, 4754.0, 4756.0, 4760.0, 4754.0, 4754.0, 4754.0, 4758.0, 4752.0, 4782.0, 4758.0, 4762.0, 4782.0, 4752.0, 4758.0, 4754.0, 4758.0, 4754.0, 4754.0, 4756.0, 4752.0, 4756.0, 4754.0, 4780.0, 4756.0, 4782.0, 4752.0, 4758.0, 4758.0, 4782.0, 4756.0, 4756.0, 4756.0, 4754.0, 4782.0, 4784.0, 4782.0, 4786.0, 4758.0, 4782.0, 4754.0, 4754.0, 4756.0, 4750.0, 4754.0, 4754.0, 4756.0, 4758.0, 4758.0, 4756.0, 4780.0, 4758.0, 4780.0, 4752.0, 4760.0, 4754.0, 4754.0, 4754.0, 4756.0, 4758.0, 4750.0, 4782.0, 4754.0, 4760.0, 4730.0, 4778.0, 4754.0, 4782.0, 4756.0, 4758.0, 4756.0, 4752.0, 4758.0, 4756.0, 4754.0, 4756.0, 4756.0, 4754.0, 4758.0, 4756.0, 4758.0, 4754.0, 4758.0, 4756.0, 4754.0, 4756.0, 4752.0, 4760.0, 4756.0, 4754.0, 4760.0, 4760.0, 4754.0, 4760.0, 4756.0, 4756.0, 4730.0, 4754.0, 4784.0, 4752.0, 4756.0, 4758.0, 4754.0, 4758.0, 4756.0, 4778.0, 4784.0, 4756.0, 4754.0, 4754.0, 4754.0, 4754.0, 4752.0, 4754.0, 4752.0, 4782.0, 4754.0, 4758.0, 4784.0, 4756.0, 4790.0, 4784.0, 4754.0, 4784.0, 4760.0, 4754.0, 4754.0, 4754.0, 4758.0, 4754.0, 4758.0, 4782.0, 4756.0, 4782.0, 4760.0, 4754.0, 4758.0, 4752.0, 4752.0, 4756.0, 4756.0, 4756.0, 4750.0, 4752.0, 4760.0, 4780.0, 4784.0, 4758.0, 4758.0, 4730.0, 4752.0, 4730.0, 4750.0, 4752.0, 4756.0, 4756.0, 4782.0, 4752.0, 4756.0, 4752.0, 4754.0, 4728.0, 4754.0, 4754.0, 4754.0, 4756.0, 4754.0, 4758.0, 4752.0, 4750.0, 4754.0, 4752.0, 4754.0, 4758.0, 4752.0, 4754.0, 4754.0, 4754.0, 4752.0, 4750.0, 4724.0, 4754.0, 4752.0, 4752.0, 4750.0, 4758.0, 4756.0, 4752.0, 4780.0, 4754.0, 4754.0, 4752.0, 4754.0, 4754.0, 4752.0, 4778.0, 4756.0, 4756.0, 4756.0, 4780.0, 4726.0, 4752.0, 4784.0, 4780.0, 4784.0, 4780.0, 4754.0, 4754.0, 4754.0, 4754.0, 4752.0, 4750.0, 4754.0, 4752.0, 4756.0, 4758.0, 4758.0, 4784.0, 4758.0, 4758.0, 4778.0, 4754.0, 4754.0, 4754.0, 4758.0, 4754.0, 4760.0, 4754.0, 4784.0, 4782.0, 4780.0, 4758.0, 4758.0, 4756.0, 4756.0, 4756.0, 4756.0, 4730.0, 4750.0, 4752.0, 4756.0, 4782.0, 4784.0, 4786.0, 4754.0, 4754.0, 4752.0, 4730.0, 4756.0, 4752.0, 4756.0, 4788.0, 4782.0, 4790.0, 4760.0, 4758.0, 4754.0, 4732.0, 4742.0, 4734.0, 4784.0, 4854.0, 4884.0, 4856.0, 4824.0, 4780.0, 4752.0, 4736.0, 4734.0, 4734.0, 4756.0, 4752.0, 4784.0, 4788.0, 4792.0, 4782.0, 4780.0, 4758.0, 4754.0, 4754.0, 4756.0, 4734.0, 4754.0, 4756.0, 4760.0, 4754.0, 4782.0, 4784.0, 4786.0, 4754.0, 4758.0, 4732.0, 4756.0, 4730.0, 4752.0, 4754.0, 4758.0, 4754.0, 4760.0, 4760.0, 4760.0, 4758.0, 4752.0, 4754.0, 4732.0, 4756.0, 4732.0, 4758.0, 4756.0, 4756.0, 4754.0, 4784.0, 4756.0, 4752.0, 4754.0, 4754.0, 4758.0, 4756.0, 4756.0, 4756.0, 4756.0, 4754.0, 4754.0, 4756.0, 4758.0, 4752.0, 4752.0],
