{
  "AcquisitionMatrixPE": 104,
  "AcquisitionNumber": 1,
  "AcquisitionTime": "19:03:44.002500",
  "BandwidthPerPixelPhaseEncode": 17.17,
  "BaseResolution": 104,
  "BodyPartExamined": "BRAIN",
  "CoilCombinationMethod": "Sum of Squares",
  "ConsistencyInfo": "N4_VE11C_LATEST_20160120",
  "ConversionSoftware": "dcm2niix",
  "ConversionSoftwareVersion": "v1.0.20220505",
  "DerivedVendorReportedEchoSpacing": 0.000560011,
  "DeviceSerialNumber": "167006",
  "DwellTime": 2.1e-06,
  "EchoTime": 0.037,
  "EchoTime1": 0.037,
  "EchoTime2": 0.001,
  "EchoTrainLength": 104,
  "EffectiveEchoSpacing": 0.000560011,
  "FlipAngle": 52,
  "HeudiconvVersion": "0.5.3.post811+g6206e14",
  "ImageComments": "Unaliased MB4/PE3/LB",
  "ImageOrientationPatientDICOM": [0.995016, 0.0929008, 0.0362355, -0.0772611, 0.94797, -0.308843],
  "ImageOrientationText": "Tra>Cor(-17.8)>Sag(3.6)",
  "ImageType": [
    "ORIGINAL",
    "PRIMARY",
    "P",
    "MB",
    "ND",
    "MOSAIC",
    "PHASE"
],
  "ImagingFrequency": 123.259,
  "InPlanePhaseEncodingDirectionDICOM": "COL",
  "InstitutionAddress": "Chemin Queen-Mary 4565,Montreal,District,CA,H3W 1W5",
  "InstitutionName": "IUGM",
  "InstitutionalDepartmentName": "Department",
  "MRAcquisitionType": "2D",
  "MagneticFieldStrength": 3,
  "Manufacturer": "Siemens",
  "ManufacturersModelName": "Prisma_fit",
  "MatrixCoilMode": "SENSE",
  "Modality": "MR",
  "MultibandAccelerationFactor": 4,
  "PartialFourier": 1,
  "PatientPosition": "HFS",
  "PercentPhaseFOV": 100,
  "PercentSampling": 100,
  "PhaseEncodingDirection": "j",
  "PhaseEncodingSteps": 104,
  "PhaseResolution": 1,
  "PixelBandwidth": 2290,
  "ProcedureStepDescription": "games^mario3",
  "ProtocolName": "func_task-mario3_run-02",
  "PulseSequenceDetails": "%CustomerSeq%\\cmrr_mbep2d_bold",
  "ReceiveCoilActiveElements": "HC1-7;NC1,2",
  "ReceiveCoilName": "HeadNeck_64",
  "ReconMatrixPE": 104,
  "RepetitionTime": 1.49,
  "SAR": 0.0519409,
  "ScanOptions": "FS",
  "ScanningSequence": "EP",
  "SequenceName": "epfid2d1_104",
  "SequenceVariant": "SK\\SS",
  "SeriesDescription": "func_task-mario3_run-02",
  "SeriesNumber": 17,
  "ShimSetting": [631, -7197, -8760, 668, 69, 15, 11, 0],
  "SliceThickness": 2,
  "SliceTiming": [0, 0.7825, 0.0975, 0.88, 0.195, 0.98, 0.2925, 1.0775, 0.39, 1.175, 0.49, 1.2725, 0.5875, 1.37, 0.685, 0, 0.7825, 0.0975, 0.88, 0.195, 0.98, 0.2925, 1.0775, 0.39, 1.175, 0.49, 1.2725, 0.5875, 1.37, 0.685, 0, 0.7825, 0.0975, 0.88, 0.195, 0.98, 0.2925, 1.0775, 0.39, 1.175, 0.49, 1.2725, 0.5875, 1.37, 0.685, 0, 0.7825, 0.0975, 0.88, 0.195, 0.98, 0.2925, 1.0775, 0.39, 1.175, 0.49, 1.2725, 0.5875, 1.37, 0.685],
  "SoftwareVersions": "syngo MR E11",
  "SpacingBetweenSlices": 2,
  "StationName": "MRC35049",
  "TaskName": "mario3",
  "TotalReadoutTime": 0.0576811,
  "TxRefAmp": 259.777,
  "WipMemBlock": "efb53e34-432d-4d83-9f38-eea1092e1d8b||Sequence: R017 ve11c/master r/75a17815+; Jun 28 2022 16:32:11 by eja",
  "dcmmeta_affine": [
    [-1.9900315999984741, -0.15452224016189575, 0.12608401477336884, 110.4366455078125],
    [-0.18580162525177002, 1.8959392309188843, -0.6090090870857239, -52.87593460083008],
    [0.07247108966112137, 0.617686927318573, 1.9008448123931885, -47.507083892822266],
    [0.0, 0.0, 0.0, 1.0]
],
  "dcmmeta_reorient_transform": [
    [0.0, -1.0, 0.0, 103.0],
    [1.0, 0.0, 0.0, 0.0],
    [0.0, 0.0, 1.0, 0.0],
    [0.0, 0.0, 0.0, 1.0]
],
  "dcmmeta_shape": [104, 104, 60, 311],
  "dcmmeta_slice_dim": 2,
  "dcmmeta_version": 0.6,
  "global": {
    "const": {
      "AcquisitionMatrix": [104, 0, 0, 104],
      "AngioFlag": "N",
      "BitsAllocated": 16,
      "BitsStored": 16,
      "BodyPartExamined": "BRAIN",
      "Columns": 832,
      "EchoNumbers": 1,
      "EchoTime": 37.0,
      "EchoTrainLength": 104,
      "FlipAngle": 52.0,
      "HighBit": 15,
      "ImageOrientationPatient": [0.99501579092909, 0.09290081267399, 0.03623554617055, -0.0772611227571, 0.9479696328722, -0.308843478258],
      "ImagePositionPatient": [-762.64625454175, -900.15949557602, 214.57324821193],
      "ImageType": [
        "ORIGINAL",
        "PRIMARY",
        "P",
        "MB",
        "ND",
        "MOSAIC"
],
      "ImagedNucleus": "1H",
      "ImagingFrequency": 123.258761,
      "InPlanePhaseEncodingDirection": "COL",
      "LargestImagePixelValue": 4095,
      "MRAcquisitionType": "2D",
      "MagneticFieldStrength": 3.0,
      "Manufacturer": "SIEMENS",
      "ManufacturerModelName": "Prisma_fit",
      "Modality": "MR",
      "NumberOfAverages": 1.0,
      "NumberOfPhaseEncodingSteps": 104,
      "PercentPhaseFieldOfView": 100.0,
      "PercentSampling": 100.0,
      "PerformedProcedureStepStartTime": "184432.976000",
      "PhotometricInterpretation": "MONOCHROME2",
      "PixelBandwidth": 2290.0,
      "PixelRepresentation": 0,
      "PixelSpacing": [2.0, 2.0],
      "ProtocolName": "func_task-mario3_run-02",
      "RepetitionTime": 1490.0,
      "RescaleIntercept": -4096.0,
      "RescaleSlope": 2.0,
      "RescaleType": "US",
      "Rows": 832,
      "SAR": 0.0519408615223,
      "SamplesPerPixel": 1,
      "ScanOptions": "FS",
      "ScanningSequence": "EP",
      "SequenceName": "epfid2d1_104",
      "SequenceVariant": [
        "SK",
        "SS"
],
      "SeriesDescription": "func_task-mario3_run-02",
      "SeriesNumber": 17,
      "SeriesTime": "190454.068000",
      "SliceLocation": -22.088684940389,
      "SliceThickness": 2.0,
      "SmallestImagePixelValue": 0,
      "SoftwareVersions": "syngo MR E11",
      "SpacingBetweenSlices": 2.0000000608867,
      "SpecificCharacterSet": "ISO_IR 100",
      "StudyID": "1",
      "StudyTime": "184432.898000",
      "TransmitCoilName": "Body",
      "VariableFlipAngleFlag": "N",
      "WindowCenterWidthExplanation": "Algo1",
      "dBdt": 0.0},
    "slices": {}
  },
  "time": {
    "samples": {
      "AcquisitionNumber": [1, 2, 3, 4, 5, 6, 7, 8, 9, 10, 11, 12, 13, 14, 15, 16, 17, 18, 19, 20, 21, 22, 23, 24, 25, 26, 27, 28, 29, 30, 31, 32, 33, 34, 35, 36, 37, 38, 39, 40, 41, 42, 43, 44, 45, 46, 47, 48, 49, 50, 51, 52, 53, 54, 55, 56, 57, 58, 59, 60, 61, 62, 63, 64, 65, 66, 67, 68, 69, 70, 71, 72, 73, 74, 75, 76, 77, 78, 79, 80, 81, 82, 83, 84, 85, 86, 87, 88, 89, 90, 91, 92, 93, 94, 95, 96, 97, 98, 99, 100, 101, 102, 103, 104, 105, 106, 107, 108, 109, 110, 111, 112, 113, 114, 115, 116, 117, 118, 119, 120, 121, 122, 123, 124, 125, 126, 127, 128, 129, 130, 131, 132, 133, 134, 135, 136, 137, 138, 139, 140, 141, 142, 143, 144, 145, 146, 147, 148, 149, 150, 151, 152, 153, 154, 155, 156, 157, 158, 159, 160, 161, 162, 163, 164, 165, 166, 167, 168, 169, 170, 171, 172, 173, 174, 175, 176, 177, 178, 179, 180, 181, 182, 183, 184, 185, 186, 187, 188, 189, 190, 191, 192, 193, 194, 195, 196, 197, 198, 199, 200, 201, 202, 203, 204, 205, 206, 207, 208, 209, 210, 211, 212, 213, 214, 215, 216, 217, 218, 219, 220, 221, 222, 223, 224, 225, 226, 227, 228, 229, 230, 231, 232, 233, 234, 235, 236, 237, 238, 239, 240, 241, 242, 243, 244, 245, 246, 247, 248, 249, 250, 251, 252, 253, 254, 255, 256, 257, 258, 259, 260, 261, 262, 263, 264, 265, 266, 267, 268, 269, 270, 271, 272, 273, 274, 275, 276, 277, 278, 279, 280, 281, 282, 283, 284, 285, 286, 287, 288, 289, 290, 291, 292, 293, 294, 295, 296, 297, 298, 299, 300, 301, 302, 303, 304, 305, 306, 307, 308, 309, 310, 311],
      "AcquisitionTime": ["190344.002500", "190345.492500", "190346.982500", "190348.472500", "190349.962500", "190351.452500", "190352.942500", "190354.432500", "190355.922500", "190357.412500", "190358.902500", "190400.392500", "190401.882500", "190403.372500", "190404.862500", "190406.352500", "190407.842500", "190409.332500", "190410.822500", "190412.312500", "190413.802500", "190415.292500", "190416.782500", "190418.272500", "190419.762500", "190421.252500", "190422.742500", "190424.232500", "190425.722500", "190427.212500", "190428.702500", "190430.192500", "190431.682500", "190433.172500", "190434.662500", "190436.152500", "190437.642500", "190439.132500", "190440.622500", "190442.112500", "190443.602500", "190445.092500", "190446.582500", "190448.072500", "190449.562500", "190451.052500", "190452.542500", "190454.032500", "190455.522500", "190457.012500", "190458.502500", "190459.992500", "190501.482500", "190502.972500", "190504.462500", "190505.952500", "190507.442500", "190508.932500", "190510.422500", "190511.912500", "190513.402500", "190514.892500", "190516.382500", "190517.872500", "190519.362500", "190520.852500", "190522.342500", "190523.832500", "190525.322500", "190526.812500", "190528.302500", "190529.792500", "190531.282500", "190532.772500", "190534.262500", "190535.752500", "190537.242500", "190538.732500", "190540.222500", "190541.712500", "190543.202500", "190544.692500", "190546.182500", "190547.672500", "190549.162500", "190550.652500", "190552.142500", "190553.632500", "190555.122500", "190556.612500", "190558.102500", "190559.592500", "190601.082500", "190602.572500", "190604.062500", "190605.552500", "190607.042500", "190608.532500", "190610.022500", "190611.512500", "190613.002500", "190614.492500", "190615.982500", "190617.472500", "190618.962500", "190620.452500", "190621.942500", "190623.432500", "190624.922500", "190626.412500", "190627.902500", "190629.392500", "190630.882500", "190632.372500", "190633.862500", "190635.352500", "190636.842500", "190638.332500", "190639.822500", "190641.312500", "190642.802500", "190644.292500", "190645.782500", "190647.272500", "190648.762500", "190650.252500", "190651.742500", "190653.232500", "190654.722500", "190656.212500", "190657.702500", "190659.192500", "190700.682500", "190702.172500", "190703.662500", "190705.152500", "190706.642500", "190708.132500", "190709.622500", "190711.112500", "190712.602500", "190714.092500", "190715.582500", "190717.072500", "190718.562500", "190720.052500", "190721.542500", "190723.032500", "190724.522500", "190726.012500", "190727.502500", "190728.992500", "190730.482500", "190731.972500", "190733.462500", "190734.952500", "190736.442500", "190737.932500", "190739.422500", "190740.912500", "190742.402500", "190743.892500", "190745.382500", "190746.872500", "190748.362500", "190749.852500", "190751.342500", "190752.832500", "190754.322500", "190755.812500", "190757.302500", "190758.792500", "190800.282500", "190801.772500", "190803.262500", "190804.752500", "190806.242500", "190807.732500", "190809.222500", "190810.712500", "190812.202500", "190813.692500", "190815.182500", "190816.672500", "190818.162500", "190819.652500", "190821.142500", "190822.632500", "190824.122500", "190825.612500", "190827.102500", "190828.592500", "190830.082500", "190831.572500", "190833.062500", "190834.552500", "190836.042500", "190837.532500", "190839.022500", "190840.512500", "190842.002500", "190843.492500", "190844.982500", "190846.472500", "190847.962500", "190849.452500", "190850.942500", "190852.432500", "190853.922500", "190855.412500", "190856.902500", "190858.392500", "190859.882500", "190901.372500", "190902.862500", "190904.352500", "190905.842500", "190907.332500", "190908.822500", "190910.312500", "190911.802500", "190913.292500", "190914.782500", "190916.272500", "190917.762500", "190919.252500", "190920.742500", "190922.232500", "190923.722500", "190925.212500", "190926.702500", "190928.192500", "190929.682500", "190931.172500", "190932.662500", "190934.152500", "190935.642500", "190937.132500", "190938.622500", "190940.112500", "190941.602500", "190943.092500", "190944.582500", "190946.072500", "190947.562500", "190949.052500", "190950.542500", "190952.032500", "190953.522500", "190955.012500", "190956.502500", "190957.992500", "190959.482500", "191000.972500", "191002.462500", "191003.952500", "191005.442500", "191006.932500", "191008.422500", "191009.912500", "191011.402500", "191012.892500", "191014.382500", "191015.872500", "191017.362500", "191018.852500", "191020.342500", "191021.832500", "191023.322500", "191024.812500", "191026.302500", "191027.792500", "191029.282500", "191030.772500", "191032.262500", "191033.752500", "191035.242500", "191036.732500", "191038.222500", "191039.712500", "191041.202500", "191042.692500", "191044.182500", "191045.672500", "191047.162500", "191048.652500", "191050.142500", "191051.632500", "191053.122500", "191054.612500", "191056.102500", "191057.592500", "191059.082500", "191100.572500", "191102.062500", "191103.552500", "191105.042500", "191106.532500", "191108.022500", "191109.512500", "191111.002500", "191112.492500", "191113.982500", "191115.472500", "191116.962500", "191118.452500", "191119.942500", "191121.432500", "191122.922500", "191124.412500", "191125.902500"],
      "ContentTime": ["190454.070000", "190454.073000", "190454.075000", "190454.078000", "190454.080000", "190454.083000", "190454.085000", "190454.088000", "190454.090000", "190454.093000", "190454.095000", "190454.098000", "190454.100000", "190454.103000", "190454.105000", "190454.108000", "190454.111000", "190454.113000", "190454.116000", "190454.118000", "190454.121000", "190514.026000", "190514.029000", "190514.032000", "190514.034000", "190514.037000", "190514.039000", "190514.042000", "190514.044000", "190514.047000", "190514.049000", "190514.052000", "190514.054000", "190514.057000", "190514.059000", "190514.062000", "190514.064000", "190514.067000", "190514.069000", "190514.072000", "190514.074000", "190514.077000", "190533.986000", "190533.989000", "190533.991000", "190533.994000", "190533.997000", "190534.000000", "190534.003000", "190534.005000", "190534.012000", "190534.014000", "190534.017000", "190534.019000", "190534.022000", "190534.024000", "190534.027000", "190534.029000", "190534.032000", "190534.034000", "190534.037000", "190534.040000", "190553.979000", "190553.982000", "190553.984000", "190553.987000", "190553.990000", "190553.992000", "190553.995000", "190553.997000", "190554.001000", "190554.003000", "190554.006000", "190554.008000", "190554.011000", "190554.014000", "190554.016000", "190554.019000", "190554.021000", "190554.024000", "190554.026000", "190554.029000", "190634.022000", "190634.024000", "190634.027000", "190634.030000", "190634.032000", "190634.035000", "190634.037000", "190634.040000", "190634.042000", "190634.045000", "190634.047000", "190634.050000", "190634.052000", "190634.055000", "190634.058000", "190634.060000", "190634.063000", "190634.065000", "190634.068000", "190634.070000", "190634.073000", "190634.075000", "190634.078000", "190634.080000", "190634.083000", "190634.085000", "190634.088000", "190634.091000", "190634.094000", "190634.097000", "190634.099000", "190653.939000", "190653.942000", "190653.945000", "190653.947000", "190653.950000", "190653.952000", "190653.955000", "190653.957000", "190653.960000", "190653.962000", "190653.965000", "190653.968000", "190653.970000", "190653.973000", "190734.017000", "190734.020000", "190734.022000", "190734.025000", "190734.027000", "190734.030000", "190734.032000", "190734.035000", "190734.037000", "190734.040000", "190734.042000", "190734.045000", "190734.047000", "190734.050000", "190734.052000", "190734.055000", "190734.057000", "190734.060000", "190734.062000", "190734.065000", "190734.068000", "190734.070000", "190734.073000", "190734.075000", "190734.078000", "190734.080000", "190734.083000", "190814.002000", "190814.005000", "190814.008000", "190814.010000", "190814.013000", "190814.015000", "190814.018000", "190814.021000", "190814.023000", "190814.026000", "190814.028000", "190814.031000", "190814.033000", "190814.036000", "190814.038000", "190814.041000", "190814.043000", "190814.046000", "190814.049000", "190814.051000", "190814.054000", "190814.057000", "190814.059000", "190814.062000", "190814.066000", "190814.070000", "190854.004000", "190854.007000", "190854.009000", "190854.012000", "190854.014000", "190854.017000", "190854.019000", "190854.022000", "190854.025000", "190854.027000", "190854.030000", "190854.032000", "190854.035000", "190854.037000", "190854.040000", "190854.042000", "190854.045000", "190854.047000", "190854.050000", "190854.053000", "190854.055000", "190854.058000", "190854.060000", "190854.063000", "190854.065000", "190854.068000", "190854.070000", "190934.000000", "190934.003000", "190934.005000", "190934.008000", "190934.010000", "190934.013000", "190934.016000", "190934.018000", "190934.021000", "190934.023000", "190934.026000", "190934.028000", "190934.031000", "190934.033000", "190934.036000", "190934.047000", "190934.050000", "190934.052000", "190934.055000", "190934.058000", "190934.060000", "190934.063000", "190934.065000", "190934.068000", "190934.070000", "190934.073000", "190934.075000", "191014.025000", "191014.028000", "191014.030000", "191014.033000", "191014.036000", "191014.038000", "191014.041000", "191014.043000", "191014.046000", "191014.048000", "191014.051000", "191014.053000", "191014.056000", "191014.058000", "191014.061000", "191014.063000", "191014.066000", "191014.068000", "191014.071000", "191014.074000", "191014.076000", "191014.079000", "191014.081000", "191014.084000", "191014.086000", "191014.089000", "191014.091000", "191054.004000", "191054.007000", "191054.010000", "191054.012000", "191054.015000", "191054.018000", "191054.020000", "191054.023000", "191054.025000", "191054.028000", "191054.030000", "191054.033000", "191054.036000", "191054.038000", "191054.041000", "191054.043000", "191054.046000", "191054.048000", "191054.051000", "191054.053000", "191054.056000", "191054.058000", "191054.061000", "191054.064000", "191054.066000", "191054.069000", "191054.071000", "191128.326000", "191128.329000", "191128.331000", "191128.334000", "191128.336000", "191128.339000", "191128.341000", "191128.344000", "191128.346000", "191128.349000", "191128.352000", "191128.354000", "191128.357000", "191128.359000", "191128.362000", "191128.364000", "191128.367000", "191128.369000", "191128.372000", "191128.374000", "191128.377000", "191128.380000", "191128.382000"],
      "InstanceCreationTime": ["190454.070000", "190454.073000", "190454.075000", "190454.078000", "190454.080000", "190454.083000", "190454.085000", "190454.088000", "190454.090000", "190454.093000", "190454.095000", "190454.098000", "190454.100000", "190454.103000", "190454.105000", "190454.108000", "190454.111000", "190454.113000", "190454.116000", "190454.118000", "190454.121000", "190514.026000", "190514.029000", "190514.032000", "190514.034000", "190514.037000", "190514.039000", "190514.042000", "190514.044000", "190514.047000", "190514.049000", "190514.052000", "190514.054000", "190514.057000", "190514.059000", "190514.062000", "190514.064000", "190514.067000", "190514.069000", "190514.072000", "190514.074000", "190514.077000", "190533.986000", "190533.989000", "190533.991000", "190533.994000", "190533.997000", "190534.000000", "190534.003000", "190534.005000", "190534.012000", "190534.014000", "190534.017000", "190534.019000", "190534.022000", "190534.024000", "190534.027000", "190534.029000", "190534.032000", "190534.034000", "190534.037000", "190534.040000", "190553.979000", "190553.982000", "190553.984000", "190553.987000", "190553.990000", "190553.992000", "190553.995000", "190553.997000", "190554.001000", "190554.003000", "190554.006000", "190554.008000", "190554.011000", "190554.014000", "190554.016000", "190554.019000", "190554.021000", "190554.024000", "190554.026000", "190554.029000", "190634.022000", "190634.024000", "190634.027000", "190634.030000", "190634.032000", "190634.035000", "190634.037000", "190634.040000", "190634.042000", "190634.045000", "190634.047000", "190634.050000", "190634.052000", "190634.055000", "190634.058000", "190634.060000", "190634.063000", "190634.065000", "190634.068000", "190634.070000", "190634.073000", "190634.075000", "190634.078000", "190634.080000", "190634.083000", "190634.085000", "190634.088000", "190634.091000", "190634.094000", "190634.097000", "190634.099000", "190653.939000", "190653.942000", "190653.945000", "190653.947000", "190653.950000", "190653.952000", "190653.955000", "190653.957000", "190653.960000", "190653.962000", "190653.965000", "190653.968000", "190653.970000", "190653.973000", "190734.017000", "190734.020000", "190734.022000", "190734.025000", "190734.027000", "190734.030000", "190734.032000", "190734.035000", "190734.037000", "190734.040000", "190734.042000", "190734.045000", "190734.047000", "190734.050000", "190734.052000", "190734.055000", "190734.057000", "190734.060000", "190734.062000", "190734.065000", "190734.068000", "190734.070000", "190734.073000", "190734.075000", "190734.078000", "190734.080000", "190734.083000", "190814.002000", "190814.005000", "190814.008000", "190814.010000", "190814.013000", "190814.015000", "190814.018000", "190814.021000", "190814.023000", "190814.026000", "190814.028000", "190814.031000", "190814.033000", "190814.036000", "190814.038000", "190814.041000", "190814.043000", "190814.046000", "190814.049000", "190814.051000", "190814.054000", "190814.057000", "190814.059000", "190814.062000", "190814.066000", "190814.070000", "190854.004000", "190854.007000", "190854.009000", "190854.012000", "190854.014000", "190854.017000", "190854.019000", "190854.022000", "190854.025000", "190854.027000", "190854.030000", "190854.032000", "190854.035000", "190854.037000", "190854.040000", "190854.042000", "190854.045000", "190854.047000", "190854.050000", "190854.053000", "190854.055000", "190854.058000", "190854.060000", "190854.063000", "190854.065000", "190854.068000", "190854.070000", "190934.000000", "190934.003000", "190934.005000", "190934.008000", "190934.010000", "190934.013000", "190934.016000", "190934.018000", "190934.021000", "190934.023000", "190934.026000", "190934.028000", "190934.031000", "190934.033000", "190934.036000", "190934.047000", "190934.050000", "190934.052000", "190934.055000", "190934.058000", "190934.060000", "190934.063000", "190934.065000", "190934.068000", "190934.070000", "190934.073000", "190934.075000", "191014.025000", "191014.028000", "191014.030000", "191014.033000", "191014.036000", "191014.038000", "191014.041000", "191014.043000", "191014.046000", "191014.048000", "191014.051000", "191014.053000", "191014.056000", "191014.058000", "191014.061000", "191014.063000", "191014.066000", "191014.068000", "191014.071000", "191014.074000", "191014.076000", "191014.079000", "191014.081000", "191014.084000", "191014.086000", "191014.089000", "191014.091000", "191054.004000", "191054.007000", "191054.010000", "191054.012000", "191054.015000", "191054.018000", "191054.020000", "191054.023000", "191054.025000", "191054.028000", "191054.030000", "191054.033000", "191054.036000", "191054.038000", "191054.041000", "191054.043000", "191054.046000", "191054.048000", "191054.051000", "191054.053000", "191054.056000", "191054.058000", "191054.061000", "191054.064000", "191054.066000", "191054.069000", "191054.071000", "191128.326000", "191128.329000", "191128.331000", "191128.334000", "191128.336000", "191128.339000", "191128.341000", "191128.344000", "191128.346000", "191128.349000", "191128.352000", "191128.354000", "191128.357000", "191128.359000", "191128.362000", "191128.364000", "191128.367000", "191128.369000", "191128.372000", "191128.374000", "191128.377000", "191128.380000", "191128.382000"],
      "InstanceNumber": [1, 2, 3, 4, 5, 6, 7, 8, 9, 10, 11, 12, 13, 14, 15, 16, 17, 18, 19, 20, 21, 22, 23, 24, 25, 26, 27, 28, 29, 30, 31, 32, 33, 34, 35, 36, 37, 38, 39, 40, 41, 42, 43, 44, 45, 46, 47, 48, 49, 50, 51, 52, 53, 54, 55, 56, 57, 58, 59, 60, 61, 62, 63, 64, 65, 66, 67, 68, 69, 70, 71, 72, 73, 74, 75, 76, 77, 78, 79, 80, 81, 82, 83, 84, 85, 86, 87, 88, 89, 90, 91, 92, 93, 94, 95, 96, 97, 98, 99, 100, 101, 102, 103, 104, 105, 106, 107, 108, 109, 110, 111, 112, 113, 114, 115, 116, 117, 118, 119, 120, 121, 122, 123, 124, 125, 126, 127, 128, 129, 130, 131, 132, 133, 134, 135, 136, 137, 138, 139, 140, 141, 142, 143, 144, 145, 146, 147, 148, 149, 150, 151, 152, 153, 154, 155, 156, 157, 158, 159, 160, 161, 162, 163, 164, 165, 166, 167, 168, 169, 170, 171, 172, 173, 174, 175, 176, 177, 178, 179, 180, 181, 182, 183, 184, 185, 186, 187, 188, 189, 190, 191, 192, 193, 194, 195, 196, 197, 198, 199, 200, 201, 202, 203, 204, 205, 206, 207, 208, 209, 210, 211, 212, 213, 214, 215, 216, 217, 218, 219, 220, 221, 222, 223, 224, 225, 226, 227, 228, 229, 230, 231, 232, 233, 234, 235, 236, 237, 238, 239, 240, 241, 242, 243, 244, 245, 246, 247, 248, 249, 250, 251, 252, 253, 254, 255, 256, 257, 258, 259, 260, 261, 262, 263, 264, 265, 266, 267, 268, 269, 270, 271, 272, 273, 274, 275, 276, 277, 278, 279, 280, 281, 282, 283, 284, 285, 286, 287, 288, 289, 290, 291, 292, 293, 294, 295, 296, 297, 298, 299, 300, 301, 302, 303, 304, 305, 306, 307, 308, 309, 310, 311],
      "WindowCenter": [4820.0, 4824.0, 4798.0, 4798.0, 4798.0, 4796.0, 4822.0, 4798.0, 4824.0, 4798.0, 4798.0, 4824.0, 4800.0, 4822.0, 4798.0, 4798.0, 4822.0, 4822.0, 4798.0, 4822.0, 4800.0, 4798.0, 4822.0, 4822.0, 4822.0, 4800.0, 4820.0, 4796.0, 4798.0, 4822.0, 4798.0, 4798.0, 4802.0, 4796.0, 4798.0, 4796.0, 4820.0, 4824.0, 4798.0, 4824.0, 4798.0, 4822.0, 4796.0, 4822.0, 4794.0, 4800.0, 4798.0, 4796.0, 4824.0, 4822.0, 4822.0, 4822.0, 4822.0, 4820.0, 4796.0, 4798.0, 4828.0, 4822.0, 4800.0, 4826.0, 4822.0, 4826.0, 4820.0, 4796.0, 4818.0, 4824.0, 4824.0, 4826.0, 4822.0, 4822.0, 4824.0, 4822.0, 4826.0, 4800.0, 4822.0, 4822.0, 4822.0, 4822.0, 4824.0, 4798.0, 4820.0, 4822.0, 4820.0, 4822.0, 4798.0, 4824.0, 4822.0, 4826.0, 4822.0, 4824.0, 4822.0, 4824.0, 4824.0, 4798.0, 4826.0, 4824.0, 4822.0, 4820.0, 4824.0, 4822.0, 4820.0, 4824.0, 4824.0, 4826.0, 4824.0, 4822.0, 4826.0, 4822.0, 4828.0, 4824.0, 4820.0, 4826.0, 4824.0, 4828.0, 4820.0, 4822.0, 4824.0, 4822.0, 4824.0, 4826.0, 4822.0, 4824.0, 4822.0, 4822.0, 4824.0, 4824.0, 4822.0, 4822.0, 4824.0, 4824.0, 4826.0, 4826.0, 4824.0, 4824.0, 4826.0, 4822.0, 4822.0, 4824.0, 4822.0, 4822.0, 4822.0, 4818.0, 4822.0, 4822.0, 4822.0, 4826.0, 4822.0, 4826.0, 4822.0, 4822.0, 4824.0, 4820.0, 4822.0, 4824.0, 4824.0, 4824.0, 4822.0, 4822.0, 4822.0, 4824.0, 4824.0, 4822.0, 4824.0, 4822.0, 4818.0, 4824.0, 4824.0, 4820.0, 4822.0, 4822.0, 4822.0, 4824.0, 4828.0, 4822.0, 4822.0, 4820.0, 4822.0, 4824.0, 4822.0, 4822.0, 4822.0, 4822.0, 4824.0, 4826.0, 4824.0, 4822.0, 4826.0, 4824.0, 4822.0, 4828.0, 4822.0, 4826.0, 4824.0, 4826.0, 4826.0, 4822.0, 4824.0, 4822.0, 4824.0, 4828.0, 4822.0, 4826.0, 4822.0, 4824.0, 4828.0, 4826.0, 4820.0, 4824.0, 4826.0, 4822.0, 4824.0, 4826.0, 4822.0, 4820.0, 4826.0, 4822.0, 4822.0, 4822.0, 4824.0, 4822.0, 4824.0, 4826.0, 4824.0, 4826.0, 4824.0, 4826.0, 4824.0, 4822.0, 4822.0, 4824.0, 4824.0, 4822.0, 4828.0, 4824.0, 4826.0, 4822.0, 4826.0, 4822.0, 4800.0, 4820.0, 4826.0, 4824.0, 4822.0, 4826.0, 4826.0, 4824.0, 4826.0, 4824.0, 4826.0, 4822.0, 4822.0, 4822.0, 4826.0, 4822.0, 4824.0, 4824.0, 4824.0, 4826.0, 4824.0, 4826.0, 4828.0, 4824.0, 4820.0, 4822.0, 4822.0, 4824.0, 4824.0, 4824.0, 4826.0, 4824.0, 4824.0, 4822.0, 4820.0, 4824.0, 4824.0, 4826.0, 4822.0, 4826.0, 4824.0, 4822.0, 4822.0, 4822.0, 4824.0, 4824.0, 4824.0, 4824.0, 4822.0, 4822.0, 4822.0, 4824.0, 4824.0, 4824.0, 4824.0, 4822.0, 4822.0, 4824.0, 4826.0, 4822.0, 4824.0, 4828.0, 4822.0, 4820.0, 4824.0, 4822.0, 4824.0, 4826.0, 4824.0, 4826.0, 4824.0, 4820.0, 4824.0],
