{
  "AcquisitionMatrixPE": 104,
  "AcquisitionNumber": 1,
  "AcquisitionTime": "18:52:54.687500",
  "BandwidthPerPixelPhaseEncode": 17.17,
  "BaseResolution": 104,
  "BodyPartExamined": "BRAIN",
  "CoilCombinationMethod": "Sum of Squares",
  "ConsistencyInfo": "N4_VE11C_LATEST_20160120",
  "ConversionSoftware": "dcm2niix",
  "ConversionSoftwareVersion": "v1.0.20220505",
  "DerivedVendorReportedEchoSpacing": 0.000560011,
  "DeviceSerialNumber": "167006",
  "DwellTime": 2.1e-06,
  "EchoTime": 0.037,
  "EchoTime1": 0.037,
  "EchoTime2": 0.001,
  "EchoTrainLength": 104,
  "EffectiveEchoSpacing": 0.000560011,
  "FlipAngle": 52,
  "HeudiconvVersion": "0.5.3.post811+g6206e14",
  "ImageComments": "Unaliased MB4/PE3/LB",
  "ImageOrientationPatientDICOM": [0.995016, 0.0929008, 0.0362355, -0.0772611, 0.94797, -0.308843],
  "ImageOrientationText": "Tra>Cor(-17.8)>Sag(3.6)",
  "ImageType": [
    "ORIGINAL",
    "PRIMARY",
    "P",
    "MB",
    "ND",
    "MOSAIC",
    "PHASE"
],
  "ImagingFrequency": 123.259,
  "InPlanePhaseEncodingDirectionDICOM": "COL",
  "InstitutionAddress": "Chemin Queen-Mary 4565,Montreal,District,CA,H3W 1W5",
  "InstitutionName": "IUGM",
  "InstitutionalDepartmentName": "Department",
  "MRAcquisitionType": "2D",
  "MagneticFieldStrength": 3,
  "Manufacturer": "Siemens",
  "ManufacturersModelName": "Prisma_fit",
  "MatrixCoilMode": "SENSE",
  "Modality": "MR",
  "MultibandAccelerationFactor": 4,
  "PartialFourier": 1,
  "PatientPosition": "HFS",
  "PercentPhaseFOV": 100,
  "PercentSampling": 100,
  "PhaseEncodingDirection": "j",
  "PhaseEncodingSteps": 104,
  "PhaseResolution": 1,
  "PixelBandwidth": 2290,
  "ProcedureStepDescription": "games^mario3",
  "ProtocolName": "func_task-mario3_run-01",
  "PulseSequenceDetails": "%CustomerSeq%\\cmrr_mbep2d_bold",
  "ReceiveCoilActiveElements": "HC1-7;NC1,2",
  "ReceiveCoilName": "HeadNeck_64",
  "ReconMatrixPE": 104,
  "RepetitionTime": 1.49,
  "SAR": 0.0519409,
  "ScanOptions": "FS",
  "ScanningSequence": "EP",
  "SequenceName": "epfid2d1_104",
  "SequenceVariant": "SK\\SS",
  "SeriesDescription": "func_task-mario3_run-01",
  "SeriesNumber": 14,
  "ShimSetting": [631, -7197, -8760, 668, 69, 15, 11, 0],
  "SliceThickness": 2,
  "SliceTiming": [0, 0.785, 0.1, 0.8825, 0.1975, 0.98, 0.295, 1.08, 0.3925, 1.1775, 0.49, 1.275, 0.59, 1.3725, 0.6875, 0, 0.785, 0.1, 0.8825, 0.1975, 0.98, 0.295, 1.08, 0.3925, 1.1775, 0.49, 1.275, 0.59, 1.3725, 0.6875, 0, 0.785, 0.1, 0.8825, 0.1975, 0.98, 0.295, 1.08, 0.3925, 1.1775, 0.49, 1.275, 0.59, 1.3725, 0.6875, 0, 0.785, 0.1, 0.8825, 0.1975, 0.98, 0.295, 1.08, 0.3925, 1.1775, 0.49, 1.275, 0.59, 1.3725, 0.6875],
  "SoftwareVersions": "syngo MR E11",
  "SpacingBetweenSlices": 2,
  "StationName": "MRC35049",
  "TaskName": "mario3",
  "TotalReadoutTime": 0.0576811,
  "TxRefAmp": 259.777,
  "WipMemBlock": "057e5558-cec4-4ec6-9b00-d5d4e4a51b73||Sequence: R017 ve11c/master r/75a17815+; Jun 28 2022 16:32:11 by eja",
  "dcmmeta_affine": [
    [-1.9900315999984741, -0.15452224016189575, 0.12608401477336884, 110.4366455078125],
    [-0.18580162525177002, 1.8959392309188843, -0.6090090870857239, -52.87593460083008],
    [0.07247108966112137, 0.617686927318573, 1.9008448123931885, -47.507083892822266],
    [0.0, 0.0, 0.0, 1.0]
],
  "dcmmeta_reorient_transform": [
    [0.0, -1.0, 0.0, 103.0],
    [1.0, 0.0, 0.0, 0.0],
    [0.0, 0.0, 1.0, 0.0],
    [0.0, 0.0, 0.0, 1.0]
],
  "dcmmeta_shape": [104, 104, 60, 308],
  "dcmmeta_slice_dim": 2,
  "dcmmeta_version": 0.6,
  "global": {
    "const": {
      "AcquisitionMatrix": [104, 0, 0, 104],
      "AngioFlag": "N",
      "BitsAllocated": 16,
      "BitsStored": 16,
      "BodyPartExamined": "BRAIN",
      "Columns": 832,
      "EchoNumbers": 1,
      "EchoTime": 37.0,
      "EchoTrainLength": 104,
      "FlipAngle": 52.0,
      "HighBit": 15,
      "ImageOrientationPatient": [0.99501579092909, 0.09290081267399, 0.03623554617055, -0.0772611227571, 0.9479696328722, -0.308843478258],
      "ImagePositionPatient": [-762.64625454175, -900.15949557602, 214.57324821193],
      "ImageType": [
        "ORIGINAL",
        "PRIMARY",
        "P",
        "MB",
        "ND",
        "MOSAIC"
],
      "ImagedNucleus": "1H",
      "ImagingFrequency": 123.258751,
      "InPlanePhaseEncodingDirection": "COL",
      "LargestImagePixelValue": 4095,
      "MRAcquisitionType": "2D",
      "MagneticFieldStrength": 3.0,
      "Manufacturer": "SIEMENS",
      "ManufacturerModelName": "Prisma_fit",
      "Modality": "MR",
      "NumberOfAverages": 1.0,
      "NumberOfPhaseEncodingSteps": 104,
      "PercentPhaseFieldOfView": 100.0,
      "PercentSampling": 100.0,
      "PerformedProcedureStepStartTime": "184432.976000",
      "PhotometricInterpretation": "MONOCHROME2",
      "PixelBandwidth": 2290.0,
      "PixelRepresentation": 0,
      "PixelSpacing": [2.0, 2.0],
      "ProtocolName": "func_task-mario3_run-01",
      "RepetitionTime": 1490.0,
      "RescaleIntercept": -4096.0,
      "RescaleSlope": 2.0,
      "RescaleType": "US",
      "Rows": 832,
      "SAR": 0.0519408615223,
      "SamplesPerPixel": 1,
      "ScanOptions": "FS",
      "ScanningSequence": "EP",
      "SequenceName": "epfid2d1_104",
      "SequenceVariant": [
        "SK",
        "SS"
],
      "SeriesDescription": "func_task-mario3_run-01",
      "SeriesNumber": 14,
      "SeriesTime": "185403.925000",
      "SliceLocation": -22.088684940389,
      "SliceThickness": 2.0,
      "SmallestImagePixelValue": 0,
      "SoftwareVersions": "syngo MR E11",
      "SpacingBetweenSlices": 2.0000000608867,
      "SpecificCharacterSet": "ISO_IR 100",
      "StudyID": "1",
      "StudyTime": "184432.898000",
      "TransmitCoilName": "Body",
      "VariableFlipAngleFlag": "N",
      "WindowCenterWidthExplanation": "Algo1",
      "dBdt": 0.0},
    "slices": {}
  },
  "time": {
    "samples": {
      "AcquisitionNumber": [1, 2, 3, 4, 5, 6, 7, 8, 9, 10, 11, 12, 13, 14, 15, 16, 17, 18, 19, 20, 21, 22, 23, 24, 25, 26, 27, 28, 29, 30, 31, 32, 33, 34, 35, 36, 37, 38, 39, 40, 41, 42, 43, 44, 45, 46, 47, 48, 49, 50, 51, 52, 53, 54, 55, 56, 57, 58, 59, 60, 61, 62, 63, 64, 65, 66, 67, 68, 69, 70, 71, 72, 73, 74, 75, 76, 77, 78, 79, 80, 81, 82, 83, 84, 85, 86, 87, 88, 89, 90, 91, 92, 93, 94, 95, 96, 97, 98, 99, 100, 101, 102, 103, 104, 105, 106, 107, 108, 109, 110, 111, 112, 113, 114, 115, 116, 117, 118, 119, 120, 121, 122, 123, 124, 125, 126, 127, 128, 129, 130, 131, 132, 133, 134, 135, 136, 137, 138, 139, 140, 141, 142, 143, 144, 145, 146, 147, 148, 149, 150, 151, 152, 153, 154, 155, 156, 157, 158, 159, 160, 161, 162, 163, 164, 165, 166, 167, 168, 169, 170, 171, 172, 173, 174, 175, 176, 177, 178, 179, 180, 181, 182, 183, 184, 185, 186, 187, 188, 189, 190, 191, 192, 193, 194, 195, 196, 197, 198, 199, 200, 201, 202, 203, 204, 205, 206, 207, 208, 209, 210, 211, 212, 213, 214, 215, 216, 217, 218, 219, 220, 221, 222, 223, 224, 225, 226, 227, 228, 229, 230, 231, 232, 233, 234, 235, 236, 237, 238, 239, 240, 241, 242, 243, 244, 245, 246, 247, 248, 249, 250, 251, 252, 253, 254, 255, 256, 257, 258, 259, 260, 261, 262, 263, 264, 265, 266, 267, 268, 269, 270, 271, 272, 273, 274, 275, 276, 277, 278, 279, 280, 281, 282, 283, 284, 285, 286, 287, 288, 289, 290, 291, 292, 293, 294, 295, 296, 297, 298, 299, 300, 301, 302, 303, 304, 305, 306, 307, 308],
      "AcquisitionTime": ["185254.687500", "185256.177500", "185257.667500", "185259.157500", "185300.647500", "185302.137500", "185303.627500", "185305.117500", "185306.607500", "185308.097500", "185309.587500", "185311.077500", "185312.567500", "185314.057500", "185315.547500", "185317.037500", "185318.527500", "185320.017500", "185321.507500", "185322.997500", "185324.487500", "185325.977500", "185327.467500", "185328.957500", "185330.447500", "185331.937500", "185333.427500", "185334.917500", "185336.407500", "185337.897500", "185339.387500", "185340.877500", "185342.367500", "185343.857500", "185345.347500", "185346.837500", "185348.327500", "185349.817500", "185351.307500", "185352.797500", "185354.287500", "185355.777500", "185357.267500", "185358.757500", "185400.247500", "185401.737500", "185403.227500", "185404.717500", "185406.207500", "185407.697500", "185409.187500", "185410.677500", "185412.167500", "185413.657500", "185415.147500", "185416.637500", "185418.127500", "185419.617500", "185421.107500", "185422.597500", "185424.087500", "185425.577500", "185427.067500", "185428.557500", "185430.047500", "185431.537500", "185433.027500", "185434.517500", "185436.007500", "185437.497500", "185438.987500", "185440.477500", "185441.967500", "185443.457500", "185444.947500", "185446.437500", "185447.927500", "185449.417500", "185450.907500", "185452.397500", "185453.887500", "185455.377500", "185456.867500", "185458.357500", "185459.847500", "185501.337500", "185502.827500", "185504.317500", "185505.807500", "185507.297500", "185508.787500", "185510.277500", "185511.767500", "185513.257500", "185514.747500", "185516.237500", "185517.727500", "185519.217500", "185520.707500", "185522.197500", "185523.687500", "185525.177500", "185526.667500", "185528.157500", "185529.647500", "185531.137500", "185532.627500", "185534.117500", "185535.607500", "185537.097500", "185538.587500", "185540.077500", "185541.567500", "185543.057500", "185544.547500", "185546.037500", "185547.527500", "185549.017500", "185550.507500", "185551.997500", "185553.487500", "185554.977500", "185556.467500", "185557.957500", "185559.447500", "185600.937500", "185602.427500", "185603.917500", "185605.407500", "185606.897500", "185608.387500", "185609.877500", "185611.367500", "185612.857500", "185614.347500", "185615.837500", "185617.327500", "185618.817500", "185620.307500", "185621.797500", "185623.287500", "185624.777500", "185626.267500", "185627.757500", "185629.247500", "185630.737500", "185632.227500", "185633.717500", "185635.207500", "185636.697500", "185638.187500", "185639.677500", "185641.167500", "185642.657500", "185644.147500", "185645.637500", "185647.127500", "185648.617500", "185650.107500", "185651.597500", "185653.087500", "185654.577500", "185656.067500", "185657.557500", "185659.047500", "185700.537500", "185702.027500", "185703.517500", "185705.007500", "185706.497500", "185707.987500", "185709.477500", "185710.967500", "185712.457500", "185713.947500", "185715.437500", "185716.927500", "185718.417500", "185719.907500", "185721.397500", "185722.887500", "185724.377500", "185725.867500", "185727.357500", "185728.847500", "185730.337500", "185731.827500", "185733.317500", "185734.807500", "185736.297500", "185737.787500", "185739.277500", "185740.767500", "185742.257500", "185743.747500", "185745.237500", "185746.727500", "185748.217500", "185749.707500", "185751.197500", "185752.687500", "185754.177500", "185755.667500", "185757.157500", "185758.647500", "185800.137500", "185801.627500", "185803.117500", "185804.607500", "185806.097500", "185807.587500", "185809.077500", "185810.567500", "185812.057500", "185813.547500", "185815.037500", "185816.527500", "185818.017500", "185819.507500", "185820.997500", "185822.487500", "185823.977500", "185825.467500", "185826.957500", "185828.447500", "185829.937500", "185831.427500", "185832.917500", "185834.407500", "185835.897500", "185837.387500", "185838.877500", "185840.367500", "185841.857500", "185843.347500", "185844.837500", "185846.327500", "185847.817500", "185849.307500", "185850.797500", "185852.287500", "185853.777500", "185855.267500", "185856.757500", "185858.247500", "185859.737500", "185901.227500", "185902.717500", "185904.207500", "185905.697500", "185907.187500", "185908.677500", "185910.167500", "185911.657500", "185913.147500", "185914.637500", "185916.127500", "185917.617500", "185919.107500", "185920.597500", "185922.087500", "185923.577500", "185925.067500", "185926.557500", "185928.047500", "185929.537500", "185931.027500", "185932.517500", "185934.007500", "185935.497500", "185936.987500", "185938.477500", "185939.967500", "185941.457500", "185942.947500", "185944.437500", "185945.927500", "185947.417500", "185948.907500", "185950.397500", "185951.887500", "185953.377500", "185954.867500", "185956.357500", "185957.847500", "185959.337500", "190000.827500", "190002.317500", "190003.807500", "190005.297500", "190006.787500", "190008.277500", "190009.767500", "190011.257500", "190012.747500", "190014.237500", "190015.727500", "190017.217500", "190018.707500", "190020.197500", "190021.687500", "190023.177500", "190024.667500", "190026.157500", "190027.647500", "190029.137500", "190030.627500", "190032.117500"],
      "ContentTime": ["185403.927000", "185403.930000", "185403.933000", "185403.935000", "185403.938000", "185403.940000", "185403.943000", "185403.945000", "185403.971000", "185403.974000", "185403.976000", "185403.979000", "185403.982000", "185403.984000", "185403.987000", "185403.989000", "185403.992000", "185403.994000", "185403.997000", "185404.000000", "185423.343000", "185423.345000", "185423.348000", "185423.351000", "185423.353000", "185423.356000", "185423.358000", "185423.361000", "185423.363000", "185423.366000", "185423.368000", "185423.371000", "185423.373000", "185423.376000", "185423.378000", "185423.381000", "185423.383000", "185423.386000", "185423.388000", "185423.391000", "185443.382000", "185443.384000", "185443.387000", "185443.390000", "185443.392000", "185443.395000", "185443.397000", "185443.400000", "185443.402000", "185443.405000", "185443.407000", "185443.410000", "185443.412000", "185443.415000", "185443.417000", "185443.420000", "185443.422000", "185443.431000", "185443.433000", "185443.436000", "185443.438000", "185503.342000", "185503.344000", "185503.347000", "185503.349000", "185503.352000", "185503.355000", "185503.357000", "185503.360000", "185503.362000", "185503.365000", "185503.367000", "185503.370000", "185503.372000", "185503.375000", "185503.377000", "185503.380000", "185503.382000", "185503.385000", "185503.387000", "185503.390000", "185543.396000", "185543.399000", "185543.401000", "185543.404000", "185543.406000", "185543.409000", "185543.411000", "185543.414000", "185543.416000", "185543.419000", "185543.421000", "185543.424000", "185543.426000", "185543.429000", "185543.432000", "185543.434000", "185543.437000", "185543.439000", "185543.442000", "185543.444000", "185543.447000", "185543.449000", "185543.452000", "185543.454000", "185543.465000", "185543.467000", "185543.470000", "185543.473000", "185543.475000", "185543.478000", "185543.480000", "185623.363000", "185623.366000", "185623.368000", "185623.371000", "185623.374000", "185623.376000", "185623.379000", "185623.381000", "185623.384000", "185623.387000", "185623.389000", "185623.392000", "185623.394000", "185623.397000", "185623.399000", "185623.402000", "185623.404000", "185623.407000", "185623.410000", "185623.412000", "185623.415000", "185623.417000", "185623.420000", "185623.422000", "185623.425000", "185623.427000", "185623.430000", "185703.399000", "185703.401000", "185703.404000", "185703.406000", "185703.409000", "185703.411000", "185703.414000", "185703.417000", "185703.419000", "185703.422000", "185703.424000", "185703.427000", "185703.430000", "185703.432000", "185703.435000", "185703.437000", "185703.440000", "185703.442000", "185703.445000", "185703.447000", "185703.450000", "185703.452000", "185703.455000", "185703.458000", "185703.460000", "185703.463000", "185703.465000", "185743.379000", "185743.382000", "185743.384000", "185743.387000", "185743.389000", "185743.392000", "185743.394000", "185743.397000", "185743.400000", "185743.402000", "185743.405000", "185743.407000", "185743.410000", "185743.412000", "185743.415000", "185743.417000", "185743.420000", "185743.423000", "185743.425000", "185743.428000", "185743.437000", "185743.440000", "185743.442000", "185743.445000", "185743.447000", "185743.450000", "185743.452000", "185823.369000", "185823.372000", "185823.374000", "185823.377000", "185823.380000", "185823.382000", "185823.385000", "185823.387000", "185823.390000", "185823.392000", "185823.395000", "185823.397000", "185823.400000", "185823.403000", "185823.405000", "185823.408000", "185823.410000", "185823.413000", "185823.415000", "185823.418000", "185823.420000", "185823.423000", "185823.426000", "185823.428000", "185823.431000", "185823.433000", "185823.436000", "185903.371000", "185903.374000", "185903.377000", "185903.379000", "185903.382000", "185903.384000", "185903.387000", "185903.389000", "185903.392000", "185903.394000", "185903.397000", "185903.400000", "185903.402000", "185903.405000", "185903.407000", "185903.410000", "185903.412000", "185903.415000", "185903.424000", "185903.426000", "185903.429000", "185903.431000", "185903.434000", "185903.436000", "185903.439000", "185903.442000", "185903.444000", "185943.380000", "185943.382000", "185943.385000", "185943.388000", "185943.390000", "185943.393000", "185943.395000", "185943.398000", "185943.400000", "185943.403000", "185943.405000", "185943.408000", "185943.410000", "185943.413000", "185943.415000", "185943.418000", "185943.420000", "185943.423000", "185943.426000", "185943.428000", "185943.431000", "185943.433000", "185943.436000", "185943.438000", "185943.441000", "185943.443000", "185943.446000", "190023.365000", "190023.367000", "190023.370000", "190023.373000", "190023.375000", "190023.378000", "190023.380000", "190023.383000", "190023.385000", "190023.388000", "190023.390000", "190023.393000", "190023.395000", "190023.398000", "190023.400000", "190023.403000", "190023.406000", "190023.408000", "190023.411000", "190023.413000", "190023.416000", "190023.418000", "190023.421000", "190023.424000", "190023.426000", "190023.429000", "190033.881000", "190033.883000", "190033.886000", "190033.889000", "190033.891000", "190033.894000", "190033.896000", "190033.899000"],
      "InstanceCreationTime": ["185403.927000", "185403.930000", "185403.933000", "185403.935000", "185403.938000", "185403.940000", "185403.943000", "185403.945000", "185403.971000", "185403.974000", "185403.976000", "185403.979000", "185403.982000", "185403.984000", "185403.987000", "185403.989000", "185403.992000", "185403.994000", "185403.997000", "185404.000000", "185423.343000", "185423.345000", "185423.348000", "185423.351000", "185423.353000", "185423.356000", "185423.358000", "185423.361000", "185423.363000", "185423.366000", "185423.368000", "185423.371000", "185423.373000", "185423.376000", "185423.378000", "185423.381000", "185423.383000", "185423.386000", "185423.388000", "185423.391000", "185443.382000", "185443.384000", "185443.387000", "185443.390000", "185443.392000", "185443.395000", "185443.397000", "185443.400000", "185443.402000", "185443.405000", "185443.407000", "185443.410000", "185443.412000", "185443.415000", "185443.417000", "185443.420000", "185443.422000", "185443.431000", "185443.433000", "185443.436000", "185443.438000", "185503.342000", "185503.344000", "185503.347000", "185503.349000", "185503.352000", "185503.355000", "185503.357000", "185503.360000", "185503.362000", "185503.365000", "185503.367000", "185503.370000", "185503.372000", "185503.375000", "185503.377000", "185503.380000", "185503.382000", "185503.385000", "185503.387000", "185503.390000", "185543.396000", "185543.399000", "185543.401000", "185543.404000", "185543.406000", "185543.409000", "185543.411000", "185543.414000", "185543.416000", "185543.419000", "185543.421000", "185543.424000", "185543.426000", "185543.429000", "185543.432000", "185543.434000", "185543.437000", "185543.439000", "185543.442000", "185543.444000", "185543.447000", "185543.449000", "185543.452000", "185543.454000", "185543.465000", "185543.467000", "185543.470000", "185543.473000", "185543.475000", "185543.478000", "185543.480000", "185623.363000", "185623.366000", "185623.368000", "185623.371000", "185623.374000", "185623.376000", "185623.379000", "185623.381000", "185623.384000", "185623.387000", "185623.389000", "185623.392000", "185623.394000", "185623.397000", "185623.399000", "185623.402000", "185623.404000", "185623.407000", "185623.410000", "185623.412000", "185623.415000", "185623.417000", "185623.420000", "185623.422000", "185623.425000", "185623.427000", "185623.430000", "185703.399000", "185703.401000", "185703.404000", "185703.406000", "185703.409000", "185703.411000", "185703.414000", "185703.417000", "185703.419000", "185703.422000", "185703.424000", "185703.427000", "185703.430000", "185703.432000", "185703.435000", "185703.437000", "185703.440000", "185703.442000", "185703.445000", "185703.447000", "185703.450000", "185703.452000", "185703.455000", "185703.458000", "185703.460000", "185703.463000", "185703.465000", "185743.379000", "185743.382000", "185743.384000", "185743.387000", "185743.389000", "185743.392000", "185743.394000", "185743.397000", "185743.400000", "185743.402000", "185743.405000", "185743.407000", "185743.410000", "185743.412000", "185743.415000", "185743.417000", "185743.420000", "185743.423000", "185743.425000", "185743.428000", "185743.437000", "185743.440000", "185743.442000", "185743.445000", "185743.447000", "185743.450000", "185743.452000", "185823.369000", "185823.372000", "185823.374000", "185823.377000", "185823.380000", "185823.382000", "185823.385000", "185823.387000", "185823.390000", "185823.392000", "185823.395000", "185823.397000", "185823.400000", "185823.403000", "185823.405000", "185823.408000", "185823.410000", "185823.413000", "185823.415000", "185823.418000", "185823.420000", "185823.423000", "185823.426000", "185823.428000", "185823.431000", "185823.433000", "185823.436000", "185903.371000", "185903.374000", "185903.377000", "185903.379000", "185903.382000", "185903.384000", "185903.387000", "185903.389000", "185903.392000", "185903.394000", "185903.397000", "185903.400000", "185903.402000", "185903.405000", "185903.407000", "185903.410000", "185903.412000", "185903.415000", "185903.424000", "185903.426000", "185903.429000", "185903.431000", "185903.434000", "185903.436000", "185903.439000", "185903.442000", "185903.444000", "185943.380000", "185943.382000", "185943.385000", "185943.388000", "185943.390000", "185943.393000", "185943.395000", "185943.398000", "185943.400000", "185943.403000", "185943.405000", "185943.408000", "185943.410000", "185943.413000", "185943.415000", "185943.418000", "185943.420000", "185943.423000", "185943.426000", "185943.428000", "185943.431000", "185943.433000", "185943.436000", "185943.438000", "185943.441000", "185943.443000", "185943.446000", "190023.365000", "190023.367000", "190023.370000", "190023.373000", "190023.375000", "190023.378000", "190023.380000", "190023.383000", "190023.385000", "190023.388000", "190023.390000", "190023.393000", "190023.395000", "190023.398000", "190023.400000", "190023.403000", "190023.406000", "190023.408000", "190023.411000", "190023.413000", "190023.416000", "190023.418000", "190023.421000", "190023.424000", "190023.426000", "190023.429000", "190033.881000", "190033.883000", "190033.886000", "190033.889000", "190033.891000", "190033.894000", "190033.896000", "190033.899000"],
      "InstanceNumber": [1, 2, 3, 4, 5, 6, 7, 8, 9, 10, 11, 12, 13, 14, 15, 16, 17, 18, 19, 20, 21, 22, 23, 24, 25, 26, 27, 28, 29, 30, 31, 32, 33, 34, 35, 36, 37, 38, 39, 40, 41, 42, 43, 44, 45, 46, 47, 48, 49, 50, 51, 52, 53, 54, 55, 56, 57, 58, 59, 60, 61, 62, 63, 64, 65, 66, 67, 68, 69, 70, 71, 72, 73, 74, 75, 76, 77, 78, 79, 80, 81, 82, 83, 84, 85, 86, 87, 88, 89, 90, 91, 92, 93, 94, 95, 96, 97, 98, 99, 100, 101, 102, 103, 104, 105, 106, 107, 108, 109, 110, 111, 112, 113, 114, 115, 116, 117, 118, 119, 120, 121, 122, 123, 124, 125, 126, 127, 128, 129, 130, 131, 132, 133, 134, 135, 136, 137, 138, 139, 140, 141, 142, 143, 144, 145, 146, 147, 148, 149, 150, 151, 152, 153, 154, 155, 156, 157, 158, 159, 160, 161, 162, 163, 164, 165, 166, 167, 168, 169, 170, 171, 172, 173, 174, 175, 176, 177, 178, 179, 180, 181, 182, 183, 184, 185, 186, 187, 188, 189, 190, 191, 192, 193, 194, 195, 196, 197, 198, 199, 200, 201, 202, 203, 204, 205, 206, 207, 208, 209, 210, 211, 212, 213, 214, 215, 216, 217, 218, 219, 220, 221, 222, 223, 224, 225, 226, 227, 228, 229, 230, 231, 232, 233, 234, 235, 236, 237, 238, 239, 240, 241, 242, 243, 244, 245, 246, 247, 248, 249, 250, 251, 252, 253, 254, 255, 256, 257, 258, 259, 260, 261, 262, 263, 264, 265, 266, 267, 268, 269, 270, 271, 272, 273, 274, 275, 276, 277, 278, 279, 280, 281, 282, 283, 284, 285, 286, 287, 288, 289, 290, 291, 292, 293, 294, 295, 296, 297, 298, 299, 300, 301, 302, 303, 304, 305, 306, 307, 308],
      "WindowCenter": [4882.0, 4882.0, 4886.0, 4886.0, 4884.0, 4884.0, 4882.0, 4884.0, 4882.0, 4856.0, 4882.0, 4884.0, 4884.0, 4882.0, 4882.0, 4880.0, 4884.0, 4880.0, 4880.0, 4882.0, 4858.0, 4880.0, 4882.0, 4882.0, 4880.0, 4882.0, 4878.0, 4880.0, 4882.0, 4882.0, 4882.0, 4880.0, 4858.0, 4880.0, 4882.0, 4880.0, 4880.0, 4882.0, 4880.0, 4878.0, 4878.0, 4878.0, 4878.0, 4880.0, 4882.0, 4880.0, 4856.0, 4880.0, 4880.0, 4878.0, 4880.0, 4878.0, 4880.0, 4878.0, 4880.0, 4880.0, 4880.0, 4858.0, 4880.0, 4880.0, 4878.0, 4880.0, 4878.0, 4878.0, 4878.0, 4880.0, 4878.0, 4880.0, 4876.0, 4878.0, 4878.0, 4876.0, 4878.0, 4878.0, 4878.0, 4856.0, 4876.0, 4858.0, 4876.0, 4854.0, 4880.0, 4854.0, 4876.0, 4854.0, 4876.0, 4876.0, 4854.0, 4854.0, 4852.0, 4852.0, 4876.0, 4852.0, 4854.0, 4854.0, 4852.0, 4854.0, 4878.0, 4854.0, 4852.0, 4876.0, 4854.0, 4878.0, 4854.0, 4850.0, 4852.0, 4854.0, 4850.0, 4876.0, 4878.0, 4880.0, 4852.0, 4878.0, 4854.0, 4852.0, 4876.0, 4854.0, 4876.0, 4852.0, 4876.0, 4876.0, 4852.0, 4878.0, 4854.0, 4856.0, 4854.0, 4854.0, 4854.0, 4854.0, 4852.0, 4852.0, 4876.0, 4876.0, 4852.0, 4856.0, 4854.0, 4856.0, 4878.0, 4852.0, 4852.0, 4852.0, 4854.0, 4852.0, 4854.0, 4854.0, 4850.0, 4876.0, 4854.0, 4854.0, 4858.0, 4854.0, 4874.0, 4854.0, 4852.0, 4852.0, 4854.0, 4852.0, 4876.0, 4878.0, 4854.0, 4856.0, 4854.0, 4876.0, 4876.0, 4876.0, 4874.0, 4874.0, 4850.0, 4876.0, 4852.0, 4850.0, 4852.0, 4874.0, 4850.0, 4852.0, 4850.0, 4852.0, 4856.0, 4850.0, 4850.0, 4854.0, 4874.0, 4856.0, 4852.0, 4852.0, 4852.0, 4850.0, 4850.0, 4850.0, 4854.0, 4852.0, 4850.0, 4852.0, 4848.0, 4876.0, 4854.0, 4850.0, 4854.0, 4850.0, 4876.0, 4850.0, 4852.0, 4876.0, 4850.0, 4850.0, 4854.0, 4850.0, 4852.0, 4848.0, 4850.0, 4848.0, 4848.0, 4848.0, 4848.0, 4852.0, 4850.0, 4850.0, 4850.0, 4850.0, 4854.0, 4852.0, 4850.0, 4856.0, 4852.0, 4850.0, 4854.0, 4854.0, 4854.0, 4852.0, 4876.0, 4854.0, 4854.0, 4878.0, 4854.0, 4854.0, 4876.0, 4850.0, 4852.0, 4854.0, 4854.0, 4874.0, 4854.0, 4874.0, 4854.0, 4854.0, 4852.0, 4852.0, 4874.0, 4876.0, 4852.0, 4854.0, 4852.0, 4852.0, 4852.0, 4848.0, 4852.0, 4854.0, 4852.0, 4852.0, 4852.0, 4852.0, 4850.0, 4852.0, 4854.0, 4850.0, 4852.0, 4852.0, 4854.0, 4852.0, 4852.0, 4854.0, 4850.0, 4852.0, 4874.0, 4852.0, 4854.0, 4852.0, 4852.0, 4874.0, 4852.0, 4852.0, 4852.0, 4852.0, 4852.0, 4850.0, 4852.0, 4848.0, 4850.0, 4850.0, 4852.0, 4852.0, 4850.0, 4850.0, 4854.0, 4852.0, 4856.0, 4876.0, 4876.0, 4852.0, 4878.0, 4876.0, 4852.0, 4852.0, 4880.0, 4856.0, 4850.0, 4854.0, 4852.0, 4854.0],
      "WindowWidth": [18660.0, 18652.0, 18666.0, 18660.0, 18662.0, 18664.0, 18654.0, 18668.0, 18668.0, 18630.0, 18656.0, 18668.0, 18666.0, 18664.0, 18664.0, 18658.0, 18670.0, 18660.0, 18664.0, 18666.0, 18624.0, 18664.0, 18666.0, 18662.0, 18660.0, 18666.0, 18668.0, 18662.0, 18664.0, 18660.0, 18666.0, 18666.0, 18632.0, 18668.0, 18666.0, 18664.0, 18662.0, 18668.0, 18658.0, 18662.0, 18666.0, 18664.0, 18666.0, 18662.0, 18668.0, 18664.0, 18628.0, 18664.0, 18666.0, 18664.0, 18664.0, 18666.0, 18664.0, 18666.0, 18662.0, 18660.0, 18660.0, 18630.0, 18668.0, 18662.0, 18666.0, 18664.0, 18666.0, 18660.0, 18666.0, 18662.0, 18662.0, 18666.0, 18664.0, 18666.0, 18666.0, 18664.0, 18668.0, 18666.0, 18660.0, 18634.0, 18664.0, 18632.0, 18660.0, 18636.0, 18664.0, 18632.0, 18662.0, 18636.0, 18664.0, 18668.0, 18634.0, 18636.0, 18634.0, 18640.0, 18664.0, 18632.0, 18636.0, 18636.0, 18634.0, 18632.0, 18666.0, 18634.0, 18638.0, 18664.0, 18630.0, 18664.0, 18636.0, 18632.0, 18630.0, 18632.0, 18630.0, 18666.0, 18666.0, 18660.0, 18634.0, 18668.0, 18628.0, 18634.0, 18662.0, 18636.0, 18670.0, 18634.0, 18664.0, 18662.0, 18638.0, 18666.0, 18630.0, 18632.0, 18638.0, 18636.0, 18638.0, 18634.0, 18630.0, 18632.0, 18664.0, 18666.0, 18634.0, 18640.0, 18634.0, 18636.0, 18660.0, 18638.0, 18632.0, 18638.0, 18640.0, 18636.0, 18632.0, 18636.0, 18634.0, 18664.0, 18634.0, 18636.0, 18636.0, 18638.0, 18670.0, 18630.0, 18638.0, 18632.0, 18636.0, 18636.0, 18666.0, 18668.0, 18634.0, 18638.0, 18630.0, 18668.0, 18674.0, 18668.0, 18668.0, 18666.0, 18636.0, 18664.0, 18634.0, 18632.0, 18636.0, 18668.0, 18632.0, 18632.0, 18636.0, 18634.0, 18634.0, 18638.0, 18634.0, 18638.0, 18668.0, 18640.0, 18636.0, 18636.0, 18642.0, 18632.0, 18636.0, 18632.0, 18634.0, 18632.0, 18638.0, 18632.0, 18634.0, 18660.0, 18634.0, 18634.0, 18638.0, 18636.0, 18670.0, 18634.0, 18634.0, 18668.0, 18638.0, 18636.0, 18636.0, 18634.0, 18630.0, 18630.0, 18636.0, 18628.0, 18636.0, 18634.0, 18638.0, 18640.0, 18636.0, 18640.0, 18634.0, 18632.0, 18636.0, 18640.0, 18628.0, 18630.0, 18634.0, 18638.0, 18638.0, 18640.0, 18640.0, 18628.0, 18668.0, 18636.0, 18634.0, 18666.0, 18636.0, 18642.0, 18668.0, 18636.0, 18640.0, 18636.0, 18640.0, 18672.0, 18636.0, 18668.0, 18638.0, 18636.0, 18636.0, 18632.0, 18670.0, 18666.0, 18636.0, 18640.0, 18634.0, 18634.0, 18632.0, 18636.0, 18636.0, 18636.0, 18634.0, 18634.0, 18638.0, 18638.0, 18638.0, 18640.0, 18638.0, 18634.0, 18636.0, 18642.0, 18638.0, 18636.0, 18636.0, 18636.0, 18638.0, 18634.0, 18666.0, 18636.0, 18638.0, 18640.0, 18636.0, 18672.0, 18636.0, 18638.0, 18640.0, 18638.0, 18640.0, 18632.0, 18636.0, 18636.0, 18638.0, 18636.0, 18638.0, 18638.0, 18630.0, 18636.0, 18632.0, 18634.0, 18632.0, 18662.0, 18670.0, 18634.0, 18660.0, 18664.0, 18636.0, 18634.0, 18664.0, 18638.0, 18638.0, 18638.0, 18632.0, 18636.0]
    },
    "slices": {}
  }
}