{
  "AcquisitionMatrixPE": 104,
  "AcquisitionNumber": 1,
  "AcquisitionTime": "16:35:41.420000",
  "BandwidthPerPixelPhaseEncode": 17.17,
  "BaseResolution": 104,
  "BodyPartExamined": "BRAIN",
  "CoilCombinationMethod": "Sum of Squares",
  "ConsistencyInfo": "N4_VE11C_LATEST_20160120",
  "ConversionSoftware": "dcm2niix",
  "ConversionSoftwareVersion": "v1.0.20220505",
  "DerivedVendorReportedEchoSpacing": 0.000560011,
  "DeviceSerialNumber": "167006",
  "DwellTime": 2.1e-06,
  "EchoTime": 0.037,
  "EchoTrainLength": 104,
  "EffectiveEchoSpacing": 0.000560011,
  "FlipAngle": 52,
  "HeudiconvVersion": "0.5.3.post811+g6206e14",
  "ImageComments": "Unaliased MB4/PE3/LB",
  "ImageOrientationPatientDICOM": [0.998714, 0.00370923, 0.0505703, 0.0231871, 0.85353, -0.520527],
  "ImageOrientationText": "Tra>Cor(-31.4)>Sag(2.6)",
  "ImageType": [
    "ORIGINAL",
    "PRIMARY",
    "M",
    "MB",
    "ND",
    "MOSAIC"
],
  "ImagingFrequency": 123.259,
  "InPlanePhaseEncodingDirectionDICOM": "COL",
  "InstitutionAddress": "Chemin Queen-Mary 4565,Montreal,District,CA,H3W 1W5",
  "InstitutionName": "IUGM",
  "InstitutionalDepartmentName": "Department",
  "MRAcquisitionType": "2D",
  "MagneticFieldStrength": 3,
  "Manufacturer": "Siemens",
  "ManufacturersModelName": "Prisma_fit",
  "MatrixCoilMode": "SENSE",
  "Modality": "MR",
  "MultibandAccelerationFactor": 4,
  "PartialFourier": 1,
  "PatientPosition": "HFS",
  "PercentPhaseFOV": 100,
  "PercentSampling": 100,
  "PhaseEncodingDirection": "j",
  "PhaseEncodingSteps": 104,
  "PhaseResolution": 1,
  "PixelBandwidth": 2290,
  "ProcedureStepDescription": "games^mario3",
  "ProtocolName": "func_task-mario3_run-03",
  "PulseSequenceDetails": "%CustomerSeq%\\cmrr_mbep2d_bold",
  "ReceiveCoilActiveElements": "HC1-7;NC1,2",
  "ReceiveCoilName": "HeadNeck_64",
  "ReconMatrixPE": 104,
  "RepetitionTime": 1.49,
  "SAR": 0.0564705,
  "ScanOptions": "FS",
  "ScanningSequence": "EP",
  "SequenceName": "epfid2d1_104",
  "SequenceVariant": "SK\\SS",
  "SeriesDescription": "func_task-mario3_run-03",
  "SeriesNumber": 16,
  "ShimSetting": [624, -7178, -8864, 275, 44, -177, -50, 17],
  "SliceThickness": 2,
  "SliceTiming": [0, 0.785, 0.0975, 0.8825, 0.1975, 0.98, 0.295, 1.0775, 0.3925, 1.1775, 0.49, 1.275, 0.5875, 1.3725, 0.6875, 0, 0.785, 0.0975, 0.8825, 0.1975, 0.98, 0.295, 1.0775, 0.3925, 1.1775, 0.49, 1.275, 0.5875, 1.3725, 0.6875, 0, 0.785, 0.0975, 0.8825, 0.1975, 0.98, 0.295, 1.0775, 0.3925, 1.1775, 0.49, 1.275, 0.5875, 1.3725, 0.6875, 0, 0.785, 0.0975, 0.8825, 0.1975, 0.98, 0.295, 1.0775, 0.3925, 1.1775, 0.49, 1.275, 0.5875, 1.3725, 0.6875],
  "SoftwareVersions": "syngo MR E11",
  "SpacingBetweenSlices": 2,
  "StationName": "MRC35049",
  "TaskName": "mario3",
  "TotalReadoutTime": 0.0576811,
  "TxRefAmp": 276.172,
  "WipMemBlock": "304ab512-de31-4752-842f-41f6d65314d2||Sequence: R017 ve11c/master r/75a17815+; Jun 28 2022 16:32:11 by eja",
  "dcmmeta_affine": [
    [-1.997427225112915, 0.04637422785162926, 0.0901881605386734, 103.13511657714844],
    [-0.007418454624712467, 1.7070608139038086, -1.0420596599578857, -49.934730529785156],
    [0.10114069283008575, 1.0410537719726562, 1.7046928405761719, -102.40422821044922],
    [0.0, 0.0, 0.0, 1.0]
],
  "dcmmeta_reorient_transform": [
    [0.0, -1.0, 0.0, 103.0],
    [1.0, 0.0, 0.0, 0.0],
    [0.0, 0.0, 1.0, 0.0],
    [0.0, 0.0, 0.0, 1.0]
],
  "dcmmeta_shape": [104, 104, 60, 316],
  "dcmmeta_slice_dim": 2,
  "dcmmeta_version": 0.6,
  "global": {
    "const": {
      "AcquisitionMatrix": [104, 0, 0, 104],
      "AngioFlag": "N",
      "BitsAllocated": 16,
      "BitsStored": 16,
      "BodyPartExamined": "BRAIN",
      "Columns": 832,
      "EchoNumbers": 1,
      "EchoTime": 37.0,
      "EchoTrainLength": 104,
      "FlipAngle": 52.0,
      "HighBit": 15,
      "ImageOrientationPatient": [0.9987136133941, 0.00370922741876, 0.050570347569, 0.02318711418637, 0.85353039275255, -0.520526873834],
      "ImagePositionPatient": [-851.85538860138, -749.96297274717, 346.95265950334],
      "ImageType": [
        "ORIGINAL",
        "PRIMARY",
        "M",
        "MB",
        "ND",
        "MOSAIC"
],
      "ImagedNucleus": "1H",
      "ImagingFrequency": 123.25882,
      "InPlanePhaseEncodingDirection": "COL",
      "MRAcquisitionType": "2D",
      "MagneticFieldStrength": 3.0,
      "Manufacturer": "SIEMENS",
      "ManufacturerModelName": "Prisma_fit",
      "Modality": "MR",
      "NumberOfAverages": 1.0,
      "NumberOfPhaseEncodingSteps": 104,
      "PercentPhaseFieldOfView": 100.0,
      "PercentSampling": 100.0,
      "PerformedProcedureStepStartTime": "161315.250000",
      "PhotometricInterpretation": "MONOCHROME2",
      "PixelBandwidth": 2290.0,
      "PixelRepresentation": 0,
      "PixelSpacing": [2.0, 2.0],
      "ProtocolName": "func_task-mario3_run-03",
      "RepetitionTime": 1490.0,
      "Rows": 832,
      "SAR": 0.05647046757033,
      "SamplesPerPixel": 1,
      "ScanOptions": "FS",
      "ScanningSequence": "EP",
      "SequenceName": "epfid2d1_104",
      "SequenceVariant": [
        "SK",
        "SS"
],
      "SeriesDescription": "func_task-mario3_run-03",
      "SeriesNumber": 16,
      "SeriesTime": "163641.078000",
      "SliceLocation": -56.615607256398,
      "SliceThickness": 2.0,
      "SmallestImagePixelValue": 0,
      "SoftwareVersions": "syngo MR E11",
      "SpacingBetweenSlices": 2.0000000105269,
      "SpecificCharacterSet": "ISO_IR 100",
      "StudyID": "1",
      "StudyTime": "161315.164000",
      "TransmitCoilName": "Body",
      "VariableFlipAngleFlag": "N",
      "WindowCenterWidthExplanation": "Algo1",
      "dBdt": 0.0},
    "slices": {}
  },
  "time": {
    "samples": {
      "AcquisitionNumber": [1, 2, 3, 4, 5, 6, 7, 8, 9, 10, 11, 12, 13, 14, 15, 16, 17, 18, 19, 20, 21, 22, 23, 24, 25, 26, 27, 28, 29, 30, 31, 32, 33, 34, 35, 36, 37, 38, 39, 40, 41, 42, 43, 44, 45, 46, 47, 48, 49, 50, 51, 52, 53, 54, 55, 56, 57, 58, 59, 60, 61, 62, 63, 64, 65, 66, 67, 68, 69, 70, 71, 72, 73, 74, 75, 76, 77, 78, 79, 80, 81, 82, 83, 84, 85, 86, 87, 88, 89, 90, 91, 92, 93, 94, 95, 96, 97, 98, 99, 100, 101, 102, 103, 104, 105, 106, 107, 108, 109, 110, 111, 112, 113, 114, 115, 116, 117, 118, 119, 120, 121, 122, 123, 124, 125, 126, 127, 128, 129, 130, 131, 132, 133, 134, 135, 136, 137, 138, 139, 140, 141, 142, 143, 144, 145, 146, 147, 148, 149, 150, 151, 152, 153, 154, 155, 156, 157, 158, 159, 160, 161, 162, 163, 164, 165, 166, 167, 168, 169, 170, 171, 172, 173, 174, 175, 176, 177, 178, 179, 180, 181, 182, 183, 184, 185, 186, 187, 188, 189, 190, 191, 192, 193, 194, 195, 196, 197, 198, 199, 200, 201, 202, 203, 204, 205, 206, 207, 208, 209, 210, 211, 212, 213, 214, 215, 216, 217, 218, 219, 220, 221, 222, 223, 224, 225, 226, 227, 228, 229, 230, 231, 232, 233, 234, 235, 236, 237, 238, 239, 240, 241, 242, 243, 244, 245, 246, 247, 248, 249, 250, 251, 252, 253, 254, 255, 256, 257, 258, 259, 260, 261, 262, 263, 264, 265, 266, 267, 268, 269, 270, 271, 272, 273, 274, 275, 276, 277, 278, 279, 280, 281, 282, 283, 284, 285, 286, 287, 288, 289, 290, 291, 292, 293, 294, 295, 296, 297, 298, 299, 300, 301, 302, 303, 304, 305, 306, 307, 308, 309, 310, 311, 312, 313, 314, 315, 316],
      "AcquisitionTime": ["163541.420000", "163542.910000", "163544.400000", "163545.890000", "163547.380000", "163548.870000", "163550.360000", "163551.850000", "163553.340000", "163554.830000", "163556.320000", "163557.810000", "163559.300000", "163600.790000", "163602.280000", "163603.770000", "163605.260000", "163606.750000", "163608.240000", "163609.730000", "163611.220000", "163612.710000", "163614.200000", "163615.690000", "163617.180000", "163618.670000", "163620.160000", "163621.650000", "163623.140000", "163624.630000", "163626.120000", "163627.610000", "163629.100000", "163630.590000", "163632.080000", "163633.570000", "163635.060000", "163636.550000", "163638.040000", "163639.530000", "163641.020000", "163642.510000", "163644.000000", "163645.490000", "163646.980000", "163648.470000", "163649.960000", "163651.450000", "163652.940000", "163654.430000", "163655.920000", "163657.410000", "163658.900000", "163700.390000", "163701.880000", "163703.370000", "163704.860000", "163706.350000", "163707.840000", "163709.330000", "163710.820000", "163712.310000", "163713.800000", "163715.290000", "163716.780000", "163718.270000", "163719.760000", "163721.250000", "163722.740000", "163724.230000", "163725.720000", "163727.210000", "163728.700000", "163730.190000", "163731.680000", "163733.170000", "163734.660000", "163736.150000", "163737.640000", "163739.130000", "163740.620000", "163742.110000", "163743.600000", "163745.090000", "163746.580000", "163748.070000", "163749.560000", "163751.050000", "163752.540000", "163754.030000", "163755.520000", "163757.010000", "163758.500000", "163759.990000", "163801.480000", "163802.970000", "163804.460000", "163805.950000", "163807.440000", "163808.930000", "163810.420000", "163811.910000", "163813.400000", "163814.890000", "163816.380000", "163817.870000", "163819.360000", "163820.850000", "163822.340000", "163823.830000", "163825.320000", "163826.810000", "163828.300000", "163829.790000", "163831.280000", "163832.770000", "163834.260000", "163835.750000", "163837.240000", "163838.730000", "163840.220000", "163841.710000", "163843.200000", "163844.690000", "163846.180000", "163847.670000", "163849.160000", "163850.650000", "163852.140000", "163853.630000", "163855.120000", "163856.610000", "163858.100000", "163859.590000", "163901.080000", "163902.570000", "163904.060000", "163905.550000", "163907.040000", "163908.530000", "163910.020000", "163911.510000", "163913.000000", "163914.490000", "163915.980000", "163917.470000", "163918.960000", "163920.450000", "163921.940000", "163923.430000", "163924.920000", "163926.410000", "163927.900000", "163929.390000", "163930.880000", "163932.370000", "163933.860000", "163935.350000", "163936.840000", "163938.330000", "163939.820000", "163941.310000", "163942.800000", "163944.290000", "163945.780000", "163947.270000", "163948.760000", "163950.250000", "163951.740000", "163953.230000", "163954.720000", "163956.210000", "163957.700000", "163959.190000", "164000.680000", "164002.170000", "164003.660000", "164005.150000", "164006.640000", "164008.130000", "164009.620000", "164011.110000", "164012.600000", "164014.090000", "164015.580000", "164017.070000", "164018.560000", "164020.050000", "164021.540000", "164023.030000", "164024.520000", "164026.010000", "164027.500000", "164028.990000", "164030.480000", "164031.970000", "164033.460000", "164034.950000", "164036.440000", "164037.930000", "164039.420000", "164040.910000", "164042.400000", "164043.890000", "164045.380000", "164046.870000", "164048.360000", "164049.850000", "164051.340000", "164052.830000", "164054.320000", "164055.810000", "164057.300000", "164058.790000", "164100.280000", "164101.770000", "164103.260000", "164104.750000", "164106.240000", "164107.730000", "164109.220000", "164110.710000", "164112.200000", "164113.690000", "164115.180000", "164116.670000", "164118.160000", "164119.650000", "164121.140000", "164122.630000", "164124.120000", "164125.610000", "164127.100000", "164128.590000", "164130.080000", "164131.570000", "164133.060000", "164134.550000", "164136.040000", "164137.530000", "164139.020000", "164140.510000", "164142.000000", "164143.490000", "164144.980000", "164146.470000", "164147.960000", "164149.450000", "164150.940000", "164152.430000", "164153.920000", "164155.410000", "164156.900000", "164158.390000", "164159.880000", "164201.370000", "164202.860000", "164204.350000", "164205.840000", "164207.330000", "164208.820000", "164210.310000", "164211.800000", "164213.290000", "164214.780000", "164216.270000", "164217.760000", "164219.250000", "164220.740000", "164222.230000", "164223.720000", "164225.210000", "164226.700000", "164228.190000", "164229.680000", "164231.170000", "164232.660000", "164234.150000", "164235.640000", "164237.130000", "164238.620000", "164240.110000", "164241.600000", "164243.090000", "164244.580000", "164246.070000", "164247.560000", "164249.050000", "164250.540000", "164252.030000", "164253.520000", "164255.010000", "164256.500000", "164257.990000", "164259.480000", "164300.970000", "164302.460000", "164303.950000", "164305.440000", "164306.930000", "164308.420000", "164309.910000", "164311.400000", "164312.890000", "164314.380000", "164315.870000", "164317.360000", "164318.850000", "164320.340000", "164321.830000", "164323.320000", "164324.810000", "164326.300000", "164327.790000", "164329.280000", "164330.770000"],
      "ContentTime": ["163641.081000", "163641.085000", "163641.088000", "163641.095000", "163641.098000", "163641.102000", "163641.105000", "163641.108000", "163641.111000", "163641.115000", "163641.118000", "163701.035000", "163701.039000", "163701.042000", "163701.045000", "163701.048000", "163701.052000", "163701.055000", "163701.058000", "163701.061000", "163701.065000", "163701.068000", "163701.071000", "163701.074000", "163701.082000", "163701.085000", "163701.107000", "163701.110000", "163701.113000", "163701.116000", "163701.120000", "163721.035000", "163721.039000", "163721.042000", "163721.045000", "163721.048000", "163721.052000", "163721.055000", "163721.058000", "163721.061000", "163721.065000", "163721.068000", "163721.071000", "163721.074000", "163721.078000", "163721.081000", "163721.084000", "163721.087000", "163721.091000", "163721.095000", "163721.098000", "163741.035000", "163741.039000", "163741.042000", "163741.045000", "163741.048000", "163741.052000", "163741.055000", "163741.058000", "163741.061000", "163741.065000", "163741.068000", "163741.071000", "163741.074000", "163741.078000", "163741.081000", "163741.084000", "163741.087000", "163741.091000", "163741.094000", "163741.097000", "163741.100000", "163801.035000", "163801.039000", "163801.042000", "163801.045000", "163801.048000", "163801.052000", "163801.055000", "163801.058000", "163801.061000", "163801.065000", "163801.068000", "163801.071000", "163801.074000", "163801.078000", "163801.081000", "163801.084000", "163801.088000", "163801.096000", "163801.099000", "163801.102000", "163841.035000", "163841.039000", "163841.042000", "163841.045000", "163841.049000", "163841.053000", "163841.056000", "163841.060000", "163841.063000", "163841.066000", "163841.069000", "163841.073000", "163841.076000", "163841.079000", "163841.083000", "163841.086000", "163841.089000", "163841.092000", "163841.096000", "163841.099000", "163841.102000", "163841.106000", "163841.109000", "163841.112000", "163841.115000", "163841.119000", "163841.122000", "163841.125000", "163921.035000", "163921.039000", "163921.056000", "163921.059000", "163921.062000", "163921.066000", "163921.069000", "163921.072000", "163921.075000", "163921.079000", "163921.082000", "163921.085000", "163921.088000", "163921.092000", "163921.095000", "163921.098000", "163921.102000", "163921.105000", "163921.108000", "163921.111000", "163921.115000", "163921.118000", "163921.121000", "163921.124000", "163921.128000", "163921.131000", "163921.134000", "164001.035000", "164001.039000", "164001.042000", "164001.045000", "164001.048000", "164001.052000", "164001.055000", "164001.058000", "164001.062000", "164001.065000", "164001.068000", "164001.071000", "164001.075000", "164001.078000", "164001.081000", "164001.084000", "164001.088000", "164001.091000", "164001.094000", "164001.097000", "164001.101000", "164001.104000", "164001.107000", "164001.110000", "164001.114000", "164001.117000", "164001.120000", "164041.035000", "164041.039000", "164041.042000", "164041.045000", "164041.049000", "164041.052000", "164041.055000", "164041.059000", "164041.063000", "164041.066000", "164041.070000", "164041.073000", "164041.076000", "164041.080000", "164041.083000", "164041.087000", "164041.091000", "164041.094000", "164041.097000", "164041.100000", "164041.104000", "164041.107000", "164041.110000", "164041.114000", "164041.117000", "164041.120000", "164121.035000", "164121.039000", "164121.042000", "164121.045000", "164121.049000", "164121.052000", "164121.055000", "164121.059000", "164121.062000", "164121.065000", "164121.068000", "164121.072000", "164121.075000", "164121.078000", "164121.082000", "164121.091000", "164121.094000", "164121.097000", "164121.100000", "164121.104000", "164121.107000", "164121.110000", "164121.114000", "164121.117000", "164121.120000", "164121.123000", "164121.127000", "164201.035000", "164201.039000", "164201.042000", "164201.045000", "164201.049000", "164201.052000", "164201.055000", "164201.059000", "164201.062000", "164201.065000", "164201.068000", "164201.072000", "164201.075000", "164201.078000", "164201.081000", "164201.085000", "164201.088000", "164201.092000", "164201.095000", "164201.098000", "164201.101000", "164201.105000", "164201.108000", "164201.111000", "164201.115000", "164201.118000", "164201.121000", "164241.035000", "164241.039000", "164241.042000", "164241.045000", "164241.049000", "164241.052000", "164241.055000", "164241.058000", "164241.062000", "164241.065000", "164241.068000", "164241.071000", "164241.075000", "164241.078000", "164241.081000", "164241.085000", "164241.088000", "164241.091000", "164241.094000", "164241.098000", "164241.101000", "164241.104000", "164241.108000", "164241.111000", "164241.115000", "164241.118000", "164241.122000", "164321.035000", "164321.039000", "164321.042000", "164321.045000", "164321.049000", "164321.052000", "164321.055000", "164321.059000", "164321.062000", "164321.065000", "164321.068000", "164321.072000", "164321.075000", "164321.078000", "164321.081000", "164321.085000", "164321.088000", "164321.091000", "164321.094000", "164321.098000", "164321.101000", "164321.104000", "164321.108000", "164321.111000", "164321.114000", "164321.118000", "164321.121000", "164332.784000", "164332.788000", "164332.791000", "164332.804000", "164332.807000", "164332.810000", "164332.814000", "164332.817000"],
      "InstanceCreationTime": ["163641.081000", "163641.085000", "163641.088000", "163641.095000", "163641.098000", "163641.102000", "163641.105000", "163641.108000", "163641.111000", "163641.115000", "163641.118000", "163701.035000", "163701.039000", "163701.042000", "163701.045000", "163701.048000", "163701.052000", "163701.055000", "163701.058000", "163701.061000", "163701.065000", "163701.068000", "163701.071000", "163701.074000", "163701.082000", "163701.085000", "163701.107000", "163701.110000", "163701.113000", "163701.116000", "163701.120000", "163721.035000", "163721.039000", "163721.042000", "163721.045000", "163721.048000", "163721.052000", "163721.055000", "163721.058000", "163721.061000", "163721.065000", "163721.068000", "163721.071000", "163721.074000", "163721.078000", "163721.081000", "163721.084000", "163721.087000", "163721.091000", "163721.095000", "163721.098000", "163741.035000", "163741.039000", "163741.042000", "163741.045000", "163741.048000", "163741.052000", "163741.055000", "163741.058000", "163741.061000", "163741.065000", "163741.068000", "163741.071000", "163741.074000", "163741.078000", "163741.081000", "163741.084000", "163741.087000", "163741.091000", "163741.094000", "163741.097000", "163741.100000", "163801.035000", "163801.039000", "163801.042000", "163801.045000", "163801.048000", "163801.052000", "163801.055000", "163801.058000", "163801.061000", "163801.065000", "163801.068000", "163801.071000", "163801.074000", "163801.078000", "163801.081000", "163801.084000", "163801.088000", "163801.096000", "163801.099000", "163801.102000", "163841.035000", "163841.039000", "163841.042000", "163841.045000", "163841.049000", "163841.053000", "163841.056000", "163841.060000", "163841.063000", "163841.066000", "163841.069000", "163841.073000", "163841.076000", "163841.079000", "163841.083000", "163841.086000", "163841.089000", "163841.092000", "163841.096000", "163841.099000", "163841.102000", "163841.106000", "163841.109000", "163841.112000", "163841.115000", "163841.119000", "163841.122000", "163841.125000", "163921.035000", "163921.039000", "163921.056000", "163921.059000", "163921.062000", "163921.066000", "163921.069000", "163921.072000", "163921.075000", "163921.079000", "163921.082000", "163921.085000", "163921.088000", "163921.092000", "163921.095000", "163921.098000", "163921.102000", "163921.105000", "163921.108000", "163921.111000", "163921.115000", "163921.118000", "163921.121000", "163921.124000", "163921.128000", "163921.131000", "163921.134000", "164001.035000", "164001.039000", "164001.042000", "164001.045000", "164001.048000", "164001.052000", "164001.055000", "164001.058000", "164001.062000", "164001.065000", "164001.068000", "164001.071000", "164001.075000", "164001.078000", "164001.081000", "164001.084000", "164001.088000", "164001.091000", "164001.094000", "164001.097000", "164001.101000", "164001.104000", "164001.107000", "164001.110000", "164001.114000", "164001.117000", "164001.120000", "164041.035000", "164041.039000", "164041.042000", "164041.045000", "164041.049000", "164041.052000", "164041.055000", "164041.059000", "164041.063000", "164041.066000", "164041.070000", "164041.073000", "164041.076000", "164041.080000", "164041.083000", "164041.087000", "164041.091000", "164041.094000", "164041.097000", "164041.100000", "164041.104000", "164041.107000", "164041.110000", "164041.114000", "164041.117000", "164041.120000", "164121.035000", "164121.039000", "164121.042000", "164121.045000", "164121.049000", "164121.052000", "164121.055000", "164121.059000", "164121.062000", "164121.065000", "164121.068000", "164121.072000", "164121.075000", "164121.078000", "164121.082000", "164121.091000", "164121.094000", "164121.097000", "164121.100000", "164121.104000", "164121.107000", "164121.110000", "164121.114000", "164121.117000", "164121.120000", "164121.123000", "164121.127000", "164201.035000", "164201.039000", "164201.042000", "164201.045000", "164201.049000", "164201.052000", "164201.055000", "164201.059000", "164201.062000", "164201.065000", "164201.068000", "164201.072000", "164201.075000", "164201.078000", "164201.081000", "164201.085000", "164201.088000", "164201.092000", "164201.095000", "164201.098000", "164201.101000", "164201.105000", "164201.108000", "164201.111000", "164201.115000", "164201.118000", "164201.121000", "164241.035000", "164241.039000", "164241.042000", "164241.045000", "164241.049000", "164241.052000", "164241.055000", "164241.058000", "164241.062000", "164241.065000", "164241.068000", "164241.071000", "164241.075000", "164241.078000", "164241.081000", "164241.085000", "164241.088000", "164241.091000", "164241.094000", "164241.098000", "164241.101000", "164241.104000", "164241.108000", "164241.111000", "164241.115000", "164241.118000", "164241.122000", "164321.035000", "164321.039000", "164321.042000", "164321.045000", "164321.049000", "164321.052000", "164321.055000", "164321.059000", "164321.062000", "164321.065000", "164321.068000", "164321.072000", "164321.075000", "164321.078000", "164321.081000", "164321.085000", "164321.088000", "164321.091000", "164321.094000", "164321.098000", "164321.101000", "164321.104000", "164321.108000", "164321.111000", "164321.114000", "164321.118000", "164321.121000", "164332.784000", "164332.788000", "164332.791000", "164332.804000", "164332.807000", "164332.810000", "164332.814000", "164332.817000"],
      "InstanceNumber": [1, 2, 3, 4, 5, 6, 7, 8, 9, 10, 11, 12, 13, 14, 15, 16, 17, 18, 19, 20, 21, 22, 23, 24, 25, 26, 27, 28, 29, 30, 31, 32, 33, 34, 35, 36, 37, 38, 39, 40, 41, 42, 43, 44, 45, 46, 47, 48, 49, 50, 51, 52, 53, 54, 55, 56, 57, 58, 59, 60, 61, 62, 63, 64, 65, 66, 67, 68, 69, 70, 71, 72, 73, 74, 75, 76, 77, 78, 79, 80, 81, 82, 83, 84, 85, 86, 87, 88, 89, 90, 91, 92, 93, 94, 95, 96, 97, 98, 99, 100, 101, 102, 103, 104, 105, 106, 107, 108, 109, 110, 111, 112, 113, 114, 115, 116, 117, 118, 119, 120, 121, 122, 123, 124, 125, 126, 127, 128, 129, 130, 131, 132, 133, 134, 135, 136, 137, 138, 139, 140, 141, 142, 143, 144, 145, 146, 147, 148, 149, 150, 151, 152, 153, 154, 155, 156, 157, 158, 159, 160, 161, 162, 163, 164, 165, 166, 167, 168, 169, 170, 171, 172, 173, 174, 175, 176, 177, 178, 179, 180, 181, 182, 183, 184, 185, 186, 187, 188, 189, 190, 191, 192, 193, 194, 195, 196, 197, 198, 199, 200, 201, 202, 203, 204, 205, 206, 207, 208, 209, 210, 211, 212, 213, 214, 215, 216, 217, 218, 219, 220, 221, 222, 223, 224, 225, 226, 227, 228, 229, 230, 231, 232, 233, 234, 235, 236, 237, 238, 239, 240, 241, 242, 243, 244, 245, 246, 247, 248, 249, 250, 251, 252, 253, 254, 255, 256, 257, 258, 259, 260, 261, 262, 263, 264, 265, 266, 267, 268, 269, 270, 271, 272, 273, 274, 275, 276, 277, 278, 279, 280, 281, 282, 283, 284, 285, 286, 287, 288, 289, 290, 291, 292, 293, 294, 295, 296, 297, 298, 299, 300, 301, 302, 303, 304, 305, 306, 307, 308, 309, 310, 311, 312, 313, 314, 315, 316],
      "LargestImagePixelValue": [45437, 45099, 43876, 44149, 43866, 44631, 42702, 42659, 43474, 44652, 44004, 43092, 44612, 43122, 44956, 44060, 44515, 42382, 41921, 42992, 42694, 43397, 42616, 42401, 44197, 42281, 43683, 46498, 45811, 44320, 44510, 41649, 41552, 43653, 43169, 42546, 42685, 44471, 44750, 43790, 45316, 43830, 44061, 43172, 44852, 41782, 44342, 45884, 45940, 45620, 43418, 44477, 44194, 44984, 44119, 44894, 44096, 45011, 45517, 46135, 45464, 46199, 46152, 44509, 44603, 45643, 45088, 44585, 45066, 45668, 45840, 45338, 45727, 45192, 45438, 46002, 45303, 44813, 45109, 45643, 46036, 45026, 46495, 46335, 44964, 46630, 46916, 46279, 45220, 44032, 45755, 46195, 45865, 45738, 45686, 45267, 46173, 45034, 46083, 46296, 44437, 44462, 45417, 44532, 45080, 44620, 45099, 45188, 45843, 45611, 46964, 46322, 46993, 44627, 45746, 45494, 46468, 45330, 46018, 45578, 45722, 46748, 45156, 45662, 45940, 45133, 46106, 46414, 45134, 45949, 44974, 43303, 42379, 41420, 42609, 42376, 43725, 43696, 41029, 43462, 44368, 43299, 40778, 44292, 44248, 44450, 44977, 44304, 44891, 46121, 44064, 43471, 46319, 45871, 45263, 45730, 45335, 45773, 44921, 44127, 44733, 45145, 43412, 44553, 42573, 44726, 45160, 45126, 44786, 45109, 44543, 45199, 44899, 44851, 43903, 44645, 43717, 44603, 42782, 43140, 41992, 43121, 44854, 44173, 44458, 44429, 43152, 43587, 43824, 41961, 42401, 42465, 42684, 42238, 43283, 43439, 43829, 41881, 43298, 42475, 43181, 44811, 45044, 44874, 45867, 45632, 41351, 44970, 44666, 45140, 45674, 44781, 41507, 42824, 43073, 44153, 44773, 45795, 43882, 43155, 44865, 41814, 40741, 42223, 41927, 43517, 41742, 41654, 42156, 44409, 44693, 44078, 43526, 43619, 41134, 44673, 42267, 42805, 41453, 42907, 42650, 41642, 41332, 44297, 41347, 44411, 42363, 44585, 43034, 45605, 43351, 41411, 41961, 42020, 41587, 42590, 43875, 45338, 44358, 45508, 43515, 42516, 43152, 42190, 42055, 42744, 47981, 44888, 43303, 42777, 45063, 45339, 44270, 45912, 44660, 43581, 43107, 42890, 43015, 44929, 44580, 44139, 45350, 44390, 44307, 44876, 44291, 42574, 44234, 42712, 43899, 42412, 46280, 46516, 46265, 45453, 45650, 46046, 46673, 46399, 45828, 43971, 42988, 44003, 44303, 42422, 45482, 45240, 44959, 44550, 45729, 44877, 44627, 44717, 44503, 44264],
