{
  "AcquisitionMatrixPE": 104,
  "AcquisitionNumber": 1,
  "AcquisitionTime": "16:44:50.992500",
  "BandwidthPerPixelPhaseEncode": 17.17,
  "BaseResolution": 104,
  "BodyPartExamined": "BRAIN",
  "CoilCombinationMethod": "Sum of Squares",
  "ConsistencyInfo": "N4_VE11C_LATEST_20160120",
  "ConversionSoftware": "dcm2niix",
  "ConversionSoftwareVersion": "v1.0.20220505",
  "DerivedVendorReportedEchoSpacing": 0.000560011,
  "DeviceSerialNumber": "167006",
  "DwellTime": 2.1e-06,
  "EchoTime": 0.037,
  "EchoTrainLength": 104,
  "EffectiveEchoSpacing": 0.000560011,
  "FlipAngle": 52,
  "HeudiconvVersion": "0.5.3.post811+g6206e14",
  "ImageComments": "Unaliased MB4/PE3/LB",
  "ImageOrientationPatientDICOM": [0.998714, 0.00370923, 0.0505703, 0.0231871, 0.85353, -0.520527],
  "ImageOrientationText": "Tra>Cor(-31.4)>Sag(2.6)",
  "ImageType": [
    "ORIGINAL",
    "PRIMARY",
    "M",
    "MB",
    "ND",
    "MOSAIC"
],
  "ImagingFrequency": 123.259,
  "InPlanePhaseEncodingDirectionDICOM": "COL",
  "InstitutionAddress": "Chemin Queen-Mary 4565,Montreal,District,CA,H3W 1W5",
  "InstitutionName": "IUGM",
  "InstitutionalDepartmentName": "Department",
  "MRAcquisitionType": "2D",
  "MagneticFieldStrength": 3,
  "Manufacturer": "Siemens",
  "ManufacturersModelName": "Prisma_fit",
  "MatrixCoilMode": "SENSE",
  "Modality": "MR",
  "MultibandAccelerationFactor": 4,
  "PartialFourier": 1,
  "PatientPosition": "HFS",
  "PercentPhaseFOV": 100,
  "PercentSampling": 100,
  "PhaseEncodingDirection": "j",
  "PhaseEncodingSteps": 104,
  "PhaseResolution": 1,
  "PixelBandwidth": 2290,
  "ProcedureStepDescription": "games^mario3",
  "ProtocolName": "func_task-mario3_run-04",
  "PulseSequenceDetails": "%CustomerSeq%\\cmrr_mbep2d_bold",
  "ReceiveCoilActiveElements": "HC1-7;NC1,2",
  "ReceiveCoilName": "HeadNeck_64",
  "ReconMatrixPE": 104,
  "RepetitionTime": 1.49,
  "SAR": 0.0564705,
  "ScanOptions": "FS",
  "ScanningSequence": "EP",
  "SequenceName": "epfid2d1_104",
  "SequenceVariant": "SK\\SS",
  "SeriesDescription": "func_task-mario3_run-04",
  "SeriesNumber": 19,
  "ShimSetting": [624, -7178, -8864, 275, 44, -177, -50, 17],
  "SliceThickness": 2,
  "SliceTiming": [0, 0.7825, 0.0975, 0.8825, 0.195, 0.98, 0.2925, 1.0775, 0.3925, 1.175, 0.49, 1.2725, 0.5875, 1.3725, 0.685, 0, 0.7825, 0.0975, 0.8825, 0.195, 0.98, 0.2925, 1.0775, 0.3925, 1.175, 0.49, 1.2725, 0.5875, 1.3725, 0.685, 0, 0.7825, 0.0975, 0.8825, 0.195, 0.98, 0.2925, 1.0775, 0.3925, 1.175, 0.49, 1.2725, 0.5875, 1.3725, 0.685, 0, 0.7825, 0.0975, 0.8825, 0.195, 0.98, 0.2925, 1.0775, 0.3925, 1.175, 0.49, 1.2725, 0.5875, 1.3725, 0.685],
  "SoftwareVersions": "syngo MR E11",
  "SpacingBetweenSlices": 2,
  "StationName": "MRC35049",
  "TaskName": "mario3",
  "TotalReadoutTime": 0.0576811,
  "TxRefAmp": 276.172,
  "WipMemBlock": "331b7e7d-8560-4d15-bc96-dac853911540||Sequence: R017 ve11c/master r/75a17815+; Jun 28 2022 16:32:11 by eja",
  "dcmmeta_affine": [
    [-1.997427225112915, 0.04637422785162926, 0.0901881605386734, 103.13511657714844],
    [-0.007418454624712467, 1.7070608139038086, -1.0420596599578857, -49.934730529785156],
    [0.10114069283008575, 1.0410537719726562, 1.7046928405761719, -102.40422821044922],
    [0.0, 0.0, 0.0, 1.0]
],
  "dcmmeta_reorient_transform": [
    [0.0, -1.0, 0.0, 103.0],
    [1.0, 0.0, 0.0, 0.0],
    [0.0, 0.0, 1.0, 0.0],
    [0.0, 0.0, 0.0, 1.0]
],
  "dcmmeta_shape": [104, 104, 60, 317],
  "dcmmeta_slice_dim": 2,
  "dcmmeta_version": 0.6,
  "global": {
    "const": {
      "AcquisitionMatrix": [104, 0, 0, 104],
      "AngioFlag": "N",
      "BitsAllocated": 16,
      "BitsStored": 16,
      "BodyPartExamined": "BRAIN",
      "Columns": 832,
      "EchoNumbers": 1,
      "EchoTime": 37.0,
      "EchoTrainLength": 104,
      "FlipAngle": 52.0,
      "HighBit": 15,
      "ImageOrientationPatient": [0.9987136133941, 0.00370922741876, 0.050570347569, 0.02318711418637, 0.85353039275255, -0.520526873834],
      "ImagePositionPatient": [-851.85538860138, -749.96297274717, 346.95265950334],
      "ImageType": [
        "ORIGINAL",
        "PRIMARY",
        "M",
        "MB",
        "ND",
        "MOSAIC"
],
      "ImagedNucleus": "1H",
      "ImagingFrequency": 123.25882,
      "InPlanePhaseEncodingDirection": "COL",
      "MRAcquisitionType": "2D",
      "MagneticFieldStrength": 3.0,
      "Manufacturer": "SIEMENS",
      "ManufacturerModelName": "Prisma_fit",
      "Modality": "MR",
      "NumberOfAverages": 1.0,
      "NumberOfPhaseEncodingSteps": 104,
      "PercentPhaseFieldOfView": 100.0,
      "PercentSampling": 100.0,
      "PerformedProcedureStepStartTime": "161315.250000",
      "PhotometricInterpretation": "MONOCHROME2",
      "PixelBandwidth": 2290.0,
      "PixelRepresentation": 0,
      "PixelSpacing": [2.0, 2.0],
      "ProtocolName": "func_task-mario3_run-04",
      "RepetitionTime": 1490.0,
      "Rows": 832,
      "SAR": 0.05647046757033,
      "SamplesPerPixel": 1,
      "ScanOptions": "FS",
      "ScanningSequence": "EP",
      "SequenceName": "epfid2d1_104",
      "SequenceVariant": [
        "SK",
        "SS"
],
      "SeriesDescription": "func_task-mario3_run-04",
      "SeriesNumber": 19,
      "SeriesTime": "164601.468000",
      "SliceLocation": -56.615607256398,
      "SliceThickness": 2.0,
      "SmallestImagePixelValue": 0,
      "SoftwareVersions": "syngo MR E11",
      "SpacingBetweenSlices": 2.0000000105269,
      "SpecificCharacterSet": "ISO_IR 100",
      "StudyID": "1",
      "StudyTime": "161315.164000",
      "TransmitCoilName": "Body",
      "VariableFlipAngleFlag": "N",
      "WindowCenterWidthExplanation": "Algo1",
      "dBdt": 0.0},
    "slices": {}
  },
  "time": {
    "samples": {
      "AcquisitionNumber": [1, 2, 3, 4, 5, 6, 7, 8, 9, 10, 11, 12, 13, 14, 15, 16, 17, 18, 19, 20, 21, 22, 23, 24, 25, 26, 27, 28, 29, 30, 31, 32, 33, 34, 35, 36, 37, 38, 39, 40, 41, 42, 43, 44, 45, 46, 47, 48, 49, 50, 51, 52, 53, 54, 55, 56, 57, 58, 59, 60, 61, 62, 63, 64, 65, 66, 67, 68, 69, 70, 71, 72, 73, 74, 75, 76, 77, 78, 79, 80, 81, 82, 83, 84, 85, 86, 87, 88, 89, 90, 91, 92, 93, 94, 95, 96, 97, 98, 99, 100, 101, 102, 103, 104, 105, 106, 107, 108, 109, 110, 111, 112, 113, 114, 115, 116, 117, 118, 119, 120, 121, 122, 123, 124, 125, 126, 127, 128, 129, 130, 131, 132, 133, 134, 135, 136, 137, 138, 139, 140, 141, 142, 143, 144, 145, 146, 147, 148, 149, 150, 151, 152, 153, 154, 155, 156, 157, 158, 159, 160, 161, 162, 163, 164, 165, 166, 167, 168, 169, 170, 171, 172, 173, 174, 175, 176, 177, 178, 179, 180, 181, 182, 183, 184, 185, 186, 187, 188, 189, 190, 191, 192, 193, 194, 195, 196, 197, 198, 199, 200, 201, 202, 203, 204, 205, 206, 207, 208, 209, 210, 211, 212, 213, 214, 215, 216, 217, 218, 219, 220, 221, 222, 223, 224, 225, 226, 227, 228, 229, 230, 231, 232, 233, 234, 235, 236, 237, 238, 239, 240, 241, 242, 243, 244, 245, 246, 247, 248, 249, 250, 251, 252, 253, 254, 255, 256, 257, 258, 259, 260, 261, 262, 263, 264, 265, 266, 267, 268, 269, 270, 271, 272, 273, 274, 275, 276, 277, 278, 279, 280, 281, 282, 283, 284, 285, 286, 287, 288, 289, 290, 291, 292, 293, 294, 295, 296, 297, 298, 299, 300, 301, 302, 303, 304, 305, 306, 307, 308, 309, 310, 311, 312, 313, 314, 315, 316, 317],
      "AcquisitionTime": ["164450.992500", "164452.482500", "164453.972500", "164455.462500", "164456.952500", "164458.442500", "164459.932500", "164501.422500", "164502.912500", "164504.402500", "164505.892500", "164507.382500", "164508.872500", "164510.362500", "164511.852500", "164513.342500", "164514.832500", "164516.322500", "164517.812500", "164519.302500", "164520.792500", "164522.282500", "164523.772500", "164525.262500", "164526.752500", "164528.242500", "164529.732500", "164531.222500", "164532.712500", "164534.202500", "164535.692500", "164537.182500", "164538.672500", "164540.162500", "164541.652500", "164543.142500", "164544.632500", "164546.122500", "164547.612500", "164549.102500", "164550.592500", "164552.082500", "164553.572500", "164555.062500", "164556.552500", "164558.042500", "164559.532500", "164601.022500", "164602.512500", "164604.002500", "164605.492500", "164606.982500", "164608.472500", "164609.962500", "164611.452500", "164612.942500", "164614.432500", "164615.922500", "164617.412500", "164618.902500", "164620.392500", "164621.882500", "164623.372500", "164624.862500", "164626.352500", "164627.842500", "164629.332500", "164630.822500", "164632.312500", "164633.802500", "164635.292500", "164636.782500", "164638.272500", "164639.762500", "164641.252500", "164642.742500", "164644.232500", "164645.722500", "164647.212500", "164648.702500", "164650.192500", "164651.682500", "164653.172500", "164654.662500", "164656.152500", "164657.642500", "164659.132500", "164700.622500", "164702.112500", "164703.602500", "164705.092500", "164706.582500", "164708.072500", "164709.562500", "164711.052500", "164712.542500", "164714.032500", "164715.522500", "164717.012500", "164718.502500", "164719.992500", "164721.482500", "164722.972500", "164724.462500", "164725.952500", "164727.442500", "164728.932500", "164730.422500", "164731.912500", "164733.402500", "164734.892500", "164736.382500", "164737.872500", "164739.362500", "164740.852500", "164742.342500", "164743.832500", "164745.322500", "164746.812500", "164748.302500", "164749.792500", "164751.282500", "164752.772500", "164754.262500", "164755.752500", "164757.242500", "164758.732500", "164800.222500", "164801.712500", "164803.202500", "164804.692500", "164806.182500", "164807.672500", "164809.162500", "164810.652500", "164812.142500", "164813.632500", "164815.122500", "164816.612500", "164818.102500", "164819.592500", "164821.082500", "164822.572500", "164824.062500", "164825.552500", "164827.042500", "164828.532500", "164830.022500", "164831.512500", "164833.002500", "164834.492500", "164835.982500", "164837.472500", "164838.962500", "164840.452500", "164841.942500", "164843.432500", "164844.922500", "164846.412500", "164847.902500", "164849.392500", "164850.882500", "164852.372500", "164853.862500", "164855.352500", "164856.842500", "164858.332500", "164859.822500", "164901.312500", "164902.802500", "164904.292500", "164905.782500", "164907.272500", "164908.762500", "164910.252500", "164911.742500", "164913.232500", "164914.722500", "164916.212500", "164917.702500", "164919.192500", "164920.682500", "164922.172500", "164923.662500", "164925.152500", "164926.642500", "164928.132500", "164929.622500", "164931.112500", "164932.602500", "164934.092500", "164935.582500", "164937.072500", "164938.562500", "164940.052500", "164941.542500", "164943.032500", "164944.522500", "164946.012500", "164947.502500", "164948.992500", "164950.482500", "164951.972500", "164953.462500", "164954.952500", "164956.442500", "164957.932500", "164959.422500", "165000.912500", "165002.402500", "165003.892500", "165005.382500", "165006.872500", "165008.362500", "165009.852500", "165011.342500", "165012.832500", "165014.322500", "165015.812500", "165017.302500", "165018.792500", "165020.282500", "165021.772500", "165023.262500", "165024.752500", "165026.242500", "165027.732500", "165029.222500", "165030.712500", "165032.202500", "165033.692500", "165035.182500", "165036.672500", "165038.162500", "165039.652500", "165041.142500", "165042.632500", "165044.122500", "165045.612500", "165047.102500", "165048.592500", "165050.082500", "165051.572500", "165053.062500", "165054.552500", "165056.042500", "165057.532500", "165059.022500", "165100.512500", "165102.002500", "165103.492500", "165104.982500", "165106.472500", "165107.962500", "165109.452500", "165110.942500", "165112.432500", "165113.922500", "165115.412500", "165116.902500", "165118.392500", "165119.882500", "165121.372500", "165122.862500", "165124.352500", "165125.842500", "165127.332500", "165128.822500", "165130.312500", "165131.802500", "165133.292500", "165134.782500", "165136.272500", "165137.762500", "165139.252500", "165140.742500", "165142.232500", "165143.722500", "165145.212500", "165146.702500", "165148.192500", "165149.682500", "165151.172500", "165152.662500", "165154.152500", "165155.642500", "165157.132500", "165158.622500", "165200.112500", "165201.602500", "165203.092500", "165204.582500", "165206.072500", "165207.562500", "165209.052500", "165210.542500", "165212.032500", "165213.522500", "165215.012500", "165216.502500", "165217.992500", "165219.482500", "165220.972500", "165222.462500", "165223.952500", "165225.442500", "165226.932500", "165228.422500", "165229.912500", "165231.402500", "165232.892500", "165234.382500", "165235.872500", "165237.362500", "165238.852500", "165240.342500", "165241.832500"],
      "ContentTime": ["164601.471000", "164601.475000", "164601.487000", "164601.490000", "164601.493000", "164601.497000", "164601.500000", "164601.503000", "164601.507000", "164601.510000", "164601.513000", "164601.516000", "164601.520000", "164601.523000", "164601.526000", "164601.530000", "164601.533000", "164601.536000", "164601.540000", "164601.544000", "164621.432000", "164621.436000", "164621.439000", "164621.442000", "164621.445000", "164621.449000", "164621.452000", "164621.455000", "164621.459000", "164621.462000", "164621.465000", "164621.468000", "164621.471000", "164621.475000", "164621.478000", "164621.481000", "164621.485000", "164621.488000", "164621.491000", "164621.494000", "164621.498000", "164641.432000", "164641.436000", "164641.439000", "164641.442000", "164641.445000", "164641.449000", "164641.452000", "164641.455000", "164641.458000", "164641.462000", "164641.465000", "164641.468000", "164641.472000", "164641.475000", "164641.478000", "164641.481000", "164641.485000", "164641.488000", "164641.491000", "164641.494000", "164701.431000", "164701.435000", "164701.438000", "164701.441000", "164701.445000", "164701.448000", "164701.451000", "164701.454000", "164701.457000", "164701.461000", "164701.464000", "164701.467000", "164701.470000", "164701.474000", "164701.477000", "164701.480000", "164701.483000", "164701.487000", "164701.490000", "164701.493000", "164741.432000", "164741.436000", "164741.452000", "164741.455000", "164741.459000", "164741.463000", "164741.466000", "164741.469000", "164741.473000", "164741.476000", "164741.479000", "164741.482000", "164741.486000", "164741.489000", "164741.492000", "164741.495000", "164741.499000", "164741.502000", "164741.505000", "164741.509000", "164741.512000", "164741.515000", "164741.519000", "164741.522000", "164741.525000", "164741.529000", "164741.532000", "164741.535000", "164741.546000", "164741.549000", "164741.553000", "164741.556000", "164821.432000", "164821.436000", "164821.439000", "164821.442000", "164821.446000", "164821.449000", "164821.452000", "164821.456000", "164821.459000", "164821.462000", "164821.465000", "164821.469000", "164821.472000", "164821.475000", "164821.478000", "164821.482000", "164821.485000", "164821.488000", "164821.492000", "164821.495000", "164821.498000", "164821.501000", "164821.505000", "164821.508000", "164821.511000", "164821.514000", "164821.518000", "164901.432000", "164901.436000", "164901.439000", "164901.442000", "164901.446000", "164901.449000", "164901.452000", "164901.456000", "164901.459000", "164901.462000", "164901.465000", "164901.469000", "164901.472000", "164901.475000", "164901.479000", "164901.490000", "164901.493000", "164901.496000", "164901.500000", "164901.503000", "164901.506000", "164901.509000", "164901.513000", "164901.516000", "164901.519000", "164901.522000", "164901.526000", "164941.431000", "164941.435000", "164941.438000", "164941.441000", "164941.445000", "164941.448000", "164941.451000", "164941.455000", "164941.458000", "164941.461000", "164941.464000", "164941.468000", "164941.471000", "164941.474000", "164941.478000", "164941.481000", "164941.484000", "164941.487000", "164941.491000", "164941.494000", "164941.497000", "164941.501000", "164941.504000", "164941.516000", "164941.519000", "164941.522000", "164941.526000", "165021.432000", "165021.436000", "165021.439000", "165021.442000", "165021.446000", "165021.449000", "165021.452000", "165021.456000", "165021.459000", "165021.462000", "165021.466000", "165021.469000", "165021.472000", "165021.475000", "165021.479000", "165021.482000", "165021.485000", "165021.489000", "165021.492000", "165021.495000", "165021.498000", "165021.502000", "165021.505000", "165021.508000", "165021.512000", "165021.515000", "165021.518000", "165101.432000", "165101.436000", "165101.439000", "165101.442000", "165101.446000", "165101.449000", "165101.452000", "165101.455000", "165101.459000", "165101.462000", "165101.465000", "165101.469000", "165101.472000", "165101.475000", "165101.479000", "165101.482000", "165101.485000", "165101.488000", "165101.491000", "165101.495000", "165101.498000", "165101.501000", "165101.505000", "165101.508000", "165101.511000", "165101.514000", "165101.518000", "165141.431000", "165141.435000", "165141.438000", "165141.441000", "165141.445000", "165141.448000", "165141.451000", "165141.455000", "165141.458000", "165141.461000", "165141.465000", "165141.468000", "165141.471000", "165141.475000", "165141.479000", "165141.482000", "165141.486000", "165141.489000", "165141.493000", "165141.496000", "165141.500000", "165141.504000", "165141.507000", "165141.510000", "165141.513000", "165141.517000", "165221.432000", "165221.436000", "165221.439000", "165221.443000", "165221.446000", "165221.462000", "165221.466000", "165221.469000", "165221.472000", "165221.475000", "165221.479000", "165221.482000", "165221.485000", "165221.489000", "165221.492000", "165221.495000", "165221.498000", "165221.502000", "165221.505000", "165221.508000", "165221.511000", "165221.515000", "165221.518000", "165221.521000", "165221.525000", "165221.528000", "165221.531000", "165244.791000", "165244.795000", "165244.798000", "165244.802000", "165244.805000", "165244.808000", "165244.811000", "165244.815000", "165244.818000", "165244.821000", "165244.824000", "165244.828000", "165244.831000", "165244.834000", "165244.838000", "165244.841000"],
      "InstanceCreationTime": ["164601.471000", "164601.475000", "164601.487000", "164601.490000", "164601.493000", "164601.497000", "164601.500000", "164601.503000", "164601.507000", "164601.510000", "164601.513000", "164601.516000", "164601.520000", "164601.523000", "164601.526000", "164601.530000", "164601.533000", "164601.536000", "164601.540000", "164601.544000", "164621.432000", "164621.436000", "164621.439000", "164621.442000", "164621.445000", "164621.449000", "164621.452000", "164621.455000", "164621.459000", "164621.462000", "164621.465000", "164621.468000", "164621.471000", "164621.475000", "164621.478000", "164621.481000", "164621.485000", "164621.488000", "164621.491000", "164621.494000", "164621.498000", "164641.432000", "164641.436000", "164641.439000", "164641.442000", "164641.445000", "164641.449000", "164641.452000", "164641.455000", "164641.458000", "164641.462000", "164641.465000", "164641.468000", "164641.472000", "164641.475000", "164641.478000", "164641.481000", "164641.485000", "164641.488000", "164641.491000", "164641.494000", "164701.431000", "164701.435000", "164701.438000", "164701.441000", "164701.445000", "164701.448000", "164701.451000", "164701.454000", "164701.457000", "164701.461000", "164701.464000", "164701.467000", "164701.470000", "164701.474000", "164701.477000", "164701.480000", "164701.483000", "164701.487000", "164701.490000", "164701.493000", "164741.432000", "164741.436000", "164741.452000", "164741.455000", "164741.459000", "164741.463000", "164741.466000", "164741.469000", "164741.473000", "164741.476000", "164741.479000", "164741.482000", "164741.486000", "164741.489000", "164741.492000", "164741.495000", "164741.499000", "164741.502000", "164741.505000", "164741.509000", "164741.512000", "164741.515000", "164741.519000", "164741.522000", "164741.525000", "164741.529000", "164741.532000", "164741.535000", "164741.546000", "164741.549000", "164741.553000", "164741.556000", "164821.432000", "164821.436000", "164821.439000", "164821.442000", "164821.446000", "164821.449000", "164821.452000", "164821.456000", "164821.459000", "164821.462000", "164821.465000", "164821.469000", "164821.472000", "164821.475000", "164821.478000", "164821.482000", "164821.485000", "164821.488000", "164821.492000", "164821.495000", "164821.498000", "164821.501000", "164821.505000", "164821.508000", "164821.511000", "164821.514000", "164821.518000", "164901.432000", "164901.436000", "164901.439000", "164901.442000", "164901.446000", "164901.449000", "164901.452000", "164901.456000", "164901.459000", "164901.462000", "164901.465000", "164901.469000", "164901.472000", "164901.475000", "164901.479000", "164901.490000", "164901.493000", "164901.496000", "164901.500000", "164901.503000", "164901.506000", "164901.509000", "164901.513000", "164901.516000", "164901.519000", "164901.522000", "164901.526000", "164941.431000", "164941.435000", "164941.438000", "164941.441000", "164941.445000", "164941.448000", "164941.451000", "164941.455000", "164941.458000", "164941.461000", "164941.464000", "164941.468000", "164941.471000", "164941.474000", "164941.478000", "164941.481000", "164941.484000", "164941.487000", "164941.491000", "164941.494000", "164941.497000", "164941.501000", "164941.504000", "164941.516000", "164941.519000", "164941.522000", "164941.526000", "165021.432000", "165021.436000", "165021.439000", "165021.442000", "165021.446000", "165021.449000", "165021.452000", "165021.456000", "165021.459000", "165021.462000", "165021.466000", "165021.469000", "165021.472000", "165021.475000", "165021.479000", "165021.482000", "165021.485000", "165021.489000", "165021.492000", "165021.495000", "165021.498000", "165021.502000", "165021.505000", "165021.508000", "165021.512000", "165021.515000", "165021.518000", "165101.432000", "165101.436000", "165101.439000", "165101.442000", "165101.446000", "165101.449000", "165101.452000", "165101.455000", "165101.459000", "165101.462000", "165101.465000", "165101.469000", "165101.472000", "165101.475000", "165101.479000", "165101.482000", "165101.485000", "165101.488000", "165101.491000", "165101.495000", "165101.498000", "165101.501000", "165101.505000", "165101.508000", "165101.511000", "165101.514000", "165101.518000", "165141.431000", "165141.435000", "165141.438000", "165141.441000", "165141.445000", "165141.448000", "165141.451000", "165141.455000", "165141.458000", "165141.461000", "165141.465000", "165141.468000", "165141.471000", "165141.475000", "165141.479000", "165141.482000", "165141.486000", "165141.489000", "165141.493000", "165141.496000", "165141.500000", "165141.504000", "165141.507000", "165141.510000", "165141.513000", "165141.517000", "165221.432000", "165221.436000", "165221.439000", "165221.443000", "165221.446000", "165221.462000", "165221.466000", "165221.469000", "165221.472000", "165221.475000", "165221.479000", "165221.482000", "165221.485000", "165221.489000", "165221.492000", "165221.495000", "165221.498000", "165221.502000", "165221.505000", "165221.508000", "165221.511000", "165221.515000", "165221.518000", "165221.521000", "165221.525000", "165221.528000", "165221.531000", "165244.791000", "165244.795000", "165244.798000", "165244.802000", "165244.805000", "165244.808000", "165244.811000", "165244.815000", "165244.818000", "165244.821000", "165244.824000", "165244.828000", "165244.831000", "165244.834000", "165244.838000", "165244.841000"],
      "InstanceNumber": [1, 2, 3, 4, 5, 6, 7, 8, 9, 10, 11, 12, 13, 14, 15, 16, 17, 18, 19, 20, 21, 22, 23, 24, 25, 26, 27, 28, 29, 30, 31, 32, 33, 34, 35, 36, 37, 38, 39, 40, 41, 42, 43, 44, 45, 46, 47, 48, 49, 50, 51, 52, 53, 54, 55, 56, 57, 58, 59, 60, 61, 62, 63, 64, 65, 66, 67, 68, 69, 70, 71, 72, 73, 74, 75, 76, 77, 78, 79, 80, 81, 82, 83, 84, 85, 86, 87, 88, 89, 90, 91, 92, 93, 94, 95, 96, 97, 98, 99, 100, 101, 102, 103, 104, 105, 106, 107, 108, 109, 110, 111, 112, 113, 114, 115, 116, 117, 118, 119, 120, 121, 122, 123, 124, 125, 126, 127, 128, 129, 130, 131, 132, 133, 134, 135, 136, 137, 138, 139, 140, 141, 142, 143, 144, 145, 146, 147, 148, 149, 150, 151, 152, 153, 154, 155, 156, 157, 158, 159, 160, 161, 162, 163, 164, 165, 166, 167, 168, 169, 170, 171, 172, 173, 174, 175, 176, 177, 178, 179, 180, 181, 182, 183, 184, 185, 186, 187, 188, 189, 190, 191, 192, 193, 194, 195, 196, 197, 198, 199, 200, 201, 202, 203, 204, 205, 206, 207, 208, 209, 210, 211, 212, 213, 214, 215, 216, 217, 218, 219, 220, 221, 222, 223, 224, 225, 226, 227, 228, 229, 230, 231, 232, 233, 234, 235, 236, 237, 238, 239, 240, 241, 242, 243, 244, 245, 246, 247, 248, 249, 250, 251, 252, 253, 254, 255, 256, 257, 258, 259, 260, 261, 262, 263, 264, 265, 266, 267, 268, 269, 270, 271, 272, 273, 274, 275, 276, 277, 278, 279, 280, 281, 282, 283, 284, 285, 286, 287, 288, 289, 290, 291, 292, 293, 294, 295, 296, 297, 298, 299, 300, 301, 302, 303, 304, 305, 306, 307, 308, 309, 310, 311, 312, 313, 314, 315, 316, 317],
      "LargestImagePixelValue": [45716, 43431, 44367, 43163, 43269, 43412, 42769, 41802, 41472, 42096, 41176, 41517, 41552, 41045, 42916, 46065, 45326, 45007, 44082, 41684, 42099, 42853, 42415, 42370, 42362, 42212, 41678, 41398, 42064, 42456, 42053, 41934, 41441, 42142, 41675, 42066, 42352, 41527, 42403, 42654, 42080, 41594, 41642, 42108, 41438, 42646, 42669, 42604, 44089, 42817, 51489, 43282, 45005, 44650, 43750, 44938, 43976, 43804, 42871, 46417, 45233, 46085, 45710, 45625, 44679, 43101, 41915, 42487, 41560, 41724, 42408, 45737, 45413, 44775, 44639, 42670, 43354, 43648, 41692, 41721, 41466, 42645, 42744, 42320, 42907, 41653, 43054, 44034, 44702, 42417, 41785, 43996, 43099, 42238, 42982, 42185, 43242, 42939, 41732, 43021, 42187, 43121, 41429, 46689, 45417, 46655, 43714, 45177, 44837, 45814, 44946, 44364, 44487, 43812, 43169, 42970, 42630, 42212, 42713, 42401, 41590, 41555, 41439, 41191, 41303, 41241, 41818, 41237, 41823, 42910, 43974, 41522, 40947, 41801, 41140, 44885, 45470, 44611, 44873, 44673, 43081, 44452, 45095, 44162, 43802, 41335, 43240, 41911, 41205, 41343, 41799, 43867, 41249, 44491, 45019, 44987, 43778, 42423, 42711, 42148, 41760, 41534, 41222, 40524, 42253, 43847, 41761, 43298, 41651, 43403, 45622, 44626, 42056, 41913, 43003, 42103, 42106, 42310, 42163, 43359, 42612, 41613, 42404, 40968, 41308, 40966, 39911, 41063, 40464, 40752, 42453, 41703, 41264, 42265, 44042, 40980, 42697, 43027, 41824, 44193, 42022, 41988, 41375, 42296, 41935, 42580, 41131, 40715, 42237, 42288, 41990, 43306, 41901, 41705, 43134, 41498, 41055, 43585, 42152, 41679, 41781, 41692, 40915, 41424, 40599, 40775, 41063, 40162, 40227, 40770, 42089, 41690, 41467, 40901, 41948, 42138, 42399, 42082, 41896, 42246, 41452, 40624, 39843, 41253, 41770, 41454, 41170, 41304, 40690, 41324, 40515, 40879, 40706, 40281, 39946, 41043, 40607, 42492, 40625, 41237, 41345, 41637, 42091, 41630, 41952, 41412, 40428, 42580, 43391, 41647, 41272, 42481, 41045, 41625, 40146, 40835, 41857, 41139, 41239, 42859, 41363, 41890, 41993, 40891, 42028, 41977, 41950, 40650, 40882, 41111, 41424, 41106, 40060, 41920, 40778, 43110, 41764, 41363, 40571, 40527, 40658, 41761, 40794, 40954, 41260, 43371, 41686, 41201, 40883, 40683, 40654, 41382, 41589, 41796, 41437, 41035, 40846],
