{
  "AcquisitionMatrixPE": 104,
  "AcquisitionNumber": 1,
  "AcquisitionTime": "16:35:41.420000",
  "BandwidthPerPixelPhaseEncode": 17.17,
  "BaseResolution": 104,
  "BodyPartExamined": "BRAIN",
  "CoilCombinationMethod": "Sum of Squares",
  "ConsistencyInfo": "N4_VE11C_LATEST_20160120",
  "ConversionSoftware": "dcm2niix",
  "ConversionSoftwareVersion": "v1.0.20220505",
  "DerivedVendorReportedEchoSpacing": 0.000560011,
  "DeviceSerialNumber": "167006",
  "DwellTime": 2.1e-06,
  "EchoTime": 0.037,
  "EchoTime1": 0.037,
  "EchoTime2": 0.001,
  "EchoTrainLength": 104,
  "EffectiveEchoSpacing": 0.000560011,
  "FlipAngle": 52,
  "HeudiconvVersion": "0.5.3.post811+g6206e14",
  "ImageComments": "Unaliased MB4/PE3/LB",
  "ImageOrientationPatientDICOM": [0.998714, 0.00370923, 0.0505703, 0.0231871, 0.85353, -0.520527],
  "ImageOrientationText": "Tra>Cor(-31.4)>Sag(2.6)",
  "ImageType": [
    "ORIGINAL",
    "PRIMARY",
    "P",
    "MB",
    "ND",
    "MOSAIC",
    "PHASE"
],
  "ImagingFrequency": 123.259,
  "InPlanePhaseEncodingDirectionDICOM": "COL",
  "InstitutionAddress": "Chemin Queen-Mary 4565,Montreal,District,CA,H3W 1W5",
  "InstitutionName": "IUGM",
  "InstitutionalDepartmentName": "Department",
  "MRAcquisitionType": "2D",
  "MagneticFieldStrength": 3,
  "Manufacturer": "Siemens",
  "ManufacturersModelName": "Prisma_fit",
  "MatrixCoilMode": "SENSE",
  "Modality": "MR",
  "MultibandAccelerationFactor": 4,
  "PartialFourier": 1,
  "PatientPosition": "HFS",
  "PercentPhaseFOV": 100,
  "PercentSampling": 100,
  "PhaseEncodingDirection": "j",
  "PhaseEncodingSteps": 104,
  "PhaseResolution": 1,
  "PixelBandwidth": 2290,
  "ProcedureStepDescription": "games^mario3",
  "ProtocolName": "func_task-mario3_run-03",
  "PulseSequenceDetails": "%CustomerSeq%\\cmrr_mbep2d_bold",
  "ReceiveCoilActiveElements": "HC1-7;NC1,2",
  "ReceiveCoilName": "HeadNeck_64",
  "ReconMatrixPE": 104,
  "RepetitionTime": 1.49,
  "SAR": 0.0564705,
  "ScanOptions": "FS",
  "ScanningSequence": "EP",
  "SequenceName": "epfid2d1_104",
  "SequenceVariant": "SK\\SS",
  "SeriesDescription": "func_task-mario3_run-03",
  "SeriesNumber": 17,
  "ShimSetting": [624, -7178, -8864, 275, 44, -177, -50, 17],
  "SliceThickness": 2,
  "SliceTiming": [0, 0.785, 0.0975, 0.8825, 0.1975, 0.98, 0.295, 1.0775, 0.3925, 1.1775, 0.49, 1.275, 0.5875, 1.3725, 0.6875, 0, 0.785, 0.0975, 0.8825, 0.1975, 0.98, 0.295, 1.0775, 0.3925, 1.1775, 0.49, 1.275, 0.5875, 1.3725, 0.6875, 0, 0.785, 0.0975, 0.8825, 0.1975, 0.98, 0.295, 1.0775, 0.3925, 1.1775, 0.49, 1.275, 0.5875, 1.3725, 0.6875, 0, 0.785, 0.0975, 0.8825, 0.1975, 0.98, 0.295, 1.0775, 0.3925, 1.1775, 0.49, 1.275, 0.5875, 1.3725, 0.6875],
  "SoftwareVersions": "syngo MR E11",
  "SpacingBetweenSlices": 2,
  "StationName": "MRC35049",
  "TaskName": "mario3",
  "TotalReadoutTime": 0.0576811,
  "TxRefAmp": 276.172,
  "WipMemBlock": "304ab512-de31-4752-842f-41f6d65314d2||Sequence: R017 ve11c/master r/75a17815+; Jun 28 2022 16:32:11 by eja",
  "dcmmeta_affine": [
    [-1.997427225112915, 0.04637422785162926, 0.0901881605386734, 103.13511657714844],
    [-0.007418454624712467, 1.7070608139038086, -1.0420596599578857, -49.934730529785156],
    [0.10114069283008575, 1.0410537719726562, 1.7046928405761719, -102.40422821044922],
    [0.0, 0.0, 0.0, 1.0]
],
  "dcmmeta_reorient_transform": [
    [0.0, -1.0, 0.0, 103.0],
    [1.0, 0.0, 0.0, 0.0],
    [0.0, 0.0, 1.0, 0.0],
    [0.0, 0.0, 0.0, 1.0]
],
  "dcmmeta_shape": [104, 104, 60, 316],
  "dcmmeta_slice_dim": 2,
  "dcmmeta_version": 0.6,
  "global": {
    "const": {
      "AcquisitionMatrix": [104, 0, 0, 104],
      "AngioFlag": "N",
      "BitsAllocated": 16,
      "BitsStored": 16,
      "BodyPartExamined": "BRAIN",
      "Columns": 832,
      "EchoNumbers": 1,
      "EchoTime": 37.0,
      "EchoTrainLength": 104,
      "FlipAngle": 52.0,
      "HighBit": 15,
      "ImageOrientationPatient": [0.9987136133941, 0.00370922741876, 0.050570347569, 0.02318711418637, 0.85353039275255, -0.520526873834],
      "ImagePositionPatient": [-851.85538860138, -749.96297274717, 346.95265950334],
      "ImageType": [
        "ORIGINAL",
        "PRIMARY",
        "P",
        "MB",
        "ND",
        "MOSAIC"
],
      "ImagedNucleus": "1H",
      "ImagingFrequency": 123.25882,
      "InPlanePhaseEncodingDirection": "COL",
      "LargestImagePixelValue": 4095,
      "MRAcquisitionType": "2D",
      "MagneticFieldStrength": 3.0,
      "Manufacturer": "SIEMENS",
      "ManufacturerModelName": "Prisma_fit",
      "Modality": "MR",
      "NumberOfAverages": 1.0,
      "NumberOfPhaseEncodingSteps": 104,
      "PercentPhaseFieldOfView": 100.0,
      "PercentSampling": 100.0,
      "PerformedProcedureStepStartTime": "161315.250000",
      "PhotometricInterpretation": "MONOCHROME2",
      "PixelBandwidth": 2290.0,
      "PixelRepresentation": 0,
      "PixelSpacing": [2.0, 2.0],
      "ProtocolName": "func_task-mario3_run-03",
      "RepetitionTime": 1490.0,
      "RescaleIntercept": -4096.0,
      "RescaleSlope": 2.0,
      "RescaleType": "US",
      "Rows": 832,
      "SAR": 0.05647046757033,
      "SamplesPerPixel": 1,
      "ScanOptions": "FS",
      "ScanningSequence": "EP",
      "SequenceName": "epfid2d1_104",
      "SequenceVariant": [
        "SK",
        "SS"
],
      "SeriesDescription": "func_task-mario3_run-03",
      "SeriesNumber": 17,
      "SeriesTime": "163641.164000",
      "SliceLocation": -56.615607256398,
      "SliceThickness": 2.0,
      "SmallestImagePixelValue": 0,
      "SoftwareVersions": "syngo MR E11",
      "SpacingBetweenSlices": 2.0000000105269,
      "SpecificCharacterSet": "ISO_IR 100",
      "StudyID": "1",
      "StudyTime": "161315.164000",
      "TransmitCoilName": "Body",
      "VariableFlipAngleFlag": "N",
      "WindowCenterWidthExplanation": "Algo1",
      "dBdt": 0.0},
    "slices": {}
  },
  "time": {
    "samples": {
      "AcquisitionNumber": [1, 2, 3, 4, 5, 6, 7, 8, 9, 10, 11, 12, 13, 14, 15, 16, 17, 18, 19, 20, 21, 22, 23, 24, 25, 26, 27, 28, 29, 30, 31, 32, 33, 34, 35, 36, 37, 38, 39, 40, 41, 42, 43, 44, 45, 46, 47, 48, 49, 50, 51, 52, 53, 54, 55, 56, 57, 58, 59, 60, 61, 62, 63, 64, 65, 66, 67, 68, 69, 70, 71, 72, 73, 74, 75, 76, 77, 78, 79, 80, 81, 82, 83, 84, 85, 86, 87, 88, 89, 90, 91, 92, 93, 94, 95, 96, 97, 98, 99, 100, 101, 102, 103, 104, 105, 106, 107, 108, 109, 110, 111, 112, 113, 114, 115, 116, 117, 118, 119, 120, 121, 122, 123, 124, 125, 126, 127, 128, 129, 130, 131, 132, 133, 134, 135, 136, 137, 138, 139, 140, 141, 142, 143, 144, 145, 146, 147, 148, 149, 150, 151, 152, 153, 154, 155, 156, 157, 158, 159, 160, 161, 162, 163, 164, 165, 166, 167, 168, 169, 170, 171, 172, 173, 174, 175, 176, 177, 178, 179, 180, 181, 182, 183, 184, 185, 186, 187, 188, 189, 190, 191, 192, 193, 194, 195, 196, 197, 198, 199, 200, 201, 202, 203, 204, 205, 206, 207, 208, 209, 210, 211, 212, 213, 214, 215, 216, 217, 218, 219, 220, 221, 222, 223, 224, 225, 226, 227, 228, 229, 230, 231, 232, 233, 234, 235, 236, 237, 238, 239, 240, 241, 242, 243, 244, 245, 246, 247, 248, 249, 250, 251, 252, 253, 254, 255, 256, 257, 258, 259, 260, 261, 262, 263, 264, 265, 266, 267, 268, 269, 270, 271, 272, 273, 274, 275, 276, 277, 278, 279, 280, 281, 282, 283, 284, 285, 286, 287, 288, 289, 290, 291, 292, 293, 294, 295, 296, 297, 298, 299, 300, 301, 302, 303, 304, 305, 306, 307, 308, 309, 310, 311, 312, 313, 314, 315, 316],
      "AcquisitionTime": ["163541.420000", "163542.910000", "163544.400000", "163545.890000", "163547.380000", "163548.870000", "163550.360000", "163551.850000", "163553.340000", "163554.830000", "163556.320000", "163557.810000", "163559.300000", "163600.790000", "163602.280000", "163603.770000", "163605.260000", "163606.750000", "163608.240000", "163609.730000", "163611.220000", "163612.710000", "163614.200000", "163615.690000", "163617.180000", "163618.670000", "163620.160000", "163621.650000", "163623.140000", "163624.630000", "163626.120000", "163627.610000", "163629.100000", "163630.590000", "163632.080000", "163633.570000", "163635.060000", "163636.550000", "163638.040000", "163639.530000", "163641.020000", "163642.510000", "163644.000000", "163645.490000", "163646.980000", "163648.470000", "163649.960000", "163651.450000", "163652.940000", "163654.430000", "163655.920000", "163657.410000", "163658.900000", "163700.390000", "163701.880000", "163703.370000", "163704.860000", "163706.350000", "163707.840000", "163709.330000", "163710.820000", "163712.310000", "163713.800000", "163715.290000", "163716.780000", "163718.270000", "163719.760000", "163721.250000", "163722.740000", "163724.230000", "163725.720000", "163727.210000", "163728.700000", "163730.190000", "163731.680000", "163733.170000", "163734.660000", "163736.150000", "163737.640000", "163739.130000", "163740.620000", "163742.110000", "163743.600000", "163745.090000", "163746.580000", "163748.070000", "163749.560000", "163751.050000", "163752.540000", "163754.030000", "163755.520000", "163757.010000", "163758.500000", "163759.990000", "163801.480000", "163802.970000", "163804.460000", "163805.950000", "163807.440000", "163808.930000", "163810.420000", "163811.910000", "163813.400000", "163814.890000", "163816.380000", "163817.870000", "163819.360000", "163820.850000", "163822.340000", "163823.830000", "163825.320000", "163826.810000", "163828.300000", "163829.790000", "163831.280000", "163832.770000", "163834.260000", "163835.750000", "163837.240000", "163838.730000", "163840.220000", "163841.710000", "163843.200000", "163844.690000", "163846.180000", "163847.670000", "163849.160000", "163850.650000", "163852.140000", "163853.630000", "163855.120000", "163856.610000", "163858.100000", "163859.590000", "163901.080000", "163902.570000", "163904.060000", "163905.550000", "163907.040000", "163908.530000", "163910.020000", "163911.510000", "163913.000000", "163914.490000", "163915.980000", "163917.470000", "163918.960000", "163920.450000", "163921.940000", "163923.430000", "163924.920000", "163926.410000", "163927.900000", "163929.390000", "163930.880000", "163932.370000", "163933.860000", "163935.350000", "163936.840000", "163938.330000", "163939.820000", "163941.310000", "163942.800000", "163944.290000", "163945.780000", "163947.270000", "163948.760000", "163950.250000", "163951.740000", "163953.230000", "163954.720000", "163956.210000", "163957.700000", "163959.190000", "164000.680000", "164002.170000", "164003.660000", "164005.150000", "164006.640000", "164008.130000", "164009.620000", "164011.110000", "164012.600000", "164014.090000", "164015.580000", "164017.070000", "164018.560000", "164020.050000", "164021.540000", "164023.030000", "164024.520000", "164026.010000", "164027.500000", "164028.990000", "164030.480000", "164031.970000", "164033.460000", "164034.950000", "164036.440000", "164037.930000", "164039.420000", "164040.910000", "164042.400000", "164043.890000", "164045.380000", "164046.870000", "164048.360000", "164049.850000", "164051.340000", "164052.830000", "164054.320000", "164055.810000", "164057.300000", "164058.790000", "164100.280000", "164101.770000", "164103.260000", "164104.750000", "164106.240000", "164107.730000", "164109.220000", "164110.710000", "164112.200000", "164113.690000", "164115.180000", "164116.670000", "164118.160000", "164119.650000", "164121.140000", "164122.630000", "164124.120000", "164125.610000", "164127.100000", "164128.590000", "164130.080000", "164131.570000", "164133.060000", "164134.550000", "164136.040000", "164137.530000", "164139.020000", "164140.510000", "164142.000000", "164143.490000", "164144.980000", "164146.470000", "164147.960000", "164149.450000", "164150.940000", "164152.430000", "164153.920000", "164155.410000", "164156.900000", "164158.390000", "164159.880000", "164201.370000", "164202.860000", "164204.350000", "164205.840000", "164207.330000", "164208.820000", "164210.310000", "164211.800000", "164213.290000", "164214.780000", "164216.270000", "164217.760000", "164219.250000", "164220.740000", "164222.230000", "164223.720000", "164225.210000", "164226.700000", "164228.190000", "164229.680000", "164231.170000", "164232.660000", "164234.150000", "164235.640000", "164237.130000", "164238.620000", "164240.110000", "164241.600000", "164243.090000", "164244.580000", "164246.070000", "164247.560000", "164249.050000", "164250.540000", "164252.030000", "164253.520000", "164255.010000", "164256.500000", "164257.990000", "164259.480000", "164300.970000", "164302.460000", "164303.950000", "164305.440000", "164306.930000", "164308.420000", "164309.910000", "164311.400000", "164312.890000", "164314.380000", "164315.870000", "164317.360000", "164318.850000", "164320.340000", "164321.830000", "164323.320000", "164324.810000", "164326.300000", "164327.790000", "164329.280000", "164330.770000"],
      "ContentTime": ["163641.166000", "163641.169000", "163641.171000", "163641.174000", "163641.177000", "163641.179000", "163641.182000", "163641.184000", "163641.186000", "163641.189000", "163641.191000", "163701.170000", "163701.173000", "163701.175000", "163701.177000", "163701.180000", "163701.182000", "163701.185000", "163701.187000", "163701.194000", "163701.196000", "163701.199000", "163701.201000", "163701.204000", "163701.206000", "163701.209000", "163701.211000", "163701.214000", "163701.216000", "163701.219000", "163701.221000", "163721.141000", "163721.143000", "163721.146000", "163721.148000", "163721.151000", "163721.163000", "163721.165000", "163721.168000", "163721.170000", "163721.173000", "163721.175000", "163721.214000", "163721.217000", "163721.219000", "163721.221000", "163721.224000", "163721.226000", "163721.229000", "163721.231000", "163721.234000", "163741.151000", "163741.154000", "163741.156000", "163741.159000", "163741.161000", "163741.164000", "163741.166000", "163741.169000", "163741.171000", "163741.174000", "163741.176000", "163741.179000", "163741.181000", "163741.183000", "163741.186000", "163741.188000", "163741.191000", "163741.193000", "163741.196000", "163741.198000", "163741.201000", "163801.144000", "163801.147000", "163801.149000", "163801.152000", "163801.154000", "163801.157000", "163801.159000", "163801.162000", "163801.164000", "163801.166000", "163801.169000", "163801.171000", "163801.174000", "163801.176000", "163801.179000", "163801.181000", "163801.184000", "163801.186000", "163801.189000", "163801.191000", "163841.181000", "163841.184000", "163841.187000", "163841.189000", "163841.191000", "163841.194000", "163841.197000", "163841.199000", "163841.202000", "163841.204000", "163841.206000", "163841.209000", "163841.211000", "163841.214000", "163841.216000", "163841.219000", "163841.221000", "163841.224000", "163841.226000", "163841.229000", "163841.231000", "163841.234000", "163841.236000", "163841.239000", "163841.241000", "163841.244000", "163841.246000", "163841.248000", "163921.189000", "163921.191000", "163921.194000", "163921.196000", "163921.199000", "163921.201000", "163921.204000", "163921.206000", "163921.209000", "163921.211000", "163921.214000", "163921.216000", "163921.219000", "163921.221000", "163921.223000", "163921.226000", "163921.228000", "163921.231000", "163921.233000", "163921.236000", "163921.238000", "163921.241000", "163921.243000", "163921.246000", "163921.248000", "163921.250000", "163921.253000", "164001.211000", "164001.214000", "164001.216000", "164001.219000", "164001.221000", "164001.223000", "164001.226000", "164001.228000", "164001.231000", "164001.233000", "164001.236000", "164001.238000", "164001.241000", "164001.243000", "164001.245000", "164001.248000", "164001.250000", "164001.253000", "164001.255000", "164001.258000", "164001.260000", "164001.263000", "164001.265000", "164001.268000", "164001.270000", "164001.273000", "164001.275000", "164041.184000", "164041.187000", "164041.190000", "164041.192000", "164041.195000", "164041.198000", "164041.200000", "164041.203000", "164041.205000", "164041.208000", "164041.211000", "164041.213000", "164041.216000", "164041.218000", "164041.221000", "164041.223000", "164041.225000", "164041.228000", "164041.230000", "164041.233000", "164041.235000", "164041.238000", "164041.240000", "164041.243000", "164041.245000", "164041.247000", "164121.192000", "164121.195000", "164121.197000", "164121.200000", "164121.202000", "164121.205000", "164121.207000", "164121.210000", "164121.212000", "164121.215000", "164121.217000", "164121.219000", "164121.222000", "164121.224000", "164121.227000", "164121.229000", "164121.232000", "164121.234000", "164121.237000", "164121.239000", "164121.242000", "164121.244000", "164121.247000", "164121.249000", "164121.252000", "164121.254000", "164121.257000", "164201.189000", "164201.202000", "164201.204000", "164201.206000", "164201.209000", "164201.211000", "164201.214000", "164201.216000", "164201.219000", "164201.221000", "164201.223000", "164201.226000", "164201.228000", "164201.231000", "164201.233000", "164201.236000", "164201.238000", "164201.241000", "164201.243000", "164201.246000", "164201.248000", "164201.251000", "164201.253000", "164201.256000", "164201.258000", "164201.261000", "164201.263000", "164241.175000", "164241.178000", "164241.180000", "164241.183000", "164241.185000", "164241.188000", "164241.190000", "164241.193000", "164241.195000", "164241.198000", "164241.200000", "164241.203000", "164241.205000", "164241.208000", "164241.210000", "164241.213000", "164241.215000", "164241.218000", "164241.220000", "164241.223000", "164241.225000", "164241.228000", "164241.230000", "164241.232000", "164241.235000", "164241.238000", "164241.240000", "164321.190000", "164321.193000", "164321.195000", "164321.198000", "164321.200000", "164321.203000", "164321.205000", "164321.208000", "164321.210000", "164321.213000", "164321.215000", "164321.218000", "164321.220000", "164321.222000", "164321.225000", "164321.227000", "164321.230000", "164321.232000", "164321.235000", "164321.237000", "164321.240000", "164321.242000", "164321.245000", "164321.247000", "164321.250000", "164321.252000", "164321.255000", "164332.860000", "164332.862000", "164332.865000", "164332.867000", "164332.870000", "164332.872000", "164332.875000", "164332.878000"],
      "InstanceCreationTime": ["163641.166000", "163641.169000", "163641.171000", "163641.174000", "163641.177000", "163641.179000", "163641.182000", "163641.184000", "163641.186000", "163641.189000", "163641.191000", "163701.170000", "163701.173000", "163701.175000", "163701.177000", "163701.180000", "163701.182000", "163701.185000", "163701.187000", "163701.194000", "163701.196000", "163701.199000", "163701.201000", "163701.204000", "163701.206000", "163701.209000", "163701.211000", "163701.214000", "163701.216000", "163701.219000", "163701.221000", "163721.141000", "163721.143000", "163721.146000", "163721.148000", "163721.151000", "163721.163000", "163721.165000", "163721.168000", "163721.170000", "163721.173000", "163721.175000", "163721.214000", "163721.217000", "163721.219000", "163721.221000", "163721.224000", "163721.226000", "163721.229000", "163721.231000", "163721.234000", "163741.151000", "163741.154000", "163741.156000", "163741.159000", "163741.161000", "163741.164000", "163741.166000", "163741.169000", "163741.171000", "163741.174000", "163741.176000", "163741.179000", "163741.181000", "163741.183000", "163741.186000", "163741.188000", "163741.191000", "163741.193000", "163741.196000", "163741.198000", "163741.201000", "163801.144000", "163801.147000", "163801.149000", "163801.152000", "163801.154000", "163801.157000", "163801.159000", "163801.162000", "163801.164000", "163801.166000", "163801.169000", "163801.171000", "163801.174000", "163801.176000", "163801.179000", "163801.181000", "163801.184000", "163801.186000", "163801.189000", "163801.191000", "163841.181000", "163841.184000", "163841.187000", "163841.189000", "163841.191000", "163841.194000", "163841.197000", "163841.199000", "163841.202000", "163841.204000", "163841.206000", "163841.209000", "163841.211000", "163841.214000", "163841.216000", "163841.219000", "163841.221000", "163841.224000", "163841.226000", "163841.229000", "163841.231000", "163841.234000", "163841.236000", "163841.239000", "163841.241000", "163841.244000", "163841.246000", "163841.248000", "163921.189000", "163921.191000", "163921.194000", "163921.196000", "163921.199000", "163921.201000", "163921.204000", "163921.206000", "163921.209000", "163921.211000", "163921.214000", "163921.216000", "163921.219000", "163921.221000", "163921.223000", "163921.226000", "163921.228000", "163921.231000", "163921.233000", "163921.236000", "163921.238000", "163921.241000", "163921.243000", "163921.246000", "163921.248000", "163921.250000", "163921.253000", "164001.211000", "164001.214000", "164001.216000", "164001.219000", "164001.221000", "164001.223000", "164001.226000", "164001.228000", "164001.231000", "164001.233000", "164001.236000", "164001.238000", "164001.241000", "164001.243000", "164001.245000", "164001.248000", "164001.250000", "164001.253000", "164001.255000", "164001.258000", "164001.260000", "164001.263000", "164001.265000", "164001.268000", "164001.270000", "164001.273000", "164001.275000", "164041.184000", "164041.187000", "164041.190000", "164041.192000", "164041.195000", "164041.198000", "164041.200000", "164041.203000", "164041.205000", "164041.208000", "164041.211000", "164041.213000", "164041.216000", "164041.218000", "164041.221000", "164041.223000", "164041.225000", "164041.228000", "164041.230000", "164041.233000", "164041.235000", "164041.238000", "164041.240000", "164041.243000", "164041.245000", "164041.247000", "164121.192000", "164121.195000", "164121.197000", "164121.200000", "164121.202000", "164121.205000", "164121.207000", "164121.210000", "164121.212000", "164121.215000", "164121.217000", "164121.219000", "164121.222000", "164121.224000", "164121.227000", "164121.229000", "164121.232000", "164121.234000", "164121.237000", "164121.239000", "164121.242000", "164121.244000", "164121.247000", "164121.249000", "164121.252000", "164121.254000", "164121.257000", "164201.189000", "164201.202000", "164201.204000", "164201.206000", "164201.209000", "164201.211000", "164201.214000", "164201.216000", "164201.219000", "164201.221000", "164201.223000", "164201.226000", "164201.228000", "164201.231000", "164201.233000", "164201.236000", "164201.238000", "164201.241000", "164201.243000", "164201.246000", "164201.248000", "164201.251000", "164201.253000", "164201.256000", "164201.258000", "164201.261000", "164201.263000", "164241.175000", "164241.178000", "164241.180000", "164241.183000", "164241.185000", "164241.188000", "164241.190000", "164241.193000", "164241.195000", "164241.198000", "164241.200000", "164241.203000", "164241.205000", "164241.208000", "164241.210000", "164241.213000", "164241.215000", "164241.218000", "164241.220000", "164241.223000", "164241.225000", "164241.228000", "164241.230000", "164241.232000", "164241.235000", "164241.238000", "164241.240000", "164321.190000", "164321.193000", "164321.195000", "164321.198000", "164321.200000", "164321.203000", "164321.205000", "164321.208000", "164321.210000", "164321.213000", "164321.215000", "164321.218000", "164321.220000", "164321.222000", "164321.225000", "164321.227000", "164321.230000", "164321.232000", "164321.235000", "164321.237000", "164321.240000", "164321.242000", "164321.245000", "164321.247000", "164321.250000", "164321.252000", "164321.255000", "164332.860000", "164332.862000", "164332.865000", "164332.867000", "164332.870000", "164332.872000", "164332.875000", "164332.878000"],
      "InstanceNumber": [1, 2, 3, 4, 5, 6, 7, 8, 9, 10, 11, 12, 13, 14, 15, 16, 17, 18, 19, 20, 21, 22, 23, 24, 25, 26, 27, 28, 29, 30, 31, 32, 33, 34, 35, 36, 37, 38, 39, 40, 41, 42, 43, 44, 45, 46, 47, 48, 49, 50, 51, 52, 53, 54, 55, 56, 57, 58, 59, 60, 61, 62, 63, 64, 65, 66, 67, 68, 69, 70, 71, 72, 73, 74, 75, 76, 77, 78, 79, 80, 81, 82, 83, 84, 85, 86, 87, 88, 89, 90, 91, 92, 93, 94, 95, 96, 97, 98, 99, 100, 101, 102, 103, 104, 105, 106, 107, 108, 109, 110, 111, 112, 113, 114, 115, 116, 117, 118, 119, 120, 121, 122, 123, 124, 125, 126, 127, 128, 129, 130, 131, 132, 133, 134, 135, 136, 137, 138, 139, 140, 141, 142, 143, 144, 145, 146, 147, 148, 149, 150, 151, 152, 153, 154, 155, 156, 157, 158, 159, 160, 161, 162, 163, 164, 165, 166, 167, 168, 169, 170, 171, 172, 173, 174, 175, 176, 177, 178, 179, 180, 181, 182, 183, 184, 185, 186, 187, 188, 189, 190, 191, 192, 193, 194, 195, 196, 197, 198, 199, 200, 201, 202, 203, 204, 205, 206, 207, 208, 209, 210, 211, 212, 213, 214, 215, 216, 217, 218, 219, 220, 221, 222, 223, 224, 225, 226, 227, 228, 229, 230, 231, 232, 233, 234, 235, 236, 237, 238, 239, 240, 241, 242, 243, 244, 245, 246, 247, 248, 249, 250, 251, 252, 253, 254, 255, 256, 257, 258, 259, 260, 261, 262, 263, 264, 265, 266, 267, 268, 269, 270, 271, 272, 273, 274, 275, 276, 277, 278, 279, 280, 281, 282, 283, 284, 285, 286, 287, 288, 289, 290, 291, 292, 293, 294, 295, 296, 297, 298, 299, 300, 301, 302, 303, 304, 305, 306, 307, 308, 309, 310, 311, 312, 313, 314, 315, 316],
      "WindowCenter": [4700.0, 4750.0, 4724.0, 4724.0, 4724.0, 4704.0, 4706.0, 4706.0, 4706.0, 4728.0, 4728.0, 4724.0, 4728.0, 4706.0, 4724.0, 4704.0, 4704.0, 4706.0, 4706.0, 4702.0, 4702.0, 4728.0, 4728.0, 4702.0, 4726.0, 4736.0, 4732.0, 4690.0, 4720.0, 4812.0, 4814.0, 4754.0, 4728.0, 4700.0, 4706.0, 4732.0, 4710.0, 4714.0, 4712.0, 4710.0, 4732.0, 4730.0, 4726.0, 4756.0, 4756.0, 4762.0, 4764.0, 4730.0, 4760.0, 4816.0, 4788.0, 4782.0, 4726.0, 4708.0, 4708.0, 4708.0, 4730.0, 4718.0, 4728.0, 4728.0, 4728.0, 4754.0, 4760.0, 4784.0, 4756.0, 4730.0, 4710.0, 4756.0, 4752.0, 4720.0, 4716.0, 4708.0, 4728.0, 4780.0, 4784.0, 4782.0, 4786.0, 4732.0, 4730.0, 4718.0, 4740.0, 4734.0, 4732.0, 4756.0, 4756.0, 4758.0, 4758.0, 4732.0, 4732.0, 4738.0, 4742.0, 4714.0, 4732.0, 4760.0, 4710.0, 4726.0, 4786.0, 4814.0, 4756.0, 4752.0, 4756.0, 4728.0, 4732.0, 4738.0, 4732.0, 4740.0, 4732.0, 4704.0, 4756.0, 4758.0, 4734.0, 4726.0, 4728.0, 4704.0, 4704.0, 4726.0, 4730.0, 4706.0, 4726.0, 4706.0, 4728.0, 4702.0, 4722.0, 4728.0, 4726.0, 4730.0, 4726.0, 4712.0, 4706.0, 4708.0, 4730.0, 4726.0, 4702.0, 4726.0, 4730.0, 4704.0, 4730.0, 4730.0, 4708.0, 4728.0, 4726.0, 4704.0, 4730.0, 4726.0, 4724.0, 4754.0, 4724.0, 4728.0, 4726.0, 4730.0, 4740.0, 4766.0, 4718.0, 4756.0, 4726.0, 4780.0, 4780.0, 4754.0, 4792.0, 4784.0, 4708.0, 4712.0, 4740.0, 4736.0, 4726.0, 4718.0, 4728.0, 4756.0, 4758.0, 4816.0, 4788.0, 4724.0, 4730.0, 4744.0, 4736.0, 4710.0, 4708.0, 4738.0, 4720.0, 4708.0, 4786.0, 4858.0, 4918.0, 4812.0, 4754.0, 4714.0, 4740.0, 4744.0, 4742.0, 4742.0, 4736.0, 4730.0, 4762.0, 4726.0, 4754.0, 4756.0, 4756.0, 4734.0, 4800.0, 4710.0, 4728.0, 4758.0, 4812.0, 4844.0, 4786.0, 4726.0, 4734.0, 4740.0, 4764.0, 4744.0, 4712.0, 4758.0, 4756.0, 4704.0, 4700.0, 4728.0, 4730.0, 4756.0, 4732.0, 4730.0, 4730.0, 4734.0, 4756.0, 4726.0, 4708.0, 4728.0, 4752.0, 4754.0, 4754.0, 4760.0, 4758.0, 4726.0, 4736.0, 4714.0, 4788.0, 4726.0, 4716.0, 4704.0, 4726.0, 4780.0, 4808.0, 4778.0, 4728.0, 4704.0, 4724.0, 4718.0, 4720.0, 4712.0, 4704.0, 4750.0, 4728.0, 4752.0, 4726.0, 4734.0, 4718.0, 4720.0, 4716.0, 4708.0, 4728.0, 4758.0, 4756.0, 4730.0, 4764.0, 4732.0, 4732.0, 4736.0, 4734.0, 4734.0, 4748.0, 4808.0, 4734.0, 4682.0, 4722.0, 4776.0, 4786.0, 4756.0, 4724.0, 4702.0, 4688.0, 4708.0, 4732.0, 4730.0, 4710.0, 4706.0, 4726.0, 4700.0, 4730.0, 4714.0, 4716.0, 4712.0, 4708.0, 4700.0, 4698.0, 4726.0, 4784.0, 4726.0, 4752.0, 4704.0, 4702.0, 4712.0, 4710.0, 4716.0, 4718.0, 4734.0, 4734.0, 4728.0, 4752.0, 4812.0, 4812.0, 4700.0, 4682.0, 4686.0, 4712.0, 4682.0, 4682.0, 4700.0],
