{
  "AcquisitionMatrixPE": 104,
  "AcquisitionNumber": 1,
  "AcquisitionTime": "16:27:8.587500",
  "BandwidthPerPixelPhaseEncode": 17.17,
  "BaseResolution": 104,
  "BodyPartExamined": "BRAIN",
  "CoilCombinationMethod": "Sum of Squares",
  "ConsistencyInfo": "N4_VE11C_LATEST_20160120",
  "ConversionSoftware": "dcm2niix",
  "ConversionSoftwareVersion": "v1.0.20220505",
  "DerivedVendorReportedEchoSpacing": 0.000560011,
  "DeviceSerialNumber": "167006",
  "DwellTime": 2.1e-06,
  "EchoTime": 0.037,
  "EchoTrainLength": 104,
  "EffectiveEchoSpacing": 0.000560011,
  "FlipAngle": 52,
  "HeudiconvVersion": "0.5.3.post811+g6206e14",
  "ImageComments": "Unaliased MB4/PE3/LB",
  "ImageOrientationPatientDICOM": [0.998714, 0.00370923, 0.0505703, 0.0231871, 0.85353, -0.520527],
  "ImageOrientationText": "Tra>Cor(-31.4)>Sag(2.6)",
  "ImageType": [
    "ORIGINAL",
    "PRIMARY",
    "M",
    "MB",
    "ND",
    "MOSAIC"
],
  "ImagingFrequency": 123.259,
  "InPlanePhaseEncodingDirectionDICOM": "COL",
  "InstitutionAddress": "Chemin Queen-Mary 4565,Montreal,District,CA,H3W 1W5",
  "InstitutionName": "IUGM",
  "InstitutionalDepartmentName": "Department",
  "MRAcquisitionType": "2D",
  "MagneticFieldStrength": 3,
  "Manufacturer": "Siemens",
  "ManufacturersModelName": "Prisma_fit",
  "MatrixCoilMode": "SENSE",
  "Modality": "MR",
  "MultibandAccelerationFactor": 4,
  "PartialFourier": 1,
  "PatientPosition": "HFS",
  "PercentPhaseFOV": 100,
  "PercentSampling": 100,
  "PhaseEncodingDirection": "j",
  "PhaseEncodingSteps": 104,
  "PhaseResolution": 1,
  "PixelBandwidth": 2290,
  "ProcedureStepDescription": "games^mario3",
  "ProtocolName": "func_task-mario3_run-02",
  "PulseSequenceDetails": "%CustomerSeq%\\cmrr_mbep2d_bold",
  "ReceiveCoilActiveElements": "HC1-7;NC1,2",
  "ReceiveCoilName": "HeadNeck_64",
  "ReconMatrixPE": 104,
  "RepetitionTime": 1.49,
  "SAR": 0.0564705,
  "ScanOptions": "FS",
  "ScanningSequence": "EP",
  "SequenceName": "epfid2d1_104",
  "SequenceVariant": "SK\\SS",
  "SeriesDescription": "func_task-mario3_run-02",
  "SeriesNumber": 13,
  "ShimSetting": [624, -7178, -8864, 275, 44, -177, -50, 17],
  "SliceThickness": 2,
  "SliceTiming": [0, 0.785, 0.0975, 0.8825, 0.1975, 0.98, 0.295, 1.0775, 0.3925, 1.1775, 0.49, 1.275, 0.5875, 1.3725, 0.6875, 0, 0.785, 0.0975, 0.8825, 0.1975, 0.98, 0.295, 1.0775, 0.3925, 1.1775, 0.49, 1.275, 0.5875, 1.3725, 0.6875, 0, 0.785, 0.0975, 0.8825, 0.1975, 0.98, 0.295, 1.0775, 0.3925, 1.1775, 0.49, 1.275, 0.5875, 1.3725, 0.6875, 0, 0.785, 0.0975, 0.8825, 0.1975, 0.98, 0.295, 1.0775, 0.3925, 1.1775, 0.49, 1.275, 0.5875, 1.3725, 0.6875],
  "SoftwareVersions": "syngo MR E11",
  "SpacingBetweenSlices": 2,
  "StationName": "MRC35049",
  "TaskName": "mario3",
  "TotalReadoutTime": 0.0576811,
  "TxRefAmp": 276.172,
  "WipMemBlock": "76de5c3d-4f46-4ee5-9e35-73f14c05802b||Sequence: R017 ve11c/master r/75a17815+; Jun 28 2022 16:32:11 by eja",
  "dcmmeta_affine": [
    [-1.997427225112915, 0.04637422785162926, 0.0901881605386734, 103.13511657714844],
    [-0.007418454624712467, 1.7070608139038086, -1.0420596599578857, -49.934730529785156],
    [0.10114069283008575, 1.0410537719726562, 1.7046928405761719, -102.40422821044922],
    [0.0, 0.0, 0.0, 1.0]
],
  "dcmmeta_reorient_transform": [
    [0.0, -1.0, 0.0, 103.0],
    [1.0, 0.0, 0.0, 0.0],
    [0.0, 0.0, 1.0, 0.0],
    [0.0, 0.0, 0.0, 1.0]
],
  "dcmmeta_shape": [104, 104, 60, 306],
  "dcmmeta_slice_dim": 2,
  "dcmmeta_version": 0.6,
  "global": {
    "const": {
      "AcquisitionMatrix": [104, 0, 0, 104],
      "AngioFlag": "N",
      "BitsAllocated": 16,
      "BitsStored": 16,
      "BodyPartExamined": "BRAIN",
      "Columns": 832,
      "EchoNumbers": 1,
      "EchoTime": 37.0,
      "EchoTrainLength": 104,
      "FlipAngle": 52.0,
      "HighBit": 15,
      "ImageOrientationPatient": [0.9987136133941, 0.00370922741876, 0.050570347569, 0.02318711418637, 0.85353039275255, -0.520526873834],
      "ImagePositionPatient": [-851.85538860138, -749.96297274717, 346.95265950334],
      "ImageType": [
        "ORIGINAL",
        "PRIMARY",
        "M",
        "MB",
        "ND",
        "MOSAIC"
],
      "ImagedNucleus": "1H",
      "ImagingFrequency": 123.258818,
      "InPlanePhaseEncodingDirection": "COL",
      "MRAcquisitionType": "2D",
      "MagneticFieldStrength": 3.0,
      "Manufacturer": "SIEMENS",
      "ManufacturerModelName": "Prisma_fit",
      "Modality": "MR",
      "NumberOfAverages": 1.0,
      "NumberOfPhaseEncodingSteps": 104,
      "PercentPhaseFieldOfView": 100.0,
      "PercentSampling": 100.0,
      "PerformedProcedureStepStartTime": "161315.250000",
      "PhotometricInterpretation": "MONOCHROME2",
      "PixelBandwidth": 2290.0,
      "PixelRepresentation": 0,
      "PixelSpacing": [2.0, 2.0],
      "ProtocolName": "func_task-mario3_run-02",
      "RepetitionTime": 1490.0,
      "Rows": 832,
      "SAR": 0.05647046757033,
      "SamplesPerPixel": 1,
      "ScanOptions": "FS",
      "ScanningSequence": "EP",
      "SequenceName": "epfid2d1_104",
      "SequenceVariant": [
        "SK",
        "SS"
],
      "SeriesDescription": "func_task-mario3_run-02",
      "SeriesNumber": 13,
      "SeriesTime": "162807.632000",
      "SliceLocation": -56.615607256398,
      "SliceThickness": 2.0,
      "SmallestImagePixelValue": 0,
      "SoftwareVersions": "syngo MR E11",
      "SpacingBetweenSlices": 2.0000000105269,
      "SpecificCharacterSet": "ISO_IR 100",
      "StudyID": "1",
      "StudyTime": "161315.164000",
      "TransmitCoilName": "Body",
      "VariableFlipAngleFlag": "N",
      "WindowCenterWidthExplanation": "Algo1",
      "dBdt": 0.0},
    "slices": {}
  },
  "time": {
    "samples": {
      "AcquisitionNumber": [1, 2, 3, 4, 5, 6, 7, 8, 9, 10, 11, 12, 13, 14, 15, 16, 17, 18, 19, 20, 21, 22, 23, 24, 25, 26, 27, 28, 29, 30, 31, 32, 33, 34, 35, 36, 37, 38, 39, 40, 41, 42, 43, 44, 45, 46, 47, 48, 49, 50, 51, 52, 53, 54, 55, 56, 57, 58, 59, 60, 61, 62, 63, 64, 65, 66, 67, 68, 69, 70, 71, 72, 73, 74, 75, 76, 77, 78, 79, 80, 81, 82, 83, 84, 85, 86, 87, 88, 89, 90, 91, 92, 93, 94, 95, 96, 97, 98, 99, 100, 101, 102, 103, 104, 105, 106, 107, 108, 109, 110, 111, 112, 113, 114, 115, 116, 117, 118, 119, 120, 121, 122, 123, 124, 125, 126, 127, 128, 129, 130, 131, 132, 133, 134, 135, 136, 137, 138, 139, 140, 141, 142, 143, 144, 145, 146, 147, 148, 149, 150, 151, 152, 153, 154, 155, 156, 157, 158, 159, 160, 161, 162, 163, 164, 165, 166, 167, 168, 169, 170, 171, 172, 173, 174, 175, 176, 177, 178, 179, 180, 181, 182, 183, 184, 185, 186, 187, 188, 189, 190, 191, 192, 193, 194, 195, 196, 197, 198, 199, 200, 201, 202, 203, 204, 205, 206, 207, 208, 209, 210, 211, 212, 213, 214, 215, 216, 217, 218, 219, 220, 221, 222, 223, 224, 225, 226, 227, 228, 229, 230, 231, 232, 233, 234, 235, 236, 237, 238, 239, 240, 241, 242, 243, 244, 245, 246, 247, 248, 249, 250, 251, 252, 253, 254, 255, 256, 257, 258, 259, 260, 261, 262, 263, 264, 265, 266, 267, 268, 269, 270, 271, 272, 273, 274, 275, 276, 277, 278, 279, 280, 281, 282, 283, 284, 285, 286, 287, 288, 289, 290, 291, 292, 293, 294, 295, 296, 297, 298, 299, 300, 301, 302, 303, 304, 305, 306],
      "AcquisitionTime": ["162708.587500", "162710.077500", "162711.567500", "162713.057500", "162714.547500", "162716.037500", "162717.527500", "162719.017500", "162720.507500", "162721.997500", "162723.487500", "162724.977500", "162726.467500", "162727.957500", "162729.447500", "162730.937500", "162732.427500", "162733.917500", "162735.407500", "162736.897500", "162738.387500", "162739.877500", "162741.367500", "162742.857500", "162744.347500", "162745.837500", "162747.327500", "162748.817500", "162750.307500", "162751.797500", "162753.287500", "162754.777500", "162756.267500", "162757.757500", "162759.247500", "162800.737500", "162802.227500", "162803.717500", "162805.207500", "162806.697500", "162808.187500", "162809.677500", "162811.167500", "162812.657500", "162814.147500", "162815.637500", "162817.127500", "162818.617500", "162820.107500", "162821.597500", "162823.087500", "162824.577500", "162826.067500", "162827.557500", "162829.047500", "162830.537500", "162832.027500", "162833.517500", "162835.007500", "162836.497500", "162837.987500", "162839.477500", "162840.967500", "162842.457500", "162843.947500", "162845.437500", "162846.927500", "162848.417500", "162849.907500", "162851.397500", "162852.887500", "162854.377500", "162855.867500", "162857.357500", "162858.847500", "162900.337500", "162901.827500", "162903.317500", "162904.807500", "162906.297500", "162907.787500", "162909.277500", "162910.767500", "162912.257500", "162913.747500", "162915.237500", "162916.727500", "162918.217500", "162919.707500", "162921.197500", "162922.687500", "162924.177500", "162925.667500", "162927.157500", "162928.647500", "162930.137500", "162931.627500", "162933.117500", "162934.607500", "162936.097500", "162937.587500", "162939.077500", "162940.567500", "162942.057500", "162943.547500", "162945.037500", "162946.527500", "162948.017500", "162949.507500", "162950.997500", "162952.487500", "162953.977500", "162955.467500", "162956.957500", "162958.447500", "162959.937500", "163001.427500", "163002.917500", "163004.407500", "163005.897500", "163007.387500", "163008.877500", "163010.367500", "163011.857500", "163013.347500", "163014.837500", "163016.327500", "163017.817500", "163019.307500", "163020.797500", "163022.287500", "163023.777500", "163025.267500", "163026.757500", "163028.247500", "163029.737500", "163031.227500", "163032.717500", "163034.207500", "163035.697500", "163037.187500", "163038.677500", "163040.167500", "163041.657500", "163043.147500", "163044.637500", "163046.127500", "163047.617500", "163049.107500", "163050.597500", "163052.087500", "163053.577500", "163055.067500", "163056.557500", "163058.047500", "163059.537500", "163101.027500", "163102.517500", "163104.007500", "163105.497500", "163106.987500", "163108.477500", "163109.967500", "163111.457500", "163112.947500", "163114.437500", "163115.927500", "163117.417500", "163118.907500", "163120.397500", "163121.887500", "163123.377500", "163124.867500", "163126.357500", "163127.847500", "163129.337500", "163130.827500", "163132.317500", "163133.807500", "163135.297500", "163136.787500", "163138.277500", "163139.767500", "163141.257500", "163142.747500", "163144.237500", "163145.727500", "163147.217500", "163148.707500", "163150.197500", "163151.687500", "163153.177500", "163154.667500", "163156.157500", "163157.647500", "163159.137500", "163200.627500", "163202.117500", "163203.607500", "163205.097500", "163206.587500", "163208.077500", "163209.567500", "163211.057500", "163212.547500", "163214.037500", "163215.527500", "163217.017500", "163218.507500", "163219.997500", "163221.487500", "163222.977500", "163224.467500", "163225.957500", "163227.447500", "163228.937500", "163230.427500", "163231.917500", "163233.407500", "163234.897500", "163236.387500", "163237.877500", "163239.367500", "163240.857500", "163242.347500", "163243.837500", "163245.327500", "163246.817500", "163248.307500", "163249.797500", "163251.287500", "163252.777500", "163254.267500", "163255.757500", "163257.247500", "163258.737500", "163300.227500", "163301.717500", "163303.207500", "163304.697500", "163306.187500", "163307.677500", "163309.167500", "163310.657500", "163312.147500", "163313.637500", "163315.127500", "163316.617500", "163318.107500", "163319.597500", "163321.087500", "163322.577500", "163324.067500", "163325.557500", "163327.047500", "163328.537500", "163330.027500", "163331.517500", "163333.007500", "163334.497500", "163335.987500", "163337.477500", "163338.967500", "163340.457500", "163341.947500", "163343.437500", "163344.927500", "163346.417500", "163347.907500", "163349.397500", "163350.887500", "163352.377500", "163353.867500", "163355.357500", "163356.847500", "163358.337500", "163359.827500", "163401.317500", "163402.807500", "163404.297500", "163405.787500", "163407.277500", "163408.767500", "163410.257500", "163411.747500", "163413.237500", "163414.727500", "163416.217500", "163417.707500", "163419.197500", "163420.687500", "163422.177500", "163423.667500", "163425.157500", "163426.647500", "163428.137500", "163429.627500", "163431.117500", "163432.607500", "163434.097500", "163435.587500", "163437.077500", "163438.567500", "163440.057500", "163441.547500", "163443.037500"],
      "ContentTime": ["162807.635000", "162807.639000", "162807.642000", "162807.646000", "162807.649000", "162807.652000", "162807.656000", "162807.664000", "162807.670000", "162807.673000", "162827.598000", "162827.602000", "162827.605000", "162827.608000", "162827.611000", "162827.615000", "162827.618000", "162827.621000", "162827.624000", "162827.628000", "162827.631000", "162827.634000", "162827.637000", "162827.641000", "162827.644000", "162827.647000", "162827.650000", "162827.654000", "162827.657000", "162827.670000", "162847.598000", "162847.602000", "162847.611000", "162847.614000", "162847.617000", "162847.621000", "162847.624000", "162847.627000", "162847.630000", "162847.634000", "162847.637000", "162847.640000", "162847.643000", "162847.646000", "162847.650000", "162847.653000", "162847.656000", "162847.659000", "162847.663000", "162847.666000", "162847.670000", "162907.597000", "162907.601000", "162907.604000", "162907.607000", "162907.610000", "162907.614000", "162907.617000", "162907.620000", "162907.623000", "162907.627000", "162907.630000", "162907.633000", "162907.636000", "162907.640000", "162907.654000", "162907.657000", "162907.661000", "162907.664000", "162907.667000", "162907.670000", "162927.597000", "162927.601000", "162927.604000", "162927.607000", "162927.610000", "162927.614000", "162927.617000", "162927.620000", "162927.623000", "162927.627000", "162927.630000", "162927.633000", "162927.636000", "162927.640000", "162927.643000", "162927.660000", "162927.663000", "162927.667000", "162927.670000", "162927.673000", "163007.597000", "163007.601000", "163007.604000", "163007.607000", "163007.610000", "163007.614000", "163007.617000", "163007.620000", "163007.624000", "163007.627000", "163007.630000", "163007.633000", "163007.636000", "163007.640000", "163007.643000", "163007.646000", "163007.649000", "163007.653000", "163007.656000", "163007.659000", "163007.662000", "163007.666000", "163007.669000", "163007.672000", "163007.675000", "163007.679000", "163007.682000", "163007.685000", "163047.598000", "163047.602000", "163047.605000", "163047.608000", "163047.611000", "163047.615000", "163047.618000", "163047.621000", "163047.625000", "163047.628000", "163047.631000", "163047.634000", "163047.638000", "163047.641000", "163047.644000", "163047.647000", "163047.651000", "163047.654000", "163047.657000", "163047.661000", "163047.664000", "163047.667000", "163047.670000", "163047.674000", "163047.677000", "163047.680000", "163047.683000", "163127.597000", "163127.601000", "163127.604000", "163127.607000", "163127.611000", "163127.614000", "163127.617000", "163127.620000", "163127.631000", "163127.634000", "163127.637000", "163127.641000", "163127.644000", "163127.647000", "163127.650000", "163127.654000", "163127.657000", "163127.668000", "163127.672000", "163127.675000", "163127.678000", "163127.682000", "163127.685000", "163127.688000", "163127.691000", "163127.695000", "163127.698000", "163207.597000", "163207.601000", "163207.604000", "163207.607000", "163207.611000", "163207.614000", "163207.617000", "163207.620000", "163207.624000", "163207.627000", "163207.630000", "163207.634000", "163207.637000", "163207.640000", "163207.643000", "163207.647000", "163207.650000", "163207.653000", "163207.656000", "163207.660000", "163207.663000", "163207.666000", "163207.669000", "163207.673000", "163207.676000", "163207.679000", "163207.682000", "163247.598000", "163247.602000", "163247.605000", "163247.609000", "163247.612000", "163247.615000", "163247.618000", "163247.622000", "163247.625000", "163247.628000", "163247.632000", "163247.635000", "163247.638000", "163247.641000", "163247.645000", "163247.648000", "163247.651000", "163247.654000", "163247.658000", "163247.661000", "163247.664000", "163247.667000", "163247.672000", "163247.675000", "163247.680000", "163247.683000", "163327.598000", "163327.602000", "163327.605000", "163327.608000", "163327.612000", "163327.615000", "163327.618000", "163327.621000", "163327.625000", "163327.628000", "163327.631000", "163327.634000", "163327.638000", "163327.641000", "163327.644000", "163327.647000", "163327.651000", "163327.654000", "163327.657000", "163327.660000", "163327.664000", "163327.667000", "163327.670000", "163327.673000", "163327.677000", "163327.680000", "163327.683000", "163407.597000", "163407.601000", "163407.604000", "163407.607000", "163407.611000", "163407.614000", "163407.617000", "163407.620000", "163407.624000", "163407.627000", "163407.630000", "163407.634000", "163407.637000", "163407.640000", "163407.643000", "163407.647000", "163407.650000", "163407.653000", "163407.656000", "163407.660000", "163407.663000", "163407.666000", "163407.669000", "163407.673000", "163407.676000", "163407.679000", "163407.683000", "163446.406000", "163446.410000", "163446.413000", "163446.417000", "163446.420000", "163446.423000", "163446.427000", "163446.430000", "163446.433000", "163446.437000", "163446.440000", "163446.443000", "163446.447000", "163446.450000", "163446.453000", "163446.456000", "163446.460000", "163446.463000", "163446.466000", "163446.470000", "163446.473000", "163446.476000", "163446.480000", "163446.483000", "163446.487000", "163446.490000"],
      "InstanceCreationTime": ["162807.635000", "162807.639000", "162807.642000", "162807.646000", "162807.649000", "162807.652000", "162807.656000", "162807.664000", "162807.670000", "162807.673000", "162827.598000", "162827.602000", "162827.605000", "162827.608000", "162827.611000", "162827.615000", "162827.618000", "162827.621000", "162827.624000", "162827.628000", "162827.631000", "162827.634000", "162827.637000", "162827.641000", "162827.644000", "162827.647000", "162827.650000", "162827.654000", "162827.657000", "162827.670000", "162847.598000", "162847.602000", "162847.611000", "162847.614000", "162847.617000", "162847.621000", "162847.624000", "162847.627000", "162847.630000", "162847.634000", "162847.637000", "162847.640000", "162847.643000", "162847.646000", "162847.650000", "162847.653000", "162847.656000", "162847.659000", "162847.663000", "162847.666000", "162847.670000", "162907.597000", "162907.601000", "162907.604000", "162907.607000", "162907.610000", "162907.614000", "162907.617000", "162907.620000", "162907.623000", "162907.627000", "162907.630000", "162907.633000", "162907.636000", "162907.640000", "162907.654000", "162907.657000", "162907.661000", "162907.664000", "162907.667000", "162907.670000", "162927.597000", "162927.601000", "162927.604000", "162927.607000", "162927.610000", "162927.614000", "162927.617000", "162927.620000", "162927.623000", "162927.627000", "162927.630000", "162927.633000", "162927.636000", "162927.640000", "162927.643000", "162927.660000", "162927.663000", "162927.667000", "162927.670000", "162927.673000", "163007.597000", "163007.601000", "163007.604000", "163007.607000", "163007.610000", "163007.614000", "163007.617000", "163007.620000", "163007.624000", "163007.627000", "163007.630000", "163007.633000", "163007.636000", "163007.640000", "163007.643000", "163007.646000", "163007.649000", "163007.653000", "163007.656000", "163007.659000", "163007.662000", "163007.666000", "163007.669000", "163007.672000", "163007.675000", "163007.679000", "163007.682000", "163007.685000", "163047.598000", "163047.602000", "163047.605000", "163047.608000", "163047.611000", "163047.615000", "163047.618000", "163047.621000", "163047.625000", "163047.628000", "163047.631000", "163047.634000", "163047.638000", "163047.641000", "163047.644000", "163047.647000", "163047.651000", "163047.654000", "163047.657000", "163047.661000", "163047.664000", "163047.667000", "163047.670000", "163047.674000", "163047.677000", "163047.680000", "163047.683000", "163127.597000", "163127.601000", "163127.604000", "163127.607000", "163127.611000", "163127.614000", "163127.617000", "163127.620000", "163127.631000", "163127.634000", "163127.637000", "163127.641000", "163127.644000", "163127.647000", "163127.650000", "163127.654000", "163127.657000", "163127.668000", "163127.672000", "163127.675000", "163127.678000", "163127.682000", "163127.685000", "163127.688000", "163127.691000", "163127.695000", "163127.698000", "163207.597000", "163207.601000", "163207.604000", "163207.607000", "163207.611000", "163207.614000", "163207.617000", "163207.620000", "163207.624000", "163207.627000", "163207.630000", "163207.634000", "163207.637000", "163207.640000", "163207.643000", "163207.647000", "163207.650000", "163207.653000", "163207.656000", "163207.660000", "163207.663000", "163207.666000", "163207.669000", "163207.673000", "163207.676000", "163207.679000", "163207.682000", "163247.598000", "163247.602000", "163247.605000", "163247.609000", "163247.612000", "163247.615000", "163247.618000", "163247.622000", "163247.625000", "163247.628000", "163247.632000", "163247.635000", "163247.638000", "163247.641000", "163247.645000", "163247.648000", "163247.651000", "163247.654000", "163247.658000", "163247.661000", "163247.664000", "163247.667000", "163247.672000", "163247.675000", "163247.680000", "163247.683000", "163327.598000", "163327.602000", "163327.605000", "163327.608000", "163327.612000", "163327.615000", "163327.618000", "163327.621000", "163327.625000", "163327.628000", "163327.631000", "163327.634000", "163327.638000", "163327.641000", "163327.644000", "163327.647000", "163327.651000", "163327.654000", "163327.657000", "163327.660000", "163327.664000", "163327.667000", "163327.670000", "163327.673000", "163327.677000", "163327.680000", "163327.683000", "163407.597000", "163407.601000", "163407.604000", "163407.607000", "163407.611000", "163407.614000", "163407.617000", "163407.620000", "163407.624000", "163407.627000", "163407.630000", "163407.634000", "163407.637000", "163407.640000", "163407.643000", "163407.647000", "163407.650000", "163407.653000", "163407.656000", "163407.660000", "163407.663000", "163407.666000", "163407.669000", "163407.673000", "163407.676000", "163407.679000", "163407.683000", "163446.406000", "163446.410000", "163446.413000", "163446.417000", "163446.420000", "163446.423000", "163446.427000", "163446.430000", "163446.433000", "163446.437000", "163446.440000", "163446.443000", "163446.447000", "163446.450000", "163446.453000", "163446.456000", "163446.460000", "163446.463000", "163446.466000", "163446.470000", "163446.473000", "163446.476000", "163446.480000", "163446.483000", "163446.487000", "163446.490000"],
      "InstanceNumber": [1, 2, 3, 4, 5, 6, 7, 8, 9, 10, 11, 12, 13, 14, 15, 16, 17, 18, 19, 20, 21, 22, 23, 24, 25, 26, 27, 28, 29, 30, 31, 32, 33, 34, 35, 36, 37, 38, 39, 40, 41, 42, 43, 44, 45, 46, 47, 48, 49, 50, 51, 52, 53, 54, 55, 56, 57, 58, 59, 60, 61, 62, 63, 64, 65, 66, 67, 68, 69, 70, 71, 72, 73, 74, 75, 76, 77, 78, 79, 80, 81, 82, 83, 84, 85, 86, 87, 88, 89, 90, 91, 92, 93, 94, 95, 96, 97, 98, 99, 100, 101, 102, 103, 104, 105, 106, 107, 108, 109, 110, 111, 112, 113, 114, 115, 116, 117, 118, 119, 120, 121, 122, 123, 124, 125, 126, 127, 128, 129, 130, 131, 132, 133, 134, 135, 136, 137, 138, 139, 140, 141, 142, 143, 144, 145, 146, 147, 148, 149, 150, 151, 152, 153, 154, 155, 156, 157, 158, 159, 160, 161, 162, 163, 164, 165, 166, 167, 168, 169, 170, 171, 172, 173, 174, 175, 176, 177, 178, 179, 180, 181, 182, 183, 184, 185, 186, 187, 188, 189, 190, 191, 192, 193, 194, 195, 196, 197, 198, 199, 200, 201, 202, 203, 204, 205, 206, 207, 208, 209, 210, 211, 212, 213, 214, 215, 216, 217, 218, 219, 220, 221, 222, 223, 224, 225, 226, 227, 228, 229, 230, 231, 232, 233, 234, 235, 236, 237, 238, 239, 240, 241, 242, 243, 244, 245, 246, 247, 248, 249, 250, 251, 252, 253, 254, 255, 256, 257, 258, 259, 260, 261, 262, 263, 264, 265, 266, 267, 268, 269, 270, 271, 272, 273, 274, 275, 276, 277, 278, 279, 280, 281, 282, 283, 284, 285, 286, 287, 288, 289, 290, 291, 292, 293, 294, 295, 296, 297, 298, 299, 300, 301, 302, 303, 304, 305, 306],
      "LargestImagePixelValue": [47805, 47513, 46095, 45956, 45094, 45519, 46114, 45487, 45455, 45705, 45466, 43903, 44023, 44748, 44936, 44236, 45122, 44001, 44723, 43617, 44022, 44352, 44145, 44914, 43936, 44796, 45567, 44143, 44006, 43590, 45068, 43147, 43701, 44373, 45321, 45906, 45146, 44674, 44846, 44670, 44713, 44897, 42821, 44564, 44380, 44245, 44863, 44249, 44297, 43444, 44252, 43193, 42980, 43662, 43844, 43561, 43588, 42022, 42690, 43200, 44381, 42680, 42330, 43085, 43264, 42829, 43555, 42046, 41898, 42144, 41637, 42165, 41955, 42788, 42421, 42550, 42700, 45360, 43848, 41988, 41514, 43703, 44652, 44481, 43771, 43596, 44147, 43695, 42813, 43931, 42500, 43124, 43486, 42759, 42159, 44872, 42985, 42990, 42359, 42891, 41413, 43054, 42625, 42373, 42385, 41384, 45187, 44403, 44225, 41777, 42606, 44781, 42377, 41369, 42308, 42341, 42323, 42529, 42277, 43661, 41089, 41091, 42434, 42450, 42585, 44053, 42921, 43375, 44406, 44656, 42134, 44806, 42114, 43194, 42120, 44314, 44705, 44739, 45113, 41861, 45032, 44950, 45324, 45684, 44602, 44995, 44424, 44262, 41614, 43001, 42061, 41599, 43587, 42674, 41743, 43972, 41604, 42110, 40803, 41177, 43016, 45786, 44209, 43820, 43521, 43066, 44821, 45118, 43886, 44828, 45088, 44779, 44298, 44778, 45501, 44581, 43464, 44563, 45041, 44406, 45459, 44655, 44449, 44675, 44708, 44093, 44439, 43322, 44955, 45667, 44526, 43896, 44824, 44565, 44349, 43558, 43552, 43350, 43579, 42990, 44214, 43641, 44457, 45396, 42346, 43832, 44814, 44932, 45194, 44449, 44623, 44618, 44616, 44406, 43537, 44260, 44033, 44895, 44163, 45007, 44640, 44633, 44853, 44410, 44563, 44210, 44161, 43948, 44702, 44342, 44503, 44322, 44322, 43927, 44512, 44391, 44126, 44434, 44325, 44194, 44123, 43839, 44342, 43488, 45275, 44176, 44275, 43174, 43344, 42609, 42988, 43302, 43517, 43370, 43584, 43934, 44205, 44029, 44250, 43608, 43524, 44048, 43774, 43551, 44578, 43486, 45094, 45298, 44617, 43618, 43369, 44480, 44502, 44737, 44568, 44351, 44362, 43699, 44514, 44636, 45167, 43928, 44821, 44257, 44717, 44548, 44497, 45504, 44798, 44189, 45014, 44301, 44005, 46789, 44507, 44683, 43995, 43979, 44577, 44234, 44867, 44542, 44598, 44692, 43942, 44802],
      "WindowCenter": [10947.0, 10908.0, 10891.0, 10868.0, 10849.0, 10850.0, 10852.0, 10862.0, 10858.0, 10875.0, 10875.0, 10850.0, 10865.0, 10853.0, 10837.0, 10860.0, 10864.0, 10837.0, 10832.0, 10827.0, 10829.0, 10825.0, 10811.0, 10812.0, 10812.0, 10839.0, 10838.0, 10825.0, 10837.0, 10845.0, 10860.0, 10829.0, 10830.0, 10838.0, 10851.0, 10852.0, 10854.0, 10850.0, 10856.0, 10843.0, 10830.0, 10803.0, 10794.0, 10843.0, 10878.0, 10837.0, 10831.0, 10853.0, 10851.0, 10827.0, 10827.0, 10820.0, 10812.0, 10824.0, 10823.0, 10826.0, 10832.0, 10811.0, 10813.0, 10825.0, 10858.0, 10819.0, 10802.0, 10831.0, 10845.0, 10799.0, 10806.0, 10779.0, 10782.0, 10782.0, 10773.0, 10785.0, 10771.0, 10789.0, 10806.0, 10817.0, 10793.0, 10830.0, 10839.0, 10822.0, 10811.0, 10845.0, 10856.0, 10847.0, 10831.0, 10841.0, 10842.0, 10840.0, 10820.0, 10829.0, 10808.0, 10806.0, 10814.0, 10821.0, 10845.0, 10860.0, 10824.0, 10807.0, 10783.0, 10788.0, 10796.0, 10822.0, 10809.0, 10785.0, 10790.0, 10772.0, 10782.0, 10763.0, 10766.0, 10800.0, 10851.0, 10862.0, 10769.0, 10774.0, 10791.0, 10782.0, 10783.0, 10789.0, 10816.0, 10811.0, 10791.0, 10742.0, 10702.0, 10789.0, 10766.0, 10784.0, 10816.0, 10833.0, 10854.0, 10834.0, 10750.0, 10797.0, 10774.0, 10810.0, 10823.0, 10837.0, 10823.0, 10797.0, 10820.0, 10777.0, 10808.0, 10841.0, 10847.0, 10826.0, 10797.0, 10819.0, 10783.0, 10807.0, 10784.0, 10808.0, 10778.0, 10788.0, 10812.0, 10809.0, 10795.0, 10801.0, 10789.0, 10797.0, 10751.0, 10785.0, 10802.0, 10797.0, 10844.0, 10865.0, 10862.0, 10834.0, 10861.0, 10865.0, 10846.0, 10891.0, 10892.0, 10892.0, 10861.0, 10825.0, 10840.0, 10828.0, 10856.0, 10910.0, 10906.0, 10858.0, 10825.0, 10807.0, 10821.0, 10836.0, 10830.0, 10813.0, 10815.0, 10817.0, 10882.0, 10913.0, 10862.0, 10853.0, 10896.0, 10881.0, 10851.0, 10839.0, 10841.0, 10817.0, 10801.0, 10816.0, 10817.0, 10841.0, 10831.0, 10869.0, 10845.0, 10838.0, 10840.0, 10854.0, 10840.0, 10827.0, 10812.0, 10825.0, 10848.0, 10839.0, 10843.0, 10866.0, 10848.0, 10867.0, 10883.0, 10904.0, 10890.0, 10875.0, 10867.0, 10864.0, 10864.0, 10874.0, 10865.0, 10852.0, 10844.0, 10850.0, 10851.0, 10843.0, 10851.0, 10851.0, 10850.0, 10841.0, 10850.0, 10851.0, 10851.0, 10852.0, 10844.0, 10817.0, 10845.0, 10842.0, 10868.0, 10833.0, 10800.0, 10787.0, 10798.0, 10797.0, 10792.0, 10793.0, 10789.0, 10801.0, 10809.0, 10807.0, 10814.0, 10823.0, 10832.0, 10827.0, 10831.0, 10855.0, 10849.0, 10851.0, 10853.0, 10832.0, 10866.0, 10875.0, 10844.0, 10822.0, 10830.0, 10826.0, 10819.0, 10804.0, 10823.0, 10846.0, 10850.0, 10823.0, 10836.0, 10863.0, 10840.0, 10842.0, 10845.0, 10829.0, 10852.0, 10855.0, 10863.0, 10860.0, 10834.0, 10837.0, 10851.0, 10841.0, 10839.0, 10875.0, 10839.0, 10824.0, 10818.0, 10845.0, 10861.0, 10862.0, 10856.0, 10854.0, 10858.0, 10849.0, 10824.0, 10848.0],
