{
  "AcquisitionMatrixPE": 104,
  "AcquisitionNumber": 1,
  "AcquisitionTime": "16:27:8.587500",
  "BandwidthPerPixelPhaseEncode": 17.17,
  "BaseResolution": 104,
  "BodyPartExamined": "BRAIN",
  "CoilCombinationMethod": "Sum of Squares",
  "ConsistencyInfo": "N4_VE11C_LATEST_20160120",
  "ConversionSoftware": "dcm2niix",
  "ConversionSoftwareVersion": "v1.0.20220505",
  "DerivedVendorReportedEchoSpacing": 0.000560011,
  "DeviceSerialNumber": "167006",
  "DwellTime": 2.1e-06,
  "EchoTime": 0.037,
  "EchoTime1": 0.037,
  "EchoTime2": 0.001,
  "EchoTrainLength": 104,
  "EffectiveEchoSpacing": 0.000560011,
  "FlipAngle": 52,
  "HeudiconvVersion": "0.5.3.post811+g6206e14",
  "ImageComments": "Unaliased MB4/PE3/LB",
  "ImageOrientationPatientDICOM": [0.998714, 0.00370923, 0.0505703, 0.0231871, 0.85353, -0.520527],
  "ImageOrientationText": "Tra>Cor(-31.4)>Sag(2.6)",
  "ImageType": [
    "ORIGINAL",
    "PRIMARY",
    "P",
    "MB",
    "ND",
    "MOSAIC",
    "PHASE"
],
  "ImagingFrequency": 123.259,
  "InPlanePhaseEncodingDirectionDICOM": "COL",
  "InstitutionAddress": "Chemin Queen-Mary 4565,Montreal,District,CA,H3W 1W5",
  "InstitutionName": "IUGM",
  "InstitutionalDepartmentName": "Department",
  "MRAcquisitionType": "2D",
  "MagneticFieldStrength": 3,
  "Manufacturer": "Siemens",
  "ManufacturersModelName": "Prisma_fit",
  "MatrixCoilMode": "SENSE",
  "Modality": "MR",
  "MultibandAccelerationFactor": 4,
  "PartialFourier": 1,
  "PatientPosition": "HFS",
  "PercentPhaseFOV": 100,
  "PercentSampling": 100,
  "PhaseEncodingDirection": "j",
  "PhaseEncodingSteps": 104,
  "PhaseResolution": 1,
  "PixelBandwidth": 2290,
  "ProcedureStepDescription": "games^mario3",
  "ProtocolName": "func_task-mario3_run-02",
  "PulseSequenceDetails": "%CustomerSeq%\\cmrr_mbep2d_bold",
  "ReceiveCoilActiveElements": "HC1-7;NC1,2",
  "ReceiveCoilName": "HeadNeck_64",
  "ReconMatrixPE": 104,
  "RepetitionTime": 1.49,
  "SAR": 0.0564705,
  "ScanOptions": "FS",
  "ScanningSequence": "EP",
  "SequenceName": "epfid2d1_104",
  "SequenceVariant": "SK\\SS",
  "SeriesDescription": "func_task-mario3_run-02",
  "SeriesNumber": 14,
  "ShimSetting": [624, -7178, -8864, 275, 44, -177, -50, 17],
  "SliceThickness": 2,
  "SliceTiming": [0, 0.785, 0.0975, 0.8825, 0.1975, 0.98, 0.295, 1.0775, 0.3925, 1.1775, 0.49, 1.275, 0.5875, 1.3725, 0.6875, 0, 0.785, 0.0975, 0.8825, 0.1975, 0.98, 0.295, 1.0775, 0.3925, 1.1775, 0.49, 1.275, 0.5875, 1.3725, 0.6875, 0, 0.785, 0.0975, 0.8825, 0.1975, 0.98, 0.295, 1.0775, 0.3925, 1.1775, 0.49, 1.275, 0.5875, 1.3725, 0.6875, 0, 0.785, 0.0975, 0.8825, 0.1975, 0.98, 0.295, 1.0775, 0.3925, 1.1775, 0.49, 1.275, 0.5875, 1.3725, 0.6875],
  "SoftwareVersions": "syngo MR E11",
  "SpacingBetweenSlices": 2,
  "StationName": "MRC35049",
  "TaskName": "mario3",
  "TotalReadoutTime": 0.0576811,
  "TxRefAmp": 276.172,
  "WipMemBlock": "76de5c3d-4f46-4ee5-9e35-73f14c05802b||Sequence: R017 ve11c/master r/75a17815+; Jun 28 2022 16:32:11 by eja",
  "dcmmeta_affine": [
    [-1.997427225112915, 0.04637422785162926, 0.0901881605386734, 103.13511657714844],
    [-0.007418454624712467, 1.7070608139038086, -1.0420596599578857, -49.934730529785156],
    [0.10114069283008575, 1.0410537719726562, 1.7046928405761719, -102.40422821044922],
    [0.0, 0.0, 0.0, 1.0]
],
  "dcmmeta_reorient_transform": [
    [0.0, -1.0, 0.0, 103.0],
    [1.0, 0.0, 0.0, 0.0],
    [0.0, 0.0, 1.0, 0.0],
    [0.0, 0.0, 0.0, 1.0]
],
  "dcmmeta_shape": [104, 104, 60, 306],
  "dcmmeta_slice_dim": 2,
  "dcmmeta_version": 0.6,
  "global": {
    "const": {
      "AcquisitionMatrix": [104, 0, 0, 104],
      "AngioFlag": "N",
      "BitsAllocated": 16,
      "BitsStored": 16,
      "BodyPartExamined": "BRAIN",
      "Columns": 832,
      "EchoNumbers": 1,
      "EchoTime": 37.0,
      "EchoTrainLength": 104,
      "FlipAngle": 52.0,
      "HighBit": 15,
      "ImageOrientationPatient": [0.9987136133941, 0.00370922741876, 0.050570347569, 0.02318711418637, 0.85353039275255, -0.520526873834],
      "ImagePositionPatient": [-851.85538860138, -749.96297274717, 346.95265950334],
      "ImageType": [
        "ORIGINAL",
        "PRIMARY",
        "P",
        "MB",
        "ND",
        "MOSAIC"
],
      "ImagedNucleus": "1H",
      "ImagingFrequency": 123.258818,
      "InPlanePhaseEncodingDirection": "COL",
      "LargestImagePixelValue": 4095,
      "MRAcquisitionType": "2D",
      "MagneticFieldStrength": 3.0,
      "Manufacturer": "SIEMENS",
      "ManufacturerModelName": "Prisma_fit",
      "Modality": "MR",
      "NumberOfAverages": 1.0,
      "NumberOfPhaseEncodingSteps": 104,
      "PercentPhaseFieldOfView": 100.0,
      "PercentSampling": 100.0,
      "PerformedProcedureStepStartTime": "161315.250000",
      "PhotometricInterpretation": "MONOCHROME2",
      "PixelBandwidth": 2290.0,
      "PixelRepresentation": 0,
      "PixelSpacing": [2.0, 2.0],
      "ProtocolName": "func_task-mario3_run-02",
      "RepetitionTime": 1490.0,
      "RescaleIntercept": -4096.0,
      "RescaleSlope": 2.0,
      "RescaleType": "US",
      "Rows": 832,
      "SAR": 0.05647046757033,
      "SamplesPerPixel": 1,
      "ScanOptions": "FS",
      "ScanningSequence": "EP",
      "SequenceName": "epfid2d1_104",
      "SequenceVariant": [
        "SK",
        "SS"
],
      "SeriesDescription": "func_task-mario3_run-02",
      "SeriesNumber": 14,
      "SeriesTime": "162807.724000",
      "SliceLocation": -56.615607256398,
      "SliceThickness": 2.0,
      "SmallestImagePixelValue": 0,
      "SoftwareVersions": "syngo MR E11",
      "SpacingBetweenSlices": 2.0000000105269,
      "SpecificCharacterSet": "ISO_IR 100",
      "StudyID": "1",
      "StudyTime": "161315.164000",
      "TransmitCoilName": "Body",
      "VariableFlipAngleFlag": "N",
      "WindowCenterWidthExplanation": "Algo1",
      "dBdt": 0.0},
    "slices": {}
  },
  "time": {
    "samples": {
      "AcquisitionNumber": [1, 2, 3, 4, 5, 6, 7, 8, 9, 10, 11, 12, 13, 14, 15, 16, 17, 18, 19, 20, 21, 22, 23, 24, 25, 26, 27, 28, 29, 30, 31, 32, 33, 34, 35, 36, 37, 38, 39, 40, 41, 42, 43, 44, 45, 46, 47, 48, 49, 50, 51, 52, 53, 54, 55, 56, 57, 58, 59, 60, 61, 62, 63, 64, 65, 66, 67, 68, 69, 70, 71, 72, 73, 74, 75, 76, 77, 78, 79, 80, 81, 82, 83, 84, 85, 86, 87, 88, 89, 90, 91, 92, 93, 94, 95, 96, 97, 98, 99, 100, 101, 102, 103, 104, 105, 106, 107, 108, 109, 110, 111, 112, 113, 114, 115, 116, 117, 118, 119, 120, 121, 122, 123, 124, 125, 126, 127, 128, 129, 130, 131, 132, 133, 134, 135, 136, 137, 138, 139, 140, 141, 142, 143, 144, 145, 146, 147, 148, 149, 150, 151, 152, 153, 154, 155, 156, 157, 158, 159, 160, 161, 162, 163, 164, 165, 166, 167, 168, 169, 170, 171, 172, 173, 174, 175, 176, 177, 178, 179, 180, 181, 182, 183, 184, 185, 186, 187, 188, 189, 190, 191, 192, 193, 194, 195, 196, 197, 198, 199, 200, 201, 202, 203, 204, 205, 206, 207, 208, 209, 210, 211, 212, 213, 214, 215, 216, 217, 218, 219, 220, 221, 222, 223, 224, 225, 226, 227, 228, 229, 230, 231, 232, 233, 234, 235, 236, 237, 238, 239, 240, 241, 242, 243, 244, 245, 246, 247, 248, 249, 250, 251, 252, 253, 254, 255, 256, 257, 258, 259, 260, 261, 262, 263, 264, 265, 266, 267, 268, 269, 270, 271, 272, 273, 274, 275, 276, 277, 278, 279, 280, 281, 282, 283, 284, 285, 286, 287, 288, 289, 290, 291, 292, 293, 294, 295, 296, 297, 298, 299, 300, 301, 302, 303, 304, 305, 306],
      "AcquisitionTime": ["162708.587500", "162710.077500", "162711.567500", "162713.057500", "162714.547500", "162716.037500", "162717.527500", "162719.017500", "162720.507500", "162721.997500", "162723.487500", "162724.977500", "162726.467500", "162727.957500", "162729.447500", "162730.937500", "162732.427500", "162733.917500", "162735.407500", "162736.897500", "162738.387500", "162739.877500", "162741.367500", "162742.857500", "162744.347500", "162745.837500", "162747.327500", "162748.817500", "162750.307500", "162751.797500", "162753.287500", "162754.777500", "162756.267500", "162757.757500", "162759.247500", "162800.737500", "162802.227500", "162803.717500", "162805.207500", "162806.697500", "162808.187500", "162809.677500", "162811.167500", "162812.657500", "162814.147500", "162815.637500", "162817.127500", "162818.617500", "162820.107500", "162821.597500", "162823.087500", "162824.577500", "162826.067500", "162827.557500", "162829.047500", "162830.537500", "162832.027500", "162833.517500", "162835.007500", "162836.497500", "162837.987500", "162839.477500", "162840.967500", "162842.457500", "162843.947500", "162845.437500", "162846.927500", "162848.417500", "162849.907500", "162851.397500", "162852.887500", "162854.377500", "162855.867500", "162857.357500", "162858.847500", "162900.337500", "162901.827500", "162903.317500", "162904.807500", "162906.297500", "162907.787500", "162909.277500", "162910.767500", "162912.257500", "162913.747500", "162915.237500", "162916.727500", "162918.217500", "162919.707500", "162921.197500", "162922.687500", "162924.177500", "162925.667500", "162927.157500", "162928.647500", "162930.137500", "162931.627500", "162933.117500", "162934.607500", "162936.097500", "162937.587500", "162939.077500", "162940.567500", "162942.057500", "162943.547500", "162945.037500", "162946.527500", "162948.017500", "162949.507500", "162950.997500", "162952.487500", "162953.977500", "162955.467500", "162956.957500", "162958.447500", "162959.937500", "163001.427500", "163002.917500", "163004.407500", "163005.897500", "163007.387500", "163008.877500", "163010.367500", "163011.857500", "163013.347500", "163014.837500", "163016.327500", "163017.817500", "163019.307500", "163020.797500", "163022.287500", "163023.777500", "163025.267500", "163026.757500", "163028.247500", "163029.737500", "163031.227500", "163032.717500", "163034.207500", "163035.697500", "163037.187500", "163038.677500", "163040.167500", "163041.657500", "163043.147500", "163044.637500", "163046.127500", "163047.617500", "163049.107500", "163050.597500", "163052.087500", "163053.577500", "163055.067500", "163056.557500", "163058.047500", "163059.537500", "163101.027500", "163102.517500", "163104.007500", "163105.497500", "163106.987500", "163108.477500", "163109.967500", "163111.457500", "163112.947500", "163114.437500", "163115.927500", "163117.417500", "163118.907500", "163120.397500", "163121.887500", "163123.377500", "163124.867500", "163126.357500", "163127.847500", "163129.337500", "163130.827500", "163132.317500", "163133.807500", "163135.297500", "163136.787500", "163138.277500", "163139.767500", "163141.257500", "163142.747500", "163144.237500", "163145.727500", "163147.217500", "163148.707500", "163150.197500", "163151.687500", "163153.177500", "163154.667500", "163156.157500", "163157.647500", "163159.137500", "163200.627500", "163202.117500", "163203.607500", "163205.097500", "163206.587500", "163208.077500", "163209.567500", "163211.057500", "163212.547500", "163214.037500", "163215.527500", "163217.017500", "163218.507500", "163219.997500", "163221.487500", "163222.977500", "163224.467500", "163225.957500", "163227.447500", "163228.937500", "163230.427500", "163231.917500", "163233.407500", "163234.897500", "163236.387500", "163237.877500", "163239.367500", "163240.857500", "163242.347500", "163243.837500", "163245.327500", "163246.817500", "163248.307500", "163249.797500", "163251.287500", "163252.777500", "163254.267500", "163255.757500", "163257.247500", "163258.737500", "163300.227500", "163301.717500", "163303.207500", "163304.697500", "163306.187500", "163307.677500", "163309.167500", "163310.657500", "163312.147500", "163313.637500", "163315.127500", "163316.617500", "163318.107500", "163319.597500", "163321.087500", "163322.577500", "163324.067500", "163325.557500", "163327.047500", "163328.537500", "163330.027500", "163331.517500", "163333.007500", "163334.497500", "163335.987500", "163337.477500", "163338.967500", "163340.457500", "163341.947500", "163343.437500", "163344.927500", "163346.417500", "163347.907500", "163349.397500", "163350.887500", "163352.377500", "163353.867500", "163355.357500", "163356.847500", "163358.337500", "163359.827500", "163401.317500", "163402.807500", "163404.297500", "163405.787500", "163407.277500", "163408.767500", "163410.257500", "163411.747500", "163413.237500", "163414.727500", "163416.217500", "163417.707500", "163419.197500", "163420.687500", "163422.177500", "163423.667500", "163425.157500", "163426.647500", "163428.137500", "163429.627500", "163431.117500", "163432.607500", "163434.097500", "163435.587500", "163437.077500", "163438.567500", "163440.057500", "163441.547500", "163443.037500"],
      "ContentTime": ["162807.726000", "162807.728000", "162807.732000", "162807.734000", "162807.737000", "162807.739000", "162807.742000", "162807.744000", "162807.747000", "162807.756000", "162827.714000", "162827.716000", "162827.719000", "162827.721000", "162827.724000", "162827.726000", "162827.729000", "162827.731000", "162827.734000", "162827.736000", "162827.738000", "162827.741000", "162827.743000", "162827.746000", "162827.748000", "162827.751000", "162827.753000", "162827.755000", "162827.758000", "162827.760000", "162847.724000", "162847.727000", "162847.729000", "162847.732000", "162847.734000", "162847.737000", "162847.739000", "162847.742000", "162847.744000", "162847.747000", "162847.749000", "162847.752000", "162847.754000", "162847.757000", "162847.759000", "162847.761000", "162847.764000", "162847.766000", "162847.769000", "162847.771000", "162847.774000", "162907.712000", "162907.714000", "162907.717000", "162907.719000", "162907.722000", "162907.724000", "162907.727000", "162907.729000", "162907.732000", "162907.734000", "162907.737000", "162907.739000", "162907.741000", "162907.744000", "162907.746000", "162907.749000", "162907.751000", "162907.754000", "162907.756000", "162907.759000", "162927.716000", "162927.719000", "162927.722000", "162927.724000", "162927.726000", "162927.729000", "162927.731000", "162927.734000", "162927.736000", "162927.739000", "162927.741000", "162927.744000", "162927.746000", "162927.749000", "162927.751000", "162927.754000", "162927.756000", "162927.758000", "162927.761000", "162927.763000", "163007.740000", "163007.743000", "163007.745000", "163007.748000", "163007.750000", "163007.753000", "163007.755000", "163007.758000", "163007.760000", "163007.763000", "163007.765000", "163007.767000", "163007.770000", "163007.772000", "163007.775000", "163007.777000", "163007.780000", "163007.782000", "163007.785000", "163007.787000", "163007.790000", "163007.792000", "163007.794000", "163007.797000", "163007.799000", "163007.802000", "163007.804000", "163007.807000", "163047.737000", "163047.740000", "163047.742000", "163047.745000", "163047.747000", "163047.750000", "163047.752000", "163047.755000", "163047.757000", "163047.759000", "163047.762000", "163047.764000", "163047.767000", "163047.769000", "163047.772000", "163047.774000", "163047.777000", "163047.779000", "163047.782000", "163047.784000", "163047.786000", "163047.789000", "163047.791000", "163047.794000", "163047.796000", "163047.799000", "163047.801000", "163128.395000", "163128.398000", "163128.400000", "163128.403000", "163128.405000", "163128.407000", "163128.410000", "163128.412000", "163128.415000", "163128.417000", "163128.420000", "163128.422000", "163128.425000", "163128.427000", "163128.429000", "163128.432000", "163128.434000", "163128.437000", "163128.439000", "163128.442000", "163128.444000", "163128.447000", "163128.449000", "163128.452000", "163128.454000", "163128.456000", "163128.459000", "163207.729000", "163207.732000", "163207.734000", "163207.737000", "163207.739000", "163207.742000", "163207.744000", "163207.746000", "163207.749000", "163207.751000", "163207.754000", "163207.756000", "163207.759000", "163207.761000", "163207.764000", "163207.766000", "163207.769000", "163207.771000", "163207.774000", "163207.776000", "163207.779000", "163207.781000", "163207.784000", "163207.786000", "163207.789000", "163207.791000", "163207.793000", "163247.738000", "163247.740000", "163247.743000", "163247.745000", "163247.748000", "163247.750000", "163247.753000", "163247.755000", "163247.758000", "163247.760000", "163247.763000", "163247.765000", "163247.767000", "163247.770000", "163247.772000", "163247.775000", "163247.777000", "163247.780000", "163247.782000", "163247.785000", "163247.787000", "163247.790000", "163247.792000", "163247.794000", "163247.797000", "163247.799000", "163327.740000", "163327.742000", "163327.745000", "163327.747000", "163327.750000", "163327.752000", "163327.755000", "163327.757000", "163327.760000", "163327.762000", "163327.765000", "163327.767000", "163327.770000", "163327.772000", "163327.775000", "163327.777000", "163327.779000", "163327.783000", "163327.786000", "163327.788000", "163327.791000", "163327.793000", "163327.796000", "163327.798000", "163327.801000", "163327.812000", "163327.814000", "163407.742000", "163407.745000", "163407.747000", "163407.750000", "163407.752000", "163407.755000", "163407.757000", "163407.759000", "163407.762000", "163407.764000", "163407.767000", "163407.769000", "163407.772000", "163407.774000", "163407.777000", "163407.779000", "163407.782000", "163407.784000", "163407.787000", "163407.789000", "163407.792000", "163407.794000", "163407.796000", "163407.799000", "163407.801000", "163407.804000", "163407.806000", "163446.542000", "163446.545000", "163446.548000", "163446.551000", "163446.553000", "163446.556000", "163446.559000", "163446.562000", "163446.565000", "163446.567000", "163446.570000", "163446.573000", "163446.575000", "163446.578000", "163446.580000", "163446.583000", "163446.586000", "163446.589000", "163446.592000", "163446.594000", "163446.597000", "163446.600000", "163446.603000", "163446.606000", "163446.609000", "163446.611000"],
      "InstanceCreationTime": ["162807.726000", "162807.728000", "162807.732000", "162807.734000", "162807.737000", "162807.739000", "162807.742000", "162807.744000", "162807.747000", "162807.756000", "162827.714000", "162827.716000", "162827.719000", "162827.721000", "162827.724000", "162827.726000", "162827.729000", "162827.731000", "162827.734000", "162827.736000", "162827.738000", "162827.741000", "162827.743000", "162827.746000", "162827.748000", "162827.751000", "162827.753000", "162827.755000", "162827.758000", "162827.760000", "162847.724000", "162847.727000", "162847.729000", "162847.732000", "162847.734000", "162847.737000", "162847.739000", "162847.742000", "162847.744000", "162847.747000", "162847.749000", "162847.752000", "162847.754000", "162847.757000", "162847.759000", "162847.761000", "162847.764000", "162847.766000", "162847.769000", "162847.771000", "162847.774000", "162907.712000", "162907.714000", "162907.717000", "162907.719000", "162907.722000", "162907.724000", "162907.727000", "162907.729000", "162907.732000", "162907.734000", "162907.737000", "162907.739000", "162907.741000", "162907.744000", "162907.746000", "162907.749000", "162907.751000", "162907.754000", "162907.756000", "162907.759000", "162927.716000", "162927.719000", "162927.722000", "162927.724000", "162927.726000", "162927.729000", "162927.731000", "162927.734000", "162927.736000", "162927.739000", "162927.741000", "162927.744000", "162927.746000", "162927.749000", "162927.751000", "162927.754000", "162927.756000", "162927.758000", "162927.761000", "162927.763000", "163007.740000", "163007.743000", "163007.745000", "163007.748000", "163007.750000", "163007.753000", "163007.755000", "163007.758000", "163007.760000", "163007.763000", "163007.765000", "163007.767000", "163007.770000", "163007.772000", "163007.775000", "163007.777000", "163007.780000", "163007.782000", "163007.785000", "163007.787000", "163007.790000", "163007.792000", "163007.794000", "163007.797000", "163007.799000", "163007.802000", "163007.804000", "163007.807000", "163047.737000", "163047.740000", "163047.742000", "163047.745000", "163047.747000", "163047.750000", "163047.752000", "163047.755000", "163047.757000", "163047.759000", "163047.762000", "163047.764000", "163047.767000", "163047.769000", "163047.772000", "163047.774000", "163047.777000", "163047.779000", "163047.782000", "163047.784000", "163047.786000", "163047.789000", "163047.791000", "163047.794000", "163047.796000", "163047.799000", "163047.801000", "163128.395000", "163128.398000", "163128.400000", "163128.403000", "163128.405000", "163128.407000", "163128.410000", "163128.412000", "163128.415000", "163128.417000", "163128.420000", "163128.422000", "163128.425000", "163128.427000", "163128.429000", "163128.432000", "163128.434000", "163128.437000", "163128.439000", "163128.442000", "163128.444000", "163128.447000", "163128.449000", "163128.452000", "163128.454000", "163128.456000", "163128.459000", "163207.729000", "163207.732000", "163207.734000", "163207.737000", "163207.739000", "163207.742000", "163207.744000", "163207.746000", "163207.749000", "163207.751000", "163207.754000", "163207.756000", "163207.759000", "163207.761000", "163207.764000", "163207.766000", "163207.769000", "163207.771000", "163207.774000", "163207.776000", "163207.779000", "163207.781000", "163207.784000", "163207.786000", "163207.789000", "163207.791000", "163207.793000", "163247.738000", "163247.740000", "163247.743000", "163247.745000", "163247.748000", "163247.750000", "163247.753000", "163247.755000", "163247.758000", "163247.760000", "163247.763000", "163247.765000", "163247.767000", "163247.770000", "163247.772000", "163247.775000", "163247.777000", "163247.780000", "163247.782000", "163247.785000", "163247.787000", "163247.790000", "163247.792000", "163247.794000", "163247.797000", "163247.799000", "163327.740000", "163327.742000", "163327.745000", "163327.747000", "163327.750000", "163327.752000", "163327.755000", "163327.757000", "163327.760000", "163327.762000", "163327.765000", "163327.767000", "163327.770000", "163327.772000", "163327.775000", "163327.777000", "163327.779000", "163327.783000", "163327.786000", "163327.788000", "163327.791000", "163327.793000", "163327.796000", "163327.798000", "163327.801000", "163327.812000", "163327.814000", "163407.742000", "163407.745000", "163407.747000", "163407.750000", "163407.752000", "163407.755000", "163407.757000", "163407.759000", "163407.762000", "163407.764000", "163407.767000", "163407.769000", "163407.772000", "163407.774000", "163407.777000", "163407.779000", "163407.782000", "163407.784000", "163407.787000", "163407.789000", "163407.792000", "163407.794000", "163407.796000", "163407.799000", "163407.801000", "163407.804000", "163407.806000", "163446.542000", "163446.545000", "163446.548000", "163446.551000", "163446.553000", "163446.556000", "163446.559000", "163446.562000", "163446.565000", "163446.567000", "163446.570000", "163446.573000", "163446.575000", "163446.578000", "163446.580000", "163446.583000", "163446.586000", "163446.589000", "163446.592000", "163446.594000", "163446.597000", "163446.600000", "163446.603000", "163446.606000", "163446.609000", "163446.611000"],
      "InstanceNumber": [1, 2, 3, 4, 5, 6, 7, 8, 9, 10, 11, 12, 13, 14, 15, 16, 17, 18, 19, 20, 21, 22, 23, 24, 25, 26, 27, 28, 29, 30, 31, 32, 33, 34, 35, 36, 37, 38, 39, 40, 41, 42, 43, 44, 45, 46, 47, 48, 49, 50, 51, 52, 53, 54, 55, 56, 57, 58, 59, 60, 61, 62, 63, 64, 65, 66, 67, 68, 69, 70, 71, 72, 73, 74, 75, 76, 77, 78, 79, 80, 81, 82, 83, 84, 85, 86, 87, 88, 89, 90, 91, 92, 93, 94, 95, 96, 97, 98, 99, 100, 101, 102, 103, 104, 105, 106, 107, 108, 109, 110, 111, 112, 113, 114, 115, 116, 117, 118, 119, 120, 121, 122, 123, 124, 125, 126, 127, 128, 129, 130, 131, 132, 133, 134, 135, 136, 137, 138, 139, 140, 141, 142, 143, 144, 145, 146, 147, 148, 149, 150, 151, 152, 153, 154, 155, 156, 157, 158, 159, 160, 161, 162, 163, 164, 165, 166, 167, 168, 169, 170, 171, 172, 173, 174, 175, 176, 177, 178, 179, 180, 181, 182, 183, 184, 185, 186, 187, 188, 189, 190, 191, 192, 193, 194, 195, 196, 197, 198, 199, 200, 201, 202, 203, 204, 205, 206, 207, 208, 209, 210, 211, 212, 213, 214, 215, 216, 217, 218, 219, 220, 221, 222, 223, 224, 225, 226, 227, 228, 229, 230, 231, 232, 233, 234, 235, 236, 237, 238, 239, 240, 241, 242, 243, 244, 245, 246, 247, 248, 249, 250, 251, 252, 253, 254, 255, 256, 257, 258, 259, 260, 261, 262, 263, 264, 265, 266, 267, 268, 269, 270, 271, 272, 273, 274, 275, 276, 277, 278, 279, 280, 281, 282, 283, 284, 285, 286, 287, 288, 289, 290, 291, 292, 293, 294, 295, 296, 297, 298, 299, 300, 301, 302, 303, 304, 305, 306],
      "WindowCenter": [4852.0, 4820.0, 4848.0, 4880.0, 4890.0, 4880.0, 4882.0, 4882.0, 4820.0, 4820.0, 4788.0, 4724.0, 4760.0, 4854.0, 4784.0, 4922.0, 4918.0, 4932.0, 4926.0, 4892.0, 4854.0, 4786.0, 4760.0, 4788.0, 4788.0, 4822.0, 4886.0, 4916.0, 4888.0, 4890.0, 4890.0, 4824.0, 4854.0, 4816.0, 4846.0, 4818.0, 4848.0, 4780.0, 4854.0, 4880.0, 4882.0, 4894.0, 4860.0, 4784.0, 4760.0, 4880.0, 4850.0, 4856.0, 4878.0, 4890.0, 4856.0, 4826.0, 4846.0, 4790.0, 4784.0, 4824.0, 4844.0, 4854.0, 4918.0, 4886.0, 4918.0, 4822.0, 4708.0, 4726.0, 4884.0, 4920.0, 4926.0, 4930.0, 4892.0, 4884.0, 4820.0, 4758.0, 4758.0, 4756.0, 4784.0, 4850.0, 4856.0, 4924.0, 4890.0, 4884.0, 4856.0, 4816.0, 4786.0, 4820.0, 4812.0, 4824.0, 4856.0, 4824.0, 4854.0, 4858.0, 4822.0, 4852.0, 4850.0, 4812.0, 4786.0, 4818.0, 4814.0, 4854.0, 4882.0, 4850.0, 4848.0, 4846.0, 4816.0, 4850.0, 4788.0, 4816.0, 4846.0, 4848.0, 4886.0, 4728.0, 4844.0, 4854.0, 4854.0, 4876.0, 4842.0, 4878.0, 4828.0, 4730.0, 4788.0, 4754.0, 4790.0, 4784.0, 4814.0, 4884.0, 4878.0, 4882.0, 4882.0, 4848.0, 4840.0, 4814.0, 4784.0, 4846.0, 4790.0, 4698.0, 4818.0, 4886.0, 4924.0, 4930.0, 4926.0, 4788.0, 4710.0, 4760.0, 4784.0, 4848.0, 4918.0, 4922.0, 4894.0, 4890.0, 4830.0, 4816.0, 4730.0, 4756.0, 4730.0, 4754.0, 4848.0, 4894.0, 4918.0, 4920.0, 4842.0, 4784.0, 4788.0, 4886.0, 4882.0, 4884.0, 4884.0, 4848.0, 4812.0, 4814.0, 4856.0, 4888.0, 4764.0, 4730.0, 4890.0, 4916.0, 4918.0, 4920.0, 4756.0, 4756.0, 4756.0, 4812.0, 4878.0, 4916.0, 4918.0, 4888.0, 4854.0, 4820.0, 4818.0, 4756.0, 4754.0, 4852.0, 4824.0, 4730.0, 4888.0, 4922.0, 4906.0, 4926.0, 4892.0, 4852.0, 4790.0, 4756.0, 4760.0, 4818.0, 4750.0, 4710.0, 4886.0, 4908.0, 4890.0, 4888.0, 4930.0, 4918.0, 4814.0, 4732.0, 4736.0, 4732.0, 4734.0, 4784.0, 4884.0, 4924.0, 4924.0, 4922.0, 4926.0, 4916.0, 4822.0, 4820.0, 4788.0, 4784.0, 4792.0, 4850.0, 4884.0, 4848.0, 4888.0, 4896.0, 4858.0, 4886.0, 4890.0, 4884.0, 4820.0, 4848.0, 4854.0, 4850.0, 4858.0, 4882.0, 4794.0, 4706.0, 4756.0, 4888.0, 4922.0, 4928.0, 4922.0, 4918.0, 4850.0, 4816.0, 4784.0, 4760.0, 4760.0, 4846.0, 4888.0, 4854.0, 4892.0, 4918.0, 4852.0, 4854.0, 4818.0, 4790.0, 4848.0, 4728.0, 4752.0, 4892.0, 4926.0, 4920.0, 4924.0, 4926.0, 4856.0, 4790.0, 4732.0, 4756.0, 4784.0, 4818.0, 4894.0, 4882.0, 4920.0, 4922.0, 4884.0, 4886.0, 4788.0, 4820.0, 4782.0, 4850.0, 4888.0, 4850.0, 4886.0, 4884.0, 4856.0, 4852.0, 4854.0, 4884.0, 4758.0, 4786.0, 4814.0, 4784.0, 4892.0, 4918.0, 4920.0, 4924.0, 4882.0, 4878.0],
      "WindowWidth": [18704.0, 18664.0, 18698.0, 18744.0, 18746.0, 18742.0, 18744.0, 18740.0, 18666.0, 18666.0, 18616.0, 18530.0, 18580.0, 18696.0, 18622.0, 18772.0, 18768.0, 18754.0, 18762.0, 18740.0, 18696.0, 18612.0, 18574.0, 18614.0, 18612.0, 18656.0, 18732.0, 18772.0, 18738.0, 18738.0, 18736.0, 18658.0, 18700.0, 18654.0, 18692.0, 18660.0, 18692.0, 18612.0, 18700.0, 18736.0, 18738.0, 18740.0, 18702.0, 18616.0, 18582.0, 18736.0, 18700.0, 18704.0, 18736.0, 18736.0, 18706.0, 18664.0, 18690.0, 18616.0, 18608.0, 18656.0, 18690.0, 18696.0, 18770.0, 18742.0, 18770.0, 18660.0, 18498.0, 18538.0, 18734.0, 18760.0, 18754.0, 18770.0, 18740.0, 18732.0, 18652.0, 18574.0, 18574.0, 18574.0, 18606.0, 18690.0, 18698.0, 18772.0, 18732.0, 18730.0, 18698.0, 18652.0, 18624.0, 18660.0, 18648.0, 18660.0, 18698.0, 18662.0, 18702.0, 18700.0, 18662.0, 18692.0, 18696.0, 18646.0, 18608.0, 18652.0, 18650.0, 18700.0, 18732.0, 18702.0, 18694.0, 18692.0, 18652.0, 18696.0, 18614.0, 18660.0, 18698.0, 18692.0, 18736.0, 18540.0, 18692.0, 18698.0, 18698.0, 18740.0, 18694.0, 18734.0, 18664.0, 18542.0, 18614.0, 18582.0, 18620.0, 18616.0, 18662.0, 18740.0, 18734.0, 18742.0, 18736.0, 18702.0, 18692.0, 18656.0, 18614.0, 18696.0, 18614.0, 18494.0, 18656.0, 18742.0, 18772.0, 18750.0, 18760.0, 18616.0, 18498.0, 18574.0, 18612.0, 18692.0, 18768.0, 18770.0, 18742.0, 18740.0, 18666.0, 18646.0, 18528.0, 18572.0, 18536.0, 18572.0, 18698.0, 18746.0, 18772.0, 18774.0, 18698.0, 18622.0, 18618.0, 18738.0, 18736.0, 18738.0, 18732.0, 18694.0, 18648.0, 18652.0, 18704.0, 18734.0, 18582.0, 18542.0, 18736.0, 18764.0, 18760.0, 18760.0, 18580.0, 18584.0, 18578.0, 18658.0, 18734.0, 18764.0, 18780.0, 18748.0, 18704.0, 18660.0, 18658.0, 18570.0, 18572.0, 18696.0, 18658.0, 18548.0, 18738.0, 18758.0, 18704.0, 18744.0, 18738.0, 18690.0, 18612.0, 18572.0, 18574.0, 18652.0, 18538.0, 18494.0, 18732.0, 18704.0, 18658.0, 18654.0, 18736.0, 18766.0, 18648.0, 18536.0, 18538.0, 18536.0, 18540.0, 18610.0, 18734.0, 18768.0, 18768.0, 18762.0, 18768.0, 18770.0, 18662.0, 18652.0, 18614.0, 18608.0, 18614.0, 18692.0, 18736.0, 18696.0, 18736.0, 18738.0, 18702.0, 18736.0, 18736.0, 18732.0, 18654.0, 18694.0, 18696.0, 18694.0, 18700.0, 18736.0, 18616.0, 18494.0, 18578.0, 18736.0, 18764.0, 18750.0, 18762.0, 18770.0, 18700.0, 18652.0, 18610.0, 18572.0, 18578.0, 18690.0, 18738.0, 18702.0, 18738.0, 18768.0, 18700.0, 18700.0, 18656.0, 18616.0, 18694.0, 18530.0, 18568.0, 18742.0, 18760.0, 18762.0, 18752.0, 18766.0, 18702.0, 18616.0, 18538.0, 18570.0, 18610.0, 18656.0, 18736.0, 18738.0, 18766.0, 18764.0, 18734.0, 18732.0, 18612.0, 18652.0, 18610.0, 18696.0, 18736.0, 18692.0, 18736.0, 18738.0, 18702.0, 18704.0, 18702.0, 18738.0, 18580.0, 18620.0, 18652.0, 18618.0, 18738.0, 18774.0, 18766.0, 18770.0, 18736.0, 18736.0]
    },
    "slices": {}
  }
}