{
  "AcquisitionMatrixPE": 104,
  "AcquisitionNumber": 1,
  "AcquisitionTime": "11:37:21.800000",
  "BandwidthPerPixelPhaseEncode": 17.17,
  "BaseResolution": 104,
  "BodyPartExamined": "BRAIN",
  "CoilCombinationMethod": "Sum of Squares",
  "ConsistencyInfo": "N4_VE11C_LATEST_20160120",
  "ConversionSoftware": "dcm2niix",
  "ConversionSoftwareVersion": "v1.0.20220505",
  "DerivedVendorReportedEchoSpacing": 0.000560011,
  "DeviceSerialNumber": "167006",
  "DwellTime": 2.1e-06,
  "EchoTime": 0.037,
  "EchoTime1": 0.037,
  "EchoTime2": 0.001,
  "EchoTrainLength": 104,
  "EffectiveEchoSpacing": 0.000560011,
  "FlipAngle": 52,
  "HeudiconvVersion": "0.5.3.post811+g6206e14",
  "ImageComments": "Unaliased MB4/PE3/LB",
  "ImageOrientationPatientDICOM": [0.995275, 0.094525, 0.0221887, -0.0816517, 0.938488, -0.335518],
  "ImageOrientationText": "Tra>Cor(-19.4)>Sag(3.0)",
  "ImageType": [
    "ORIGINAL",
    "PRIMARY",
    "P",
    "MB",
    "ND",
    "MOSAIC",
    "PHASE"
],
  "ImagingFrequency": 123.259,
  "InPlanePhaseEncodingDirectionDICOM": "COL",
  "InstitutionAddress": "Chemin Queen-Mary 4565,Montreal,District,CA,H3W 1W5",
  "InstitutionName": "IUGM",
  "InstitutionalDepartmentName": "Department",
  "MRAcquisitionType": "2D",
  "MagneticFieldStrength": 3,
  "Manufacturer": "Siemens",
  "ManufacturersModelName": "Prisma_fit",
  "MatrixCoilMode": "SENSE",
  "Modality": "MR",
  "MultibandAccelerationFactor": 4,
  "PartialFourier": 1,
  "PatientPosition": "HFS",
  "PercentPhaseFOV": 100,
  "PercentSampling": 100,
  "PhaseEncodingDirection": "j",
  "PhaseEncodingSteps": 104,
  "PhaseResolution": 1,
  "PixelBandwidth": 2290,
  "ProcedureStepDescription": "games^mario3",
  "ProtocolName": "func_task-mario3_run-02",
  "PulseSequenceDetails": "%CustomerSeq%\\cmrr_mbep2d_bold",
  "ReceiveCoilActiveElements": "HC1-7;NC1,2",
  "ReceiveCoilName": "HeadNeck_64",
  "ReconMatrixPE": 104,
  "RepetitionTime": 1.49,
  "SAR": 0.0812972,
  "ScanOptions": "FS",
  "ScanningSequence": "EP",
  "SequenceName": "epfid2d1_104",
  "SequenceVariant": "SK\\SS",
  "SeriesDescription": "func_task-mario3_run-02",
  "SeriesNumber": 14,
  "ShimSetting": [628, -7198, -8792, 645, 90, 7, -22, 9],
  "SliceThickness": 2,
  "SliceTiming": [0, 0.785, 0.0975, 0.8825, 0.195, 0.98, 0.295, 1.0775, 0.3925, 1.175, 0.49, 1.275, 0.5875, 1.3725, 0.685, 0, 0.785, 0.0975, 0.8825, 0.195, 0.98, 0.295, 1.0775, 0.3925, 1.175, 0.49, 1.275, 0.5875, 1.3725, 0.685, 0, 0.785, 0.0975, 0.8825, 0.195, 0.98, 0.295, 1.0775, 0.3925, 1.175, 0.49, 1.275, 0.5875, 1.3725, 0.685, 0, 0.785, 0.0975, 0.8825, 0.195, 0.98, 0.295, 1.0775, 0.3925, 1.175, 0.49, 1.275, 0.5875, 1.3725, 0.685],
  "SoftwareVersions": "syngo MR E11",
  "SpacingBetweenSlices": 2,
  "StationName": "MRC35049",
  "TaskName": "mario3",
  "TotalReadoutTime": 0.0576811,
  "TxRefAmp": 316.058,
  "WipMemBlock": "65ac1950-c6c6-4e01-9476-f9dd1ade0a38||Sequence: R017 ve11c/master r/75a17815+; Jun 28 2022 16:32:11 by eja",
  "dcmmeta_affine": [
    [-1.9905503988265991, -0.16330337524414062, 0.10507746785879135, 110.75867462158203],
    [-0.18905001878738403, 1.876976728439331, -0.6642428040504456, -50.97745132446289],
    [0.04437743127346039, 0.6710368394851685, 1.883544683456421, -53.84955596923828],
    [0.0, 0.0, 0.0, 1.0]
],
  "dcmmeta_reorient_transform": [
    [0.0, -1.0, 0.0, 103.0],
    [1.0, 0.0, 0.0, 0.0],
    [0.0, 0.0, 1.0, 0.0],
    [0.0, 0.0, 0.0, 1.0]
],
  "dcmmeta_shape": [104, 104, 60, 353],
  "dcmmeta_slice_dim": 2,
  "dcmmeta_version": 0.6,
  "global": {
    "const": {
      "AcquisitionMatrix": [104, 0, 0, 104],
      "AngioFlag": "N",
      "BitsAllocated": 16,
      "BitsStored": 16,
      "BodyPartExamined": "BRAIN",
      "Columns": 832,
      "EchoNumbers": 1,
      "EchoTime": 37.0,
      "EchoTrainLength": 104,
      "FlipAngle": 52.0,
      "HighBit": 15,
      "ImageOrientationPatient": [0.99527517946697, 0.09452501254459, 0.02218871651163, -0.0816516906238, 0.93848835867708, -0.3355184079091],
      "ImagePositionPatient": [-759.05632648923, -894.38488379808, 243.37124959283],
      "ImageType": [
        "ORIGINAL",
        "PRIMARY",
        "P",
        "MB",
        "ND",
        "MOSAIC"
],
      "ImagedNucleus": "1H",
      "ImagingFrequency": 123.258791,
      "InPlanePhaseEncodingDirection": "COL",
      "LargestImagePixelValue": 4095,
      "MRAcquisitionType": "2D",
      "MagneticFieldStrength": 3.0,
      "Manufacturer": "SIEMENS",
      "ManufacturerModelName": "Prisma_fit",
      "Modality": "MR",
      "NumberOfAverages": 1.0,
      "NumberOfPhaseEncodingSteps": 104,
      "PercentPhaseFieldOfView": 100.0,
      "PercentSampling": 100.0,
      "PerformedProcedureStepStartTime": "112134.106000",
      "PhotometricInterpretation": "MONOCHROME2",
      "PixelBandwidth": 2290.0,
      "PixelRepresentation": 0,
      "PixelSpacing": [2.0, 2.0],
      "ProtocolName": "func_task-mario3_run-02",
      "RepetitionTime": 1490.0,
      "RescaleIntercept": -4096.0,
      "RescaleSlope": 2.0,
      "RescaleType": "US",
      "Rows": 832,
      "SAR": 0.08129716136114,
      "SamplesPerPixel": 1,
      "ScanOptions": "FS",
      "ScanningSequence": "EP",
      "SequenceName": "epfid2d1_104",
      "SequenceVariant": [
        "SK",
        "SS"
],
      "SeriesDescription": "func_task-mario3_run-02",
      "SeriesNumber": 14,
      "SeriesTime": "113848.366000",
      "SliceLocation": -27.964198450415,
      "SliceThickness": 2.0,
      "SmallestImagePixelValue": 0,
      "SoftwareVersions": "syngo MR E11",
      "SpacingBetweenSlices": 2.0000000696305,
      "SpecificCharacterSet": "ISO_IR 100",
      "StudyID": "1",
      "StudyTime": "112134.007000",
      "TransmitCoilName": "Body",
      "VariableFlipAngleFlag": "N",
      "WindowCenterWidthExplanation": "Algo1",
      "dBdt": 0.0},
    "slices": {}
  },
  "time": {
    "samples": {
      "AcquisitionNumber": [1, 2, 3, 4, 5, 6, 7, 8, 9, 10, 11, 12, 13, 14, 15, 16, 17, 18, 19, 20, 21, 22, 23, 24, 25, 26, 27, 28, 29, 30, 31, 32, 33, 34, 35, 36, 37, 38, 39, 40, 41, 42, 43, 44, 45, 46, 47, 48, 49, 50, 51, 52, 53, 54, 55, 56, 57, 58, 59, 60, 61, 62, 63, 64, 65, 66, 67, 68, 69, 70, 71, 72, 73, 74, 75, 76, 77, 78, 79, 80, 81, 82, 83, 84, 85, 86, 87, 88, 89, 90, 91, 92, 93, 94, 95, 96, 97, 98, 99, 100, 101, 102, 103, 104, 105, 106, 107, 108, 109, 110, 111, 112, 113, 114, 115, 116, 117, 118, 119, 120, 121, 122, 123, 124, 125, 126, 127, 128, 129, 130, 131, 132, 133, 134, 135, 136, 137, 138, 139, 140, 141, 142, 143, 144, 145, 146, 147, 148, 149, 150, 151, 152, 153, 154, 155, 156, 157, 158, 159, 160, 161, 162, 163, 164, 165, 166, 167, 168, 169, 170, 171, 172, 173, 174, 175, 176, 177, 178, 179, 180, 181, 182, 183, 184, 185, 186, 187, 188, 189, 190, 191, 192, 193, 194, 195, 196, 197, 198, 199, 200, 201, 202, 203, 204, 205, 206, 207, 208, 209, 210, 211, 212, 213, 214, 215, 216, 217, 218, 219, 220, 221, 222, 223, 224, 225, 226, 227, 228, 229, 230, 231, 232, 233, 234, 235, 236, 237, 238, 239, 240, 241, 242, 243, 244, 245, 246, 247, 248, 249, 250, 251, 252, 253, 254, 255, 256, 257, 258, 259, 260, 261, 262, 263, 264, 265, 266, 267, 268, 269, 270, 271, 272, 273, 274, 275, 276, 277, 278, 279, 280, 281, 282, 283, 284, 285, 286, 287, 288, 289, 290, 291, 292, 293, 294, 295, 296, 297, 298, 299, 300, 301, 302, 303, 304, 305, 306, 307, 308, 309, 310, 311, 312, 313, 314, 315, 316, 317, 318, 319, 320, 321, 322, 323, 324, 325, 326, 327, 328, 329, 330, 331, 332, 333, 334, 335, 336, 337, 338, 339, 340, 341, 342, 343, 344, 345, 346, 347, 348, 349, 350, 351, 352, 353],
      "AcquisitionTime": ["113721.800000", "113723.290000", "113724.780000", "113726.270000", "113727.760000", "113729.250000", "113730.740000", "113732.230000", "113733.720000", "113735.210000", "113736.700000", "113738.190000", "113739.680000", "113741.170000", "113742.660000", "113744.150000", "113745.640000", "113747.130000", "113748.620000", "113750.110000", "113751.600000", "113753.090000", "113754.580000", "113756.070000", "113757.560000", "113759.050000", "113800.540000", "113802.030000", "113803.520000", "113805.010000", "113806.500000", "113807.990000", "113809.480000", "113810.970000", "113812.460000", "113813.950000", "113815.440000", "113816.930000", "113818.420000", "113819.910000", "113821.400000", "113822.890000", "113824.380000", "113825.870000", "113827.360000", "113828.850000", "113830.340000", "113831.830000", "113833.320000", "113834.810000", "113836.300000", "113837.790000", "113839.280000", "113840.770000", "113842.260000", "113843.750000", "113845.240000", "113846.730000", "113848.220000", "113849.710000", "113851.200000", "113852.690000", "113854.180000", "113855.670000", "113857.160000", "113858.650000", "113900.140000", "113901.630000", "113903.120000", "113904.610000", "113906.100000", "113907.590000", "113909.080000", "113910.570000", "113912.060000", "113913.550000", "113915.040000", "113916.530000", "113918.020000", "113919.510000", "113921.000000", "113922.490000", "113923.980000", "113925.470000", "113926.960000", "113928.450000", "113929.940000", "113931.430000", "113932.920000", "113934.410000", "113935.900000", "113937.390000", "113938.880000", "113940.370000", "113941.860000", "113943.350000", "113944.840000", "113946.330000", "113947.820000", "113949.310000", "113950.800000", "113952.290000", "113953.780000", "113955.270000", "113956.760000", "113958.250000", "113959.740000", "114001.230000", "114002.720000", "114004.210000", "114005.700000", "114007.190000", "114008.680000", "114010.170000", "114011.660000", "114013.150000", "114014.640000", "114016.130000", "114017.620000", "114019.110000", "114020.600000", "114022.090000", "114023.580000", "114025.070000", "114026.560000", "114028.050000", "114029.540000", "114031.030000", "114032.520000", "114034.010000", "114035.500000", "114036.990000", "114038.480000", "114039.970000", "114041.460000", "114042.950000", "114044.440000", "114045.930000", "114047.420000", "114048.910000", "114050.400000", "114051.890000", "114053.380000", "114054.870000", "114056.360000", "114057.850000", "114059.340000", "114100.830000", "114102.320000", "114103.810000", "114105.300000", "114106.790000", "114108.280000", "114109.770000", "114111.260000", "114112.750000", "114114.240000", "114115.730000", "114117.220000", "114118.710000", "114120.200000", "114121.690000", "114123.180000", "114124.670000", "114126.160000", "114127.650000", "114129.140000", "114130.630000", "114132.120000", "114133.610000", "114135.100000", "114136.590000", "114138.080000", "114139.570000", "114141.060000", "114142.550000", "114144.040000", "114145.530000", "114147.020000", "114148.510000", "114150.000000", "114151.490000", "114152.980000", "114154.470000", "114155.960000", "114157.450000", "114158.940000", "114200.430000", "114201.920000", "114203.410000", "114204.900000", "114206.390000", "114207.880000", "114209.370000", "114210.860000", "114212.350000", "114213.840000", "114215.330000", "114216.820000", "114218.310000", "114219.800000", "114221.290000", "114222.780000", "114224.270000", "114225.760000", "114227.250000", "114228.740000", "114230.230000", "114231.720000", "114233.210000", "114234.700000", "114236.190000", "114237.680000", "114239.170000", "114240.660000", "114242.150000", "114243.640000", "114245.130000", "114246.620000", "114248.110000", "114249.600000", "114251.090000", "114252.580000", "114254.070000", "114255.560000", "114257.050000", "114258.540000", "114300.030000", "114301.520000", "114303.010000", "114304.500000", "114305.990000", "114307.480000", "114308.970000", "114310.460000", "114311.950000", "114313.440000", "114314.930000", "114316.420000", "114317.910000", "114319.400000", "114320.890000", "114322.380000", "114323.870000", "114325.360000", "114326.850000", "114328.340000", "114329.830000", "114331.320000", "114332.810000", "114334.300000", "114335.790000", "114337.280000", "114338.770000", "114340.260000", "114341.750000", "114343.240000", "114344.730000", "114346.220000", "114347.710000", "114349.200000", "114350.690000", "114352.180000", "114353.670000", "114355.160000", "114356.650000", "114358.140000", "114359.630000", "114401.120000", "114402.610000", "114404.100000", "114405.590000", "114407.080000", "114408.570000", "114410.060000", "114411.550000", "114413.040000", "114414.530000", "114416.020000", "114417.510000", "114419.000000", "114420.490000", "114421.980000", "114423.470000", "114424.960000", "114426.450000", "114427.940000", "114429.430000", "114430.920000", "114432.410000", "114433.900000", "114435.390000", "114436.880000", "114438.370000", "114439.860000", "114441.350000", "114442.840000", "114444.330000", "114445.820000", "114447.310000", "114448.800000", "114450.290000", "114451.780000", "114453.270000", "114454.760000", "114456.250000", "114457.740000", "114459.230000", "114500.720000", "114502.210000", "114503.700000", "114505.190000", "114506.680000", "114508.170000", "114509.660000", "114511.150000", "114512.640000", "114514.130000", "114515.620000", "114517.110000", "114518.600000", "114520.090000", "114521.580000", "114523.070000", "114524.560000", "114526.050000", "114527.540000", "114529.030000", "114530.520000", "114532.010000", "114533.500000", "114534.990000", "114536.480000", "114537.970000", "114539.460000", "114540.950000", "114542.440000", "114543.930000", "114545.420000", "114546.910000", "114548.400000", "114549.890000", "114551.380000", "114552.870000", "114554.360000", "114555.850000", "114557.340000", "114558.830000", "114600.320000", "114601.810000", "114603.300000", "114604.790000", "114606.280000"],
      "ContentTime": ["113848.368000", "113848.371000", "113848.374000", "113848.376000", "113848.379000", "113848.381000", "113848.384000", "113848.386000", "113848.389000", "113848.391000", "113848.394000", "113848.396000", "113848.399000", "113848.401000", "113848.404000", "113848.406000", "113848.408000", "113848.411000", "113848.413000", "113848.416000", "113848.419000", "113848.421000", "113848.423000", "113848.426000", "113848.429000", "113848.431000", "113848.434000", "113848.436000", "113848.439000", "113848.443000", "113848.446000", "113848.463000", "113848.466000", "113848.468000", "113848.471000", "113848.474000", "113848.476000", "113907.806000", "113907.809000", "113907.811000", "113907.814000", "113907.816000", "113907.819000", "113907.821000", "113907.824000", "113907.826000", "113907.829000", "113907.837000", "113907.840000", "113907.842000", "113907.845000", "113907.847000", "113907.850000", "113907.852000", "113907.855000", "113907.857000", "113907.860000", "113927.805000", "113927.808000", "113927.810000", "113927.813000", "113927.815000", "113927.818000", "113927.820000", "113927.823000", "113927.825000", "113927.828000", "113927.830000", "113927.833000", "113927.835000", "113927.838000", "113927.840000", "113927.843000", "113927.845000", "113927.848000", "113927.850000", "113927.853000", "113947.811000", "113947.813000", "113947.816000", "113947.818000", "113947.821000", "113947.823000", "113947.826000", "113947.828000", "113947.831000", "113947.833000", "113947.836000", "113947.838000", "113947.841000", "113947.843000", "113947.846000", "113947.858000", "113947.861000", "113947.863000", "113947.866000", "113947.868000", "114027.858000", "114027.861000", "114027.863000", "114027.866000", "114027.868000", "114027.871000", "114027.874000", "114027.876000", "114027.879000", "114027.881000", "114027.884000", "114027.886000", "114027.889000", "114027.891000", "114027.894000", "114027.896000", "114027.899000", "114027.901000", "114027.904000", "114027.906000", "114027.909000", "114027.911000", "114027.914000", "114027.916000", "114027.919000", "114027.921000", "114027.924000", "114107.849000", "114107.851000", "114107.854000", "114107.858000", "114107.860000", "114107.863000", "114107.865000", "114107.868000", "114107.870000", "114107.873000", "114107.875000", "114107.878000", "114107.880000", "114107.883000", "114107.885000", "114107.888000", "114107.890000", "114107.893000", "114107.895000", "114107.898000", "114107.900000", "114107.903000", "114107.905000", "114107.908000", "114107.910000", "114107.913000", "114107.915000", "114147.833000", "114147.836000", "114147.839000", "114147.841000", "114147.844000", "114147.846000", "114147.849000", "114147.851000", "114147.854000", "114147.856000", "114147.859000", "114147.861000", "114147.864000", "114147.866000", "114147.869000", "114147.871000", "114147.874000", "114147.877000", "114147.879000", "114147.882000", "114147.884000", "114147.887000", "114147.889000", "114147.892000", "114147.894000", "114147.897000", "114147.899000", "114227.842000", "114227.845000", "114227.848000", "114227.850000", "114227.853000", "114227.855000", "114227.858000", "114227.860000", "114227.863000", "114227.865000", "114227.868000", "114227.871000", "114227.873000", "114227.876000", "114227.878000", "114227.881000", "114227.883000", "114227.886000", "114227.888000", "114227.891000", "114227.893000", "114227.896000", "114227.898000", "114227.901000", "114227.903000", "114227.906000", "114247.776000", "114247.779000", "114247.781000", "114247.784000", "114247.786000", "114247.789000", "114247.791000", "114247.794000", "114247.796000", "114247.799000", "114247.801000", "114247.804000", "114247.806000", "114247.809000", "114327.830000", "114327.837000", "114327.839000", "114327.842000", "114327.844000", "114327.847000", "114327.849000", "114327.852000", "114327.854000", "114327.857000", "114327.859000", "114327.862000", "114327.864000", "114327.867000", "114327.869000", "114327.872000", "114327.874000", "114327.877000", "114327.879000", "114327.882000", "114327.884000", "114327.887000", "114327.890000", "114327.892000", "114327.895000", "114327.897000", "114327.900000", "114407.839000", "114407.841000", "114407.844000", "114407.846000", "114407.849000", "114407.851000", "114407.854000", "114407.856000", "114407.859000", "114407.861000", "114407.864000", "114407.866000", "114407.869000", "114407.871000", "114407.874000", "114407.876000", "114407.879000", "114407.882000", "114407.884000", "114407.887000", "114407.889000", "114407.892000", "114407.894000", "114407.897000", "114407.899000", "114407.902000", "114407.904000", "114447.841000", "114447.844000", "114447.846000", "114447.849000", "114447.851000", "114447.854000", "114447.856000", "114447.859000", "114447.862000", "114447.869000", "114447.872000", "114447.874000", "114447.877000", "114447.880000", "114447.883000", "114447.885000", "114447.888000", "114447.890000", "114447.893000", "114447.895000", "114447.898000", "114447.900000", "114447.903000", "114447.905000", "114447.908000", "114447.910000", "114527.837000", "114527.840000", "114527.842000", "114527.845000", "114527.847000", "114527.850000", "114527.852000", "114527.855000", "114527.857000", "114527.860000", "114527.862000", "114527.865000", "114527.867000", "114527.870000", "114527.872000", "114527.875000", "114527.877000", "114527.880000", "114527.883000", "114527.885000", "114527.888000", "114527.890000", "114527.893000", "114527.895000", "114527.898000", "114527.901000", "114527.904000", "114607.857000", "114607.859000", "114607.862000", "114607.864000", "114607.867000", "114607.869000", "114607.872000", "114607.874000", "114607.877000", "114607.879000", "114607.882000", "114607.884000", "114607.887000", "114607.890000", "114607.892000", "114607.895000", "114607.897000", "114607.900000", "114607.902000", "114607.905000", "114607.907000", "114607.910000", "114607.912000", "114607.915000", "114607.917000", "114607.920000", "114607.922000", "114608.919000"],
      "InstanceCreationTime": ["113848.368000", "113848.371000", "113848.374000", "113848.376000", "113848.379000", "113848.381000", "113848.384000", "113848.386000", "113848.389000", "113848.391000", "113848.394000", "113848.396000", "113848.399000", "113848.401000", "113848.404000", "113848.406000", "113848.408000", "113848.411000", "113848.413000", "113848.416000", "113848.419000", "113848.421000", "113848.423000", "113848.426000", "113848.429000", "113848.431000", "113848.434000", "113848.436000", "113848.439000", "113848.443000", "113848.446000", "113848.463000", "113848.466000", "113848.468000", "113848.471000", "113848.474000", "113848.476000", "113907.806000", "113907.809000", "113907.811000", "113907.814000", "113907.816000", "113907.819000", "113907.821000", "113907.824000", "113907.826000", "113907.829000", "113907.837000", "113907.840000", "113907.842000", "113907.845000", "113907.847000", "113907.850000", "113907.852000", "113907.855000", "113907.857000", "113907.860000", "113927.805000", "113927.808000", "113927.810000", "113927.813000", "113927.815000", "113927.818000", "113927.820000", "113927.823000", "113927.825000", "113927.828000", "113927.830000", "113927.833000", "113927.835000", "113927.838000", "113927.840000", "113927.843000", "113927.845000", "113927.848000", "113927.850000", "113927.853000", "113947.811000", "113947.813000", "113947.816000", "113947.818000", "113947.821000", "113947.823000", "113947.826000", "113947.828000", "113947.831000", "113947.833000", "113947.836000", "113947.838000", "113947.841000", "113947.843000", "113947.846000", "113947.858000", "113947.861000", "113947.863000", "113947.866000", "113947.868000", "114027.858000", "114027.861000", "114027.863000", "114027.866000", "114027.868000", "114027.871000", "114027.874000", "114027.876000", "114027.879000", "114027.881000", "114027.884000", "114027.886000", "114027.889000", "114027.891000", "114027.894000", "114027.896000", "114027.899000", "114027.901000", "114027.904000", "114027.906000", "114027.909000", "114027.911000", "114027.914000", "114027.916000", "114027.919000", "114027.921000", "114027.924000", "114107.849000", "114107.851000", "114107.854000", "114107.858000", "114107.860000", "114107.863000", "114107.865000", "114107.868000", "114107.870000", "114107.873000", "114107.875000", "114107.878000", "114107.880000", "114107.883000", "114107.885000", "114107.888000", "114107.890000", "114107.893000", "114107.895000", "114107.898000", "114107.900000", "114107.903000", "114107.905000", "114107.908000", "114107.910000", "114107.913000", "114107.915000", "114147.833000", "114147.836000", "114147.839000", "114147.841000", "114147.844000", "114147.846000", "114147.849000", "114147.851000", "114147.854000", "114147.856000", "114147.859000", "114147.861000", "114147.864000", "114147.866000", "114147.869000", "114147.871000", "114147.874000", "114147.877000", "114147.879000", "114147.882000", "114147.884000", "114147.887000", "114147.889000", "114147.892000", "114147.894000", "114147.897000", "114147.899000", "114227.842000", "114227.845000", "114227.848000", "114227.850000", "114227.853000", "114227.855000", "114227.858000", "114227.860000", "114227.863000", "114227.865000", "114227.868000", "114227.871000", "114227.873000", "114227.876000", "114227.878000", "114227.881000", "114227.883000", "114227.886000", "114227.888000", "114227.891000", "114227.893000", "114227.896000", "114227.898000", "114227.901000", "114227.903000", "114227.906000", "114247.776000", "114247.779000", "114247.781000", "114247.784000", "114247.786000", "114247.789000", "114247.791000", "114247.794000", "114247.796000", "114247.799000", "114247.801000", "114247.804000", "114247.806000", "114247.809000", "114327.830000", "114327.837000", "114327.839000", "114327.842000", "114327.844000", "114327.847000", "114327.849000", "114327.852000", "114327.854000", "114327.857000", "114327.859000", "114327.862000", "114327.864000", "114327.867000", "114327.869000", "114327.872000", "114327.874000", "114327.877000", "114327.879000", "114327.882000", "114327.884000", "114327.887000", "114327.890000", "114327.892000", "114327.895000", "114327.897000", "114327.900000", "114407.839000", "114407.841000", "114407.844000", "114407.846000", "114407.849000", "114407.851000", "114407.854000", "114407.856000", "114407.859000", "114407.861000", "114407.864000", "114407.866000", "114407.869000", "114407.871000", "114407.874000", "114407.876000", "114407.879000", "114407.882000", "114407.884000", "114407.887000", "114407.889000", "114407.892000", "114407.894000", "114407.897000", "114407.899000", "114407.902000", "114407.904000", "114447.841000", "114447.844000", "114447.846000", "114447.849000", "114447.851000", "114447.854000", "114447.856000", "114447.859000", "114447.862000", "114447.869000", "114447.872000", "114447.874000", "114447.877000", "114447.880000", "114447.883000", "114447.885000", "114447.888000", "114447.890000", "114447.893000", "114447.895000", "114447.898000", "114447.900000", "114447.903000", "114447.905000", "114447.908000", "114447.910000", "114527.837000", "114527.840000", "114527.842000", "114527.845000", "114527.847000", "114527.850000", "114527.852000", "114527.855000", "114527.857000", "114527.860000", "114527.862000", "114527.865000", "114527.867000", "114527.870000", "114527.872000", "114527.875000", "114527.877000", "114527.880000", "114527.883000", "114527.885000", "114527.888000", "114527.890000", "114527.893000", "114527.895000", "114527.898000", "114527.901000", "114527.904000", "114607.857000", "114607.859000", "114607.862000", "114607.864000", "114607.867000", "114607.869000", "114607.872000", "114607.874000", "114607.877000", "114607.879000", "114607.882000", "114607.884000", "114607.887000", "114607.890000", "114607.892000", "114607.895000", "114607.897000", "114607.900000", "114607.902000", "114607.905000", "114607.907000", "114607.910000", "114607.912000", "114607.915000", "114607.917000", "114607.920000", "114607.922000", "114608.919000"],
      "InstanceNumber": [1, 2, 3, 4, 5, 6, 7, 8, 9, 10, 11, 12, 13, 14, 15, 16, 17, 18, 19, 20, 21, 22, 23, 24, 25, 26, 27, 28, 29, 30, 31, 32, 33, 34, 35, 36, 37, 38, 39, 40, 41, 42, 43, 44, 45, 46, 47, 48, 49, 50, 51, 52, 53, 54, 55, 56, 57, 58, 59, 60, 61, 62, 63, 64, 65, 66, 67, 68, 69, 70, 71, 72, 73, 74, 75, 76, 77, 78, 79, 80, 81, 82, 83, 84, 85, 86, 87, 88, 89, 90, 91, 92, 93, 94, 95, 96, 97, 98, 99, 100, 101, 102, 103, 104, 105, 106, 107, 108, 109, 110, 111, 112, 113, 114, 115, 116, 117, 118, 119, 120, 121, 122, 123, 124, 125, 126, 127, 128, 129, 130, 131, 132, 133, 134, 135, 136, 137, 138, 139, 140, 141, 142, 143, 144, 145, 146, 147, 148, 149, 150, 151, 152, 153, 154, 155, 156, 157, 158, 159, 160, 161, 162, 163, 164, 165, 166, 167, 168, 169, 170, 171, 172, 173, 174, 175, 176, 177, 178, 179, 180, 181, 182, 183, 184, 185, 186, 187, 188, 189, 190, 191, 192, 193, 194, 195, 196, 197, 198, 199, 200, 201, 202, 203, 204, 205, 206, 207, 208, 209, 210, 211, 212, 213, 214, 215, 216, 217, 218, 219, 220, 221, 222, 223, 224, 225, 226, 227, 228, 229, 230, 231, 232, 233, 234, 235, 236, 237, 238, 239, 240, 241, 242, 243, 244, 245, 246, 247, 248, 249, 250, 251, 252, 253, 254, 255, 256, 257, 258, 259, 260, 261, 262, 263, 264, 265, 266, 267, 268, 269, 270, 271, 272, 273, 274, 275, 276, 277, 278, 279, 280, 281, 282, 283, 284, 285, 286, 287, 288, 289, 290, 291, 292, 293, 294, 295, 296, 297, 298, 299, 300, 301, 302, 303, 304, 305, 306, 307, 308, 309, 310, 311, 312, 313, 314, 315, 316, 317, 318, 319, 320, 321, 322, 323, 324, 325, 326, 327, 328, 329, 330, 331, 332, 333, 334, 335, 336, 337, 338, 339, 340, 341, 342, 343, 344, 345, 346, 347, 348, 349, 350, 351, 352, 353],
