{
  "AcquisitionMatrixPE": 104,
  "AcquisitionNumber": 1,
  "AcquisitionTime": "11:26:16.082500",
  "BandwidthPerPixelPhaseEncode": 17.17,
  "BaseResolution": 104,
  "BodyPartExamined": "BRAIN",
  "CoilCombinationMethod": "Sum of Squares",
  "ConsistencyInfo": "N4_VE11C_LATEST_20160120",
  "ConversionSoftware": "dcm2niix",
  "ConversionSoftwareVersion": "v1.0.20220505",
  "DerivedVendorReportedEchoSpacing": 0.000560011,
  "DeviceSerialNumber": "167006",
  "DwellTime": 2.1e-06,
  "EchoTime": 0.037,
  "EchoTrainLength": 104,
  "EffectiveEchoSpacing": 0.000560011,
  "FlipAngle": 52,
  "HeudiconvVersion": "0.5.3.post811+g6206e14",
  "ImageComments": "Unaliased MB4/PE3/LB",
  "ImageOrientationPatientDICOM": [0.995275, 0.094525, 0.0221887, -0.0816517, 0.938488, -0.335518],
  "ImageOrientationText": "Tra>Cor(-19.4)>Sag(3.0)",
  "ImageType": [
    "ORIGINAL",
    "PRIMARY",
    "M",
    "MB",
    "ND",
    "MOSAIC"
],
  "ImagingFrequency": 123.259,
  "InPlanePhaseEncodingDirectionDICOM": "COL",
  "InstitutionAddress": "Chemin Queen-Mary 4565,Montreal,District,CA,H3W 1W5",
  "InstitutionName": "IUGM",
  "InstitutionalDepartmentName": "Department",
  "MRAcquisitionType": "2D",
  "MagneticFieldStrength": 3,
  "Manufacturer": "Siemens",
  "ManufacturersModelName": "Prisma_fit",
  "MatrixCoilMode": "SENSE",
  "Modality": "MR",
  "MultibandAccelerationFactor": 4,
  "PartialFourier": 1,
  "PatientPosition": "HFS",
  "PercentPhaseFOV": 100,
  "PercentSampling": 100,
  "PhaseEncodingDirection": "j",
  "PhaseEncodingSteps": 104,
  "PhaseResolution": 1,
  "PixelBandwidth": 2290,
  "ProcedureStepDescription": "games^mario3",
  "ProtocolName": "func_task-mario3_run-01",
  "PulseSequenceDetails": "%CustomerSeq%\\cmrr_mbep2d_bold",
  "ReceiveCoilActiveElements": "HC1-7;NC1,2",
  "ReceiveCoilName": "HeadNeck_64",
  "ReconMatrixPE": 104,
  "RepetitionTime": 1.49,
  "SAR": 0.0812972,
  "ScanOptions": "FS",
  "ScanningSequence": "EP",
  "SequenceName": "epfid2d1_104",
  "SequenceVariant": "SK\\SS",
  "SeriesDescription": "func_task-mario3_run-01",
  "SeriesNumber": 10,
  "ShimSetting": [628, -7198, -8792, 645, 90, 7, -22, 9],
  "SliceThickness": 2,
  "SliceTiming": [0, 0.785, 0.0975, 0.8825, 0.1975, 0.98, 0.295, 1.0775, 0.3925, 1.1775, 0.49, 1.275, 0.5875, 1.3725, 0.6875, 0, 0.785, 0.0975, 0.8825, 0.1975, 0.98, 0.295, 1.0775, 0.3925, 1.1775, 0.49, 1.275, 0.5875, 1.3725, 0.6875, 0, 0.785, 0.0975, 0.8825, 0.1975, 0.98, 0.295, 1.0775, 0.3925, 1.1775, 0.49, 1.275, 0.5875, 1.3725, 0.6875, 0, 0.785, 0.0975, 0.8825, 0.1975, 0.98, 0.295, 1.0775, 0.3925, 1.1775, 0.49, 1.275, 0.5875, 1.3725, 0.6875],
  "SoftwareVersions": "syngo MR E11",
  "SpacingBetweenSlices": 2,
  "StationName": "MRC35049",
  "TaskName": "mario3",
  "TotalReadoutTime": 0.0576811,
  "TxRefAmp": 316.058,
  "WipMemBlock": "39360ec6-722a-4622-b620-e302a6ea47b7||Sequence: R017 ve11c/master r/75a17815+; Jun 28 2022 16:32:11 by eja",
  "dcmmeta_affine": [
    [-1.9905503988265991, -0.16330337524414062, 0.10507746785879135, 110.75867462158203],
    [-0.18905001878738403, 1.876976728439331, -0.6642428040504456, -50.97745132446289],
    [0.04437743127346039, 0.6710368394851685, 1.883544683456421, -53.84955596923828],
    [0.0, 0.0, 0.0, 1.0]
],
  "dcmmeta_reorient_transform": [
    [0.0, -1.0, 0.0, 103.0],
    [1.0, 0.0, 0.0, 0.0],
    [0.0, 0.0, 1.0, 0.0],
    [0.0, 0.0, 0.0, 1.0]
],
  "dcmmeta_shape": [104, 104, 60, 351],
  "dcmmeta_slice_dim": 2,
  "dcmmeta_version": 0.6,
  "global": {
    "const": {
      "AcquisitionMatrix": [104, 0, 0, 104],
      "AngioFlag": "N",
      "BitsAllocated": 16,
      "BitsStored": 16,
      "BodyPartExamined": "BRAIN",
      "Columns": 832,
      "EchoNumbers": 1,
      "EchoTime": 37.0,
      "EchoTrainLength": 104,
      "FlipAngle": 52.0,
      "HighBit": 15,
      "ImageOrientationPatient": [0.99527517946697, 0.09452501254459, 0.02218871651163, -0.0816516906238, 0.93848835867708, -0.3355184079091],
      "ImagePositionPatient": [-759.05632648923, -894.38488379808, 243.37124959283],
      "ImageType": [
        "ORIGINAL",
        "PRIMARY",
        "M",
        "MB",
        "ND",
        "MOSAIC"
],
      "ImagedNucleus": "1H",
      "ImagingFrequency": 123.258786,
      "InPlanePhaseEncodingDirection": "COL",
      "MRAcquisitionType": "2D",
      "MagneticFieldStrength": 3.0,
      "Manufacturer": "SIEMENS",
      "ManufacturerModelName": "Prisma_fit",
      "Modality": "MR",
      "NumberOfAverages": 1.0,
      "NumberOfPhaseEncodingSteps": 104,
      "PercentPhaseFieldOfView": 100.0,
      "PercentSampling": 100.0,
      "PerformedProcedureStepStartTime": "112134.106000",
      "PhotometricInterpretation": "MONOCHROME2",
      "PixelBandwidth": 2290.0,
      "PixelRepresentation": 0,
      "PixelSpacing": [2.0, 2.0],
      "ProtocolName": "func_task-mario3_run-01",
      "RepetitionTime": 1490.0,
      "Rows": 832,
      "SAR": 0.08129716136114,
      "SamplesPerPixel": 1,
      "ScanOptions": "FS",
      "ScanningSequence": "EP",
      "SequenceName": "epfid2d1_104",
      "SequenceVariant": [
        "SK",
        "SS"
],
      "SeriesDescription": "func_task-mario3_run-01",
      "SeriesNumber": 10,
      "SeriesTime": "112726.396000",
      "SliceLocation": -27.964198450415,
      "SliceThickness": 2.0,
      "SmallestImagePixelValue": 0,
      "SoftwareVersions": "syngo MR E11",
      "SpacingBetweenSlices": 2.0000000696305,
      "SpecificCharacterSet": "ISO_IR 100",
      "StudyID": "1",
      "StudyTime": "112134.007000",
      "TransmitCoilName": "Body",
      "VariableFlipAngleFlag": "N",
      "WindowCenterWidthExplanation": "Algo1",
      "dBdt": 0.0},
    "slices": {}
  },
  "time": {
    "samples": {
      "AcquisitionNumber": [1, 2, 3, 4, 5, 6, 7, 8, 9, 10, 11, 12, 13, 14, 15, 16, 17, 18, 19, 20, 21, 22, 23, 24, 25, 26, 27, 28, 29, 30, 31, 32, 33, 34, 35, 36, 37, 38, 39, 40, 41, 42, 43, 44, 45, 46, 47, 48, 49, 50, 51, 52, 53, 54, 55, 56, 57, 58, 59, 60, 61, 62, 63, 64, 65, 66, 67, 68, 69, 70, 71, 72, 73, 74, 75, 76, 77, 78, 79, 80, 81, 82, 83, 84, 85, 86, 87, 88, 89, 90, 91, 92, 93, 94, 95, 96, 97, 98, 99, 100, 101, 102, 103, 104, 105, 106, 107, 108, 109, 110, 111, 112, 113, 114, 115, 116, 117, 118, 119, 120, 121, 122, 123, 124, 125, 126, 127, 128, 129, 130, 131, 132, 133, 134, 135, 136, 137, 138, 139, 140, 141, 142, 143, 144, 145, 146, 147, 148, 149, 150, 151, 152, 153, 154, 155, 156, 157, 158, 159, 160, 161, 162, 163, 164, 165, 166, 167, 168, 169, 170, 171, 172, 173, 174, 175, 176, 177, 178, 179, 180, 181, 182, 183, 184, 185, 186, 187, 188, 189, 190, 191, 192, 193, 194, 195, 196, 197, 198, 199, 200, 201, 202, 203, 204, 205, 206, 207, 208, 209, 210, 211, 212, 213, 214, 215, 216, 217, 218, 219, 220, 221, 222, 223, 224, 225, 226, 227, 228, 229, 230, 231, 232, 233, 234, 235, 236, 237, 238, 239, 240, 241, 242, 243, 244, 245, 246, 247, 248, 249, 250, 251, 252, 253, 254, 255, 256, 257, 258, 259, 260, 261, 262, 263, 264, 265, 266, 267, 268, 269, 270, 271, 272, 273, 274, 275, 276, 277, 278, 279, 280, 281, 282, 283, 284, 285, 286, 287, 288, 289, 290, 291, 292, 293, 294, 295, 296, 297, 298, 299, 300, 301, 302, 303, 304, 305, 306, 307, 308, 309, 310, 311, 312, 313, 314, 315, 316, 317, 318, 319, 320, 321, 322, 323, 324, 325, 326, 327, 328, 329, 330, 331, 332, 333, 334, 335, 336, 337, 338, 339, 340, 341, 342, 343, 344, 345, 346, 347, 348, 349, 350, 351],
      "AcquisitionTime": ["112616.082500", "112617.572500", "112619.062500", "112620.552500", "112622.042500", "112623.532500", "112625.022500", "112626.512500", "112628.002500", "112629.492500", "112630.982500", "112632.472500", "112633.962500", "112635.452500", "112636.942500", "112638.432500", "112639.922500", "112641.412500", "112642.902500", "112644.392500", "112645.882500", "112647.372500", "112648.862500", "112650.352500", "112651.842500", "112653.332500", "112654.822500", "112656.312500", "112657.802500", "112659.292500", "112700.782500", "112702.272500", "112703.762500", "112705.252500", "112706.742500", "112708.232500", "112709.722500", "112711.212500", "112712.702500", "112714.192500", "112715.682500", "112717.172500", "112718.662500", "112720.152500", "112721.642500", "112723.132500", "112724.622500", "112726.112500", "112727.602500", "112729.092500", "112730.582500", "112732.072500", "112733.562500", "112735.052500", "112736.542500", "112738.032500", "112739.522500", "112741.012500", "112742.502500", "112743.992500", "112745.482500", "112746.972500", "112748.462500", "112749.952500", "112751.442500", "112752.932500", "112754.422500", "112755.912500", "112757.402500", "112758.892500", "112800.382500", "112801.872500", "112803.362500", "112804.852500", "112806.342500", "112807.832500", "112809.322500", "112810.812500", "112812.302500", "112813.792500", "112815.282500", "112816.772500", "112818.262500", "112819.752500", "112821.242500", "112822.732500", "112824.222500", "112825.712500", "112827.202500", "112828.692500", "112830.182500", "112831.672500", "112833.162500", "112834.652500", "112836.142500", "112837.632500", "112839.122500", "112840.612500", "112842.102500", "112843.592500", "112845.082500", "112846.572500", "112848.062500", "112849.552500", "112851.042500", "112852.532500", "112854.022500", "112855.512500", "112857.002500", "112858.492500", "112859.982500", "112901.472500", "112902.962500", "112904.452500", "112905.942500", "112907.432500", "112908.922500", "112910.412500", "112911.902500", "112913.392500", "112914.882500", "112916.372500", "112917.862500", "112919.352500", "112920.842500", "112922.332500", "112923.822500", "112925.312500", "112926.802500", "112928.292500", "112929.782500", "112931.272500", "112932.762500", "112934.252500", "112935.742500", "112937.232500", "112938.722500", "112940.212500", "112941.702500", "112943.192500", "112944.682500", "112946.172500", "112947.662500", "112949.152500", "112950.642500", "112952.132500", "112953.622500", "112955.112500", "112956.602500", "112958.092500", "112959.582500", "113001.072500", "113002.562500", "113004.052500", "113005.542500", "113007.032500", "113008.522500", "113010.012500", "113011.502500", "113012.992500", "113014.482500", "113015.972500", "113017.462500", "113018.952500", "113020.442500", "113021.932500", "113023.422500", "113024.912500", "113026.402500", "113027.892500", "113029.382500", "113030.872500", "113032.362500", "113033.852500", "113035.342500", "113036.832500", "113038.322500", "113039.812500", "113041.302500", "113042.792500", "113044.282500", "113045.772500", "113047.262500", "113048.752500", "113050.242500", "113051.732500", "113053.222500", "113054.712500", "113056.202500", "113057.692500", "113059.182500", "113100.672500", "113102.162500", "113103.652500", "113105.142500", "113106.632500", "113108.122500", "113109.612500", "113111.102500", "113112.592500", "113114.082500", "113115.572500", "113117.062500", "113118.552500", "113120.042500", "113121.532500", "113123.022500", "113124.512500", "113126.002500", "113127.492500", "113128.982500", "113130.472500", "113131.962500", "113133.452500", "113134.942500", "113136.432500", "113137.922500", "113139.412500", "113140.902500", "113142.392500", "113143.882500", "113145.372500", "113146.862500", "113148.352500", "113149.842500", "113151.332500", "113152.822500", "113154.312500", "113155.802500", "113157.292500", "113158.782500", "113200.272500", "113201.762500", "113203.252500", "113204.742500", "113206.232500", "113207.722500", "113209.212500", "113210.702500", "113212.192500", "113213.682500", "113215.172500", "113216.662500", "113218.152500", "113219.642500", "113221.132500", "113222.622500", "113224.112500", "113225.602500", "113227.092500", "113228.582500", "113230.072500", "113231.562500", "113233.052500", "113234.542500", "113236.032500", "113237.522500", "113239.012500", "113240.502500", "113241.992500", "113243.482500", "113244.972500", "113246.462500", "113247.952500", "113249.442500", "113250.932500", "113252.422500", "113253.912500", "113255.402500", "113256.892500", "113258.382500", "113259.872500", "113301.362500", "113302.852500", "113304.342500", "113305.832500", "113307.322500", "113308.812500", "113310.302500", "113311.792500", "113313.282500", "113314.772500", "113316.262500", "113317.752500", "113319.242500", "113320.732500", "113322.222500", "113323.712500", "113325.202500", "113326.692500", "113328.182500", "113329.672500", "113331.162500", "113332.652500", "113334.142500", "113335.632500", "113337.122500", "113338.612500", "113340.102500", "113341.592500", "113343.082500", "113344.572500", "113346.062500", "113347.552500", "113349.042500", "113350.532500", "113352.022500", "113353.512500", "113355.002500", "113356.492500", "113357.982500", "113359.472500", "113400.962500", "113402.452500", "113403.942500", "113405.432500", "113406.922500", "113408.412500", "113409.902500", "113411.392500", "113412.882500", "113414.372500", "113415.862500", "113417.352500", "113418.842500", "113420.332500", "113421.822500", "113423.312500", "113424.802500", "113426.292500", "113427.782500", "113429.272500", "113430.762500", "113432.252500", "113433.742500", "113435.232500", "113436.722500", "113438.212500", "113439.702500", "113441.192500", "113442.682500", "113444.172500", "113445.662500", "113447.152500", "113448.642500", "113450.132500", "113451.622500", "113453.112500", "113454.602500", "113456.092500", "113457.582500"],
      "ContentTime": ["112726.399000", "112726.403000", "112726.407000", "112726.410000", "112726.414000", "112726.417000", "112726.420000", "112726.424000", "112726.427000", "112726.430000", "112726.434000", "112726.437000", "112726.440000", "112726.444000", "112726.456000", "112726.460000", "112726.463000", "112726.466000", "112726.470000", "112726.473000", "112746.360000", "112746.364000", "112746.367000", "112746.370000", "112746.374000", "112746.377000", "112746.380000", "112746.384000", "112746.387000", "112746.390000", "112746.393000", "112746.397000", "112746.400000", "112746.404000", "112746.407000", "112746.410000", "112746.413000", "112746.417000", "112746.420000", "112746.423000", "112806.361000", "112806.365000", "112806.368000", "112806.371000", "112806.375000", "112806.378000", "112806.381000", "112806.385000", "112806.388000", "112806.391000", "112806.394000", "112806.398000", "112806.401000", "112806.404000", "112806.408000", "112806.411000", "112806.414000", "112806.417000", "112806.421000", "112806.424000", "112826.361000", "112826.365000", "112826.368000", "112826.372000", "112826.375000", "112826.378000", "112826.382000", "112826.385000", "112826.388000", "112826.392000", "112826.395000", "112826.398000", "112826.402000", "112826.405000", "112826.408000", "112826.412000", "112826.415000", "112826.419000", "112826.422000", "112826.437000", "112846.361000", "112846.365000", "112846.368000", "112846.371000", "112846.375000", "112846.378000", "112846.382000", "112846.385000", "112846.388000", "112846.392000", "112846.395000", "112846.398000", "112846.402000", "112846.405000", "112846.408000", "112846.412000", "112846.415000", "112846.419000", "112846.422000", "112846.425000", "112926.361000", "112926.365000", "112926.368000", "112926.372000", "112926.375000", "112926.378000", "112926.381000", "112926.385000", "112926.388000", "112926.391000", "112926.395000", "112926.398000", "112926.402000", "112926.405000", "112926.408000", "112926.412000", "112926.415000", "112926.418000", "112926.422000", "112926.425000", "112926.428000", "112926.432000", "112926.435000", "112926.438000", "112926.442000", "112926.445000", "112926.448000", "113006.360000", "113006.364000", "113006.367000", "113006.371000", "113006.374000", "113006.377000", "113006.381000", "113006.384000", "113006.387000", "113006.391000", "113006.394000", "113006.397000", "113006.401000", "113006.404000", "113006.407000", "113006.410000", "113006.414000", "113006.417000", "113006.420000", "113006.424000", "113006.427000", "113006.430000", "113006.434000", "113006.437000", "113006.449000", "113006.453000", "113006.456000", "113046.361000", "113046.365000", "113046.368000", "113046.372000", "113046.375000", "113046.379000", "113046.382000", "113046.385000", "113046.389000", "113046.392000", "113046.395000", "113046.399000", "113046.402000", "113046.405000", "113046.409000", "113046.412000", "113046.423000", "113046.426000", "113046.430000", "113046.433000", "113046.437000", "113046.440000", "113046.443000", "113046.447000", "113046.450000", "113046.453000", "113046.457000", "113126.361000", "113126.365000", "113126.368000", "113126.372000", "113126.375000", "113126.379000", "113126.382000", "113126.385000", "113126.389000", "113126.392000", "113126.396000", "113126.399000", "113126.402000", "113126.406000", "113126.409000", "113126.412000", "113126.416000", "113126.419000", "113126.422000", "113126.426000", "113126.429000", "113126.432000", "113126.436000", "113126.439000", "113126.442000", "113126.445000", "113206.360000", "113206.364000", "113206.368000", "113206.371000", "113206.374000", "113206.378000", "113206.381000", "113206.384000", "113206.388000", "113206.391000", "113206.394000", "113206.398000", "113206.401000", "113206.404000", "113206.408000", "113206.411000", "113206.414000", "113206.418000", "113206.421000", "113206.424000", "113206.435000", "113206.439000", "113206.442000", "113206.445000", "113206.449000", "113206.452000", "113206.455000", "113246.361000", "113246.365000", "113246.368000", "113246.371000", "113246.375000", "113246.378000", "113246.381000", "113246.385000", "113246.388000", "113246.391000", "113246.395000", "113246.398000", "113246.401000", "113246.405000", "113246.409000", "113246.412000", "113246.415000", "113246.419000", "113246.422000", "113246.425000", "113246.428000", "113246.432000", "113246.435000", "113246.439000", "113246.442000", "113246.445000", "113246.449000", "113306.361000", "113306.365000", "113306.368000", "113306.372000", "113306.375000", "113306.396000", "113306.399000", "113306.403000", "113306.406000", "113306.409000", "113306.413000", "113306.416000", "113306.419000", "113306.422000", "113346.361000", "113346.365000", "113346.368000", "113346.372000", "113346.375000", "113346.379000", "113346.382000", "113346.385000", "113346.389000", "113346.392000", "113346.395000", "113346.399000", "113346.402000", "113346.405000", "113346.409000", "113346.412000", "113346.416000", "113346.422000", "113346.425000", "113346.429000", "113346.433000", "113346.437000", "113346.440000", "113346.444000", "113346.447000", "113346.451000", "113426.360000", "113426.364000", "113426.367000", "113426.371000", "113426.374000", "113426.377000", "113426.381000", "113426.384000", "113426.387000", "113426.391000", "113426.394000", "113426.397000", "113426.401000", "113426.404000", "113426.407000", "113426.411000", "113426.414000", "113426.417000", "113426.421000", "113426.424000", "113426.427000", "113426.431000", "113426.434000", "113426.437000", "113426.441000", "113426.444000", "113426.447000", "113500.577000", "113500.582000", "113500.586000", "113500.590000", "113500.595000", "113500.598000", "113500.602000", "113500.606000", "113500.610000", "113500.613000", "113500.617000", "113500.620000", "113500.624000", "113500.627000", "113500.630000", "113500.634000", "113500.637000", "113500.640000", "113500.644000", "113500.647000", "113500.651000", "113500.654000", "113500.657000"],
      "InstanceCreationTime": ["112726.399000", "112726.403000", "112726.407000", "112726.410000", "112726.414000", "112726.417000", "112726.420000", "112726.424000", "112726.427000", "112726.430000", "112726.434000", "112726.437000", "112726.440000", "112726.444000", "112726.456000", "112726.460000", "112726.463000", "112726.466000", "112726.470000", "112726.473000", "112746.360000", "112746.364000", "112746.367000", "112746.370000", "112746.374000", "112746.377000", "112746.380000", "112746.384000", "112746.387000", "112746.390000", "112746.393000", "112746.397000", "112746.400000", "112746.404000", "112746.407000", "112746.410000", "112746.413000", "112746.417000", "112746.420000", "112746.423000", "112806.361000", "112806.365000", "112806.368000", "112806.371000", "112806.375000", "112806.378000", "112806.381000", "112806.385000", "112806.388000", "112806.391000", "112806.394000", "112806.398000", "112806.401000", "112806.404000", "112806.408000", "112806.411000", "112806.414000", "112806.417000", "112806.421000", "112806.424000", "112826.361000", "112826.365000", "112826.368000", "112826.372000", "112826.375000", "112826.378000", "112826.382000", "112826.385000", "112826.388000", "112826.392000", "112826.395000", "112826.398000", "112826.402000", "112826.405000", "112826.408000", "112826.412000", "112826.415000", "112826.419000", "112826.422000", "112826.437000", "112846.361000", "112846.365000", "112846.368000", "112846.371000", "112846.375000", "112846.378000", "112846.382000", "112846.385000", "112846.388000", "112846.392000", "112846.395000", "112846.398000", "112846.402000", "112846.405000", "112846.408000", "112846.412000", "112846.415000", "112846.419000", "112846.422000", "112846.425000", "112926.361000", "112926.365000", "112926.368000", "112926.372000", "112926.375000", "112926.378000", "112926.381000", "112926.385000", "112926.388000", "112926.391000", "112926.395000", "112926.398000", "112926.402000", "112926.405000", "112926.408000", "112926.412000", "112926.415000", "112926.418000", "112926.422000", "112926.425000", "112926.428000", "112926.432000", "112926.435000", "112926.438000", "112926.442000", "112926.445000", "112926.448000", "113006.360000", "113006.364000", "113006.367000", "113006.371000", "113006.374000", "113006.377000", "113006.381000", "113006.384000", "113006.387000", "113006.391000", "113006.394000", "113006.397000", "113006.401000", "113006.404000", "113006.407000", "113006.410000", "113006.414000", "113006.417000", "113006.420000", "113006.424000", "113006.427000", "113006.430000", "113006.434000", "113006.437000", "113006.449000", "113006.453000", "113006.456000", "113046.361000", "113046.365000", "113046.368000", "113046.372000", "113046.375000", "113046.379000", "113046.382000", "113046.385000", "113046.389000", "113046.392000", "113046.395000", "113046.399000", "113046.402000", "113046.405000", "113046.409000", "113046.412000", "113046.423000", "113046.426000", "113046.430000", "113046.433000", "113046.437000", "113046.440000", "113046.443000", "113046.447000", "113046.450000", "113046.453000", "113046.457000", "113126.361000", "113126.365000", "113126.368000", "113126.372000", "113126.375000", "113126.379000", "113126.382000", "113126.385000", "113126.389000", "113126.392000", "113126.396000", "113126.399000", "113126.402000", "113126.406000", "113126.409000", "113126.412000", "113126.416000", "113126.419000", "113126.422000", "113126.426000", "113126.429000", "113126.432000", "113126.436000", "113126.439000", "113126.442000", "113126.445000", "113206.360000", "113206.364000", "113206.368000", "113206.371000", "113206.374000", "113206.378000", "113206.381000", "113206.384000", "113206.388000", "113206.391000", "113206.394000", "113206.398000", "113206.401000", "113206.404000", "113206.408000", "113206.411000", "113206.414000", "113206.418000", "113206.421000", "113206.424000", "113206.435000", "113206.439000", "113206.442000", "113206.445000", "113206.449000", "113206.452000", "113206.455000", "113246.361000", "113246.365000", "113246.368000", "113246.371000", "113246.375000", "113246.378000", "113246.381000", "113246.385000", "113246.388000", "113246.391000", "113246.395000", "113246.398000", "113246.401000", "113246.405000", "113246.409000", "113246.412000", "113246.415000", "113246.419000", "113246.422000", "113246.425000", "113246.428000", "113246.432000", "113246.435000", "113246.439000", "113246.442000", "113246.445000", "113246.449000", "113306.361000", "113306.365000", "113306.368000", "113306.372000", "113306.375000", "113306.396000", "113306.399000", "113306.403000", "113306.406000", "113306.409000", "113306.413000", "113306.416000", "113306.419000", "113306.422000", "113346.361000", "113346.365000", "113346.368000", "113346.372000", "113346.375000", "113346.379000", "113346.382000", "113346.385000", "113346.389000", "113346.392000", "113346.395000", "113346.399000", "113346.402000", "113346.405000", "113346.409000", "113346.412000", "113346.416000", "113346.422000", "113346.425000", "113346.429000", "113346.433000", "113346.437000", "113346.440000", "113346.444000", "113346.447000", "113346.451000", "113426.360000", "113426.364000", "113426.367000", "113426.371000", "113426.374000", "113426.377000", "113426.381000", "113426.384000", "113426.387000", "113426.391000", "113426.394000", "113426.397000", "113426.401000", "113426.404000", "113426.407000", "113426.411000", "113426.414000", "113426.417000", "113426.421000", "113426.424000", "113426.427000", "113426.431000", "113426.434000", "113426.437000", "113426.441000", "113426.444000", "113426.447000", "113500.577000", "113500.582000", "113500.586000", "113500.590000", "113500.595000", "113500.598000", "113500.602000", "113500.606000", "113500.610000", "113500.613000", "113500.617000", "113500.620000", "113500.624000", "113500.627000", "113500.630000", "113500.634000", "113500.637000", "113500.640000", "113500.644000", "113500.647000", "113500.651000", "113500.654000", "113500.657000"],
      "InstanceNumber": [1, 2, 3, 4, 5, 6, 7, 8, 9, 10, 11, 12, 13, 14, 15, 16, 17, 18, 19, 20, 21, 22, 23, 24, 25, 26, 27, 28, 29, 30, 31, 32, 33, 34, 35, 36, 37, 38, 39, 40, 41, 42, 43, 44, 45, 46, 47, 48, 49, 50, 51, 52, 53, 54, 55, 56, 57, 58, 59, 60, 61, 62, 63, 64, 65, 66, 67, 68, 69, 70, 71, 72, 73, 74, 75, 76, 77, 78, 79, 80, 81, 82, 83, 84, 85, 86, 87, 88, 89, 90, 91, 92, 93, 94, 95, 96, 97, 98, 99, 100, 101, 102, 103, 104, 105, 106, 107, 108, 109, 110, 111, 112, 113, 114, 115, 116, 117, 118, 119, 120, 121, 122, 123, 124, 125, 126, 127, 128, 129, 130, 131, 132, 133, 134, 135, 136, 137, 138, 139, 140, 141, 142, 143, 144, 145, 146, 147, 148, 149, 150, 151, 152, 153, 154, 155, 156, 157, 158, 159, 160, 161, 162, 163, 164, 165, 166, 167, 168, 169, 170, 171, 172, 173, 174, 175, 176, 177, 178, 179, 180, 181, 182, 183, 184, 185, 186, 187, 188, 189, 190, 191, 192, 193, 194, 195, 196, 197, 198, 199, 200, 201, 202, 203, 204, 205, 206, 207, 208, 209, 210, 211, 212, 213, 214, 215, 216, 217, 218, 219, 220, 221, 222, 223, 224, 225, 226, 227, 228, 229, 230, 231, 232, 233, 234, 235, 236, 237, 238, 239, 240, 241, 242, 243, 244, 245, 246, 247, 248, 249, 250, 251, 252, 253, 254, 255, 256, 257, 258, 259, 260, 261, 262, 263, 264, 265, 266, 267, 268, 269, 270, 271, 272, 273, 274, 275, 276, 277, 278, 279, 280, 281, 282, 283, 284, 285, 286, 287, 288, 289, 290, 291, 292, 293, 294, 295, 296, 297, 298, 299, 300, 301, 302, 303, 304, 305, 306, 307, 308, 309, 310, 311, 312, 313, 314, 315, 316, 317, 318, 319, 320, 321, 322, 323, 324, 325, 326, 327, 328, 329, 330, 331, 332, 333, 334, 335, 336, 337, 338, 339, 340, 341, 342, 343, 344, 345, 346, 347, 348, 349, 350, 351],
      "LargestImagePixelValue": [44726, 42948, 43261, 43664, 43099, 43355, 42491, 43113, 43904, 43527, 43953, 43979, 44074, 44155, 43713, 43814, 42974, 42196, 42842, 43537, 43813, 42382, 43316, 43661, 42751, 43188, 41641, 40418, 40785, 40985, 42115, 40423, 41299, 42083, 40204, 40619, 40361, 41299, 40041, 41558, 41177, 40188, 42613, 42027, 42086, 41414, 41385, 42261, 41714, 42890, 41249, 41964, 42125, 40811, 41527, 38938, 48433, 42538, 40678, 40867, 42505, 41935, 41896, 43194, 41561, 41403, 41377, 39596, 40636, 40695, 40039, 40212, 40383, 40839, 41492, 40729, 41562, 40154, 41136, 40956, 41855, 39435, 41684, 39642, 39890, 39842, 39750, 39479, 40737, 40187, 39157, 39406, 40163, 39265, 40115, 40800, 39671, 41320, 40967, 40589, 40423, 40440, 40965, 40247, 40163, 39565, 39895, 39955, 42205, 40555, 39570, 41146, 43693, 41516, 40183, 42031, 43165, 40947, 41241, 39317, 40253, 39958, 48580, 42535, 41702, 42704, 42880, 40892, 41447, 40150, 40526, 40788, 41554, 41049, 41235, 40503, 39029, 39545, 40058, 40274, 39799, 41035, 42044, 41469, 41233, 41374, 41884, 41764, 42579, 43777, 43345, 42694, 42898, 43677, 43600, 43466, 44176, 43970, 43820, 39740, 42466, 40891, 42397, 42051, 39447, 46441, 41172, 39999, 41462, 40743, 40645, 41581, 45912, 40511, 42524, 42104, 44157, 44688, 43529, 41938, 41374, 43130, 42018, 43340, 41916, 41543, 41738, 41089, 41813, 41444, 41191, 41950, 41547, 43254, 42159, 43283, 43262, 42616, 42419, 42829, 43457, 43374, 42804, 42995, 42664, 43571, 42635, 42269, 43710, 44271, 42875, 44001, 43201, 43210, 43087, 43408, 47339, 43392, 43017, 42159, 41453, 42568, 42854, 43479, 44532, 43227, 43208, 41844, 47668, 41870, 42501, 42015, 42187, 42210, 42322, 42795, 52403, 43437, 42307, 41455, 43381, 41354, 42259, 41919, 42387, 43110, 43443, 43500, 43430, 43374, 43157, 43374, 43085, 43475, 43306, 43287, 43633, 43064, 43921, 43106, 43797, 42568, 42983, 43511, 42707, 43177, 42774, 43307, 42907, 42860, 42825, 42841, 42943, 42556, 43059, 42763, 44298, 44049, 43879, 48739, 42951, 41176, 42091, 42815, 43004, 42865, 42811, 42244, 42773, 42478, 43390, 42615, 43654, 42636, 42407, 43803, 41984, 42575, 44020, 42924, 44338, 43028, 43124, 42009, 42644, 42953, 42840, 44462, 44633, 42827, 43346, 43071, 43233, 44005, 42940, 44458, 42210, 44264, 43490, 43397, 43068, 44321, 42947, 42978, 44132, 43351, 43729, 44193, 42921, 43147, 43705, 44245, 43780, 44254, 43885, 42554, 43547, 44198, 43296, 43796, 44572, 43611, 43341, 44221, 44243, 43456, 44022, 43959, 43040, 44058, 44097],
