{
  "AcquisitionMatrixPE": 104,
  "AcquisitionNumber": 1,
  "AcquisitionTime": "11:48:26.497500",
  "BandwidthPerPixelPhaseEncode": 17.17,
  "BaseResolution": 104,
  "BodyPartExamined": "BRAIN",
  "CoilCombinationMethod": "Sum of Squares",
  "ConsistencyInfo": "N4_VE11C_LATEST_20160120",
  "ConversionSoftware": "dcm2niix",
  "ConversionSoftwareVersion": "v1.0.20220505",
  "DerivedVendorReportedEchoSpacing": 0.000560011,
  "DeviceSerialNumber": "167006",
  "DwellTime": 2.1e-06,
  "EchoTime": 0.037,
  "EchoTime1": 0.037,
  "EchoTime2": 0.001,
  "EchoTrainLength": 104,
  "EffectiveEchoSpacing": 0.000560011,
  "FlipAngle": 52,
  "HeudiconvVersion": "0.5.3.post811+g6206e14",
  "ImageComments": "Unaliased MB4/PE3/LB",
  "ImageOrientationPatientDICOM": [0.995275, 0.094525, 0.0221887, -0.0816517, 0.938488, -0.335518],
  "ImageOrientationText": "Tra>Cor(-19.4)>Sag(3.0)",
  "ImageType": [
    "ORIGINAL",
    "PRIMARY",
    "P",
    "MB",
    "ND",
    "MOSAIC",
    "PHASE"
],
  "ImagingFrequency": 123.259,
  "InPlanePhaseEncodingDirectionDICOM": "COL",
  "InstitutionAddress": "Chemin Queen-Mary 4565,Montreal,District,CA,H3W 1W5",
  "InstitutionName": "IUGM",
  "InstitutionalDepartmentName": "Department",
  "MRAcquisitionType": "2D",
  "MagneticFieldStrength": 3,
  "Manufacturer": "Siemens",
  "ManufacturersModelName": "Prisma_fit",
  "MatrixCoilMode": "SENSE",
  "Modality": "MR",
  "MultibandAccelerationFactor": 4,
  "PartialFourier": 1,
  "PatientPosition": "HFS",
  "PercentPhaseFOV": 100,
  "PercentSampling": 100,
  "PhaseEncodingDirection": "j",
  "PhaseEncodingSteps": 104,
  "PhaseResolution": 1,
  "PixelBandwidth": 2290,
  "ProcedureStepDescription": "games^mario3",
  "ProtocolName": "func_task-mario3_run-03",
  "PulseSequenceDetails": "%CustomerSeq%\\cmrr_mbep2d_bold",
  "ReceiveCoilActiveElements": "HC1-7;NC1,2",
  "ReceiveCoilName": "HeadNeck_64",
  "ReconMatrixPE": 104,
  "RepetitionTime": 1.49,
  "SAR": 0.0812972,
  "ScanOptions": "FS",
  "ScanningSequence": "EP",
  "SequenceName": "epfid2d1_104",
  "SequenceVariant": "SK\\SS",
  "SeriesDescription": "func_task-mario3_run-03",
  "SeriesNumber": 17,
  "ShimSetting": [628, -7198, -8792, 645, 90, 7, -22, 9],
  "SliceThickness": 2,
  "SliceTiming": [0, 0.7825, 0.0975, 0.88, 0.195, 0.9775, 0.2925, 1.0775, 0.39, 1.175, 0.4875, 1.2725, 0.5875, 1.37, 0.685, 0, 0.7825, 0.0975, 0.88, 0.195, 0.9775, 0.2925, 1.0775, 0.39, 1.175, 0.4875, 1.2725, 0.5875, 1.37, 0.685, 0, 0.7825, 0.0975, 0.88, 0.195, 0.9775, 0.2925, 1.0775, 0.39, 1.175, 0.4875, 1.2725, 0.5875, 1.37, 0.685, 0, 0.7825, 0.0975, 0.88, 0.195, 0.9775, 0.2925, 1.0775, 0.39, 1.175, 0.4875, 1.2725, 0.5875, 1.37, 0.685],
  "SoftwareVersions": "syngo MR E11",
  "SpacingBetweenSlices": 2,
  "StationName": "MRC35049",
  "TaskName": "mario3",
  "TotalReadoutTime": 0.0576811,
  "TxRefAmp": 316.058,
  "WipMemBlock": "f357e32a-7d2c-4008-8d97-ea108d46e6e2||Sequence: R017 ve11c/master r/75a17815+; Jun 28 2022 16:32:11 by eja",
  "dcmmeta_affine": [
    [-1.9905503988265991, -0.16330337524414062, 0.10507746785879135, 110.75867462158203],
    [-0.18905001878738403, 1.876976728439331, -0.6642428040504456, -50.97745132446289],
    [0.04437743127346039, 0.6710368394851685, 1.883544683456421, -53.84955596923828],
    [0.0, 0.0, 0.0, 1.0]
],
  "dcmmeta_reorient_transform": [
    [0.0, -1.0, 0.0, 103.0],
    [1.0, 0.0, 0.0, 0.0],
    [0.0, 0.0, 1.0, 0.0],
    [0.0, 0.0, 0.0, 1.0]
],
  "dcmmeta_shape": [104, 104, 60, 380],
  "dcmmeta_slice_dim": 2,
  "dcmmeta_version": 0.6,
  "global": {
    "const": {
      "AcquisitionMatrix": [104, 0, 0, 104],
      "AngioFlag": "N",
      "BitsAllocated": 16,
      "BitsStored": 16,
      "BodyPartExamined": "BRAIN",
      "Columns": 832,
      "EchoNumbers": 1,
      "EchoTime": 37.0,
      "EchoTrainLength": 104,
      "FlipAngle": 52.0,
      "HighBit": 15,
      "ImageOrientationPatient": [0.99527517946697, 0.09452501254459, 0.02218871651163, -0.0816516906238, 0.93848835867708, -0.3355184079091],
      "ImagePositionPatient": [-759.05632648923, -894.38488379808, 243.37124959283],
      "ImageType": [
        "ORIGINAL",
        "PRIMARY",
        "P",
        "MB",
        "ND",
        "MOSAIC"
],
      "ImagedNucleus": "1H",
      "ImagingFrequency": 123.258796,
      "InPlanePhaseEncodingDirection": "COL",
      "LargestImagePixelValue": 4095,
      "MRAcquisitionType": "2D",
      "MagneticFieldStrength": 3.0,
      "Manufacturer": "SIEMENS",
      "ManufacturerModelName": "Prisma_fit",
      "Modality": "MR",
      "NumberOfAverages": 1.0,
      "NumberOfPhaseEncodingSteps": 104,
      "PercentPhaseFieldOfView": 100.0,
      "PercentSampling": 100.0,
      "PerformedProcedureStepStartTime": "112134.106000",
      "PhotometricInterpretation": "MONOCHROME2",
      "PixelBandwidth": 2290.0,
      "PixelRepresentation": 0,
      "PixelSpacing": [2.0, 2.0],
      "ProtocolName": "func_task-mario3_run-03",
      "RepetitionTime": 1490.0,
      "RescaleIntercept": -4096.0,
      "RescaleSlope": 2.0,
      "RescaleType": "US",
      "Rows": 832,
      "SAR": 0.08129716136114,
      "SamplesPerPixel": 1,
      "ScanOptions": "FS",
      "ScanningSequence": "EP",
      "SequenceName": "epfid2d1_104",
      "SequenceVariant": [
        "SK",
        "SS"
],
      "SeriesDescription": "func_task-mario3_run-03",
      "SeriesNumber": 17,
      "SeriesTime": "114949.108000",
      "SliceLocation": -27.964198450415,
      "SliceThickness": 2.0,
      "SmallestImagePixelValue": 0,
      "SoftwareVersions": "syngo MR E11",
      "SpacingBetweenSlices": 2.0000000696305,
      "SpecificCharacterSet": "ISO_IR 100",
      "StudyID": "1",
      "StudyTime": "112134.007000",
      "TransmitCoilName": "Body",
      "VariableFlipAngleFlag": "N",
      "WindowCenterWidthExplanation": "Algo1",
      "dBdt": 0.0},
    "slices": {}
  },
  "time": {
    "samples": {
      "AcquisitionNumber": [1, 2, 3, 4, 5, 6, 7, 8, 9, 10, 11, 12, 13, 14, 15, 16, 17, 18, 19, 20, 21, 22, 23, 24, 25, 26, 27, 28, 29, 30, 31, 32, 33, 34, 35, 36, 37, 38, 39, 40, 41, 42, 43, 44, 45, 46, 47, 48, 49, 50, 51, 52, 53, 54, 55, 56, 57, 58, 59, 60, 61, 62, 63, 64, 65, 66, 67, 68, 69, 70, 71, 72, 73, 74, 75, 76, 77, 78, 79, 80, 81, 82, 83, 84, 85, 86, 87, 88, 89, 90, 91, 92, 93, 94, 95, 96, 97, 98, 99, 100, 101, 102, 103, 104, 105, 106, 107, 108, 109, 110, 111, 112, 113, 114, 115, 116, 117, 118, 119, 120, 121, 122, 123, 124, 125, 126, 127, 128, 129, 130, 131, 132, 133, 134, 135, 136, 137, 138, 139, 140, 141, 142, 143, 144, 145, 146, 147, 148, 149, 150, 151, 152, 153, 154, 155, 156, 157, 158, 159, 160, 161, 162, 163, 164, 165, 166, 167, 168, 169, 170, 171, 172, 173, 174, 175, 176, 177, 178, 179, 180, 181, 182, 183, 184, 185, 186, 187, 188, 189, 190, 191, 192, 193, 194, 195, 196, 197, 198, 199, 200, 201, 202, 203, 204, 205, 206, 207, 208, 209, 210, 211, 212, 213, 214, 215, 216, 217, 218, 219, 220, 221, 222, 223, 224, 225, 226, 227, 228, 229, 230, 231, 232, 233, 234, 235, 236, 237, 238, 239, 240, 241, 242, 243, 244, 245, 246, 247, 248, 249, 250, 251, 252, 253, 254, 255, 256, 257, 258, 259, 260, 261, 262, 263, 264, 265, 266, 267, 268, 269, 270, 271, 272, 273, 274, 275, 276, 277, 278, 279, 280, 281, 282, 283, 284, 285, 286, 287, 288, 289, 290, 291, 292, 293, 294, 295, 296, 297, 298, 299, 300, 301, 302, 303, 304, 305, 306, 307, 308, 309, 310, 311, 312, 313, 314, 315, 316, 317, 318, 319, 320, 321, 322, 323, 324, 325, 326, 327, 328, 329, 330, 331, 332, 333, 334, 335, 336, 337, 338, 339, 340, 341, 342, 343, 344, 345, 346, 347, 348, 349, 350, 351, 352, 353, 354, 355, 356, 357, 358, 359, 360, 361, 362, 363, 364, 365, 366, 367, 368, 369, 370, 371, 372, 373, 374, 375, 376, 377, 378, 379, 380],
      "AcquisitionTime": ["114826.497500", "114827.987500", "114829.477500", "114830.967500", "114832.457500", "114833.947500", "114835.437500", "114836.927500", "114838.417500", "114839.907500", "114841.397500", "114842.887500", "114844.377500", "114845.867500", "114847.357500", "114848.847500", "114850.337500", "114851.827500", "114853.317500", "114854.807500", "114856.297500", "114857.787500", "114859.277500", "114900.767500", "114902.257500", "114903.747500", "114905.237500", "114906.727500", "114908.217500", "114909.707500", "114911.197500", "114912.687500", "114914.177500", "114915.667500", "114917.157500", "114918.647500", "114920.137500", "114921.627500", "114923.117500", "114924.607500", "114926.097500", "114927.587500", "114929.077500", "114930.567500", "114932.057500", "114933.547500", "114935.037500", "114936.527500", "114938.017500", "114939.507500", "114940.997500", "114942.487500", "114943.977500", "114945.467500", "114946.957500", "114948.447500", "114949.937500", "114951.427500", "114952.917500", "114954.407500", "114955.897500", "114957.387500", "114958.877500", "115000.367500", "115001.857500", "115003.347500", "115004.837500", "115006.327500", "115007.817500", "115009.307500", "115010.797500", "115012.287500", "115013.777500", "115015.267500", "115016.757500", "115018.247500", "115019.737500", "115021.227500", "115022.717500", "115024.207500", "115025.697500", "115027.187500", "115028.677500", "115030.167500", "115031.657500", "115033.147500", "115034.637500", "115036.127500", "115037.617500", "115039.107500", "115040.597500", "115042.087500", "115043.577500", "115045.067500", "115046.557500", "115048.047500", "115049.537500", "115051.027500", "115052.517500", "115054.007500", "115055.497500", "115056.987500", "115058.477500", "115059.967500", "115101.457500", "115102.947500", "115104.437500", "115105.927500", "115107.417500", "115108.907500", "115110.397500", "115111.887500", "115113.377500", "115114.867500", "115116.357500", "115117.847500", "115119.337500", "115120.827500", "115122.317500", "115123.807500", "115125.297500", "115126.787500", "115128.277500", "115129.767500", "115131.257500", "115132.747500", "115134.237500", "115135.727500", "115137.217500", "115138.707500", "115140.197500", "115141.687500", "115143.177500", "115144.667500", "115146.157500", "115147.647500", "115149.137500", "115150.627500", "115152.117500", "115153.607500", "115155.097500", "115156.587500", "115158.077500", "115159.567500", "115201.057500", "115202.547500", "115204.037500", "115205.527500", "115207.017500", "115208.507500", "115209.997500", "115211.487500", "115212.977500", "115214.467500", "115215.957500", "115217.447500", "115218.937500", "115220.427500", "115221.917500", "115223.407500", "115224.897500", "115226.387500", "115227.877500", "115229.367500", "115230.857500", "115232.347500", "115233.837500", "115235.327500", "115236.817500", "115238.307500", "115239.797500", "115241.287500", "115242.777500", "115244.267500", "115245.757500", "115247.247500", "115248.737500", "115250.227500", "115251.717500", "115253.207500", "115254.697500", "115256.187500", "115257.677500", "115259.167500", "115300.657500", "115302.147500", "115303.637500", "115305.127500", "115306.617500", "115308.107500", "115309.597500", "115311.087500", "115312.577500", "115314.067500", "115315.557500", "115317.047500", "115318.537500", "115320.027500", "115321.517500", "115323.007500", "115324.497500", "115325.987500", "115327.477500", "115328.967500", "115330.457500", "115331.947500", "115333.437500", "115334.927500", "115336.417500", "115337.907500", "115339.397500", "115340.887500", "115342.377500", "115343.867500", "115345.357500", "115346.847500", "115348.337500", "115349.827500", "115351.317500", "115352.807500", "115354.297500", "115355.787500", "115357.277500", "115358.767500", "115400.257500", "115401.747500", "115403.237500", "115404.727500", "115406.217500", "115407.707500", "115409.197500", "115410.687500", "115412.177500", "115413.667500", "115415.157500", "115416.647500", "115418.137500", "115419.627500", "115421.117500", "115422.607500", "115424.097500", "115425.587500", "115427.077500", "115428.567500", "115430.057500", "115431.547500", "115433.037500", "115434.527500", "115436.017500", "115437.507500", "115438.997500", "115440.487500", "115441.977500", "115443.467500", "115444.957500", "115446.447500", "115447.937500", "115449.427500", "115450.917500", "115452.407500", "115453.897500", "115455.387500", "115456.877500", "115458.367500", "115459.857500", "115501.347500", "115502.837500", "115504.327500", "115505.817500", "115507.307500", "115508.797500", "115510.287500", "115511.777500", "115513.267500", "115514.757500", "115516.247500", "115517.737500", "115519.227500", "115520.717500", "115522.207500", "115523.697500", "115525.187500", "115526.677500", "115528.167500", "115529.657500", "115531.147500", "115532.637500", "115534.127500", "115535.617500", "115537.107500", "115538.597500", "115540.087500", "115541.577500", "115543.067500", "115544.557500", "115546.047500", "115547.537500", "115549.027500", "115550.517500", "115552.007500", "115553.497500", "115554.987500", "115556.477500", "115557.967500", "115559.457500", "115600.947500", "115602.437500", "115603.927500", "115605.417500", "115606.907500", "115608.397500", "115609.887500", "115611.377500", "115612.867500", "115614.357500", "115615.847500", "115617.337500", "115618.827500", "115620.317500", "115621.807500", "115623.297500", "115624.787500", "115626.277500", "115627.767500", "115629.257500", "115630.747500", "115632.237500", "115633.727500", "115635.217500", "115636.707500", "115638.197500", "115639.687500", "115641.177500", "115642.667500", "115644.157500", "115645.647500", "115647.137500", "115648.627500", "115650.117500", "115651.607500", "115653.097500", "115654.587500", "115656.077500", "115657.567500", "115659.057500", "115700.547500", "115702.037500", "115703.527500", "115705.017500", "115706.507500", "115707.997500", "115709.487500", "115710.977500", "115712.467500", "115713.957500", "115715.447500", "115716.937500", "115718.427500", "115719.917500", "115721.407500", "115722.897500", "115724.387500", "115725.877500", "115727.367500", "115728.857500", "115730.347500", "115731.837500", "115733.327500", "115734.817500", "115736.307500", "115737.797500", "115739.287500", "115740.777500", "115742.267500", "115743.757500", "115745.247500", "115746.737500", "115748.227500", "115749.717500", "115751.207500"],
      "ContentTime": ["114949.111000", "114949.113000", "114949.116000", "114949.118000", "114949.131000", "114949.133000", "114949.136000", "114949.138000", "114949.141000", "114949.143000", "114949.146000", "114949.148000", "114949.151000", "114949.153000", "114949.156000", "114949.158000", "114949.161000", "114949.163000", "114949.166000", "114949.168000", "114949.171000", "114949.173000", "114949.176000", "114949.178000", "114949.181000", "114949.183000", "114949.186000", "114949.188000", "114949.191000", "114949.193000", "114949.196000", "114949.198000", "114949.201000", "114949.203000", "115009.011000", "115009.013000", "115009.016000", "115009.019000", "115009.021000", "115009.024000", "115009.026000", "115009.029000", "115009.031000", "115009.034000", "115009.036000", "115009.038000", "115009.041000", "115009.043000", "115009.046000", "115009.049000", "115009.051000", "115009.054000", "115009.056000", "115009.059000", "115029.009000", "115029.012000", "115029.015000", "115029.017000", "115029.020000", "115029.022000", "115029.025000", "115029.028000", "115029.030000", "115029.033000", "115029.035000", "115029.038000", "115029.040000", "115029.043000", "115029.045000", "115029.048000", "115029.050000", "115029.053000", "115029.055000", "115029.058000", "115049.385000", "115049.388000", "115049.391000", "115049.393000", "115049.396000", "115049.398000", "115049.401000", "115049.403000", "115049.406000", "115049.408000", "115049.411000", "115049.413000", "115049.416000", "115049.418000", "115049.421000", "115049.423000", "115049.426000", "115049.429000", "115049.431000", "115049.434000", "115129.063000", "115129.066000", "115129.068000", "115129.071000", "115129.073000", "115129.076000", "115129.078000", "115129.081000", "115129.083000", "115129.086000", "115129.089000", "115129.091000", "115129.094000", "115129.096000", "115129.099000", "115129.101000", "115129.104000", "115129.106000", "115129.109000", "115129.111000", "115129.114000", "115129.117000", "115129.119000", "115129.122000", "115129.124000", "115129.127000", "115129.129000", "115209.042000", "115209.044000", "115209.047000", "115209.049000", "115209.052000", "115209.055000", "115209.057000", "115209.060000", "115209.062000", "115209.065000", "115209.067000", "115209.071000", "115209.074000", "115209.076000", "115209.079000", "115209.081000", "115209.084000", "115209.086000", "115209.089000", "115209.091000", "115209.094000", "115209.097000", "115209.099000", "115209.102000", "115209.104000", "115209.107000", "115209.109000", "115249.032000", "115249.035000", "115249.037000", "115249.040000", "115249.042000", "115249.045000", "115249.047000", "115249.050000", "115249.053000", "115249.055000", "115249.058000", "115249.060000", "115249.063000", "115249.065000", "115249.068000", "115249.070000", "115249.073000", "115249.075000", "115249.078000", "115249.080000", "115249.083000", "115249.085000", "115249.088000", "115249.090000", "115249.093000", "115249.096000", "115249.098000", "115329.052000", "115329.055000", "115329.058000", "115329.060000", "115329.063000", "115329.065000", "115329.068000", "115329.070000", "115329.073000", "115329.075000", "115329.078000", "115329.081000", "115329.083000", "115329.086000", "115329.088000", "115329.091000", "115329.094000", "115329.096000", "115329.099000", "115329.101000", "115329.104000", "115329.107000", "115329.109000", "115329.112000", "115329.114000", "115329.117000", "115329.119000", "115409.065000", "115409.068000", "115409.071000", "115409.073000", "115409.076000", "115409.078000", "115409.081000", "115409.083000", "115409.086000", "115409.089000", "115409.091000", "115409.094000", "115409.096000", "115409.099000", "115409.101000", "115409.104000", "115409.106000", "115409.109000", "115409.111000", "115409.114000", "115409.116000", "115409.119000", "115409.122000", "115409.124000", "115409.127000", "115409.129000", "115409.132000", "115449.033000", "115449.036000", "115449.039000", "115449.041000", "115449.044000", "115449.046000", "115449.049000", "115449.052000", "115449.054000", "115449.057000", "115449.059000", "115449.062000", "115449.064000", "115449.067000", "115449.069000", "115449.072000", "115449.074000", "115449.077000", "115449.079000", "115449.082000", "115449.084000", "115449.087000", "115449.089000", "115449.092000", "115449.095000", "115449.097000", "115449.100000", "115529.041000", "115529.044000", "115529.046000", "115529.049000", "115529.052000", "115529.054000", "115529.057000", "115529.059000", "115529.062000", "115529.064000", "115529.067000", "115529.069000", "115529.072000", "115529.074000", "115529.077000", "115529.079000", "115529.082000", "115529.084000", "115529.087000", "115529.090000", "115529.092000", "115529.095000", "115529.097000", "115529.100000", "115529.102000", "115529.105000", "115529.107000", "115609.048000", "115609.051000", "115609.054000", "115609.056000", "115609.059000", "115609.061000", "115609.064000", "115609.067000", "115609.069000", "115609.072000", "115609.074000", "115609.078000", "115609.081000", "115609.087000", "115609.090000", "115609.093000", "115609.096000", "115609.099000", "115609.102000", "115609.104000", "115609.107000", "115609.110000", "115609.113000", "115609.116000", "115609.119000", "115609.121000", "115649.034000", "115649.036000", "115649.039000", "115649.042000", "115649.044000", "115649.047000", "115649.049000", "115649.052000", "115649.054000", "115649.057000", "115649.059000", "115649.062000", "115649.065000", "115649.067000", "115649.070000", "115649.072000", "115649.075000", "115649.077000", "115649.080000", "115649.082000", "115649.085000", "115649.088000", "115649.090000", "115649.093000", "115649.095000", "115649.098000", "115649.100000", "115729.030000", "115729.033000", "115729.036000", "115729.038000", "115729.041000", "115729.043000", "115729.046000", "115729.049000", "115729.051000", "115729.054000", "115729.056000", "115729.059000", "115729.061000", "115729.064000", "115729.066000", "115729.069000", "115729.071000", "115729.074000", "115729.076000", "115729.079000", "115729.082000", "115729.084000", "115729.087000", "115729.090000", "115729.092000", "115729.095000", "115729.097000", "115754.626000", "115754.628000", "115754.631000", "115754.634000", "115754.636000", "115754.639000", "115754.641000", "115754.644000", "115754.646000", "115754.649000", "115754.652000", "115754.654000", "115754.657000", "115754.659000", "115754.662000", "115754.665000", "115754.668000"],
      "InstanceCreationTime": ["114949.111000", "114949.113000", "114949.116000", "114949.118000", "114949.131000", "114949.133000", "114949.136000", "114949.138000", "114949.141000", "114949.143000", "114949.146000", "114949.148000", "114949.151000", "114949.153000", "114949.156000", "114949.158000", "114949.161000", "114949.163000", "114949.166000", "114949.168000", "114949.171000", "114949.173000", "114949.176000", "114949.178000", "114949.181000", "114949.183000", "114949.186000", "114949.188000", "114949.191000", "114949.193000", "114949.196000", "114949.198000", "114949.201000", "114949.203000", "115009.011000", "115009.013000", "115009.016000", "115009.019000", "115009.021000", "115009.024000", "115009.026000", "115009.029000", "115009.031000", "115009.034000", "115009.036000", "115009.038000", "115009.041000", "115009.043000", "115009.046000", "115009.049000", "115009.051000", "115009.054000", "115009.056000", "115009.059000", "115029.009000", "115029.012000", "115029.015000", "115029.017000", "115029.020000", "115029.022000", "115029.025000", "115029.028000", "115029.030000", "115029.033000", "115029.035000", "115029.038000", "115029.040000", "115029.043000", "115029.045000", "115029.048000", "115029.050000", "115029.053000", "115029.055000", "115029.058000", "115049.385000", "115049.388000", "115049.391000", "115049.393000", "115049.396000", "115049.398000", "115049.401000", "115049.403000", "115049.406000", "115049.408000", "115049.411000", "115049.413000", "115049.416000", "115049.418000", "115049.421000", "115049.423000", "115049.426000", "115049.429000", "115049.431000", "115049.434000", "115129.063000", "115129.066000", "115129.068000", "115129.071000", "115129.073000", "115129.076000", "115129.078000", "115129.081000", "115129.083000", "115129.086000", "115129.089000", "115129.091000", "115129.094000", "115129.096000", "115129.099000", "115129.101000", "115129.104000", "115129.106000", "115129.109000", "115129.111000", "115129.114000", "115129.117000", "115129.119000", "115129.122000", "115129.124000", "115129.127000", "115129.129000", "115209.042000", "115209.044000", "115209.047000", "115209.049000", "115209.052000", "115209.055000", "115209.057000", "115209.060000", "115209.062000", "115209.065000", "115209.067000", "115209.071000", "115209.074000", "115209.076000", "115209.079000", "115209.081000", "115209.084000", "115209.086000", "115209.089000", "115209.091000", "115209.094000", "115209.097000", "115209.099000", "115209.102000", "115209.104000", "115209.107000", "115209.109000", "115249.032000", "115249.035000", "115249.037000", "115249.040000", "115249.042000", "115249.045000", "115249.047000", "115249.050000", "115249.053000", "115249.055000", "115249.058000", "115249.060000", "115249.063000", "115249.065000", "115249.068000", "115249.070000", "115249.073000", "115249.075000", "115249.078000", "115249.080000", "115249.083000", "115249.085000", "115249.088000", "115249.090000", "115249.093000", "115249.096000", "115249.098000", "115329.052000", "115329.055000", "115329.058000", "115329.060000", "115329.063000", "115329.065000", "115329.068000", "115329.070000", "115329.073000", "115329.075000", "115329.078000", "115329.081000", "115329.083000", "115329.086000", "115329.088000", "115329.091000", "115329.094000", "115329.096000", "115329.099000", "115329.101000", "115329.104000", "115329.107000", "115329.109000", "115329.112000", "115329.114000", "115329.117000", "115329.119000", "115409.065000", "115409.068000", "115409.071000", "115409.073000", "115409.076000", "115409.078000", "115409.081000", "115409.083000", "115409.086000", "115409.089000", "115409.091000", "115409.094000", "115409.096000", "115409.099000", "115409.101000", "115409.104000", "115409.106000", "115409.109000", "115409.111000", "115409.114000", "115409.116000", "115409.119000", "115409.122000", "115409.124000", "115409.127000", "115409.129000", "115409.132000", "115449.033000", "115449.036000", "115449.039000", "115449.041000", "115449.044000", "115449.046000", "115449.049000", "115449.052000", "115449.054000", "115449.057000", "115449.059000", "115449.062000", "115449.064000", "115449.067000", "115449.069000", "115449.072000", "115449.074000", "115449.077000", "115449.079000", "115449.082000", "115449.084000", "115449.087000", "115449.089000", "115449.092000", "115449.095000", "115449.097000", "115449.100000", "115529.041000", "115529.044000", "115529.046000", "115529.049000", "115529.052000", "115529.054000", "115529.057000", "115529.059000", "115529.062000", "115529.064000", "115529.067000", "115529.069000", "115529.072000", "115529.074000", "115529.077000", "115529.079000", "115529.082000", "115529.084000", "115529.087000", "115529.090000", "115529.092000", "115529.095000", "115529.097000", "115529.100000", "115529.102000", "115529.105000", "115529.107000", "115609.048000", "115609.051000", "115609.054000", "115609.056000", "115609.059000", "115609.061000", "115609.064000", "115609.067000", "115609.069000", "115609.072000", "115609.074000", "115609.078000", "115609.081000", "115609.087000", "115609.090000", "115609.093000", "115609.096000", "115609.099000", "115609.102000", "115609.104000", "115609.107000", "115609.110000", "115609.113000", "115609.116000", "115609.119000", "115609.121000", "115649.034000", "115649.036000", "115649.039000", "115649.042000", "115649.044000", "115649.047000", "115649.049000", "115649.052000", "115649.054000", "115649.057000", "115649.059000", "115649.062000", "115649.065000", "115649.067000", "115649.070000", "115649.072000", "115649.075000", "115649.077000", "115649.080000", "115649.082000", "115649.085000", "115649.088000", "115649.090000", "115649.093000", "115649.095000", "115649.098000", "115649.100000", "115729.030000", "115729.033000", "115729.036000", "115729.038000", "115729.041000", "115729.043000", "115729.046000", "115729.049000", "115729.051000", "115729.054000", "115729.056000", "115729.059000", "115729.061000", "115729.064000", "115729.066000", "115729.069000", "115729.071000", "115729.074000", "115729.076000", "115729.079000", "115729.082000", "115729.084000", "115729.087000", "115729.090000", "115729.092000", "115729.095000", "115729.097000", "115754.626000", "115754.628000", "115754.631000", "115754.634000", "115754.636000", "115754.639000", "115754.641000", "115754.644000", "115754.646000", "115754.649000", "115754.652000", "115754.654000", "115754.657000", "115754.659000", "115754.662000", "115754.665000", "115754.668000"],
      "InstanceNumber": [1, 2, 3, 4, 5, 6, 7, 8, 9, 10, 11, 12, 13, 14, 15, 16, 17, 18, 19, 20, 21, 22, 23, 24, 25, 26, 27, 28, 29, 30, 31, 32, 33, 34, 35, 36, 37, 38, 39, 40, 41, 42, 43, 44, 45, 46, 47, 48, 49, 50, 51, 52, 53, 54, 55, 56, 57, 58, 59, 60, 61, 62, 63, 64, 65, 66, 67, 68, 69, 70, 71, 72, 73, 74, 75, 76, 77, 78, 79, 80, 81, 82, 83, 84, 85, 86, 87, 88, 89, 90, 91, 92, 93, 94, 95, 96, 97, 98, 99, 100, 101, 102, 103, 104, 105, 106, 107, 108, 109, 110, 111, 112, 113, 114, 115, 116, 117, 118, 119, 120, 121, 122, 123, 124, 125, 126, 127, 128, 129, 130, 131, 132, 133, 134, 135, 136, 137, 138, 139, 140, 141, 142, 143, 144, 145, 146, 147, 148, 149, 150, 151, 152, 153, 154, 155, 156, 157, 158, 159, 160, 161, 162, 163, 164, 165, 166, 167, 168, 169, 170, 171, 172, 173, 174, 175, 176, 177, 178, 179, 180, 181, 182, 183, 184, 185, 186, 187, 188, 189, 190, 191, 192, 193, 194, 195, 196, 197, 198, 199, 200, 201, 202, 203, 204, 205, 206, 207, 208, 209, 210, 211, 212, 213, 214, 215, 216, 217, 218, 219, 220, 221, 222, 223, 224, 225, 226, 227, 228, 229, 230, 231, 232, 233, 234, 235, 236, 237, 238, 239, 240, 241, 242, 243, 244, 245, 246, 247, 248, 249, 250, 251, 252, 253, 254, 255, 256, 257, 258, 259, 260, 261, 262, 263, 264, 265, 266, 267, 268, 269, 270, 271, 272, 273, 274, 275, 276, 277, 278, 279, 280, 281, 282, 283, 284, 285, 286, 287, 288, 289, 290, 291, 292, 293, 294, 295, 296, 297, 298, 299, 300, 301, 302, 303, 304, 305, 306, 307, 308, 309, 310, 311, 312, 313, 314, 315, 316, 317, 318, 319, 320, 321, 322, 323, 324, 325, 326, 327, 328, 329, 330, 331, 332, 333, 334, 335, 336, 337, 338, 339, 340, 341, 342, 343, 344, 345, 346, 347, 348, 349, 350, 351, 352, 353, 354, 355, 356, 357, 358, 359, 360, 361, 362, 363, 364, 365, 366, 367, 368, 369, 370, 371, 372, 373, 374, 375, 376, 377, 378, 379, 380],
