{
  "AcquisitionMatrixPE": 104,
  "AcquisitionNumber": 1,
  "AcquisitionTime": "16:30:53.700000",
  "BandwidthPerPixelPhaseEncode": 17.17,
  "BaseResolution": 104,
  "BodyPartExamined": "BRAIN",
  "CoilCombinationMethod": "Sum of Squares",
  "ConsistencyInfo": "N4_VE11C_LATEST_20160120",
  "ConversionSoftware": "dcm2niix",
  "ConversionSoftwareVersion": "v1.0.20220505",
  "DerivedVendorReportedEchoSpacing": 0.000560011,
  "DeviceSerialNumber": "167006",
  "DwellTime": 2.1e-06,
  "EchoTime": 0.037,
  "EchoTrainLength": 104,
  "EffectiveEchoSpacing": 0.000560011,
  "FlipAngle": 52,
  "HeudiconvVersion": "0.5.3.post811+g6206e14",
  "ImageComments": "Unaliased MB4/PE3/LB",
  "ImageOrientationPatientDICOM": [0.998388, -0.055579, 0.0114739, 0.056343, 0.946541, -0.317624],
  "ImageOrientationText": "Tra>Cor(-18.5)>Sag(-0.4)",
  "ImageType": [
    "ORIGINAL",
    "PRIMARY",
    "M",
    "MB",
    "ND",
    "MOSAIC"
],
  "ImagingFrequency": 123.259,
  "InPlanePhaseEncodingDirectionDICOM": "COL",
  "InstitutionAddress": "Chemin Queen-Mary 4565,Montreal,District,CA,H3W 1W5",
  "InstitutionName": "IUGM",
  "InstitutionalDepartmentName": "Department",
  "MRAcquisitionType": "2D",
  "MagneticFieldStrength": 3,
  "Manufacturer": "Siemens",
  "ManufacturersModelName": "Prisma_fit",
  "MatrixCoilMode": "SENSE",
  "Modality": "MR",
  "MultibandAccelerationFactor": 4,
  "PartialFourier": 1,
  "PatientPosition": "HFS",
  "PercentPhaseFOV": 100,
  "PercentSampling": 100,
  "PhaseEncodingDirection": "j",
  "PhaseEncodingSteps": 104,
  "PhaseResolution": 1,
  "PixelBandwidth": 2290,
  "ProcedureStepDescription": "games^mario3",
  "ProtocolName": "func_task-mario3_run-03",
  "PulseSequenceDetails": "%CustomerSeq%\\cmrr_mbep2d_bold",
  "ReceiveCoilActiveElements": "HC1-7;NC1,2",
  "ReceiveCoilName": "HeadNeck_64",
  "ReconMatrixPE": 104,
  "RepetitionTime": 1.49,
  "SAR": 0.0420194,
  "ScanOptions": "FS",
  "ScanningSequence": "EP",
  "SequenceName": "epfid2d1_104",
  "SequenceVariant": "SK\\SS",
  "SeriesDescription": "func_task-mario3_run-03",
  "SeriesNumber": 16,
  "ShimSetting": [629, -7278, -8798, 571, 1, -235, -32, -8],
  "SliceThickness": 2,
  "SliceTiming": [0, 0.785, 0.0975, 0.8825, 0.1975, 0.98, 0.295, 1.0775, 0.3925, 1.1775, 0.49, 1.275, 0.5875, 1.3725, 0.6875, 0, 0.785, 0.0975, 0.8825, 0.1975, 0.98, 0.295, 1.0775, 0.3925, 1.1775, 0.49, 1.275, 0.5875, 1.3725, 0.6875, 0, 0.785, 0.0975, 0.8825, 0.1975, 0.98, 0.295, 1.0775, 0.3925, 1.1775, 0.49, 1.275, 0.5875, 1.3725, 0.6875, 0, 0.785, 0.0975, 0.8825, 0.1975, 0.98, 0.295, 1.0775, 0.3925, 1.1775, 0.49, 1.275, 0.5875, 1.3725, 0.6875],
  "SoftwareVersions": "syngo MR E11",
  "SpacingBetweenSlices": 2,
  "StationName": "MRC35049",
  "TaskName": "mario3",
  "TotalReadoutTime": 0.0576811,
  "TxRefAmp": 229.156,
  "WipMemBlock": "0e0c0d00-0fd0-4c53-ac38-e898ecb15bbf||Sequence: R017 ve11c/master r/75a17815+; Jun 28 2022 16:32:11 by eja",
  "dcmmeta_affine": [
    [-1.9967767000198364, 0.11268598586320877, -0.013585363514721394, 100.61431884765625],
    [0.11115794628858566, 1.8930823802947998, -0.6355177760124207, -71.58369445800781],
    [0.022947870194911957, 0.6352486610412598, 1.896294355392456, -56.14326095581055],
    [0.0, 0.0, 0.0, 1.0]
],
  "dcmmeta_reorient_transform": [
    [0.0, -1.0, 0.0, 103.0],
    [1.0, 0.0, 0.0, 0.0],
    [0.0, 0.0, 1.0, 0.0],
    [0.0, 0.0, 0.0, 1.0]
],
  "dcmmeta_shape": [104, 104, 60, 293],
  "dcmmeta_slice_dim": 2,
  "dcmmeta_version": 0.6,
  "global": {
    "const": {
      "AcquisitionMatrix": [104, 0, 0, 104],
      "AngioFlag": "N",
      "BitsAllocated": 16,
      "BitsStored": 16,
      "BodyPartExamined": "BRAIN",
      "Columns": 832,
      "EchoNumbers": 1,
      "EchoTime": 37.0,
      "EchoTrainLength": 104,
      "FlipAngle": 52.0,
      "HighBit": 15,
      "ImageOrientationPatient": [0.99838836457, -0.0555789736469, 0.01147393479143, 0.05634299393489, 0.94654120705503, -0.3176243227167],
      "ImagePositionPatient": [-880.06540091297, -772.02429729653, 232.16483279107],
      "ImageType": [
        "ORIGINAL",
        "PRIMARY",
        "M",
        "MB",
        "ND",
        "MOSAIC"
],
      "ImagedNucleus": "1H",
      "ImagingFrequency": 123.258761,
      "InPlanePhaseEncodingDirection": "COL",
      "MRAcquisitionType": "2D",
      "MagneticFieldStrength": 3.0,
      "Manufacturer": "SIEMENS",
      "ManufacturerModelName": "Prisma_fit",
      "Modality": "MR",
      "NumberOfAverages": 1.0,
      "NumberOfPhaseEncodingSteps": 104,
      "PercentPhaseFieldOfView": 100.0,
      "PercentSampling": 100.0,
      "PerformedProcedureStepStartTime": "160819.735000",
      "PhotometricInterpretation": "MONOCHROME2",
      "PixelBandwidth": 2290.0,
      "PixelRepresentation": 0,
      "PixelSpacing": [2.0, 2.0],
      "ProtocolName": "func_task-mario3_run-03",
      "RepetitionTime": 1490.0,
      "Rows": 832,
      "SAR": 0.04201937592812,
      "SamplesPerPixel": 1,
      "ScanOptions": "FS",
      "ScanningSequence": "EP",
      "SequenceName": "epfid2d1_104",
      "SequenceVariant": [
        "SK",
        "SS"
],
      "SeriesDescription": "func_task-mario3_run-03",
      "SeriesNumber": 16,
      "SeriesTime": "163207.605000",
      "SliceLocation": -31.16915945575,
      "SliceThickness": 2.0,
      "SmallestImagePixelValue": 0,
      "SoftwareVersions": "syngo MR E11",
      "SpacingBetweenSlices": 1.999999961331,
      "SpecificCharacterSet": "ISO_IR 100",
      "StudyID": "1",
      "StudyTime": "160819.655000",
      "TransmitCoilName": "Body",
      "VariableFlipAngleFlag": "N",
      "WindowCenterWidthExplanation": "Algo1",
      "dBdt": 0.0},
    "slices": {}
  },
  "time": {
    "samples": {
      "AcquisitionNumber": [1, 2, 3, 4, 5, 6, 7, 8, 9, 10, 11, 12, 13, 14, 15, 16, 17, 18, 19, 20, 21, 22, 23, 24, 25, 26, 27, 28, 29, 30, 31, 32, 33, 34, 35, 36, 37, 38, 39, 40, 41, 42, 43, 44, 45, 46, 47, 48, 49, 50, 51, 52, 53, 54, 55, 56, 57, 58, 59, 60, 61, 62, 63, 64, 65, 66, 67, 68, 69, 70, 71, 72, 73, 74, 75, 76, 77, 78, 79, 80, 81, 82, 83, 84, 85, 86, 87, 88, 89, 90, 91, 92, 93, 94, 95, 96, 97, 98, 99, 100, 101, 102, 103, 104, 105, 106, 107, 108, 109, 110, 111, 112, 113, 114, 115, 116, 117, 118, 119, 120, 121, 122, 123, 124, 125, 126, 127, 128, 129, 130, 131, 132, 133, 134, 135, 136, 137, 138, 139, 140, 141, 142, 143, 144, 145, 146, 147, 148, 149, 150, 151, 152, 153, 154, 155, 156, 157, 158, 159, 160, 161, 162, 163, 164, 165, 166, 167, 168, 169, 170, 171, 172, 173, 174, 175, 176, 177, 178, 179, 180, 181, 182, 183, 184, 185, 186, 187, 188, 189, 190, 191, 192, 193, 194, 195, 196, 197, 198, 199, 200, 201, 202, 203, 204, 205, 206, 207, 208, 209, 210, 211, 212, 213, 214, 215, 216, 217, 218, 219, 220, 221, 222, 223, 224, 225, 226, 227, 228, 229, 230, 231, 232, 233, 234, 235, 236, 237, 238, 239, 240, 241, 242, 243, 244, 245, 246, 247, 248, 249, 250, 251, 252, 253, 254, 255, 256, 257, 258, 259, 260, 261, 262, 263, 264, 265, 266, 267, 268, 269, 270, 271, 272, 273, 274, 275, 276, 277, 278, 279, 280, 281, 282, 283, 284, 285, 286, 287, 288, 289, 290, 291, 292, 293],
      "AcquisitionTime": ["163053.700000", "163055.190000", "163056.680000", "163058.170000", "163059.660000", "163101.150000", "163102.640000", "163104.130000", "163105.620000", "163107.110000", "163108.600000", "163110.090000", "163111.580000", "163113.070000", "163114.560000", "163116.050000", "163117.540000", "163119.030000", "163120.520000", "163122.010000", "163123.500000", "163124.990000", "163126.480000", "163127.970000", "163129.460000", "163130.950000", "163132.440000", "163133.930000", "163135.420000", "163136.910000", "163138.400000", "163139.890000", "163141.380000", "163142.870000", "163144.360000", "163145.850000", "163147.340000", "163148.830000", "163150.320000", "163151.810000", "163153.300000", "163154.790000", "163156.280000", "163157.770000", "163159.260000", "163200.750000", "163202.240000", "163203.730000", "163205.220000", "163206.710000", "163208.200000", "163209.690000", "163211.180000", "163212.670000", "163214.160000", "163215.650000", "163217.140000", "163218.630000", "163220.120000", "163221.610000", "163223.100000", "163224.590000", "163226.080000", "163227.570000", "163229.060000", "163230.550000", "163232.040000", "163233.530000", "163235.020000", "163236.510000", "163238.000000", "163239.490000", "163240.980000", "163242.470000", "163243.960000", "163245.450000", "163246.940000", "163248.430000", "163249.920000", "163251.410000", "163252.900000", "163254.390000", "163255.880000", "163257.370000", "163258.860000", "163300.350000", "163301.840000", "163303.330000", "163304.820000", "163306.310000", "163307.800000", "163309.290000", "163310.780000", "163312.270000", "163313.760000", "163315.250000", "163316.740000", "163318.230000", "163319.720000", "163321.210000", "163322.700000", "163324.190000", "163325.680000", "163327.170000", "163328.660000", "163330.150000", "163331.640000", "163333.130000", "163334.620000", "163336.110000", "163337.600000", "163339.090000", "163340.580000", "163342.070000", "163343.560000", "163345.050000", "163346.540000", "163348.030000", "163349.520000", "163351.010000", "163352.500000", "163353.990000", "163355.480000", "163356.970000", "163358.460000", "163359.950000", "163401.440000", "163402.930000", "163404.420000", "163405.910000", "163407.400000", "163408.890000", "163410.380000", "163411.870000", "163413.360000", "163414.850000", "163416.340000", "163417.830000", "163419.320000", "163420.810000", "163422.300000", "163423.790000", "163425.280000", "163426.770000", "163428.260000", "163429.750000", "163431.240000", "163432.730000", "163434.220000", "163435.710000", "163437.200000", "163438.690000", "163440.180000", "163441.670000", "163443.160000", "163444.650000", "163446.140000", "163447.630000", "163449.120000", "163450.610000", "163452.100000", "163453.590000", "163455.080000", "163456.570000", "163458.060000", "163459.550000", "163501.040000", "163502.530000", "163504.020000", "163505.510000", "163507.000000", "163508.490000", "163509.980000", "163511.470000", "163512.960000", "163514.450000", "163515.940000", "163517.430000", "163518.920000", "163520.410000", "163521.900000", "163523.390000", "163524.880000", "163526.370000", "163527.860000", "163529.350000", "163530.840000", "163532.330000", "163533.820000", "163535.310000", "163536.800000", "163538.290000", "163539.780000", "163541.270000", "163542.760000", "163544.250000", "163545.740000", "163547.230000", "163548.720000", "163550.210000", "163551.700000", "163553.190000", "163554.680000", "163556.170000", "163557.660000", "163559.150000", "163600.640000", "163602.130000", "163603.620000", "163605.110000", "163606.600000", "163608.090000", "163609.580000", "163611.070000", "163612.560000", "163614.050000", "163615.540000", "163617.030000", "163618.520000", "163620.010000", "163621.500000", "163622.990000", "163624.480000", "163625.970000", "163627.460000", "163628.950000", "163630.440000", "163631.930000", "163633.420000", "163634.910000", "163636.400000", "163637.890000", "163639.380000", "163640.870000", "163642.360000", "163643.850000", "163645.340000", "163646.830000", "163648.320000", "163649.810000", "163651.300000", "163652.790000", "163654.280000", "163655.770000", "163657.260000", "163658.750000", "163700.240000", "163701.730000", "163703.220000", "163704.710000", "163706.200000", "163707.690000", "163709.180000", "163710.670000", "163712.160000", "163713.650000", "163715.140000", "163716.630000", "163718.120000", "163719.610000", "163721.100000", "163722.590000", "163724.080000", "163725.570000", "163727.060000", "163728.550000", "163730.040000", "163731.530000", "163733.020000", "163734.510000", "163736.000000", "163737.490000", "163738.980000", "163740.470000", "163741.960000", "163743.450000", "163744.940000", "163746.430000", "163747.920000", "163749.410000", "163750.900000", "163752.390000", "163753.880000", "163755.370000", "163756.860000", "163758.350000", "163759.840000", "163801.330000", "163802.820000", "163804.310000", "163805.800000", "163807.290000", "163808.780000"],
      "ContentTime": ["163207.608000", "163207.612000", "163207.616000", "163207.619000", "163207.622000", "163207.626000", "163207.629000", "163207.633000", "163207.636000", "163207.639000", "163207.643000", "163207.646000", "163207.649000", "163207.664000", "163207.668000", "163207.671000", "163207.675000", "163207.678000", "163207.681000", "163207.685000", "163207.688000", "163207.692000", "163207.695000", "163207.698000", "163207.702000", "163227.571000", "163227.575000", "163227.578000", "163227.582000", "163227.585000", "163227.588000", "163227.592000", "163227.595000", "163227.599000", "163227.602000", "163227.605000", "163227.609000", "163227.612000", "163227.615000", "163227.619000", "163227.622000", "163227.633000", "163227.636000", "163227.640000", "163227.643000", "163247.571000", "163247.575000", "163247.578000", "163247.582000", "163247.585000", "163247.588000", "163247.592000", "163247.596000", "163247.600000", "163247.603000", "163247.606000", "163247.610000", "163247.613000", "163247.616000", "163247.620000", "163247.623000", "163247.627000", "163247.630000", "163247.633000", "163247.637000", "163307.571000", "163307.575000", "163307.578000", "163307.582000", "163307.585000", "163307.588000", "163307.592000", "163307.595000", "163307.599000", "163307.602000", "163307.605000", "163307.609000", "163307.612000", "163307.616000", "163307.619000", "163307.622000", "163307.626000", "163307.629000", "163307.632000", "163307.636000", "163347.570000", "163347.574000", "163347.577000", "163347.581000", "163347.584000", "163347.588000", "163347.591000", "163347.594000", "163347.598000", "163347.601000", "163347.605000", "163347.616000", "163347.619000", "163347.623000", "163347.626000", "163347.630000", "163347.633000", "163347.636000", "163347.640000", "163347.643000", "163347.647000", "163347.650000", "163347.653000", "163347.657000", "163347.660000", "163347.664000", "163347.667000", "163347.670000", "163347.681000", "163347.685000", "163347.688000", "163427.571000", "163427.575000", "163427.579000", "163427.583000", "163427.586000", "163427.589000", "163427.593000", "163427.596000", "163427.600000", "163427.603000", "163427.607000", "163427.610000", "163427.613000", "163427.617000", "163427.620000", "163427.624000", "163427.627000", "163427.631000", "163427.634000", "163427.638000", "163427.641000", "163427.644000", "163427.648000", "163427.651000", "163427.655000", "163427.658000", "163427.661000", "163507.571000", "163507.575000", "163507.578000", "163507.582000", "163507.585000", "163507.596000", "163507.599000", "163507.603000", "163507.606000", "163507.609000", "163507.613000", "163507.616000", "163507.619000", "163507.623000", "163507.626000", "163507.630000", "163507.634000", "163507.638000", "163507.641000", "163507.645000", "163507.649000", "163507.653000", "163507.656000", "163507.660000", "163507.664000", "163507.667000", "163547.570000", "163547.574000", "163547.577000", "163547.581000", "163547.584000", "163547.588000", "163547.591000", "163547.595000", "163547.598000", "163547.601000", "163547.605000", "163547.608000", "163547.612000", "163547.615000", "163547.618000", "163547.622000", "163547.625000", "163547.629000", "163547.632000", "163547.644000", "163547.648000", "163547.651000", "163547.654000", "163547.658000", "163547.661000", "163547.665000", "163547.668000", "163627.570000", "163627.574000", "163627.577000", "163627.581000", "163627.584000", "163627.588000", "163627.591000", "163627.595000", "163627.598000", "163627.601000", "163627.605000", "163627.608000", "163627.626000", "163627.629000", "163627.632000", "163627.636000", "163627.639000", "163627.642000", "163627.646000", "163627.649000", "163627.653000", "163627.656000", "163627.659000", "163627.663000", "163627.666000", "163627.669000", "163627.673000", "163707.571000", "163707.575000", "163707.578000", "163707.582000", "163707.585000", "163707.589000", "163707.592000", "163707.596000", "163707.599000", "163707.602000", "163707.606000", "163707.609000", "163707.613000", "163707.616000", "163707.619000", "163707.623000", "163707.626000", "163707.629000", "163707.633000", "163707.636000", "163707.640000", "163707.643000", "163707.646000", "163707.650000", "163707.653000", "163707.656000", "163707.660000", "163747.571000", "163747.575000", "163747.578000", "163747.582000", "163747.585000", "163747.589000", "163747.592000", "163747.595000", "163747.599000", "163747.602000", "163747.606000", "163747.609000", "163747.612000", "163747.616000", "163747.619000", "163747.623000", "163747.626000", "163747.629000", "163747.633000", "163747.636000", "163747.640000", "163747.643000", "163747.646000", "163747.650000", "163747.653000", "163747.657000", "163747.660000", "163807.570000", "163807.574000", "163807.578000", "163807.581000", "163807.585000", "163807.588000", "163807.591000", "163807.595000", "163807.598000", "163807.601000", "163807.605000", "163807.608000", "163807.611000", "163811.259000", "163811.263000", "163811.267000"],
      "InstanceCreationTime": ["163207.608000", "163207.612000", "163207.616000", "163207.619000", "163207.622000", "163207.626000", "163207.629000", "163207.633000", "163207.636000", "163207.639000", "163207.643000", "163207.646000", "163207.649000", "163207.664000", "163207.668000", "163207.671000", "163207.675000", "163207.678000", "163207.681000", "163207.685000", "163207.688000", "163207.692000", "163207.695000", "163207.698000", "163207.702000", "163227.571000", "163227.575000", "163227.578000", "163227.582000", "163227.585000", "163227.588000", "163227.592000", "163227.595000", "163227.599000", "163227.602000", "163227.605000", "163227.609000", "163227.612000", "163227.615000", "163227.619000", "163227.622000", "163227.633000", "163227.636000", "163227.640000", "163227.643000", "163247.571000", "163247.575000", "163247.578000", "163247.582000", "163247.585000", "163247.588000", "163247.592000", "163247.596000", "163247.600000", "163247.603000", "163247.606000", "163247.610000", "163247.613000", "163247.616000", "163247.620000", "163247.623000", "163247.627000", "163247.630000", "163247.633000", "163247.637000", "163307.571000", "163307.575000", "163307.578000", "163307.582000", "163307.585000", "163307.588000", "163307.592000", "163307.595000", "163307.599000", "163307.602000", "163307.605000", "163307.609000", "163307.612000", "163307.616000", "163307.619000", "163307.622000", "163307.626000", "163307.629000", "163307.632000", "163307.636000", "163347.570000", "163347.574000", "163347.577000", "163347.581000", "163347.584000", "163347.588000", "163347.591000", "163347.594000", "163347.598000", "163347.601000", "163347.605000", "163347.616000", "163347.619000", "163347.623000", "163347.626000", "163347.630000", "163347.633000", "163347.636000", "163347.640000", "163347.643000", "163347.647000", "163347.650000", "163347.653000", "163347.657000", "163347.660000", "163347.664000", "163347.667000", "163347.670000", "163347.681000", "163347.685000", "163347.688000", "163427.571000", "163427.575000", "163427.579000", "163427.583000", "163427.586000", "163427.589000", "163427.593000", "163427.596000", "163427.600000", "163427.603000", "163427.607000", "163427.610000", "163427.613000", "163427.617000", "163427.620000", "163427.624000", "163427.627000", "163427.631000", "163427.634000", "163427.638000", "163427.641000", "163427.644000", "163427.648000", "163427.651000", "163427.655000", "163427.658000", "163427.661000", "163507.571000", "163507.575000", "163507.578000", "163507.582000", "163507.585000", "163507.596000", "163507.599000", "163507.603000", "163507.606000", "163507.609000", "163507.613000", "163507.616000", "163507.619000", "163507.623000", "163507.626000", "163507.630000", "163507.634000", "163507.638000", "163507.641000", "163507.645000", "163507.649000", "163507.653000", "163507.656000", "163507.660000", "163507.664000", "163507.667000", "163547.570000", "163547.574000", "163547.577000", "163547.581000", "163547.584000", "163547.588000", "163547.591000", "163547.595000", "163547.598000", "163547.601000", "163547.605000", "163547.608000", "163547.612000", "163547.615000", "163547.618000", "163547.622000", "163547.625000", "163547.629000", "163547.632000", "163547.644000", "163547.648000", "163547.651000", "163547.654000", "163547.658000", "163547.661000", "163547.665000", "163547.668000", "163627.570000", "163627.574000", "163627.577000", "163627.581000", "163627.584000", "163627.588000", "163627.591000", "163627.595000", "163627.598000", "163627.601000", "163627.605000", "163627.608000", "163627.626000", "163627.629000", "163627.632000", "163627.636000", "163627.639000", "163627.642000", "163627.646000", "163627.649000", "163627.653000", "163627.656000", "163627.659000", "163627.663000", "163627.666000", "163627.669000", "163627.673000", "163707.571000", "163707.575000", "163707.578000", "163707.582000", "163707.585000", "163707.589000", "163707.592000", "163707.596000", "163707.599000", "163707.602000", "163707.606000", "163707.609000", "163707.613000", "163707.616000", "163707.619000", "163707.623000", "163707.626000", "163707.629000", "163707.633000", "163707.636000", "163707.640000", "163707.643000", "163707.646000", "163707.650000", "163707.653000", "163707.656000", "163707.660000", "163747.571000", "163747.575000", "163747.578000", "163747.582000", "163747.585000", "163747.589000", "163747.592000", "163747.595000", "163747.599000", "163747.602000", "163747.606000", "163747.609000", "163747.612000", "163747.616000", "163747.619000", "163747.623000", "163747.626000", "163747.629000", "163747.633000", "163747.636000", "163747.640000", "163747.643000", "163747.646000", "163747.650000", "163747.653000", "163747.657000", "163747.660000", "163807.570000", "163807.574000", "163807.578000", "163807.581000", "163807.585000", "163807.588000", "163807.591000", "163807.595000", "163807.598000", "163807.601000", "163807.605000", "163807.608000", "163807.611000", "163811.259000", "163811.263000", "163811.267000"],
      "InstanceNumber": [1, 2, 3, 4, 5, 6, 7, 8, 9, 10, 11, 12, 13, 14, 15, 16, 17, 18, 19, 20, 21, 22, 23, 24, 25, 26, 27, 28, 29, 30, 31, 32, 33, 34, 35, 36, 37, 38, 39, 40, 41, 42, 43, 44, 45, 46, 47, 48, 49, 50, 51, 52, 53, 54, 55, 56, 57, 58, 59, 60, 61, 62, 63, 64, 65, 66, 67, 68, 69, 70, 71, 72, 73, 74, 75, 76, 77, 78, 79, 80, 81, 82, 83, 84, 85, 86, 87, 88, 89, 90, 91, 92, 93, 94, 95, 96, 97, 98, 99, 100, 101, 102, 103, 104, 105, 106, 107, 108, 109, 110, 111, 112, 113, 114, 115, 116, 117, 118, 119, 120, 121, 122, 123, 124, 125, 126, 127, 128, 129, 130, 131, 132, 133, 134, 135, 136, 137, 138, 139, 140, 141, 142, 143, 144, 145, 146, 147, 148, 149, 150, 151, 152, 153, 154, 155, 156, 157, 158, 159, 160, 161, 162, 163, 164, 165, 166, 167, 168, 169, 170, 171, 172, 173, 174, 175, 176, 177, 178, 179, 180, 181, 182, 183, 184, 185, 186, 187, 188, 189, 190, 191, 192, 193, 194, 195, 196, 197, 198, 199, 200, 201, 202, 203, 204, 205, 206, 207, 208, 209, 210, 211, 212, 213, 214, 215, 216, 217, 218, 219, 220, 221, 222, 223, 224, 225, 226, 227, 228, 229, 230, 231, 232, 233, 234, 235, 236, 237, 238, 239, 240, 241, 242, 243, 244, 245, 246, 247, 248, 249, 250, 251, 252, 253, 254, 255, 256, 257, 258, 259, 260, 261, 262, 263, 264, 265, 266, 267, 268, 269, 270, 271, 272, 273, 274, 275, 276, 277, 278, 279, 280, 281, 282, 283, 284, 285, 286, 287, 288, 289, 290, 291, 292, 293],
      "LargestImagePixelValue": [38582, 36796, 37491, 36570, 37014, 36786, 37589, 37268, 37198, 37109, 36656, 36674, 36372, 36412, 37157, 36166, 36481, 36099, 36560, 36242, 36804, 35894, 34796, 33558, 33682, 36424, 36515, 36887, 36649, 34392, 36656, 37138, 36789, 36802, 35662, 35290, 36061, 35863, 35414, 36574, 36481, 35728, 35767, 35896, 35534, 36015, 35876, 35916, 35857, 35932, 35629, 35460, 35679, 35719, 35764, 35786, 35560, 35806, 36183, 35891, 35726, 35794, 35290, 36034, 35791, 35627, 36172, 35272, 35511, 35722, 35812, 36085, 36098, 35703, 35766, 35766, 36035, 35850, 35531, 35493, 35479, 35347, 34994, 35611, 35167, 36263, 35696, 35537, 35638, 35754, 35615, 36339, 35826, 35786, 35975, 35768, 35599, 35821, 35817, 35047, 36045, 36003, 35960, 35551, 35499, 35772, 35819, 35913, 35660, 35393, 35814, 35848, 35609, 35734, 35696, 36317, 35582, 36305, 36287, 36040, 36689, 35893, 36025, 36369, 36335, 36175, 36670, 36783, 36404, 36107, 36323, 36011, 35869, 35997, 36170, 35925, 35974, 36183, 36116, 37054, 36783, 35971, 35701, 36273, 35940, 35970, 36366, 36137, 36142, 36220, 35327, 35723, 35439, 35745, 35805, 35768, 36088, 35767, 35820, 35715, 36427, 36581, 36734, 36862, 36374, 36391, 36545, 36539, 37176, 36556, 35661, 36290, 35256, 35980, 35871, 35938, 35814, 36611, 36232, 35696, 36650, 37045, 36604, 36066, 36761, 36435, 36497, 36996, 36448, 36683, 36590, 36213, 36591, 37127, 36510, 36034, 36212, 35527, 36428, 36040, 36012, 36587, 36802, 36928, 37088, 36872, 36445, 36642, 36663, 36959, 36790, 36093, 35823, 36310, 36942, 36824, 37016, 36924, 36811, 35517, 35147, 36045, 36639, 36916, 37381, 37093, 37255, 37152, 36898, 37074, 36354, 36382, 36090, 36184, 36456, 35928, 36459, 36350, 36641, 36789, 35967, 36519, 35942, 36047, 35169, 36090, 36066, 34007, 35278, 36530, 36073, 36335, 36144, 36026, 36408, 36713, 34367, 36109, 36217, 36065, 36969, 35625, 35142, 36590, 36311, 37227, 36996, 36562, 36804, 37082, 37078, 36377, 36652, 36536, 36677, 36866, 37007, 36939, 37059, 37221, 36787, 37370, 36618, 36910, 36587, 36925, 36919, 36874, 36730, 37115, 37118, 35164, 35601],
      "WindowCenter": [10017.0, 9954.0, 9909.0, 9875.0, 9886.0, 9879.0, 9889.0, 9899.0, 9924.0, 9937.0, 9939.0, 9936.0, 9922.0, 9927.0, 9941.0, 9938.0, 9939.0, 9938.0, 9946.0, 9924.0, 9914.0, 9890.0, 9870.0, 9853.0, 9901.0, 9924.0, 9900.0, 9898.0, 9879.0, 9848.0, 9864.0, 9906.0, 9894.0, 9898.0, 9890.0, 9904.0, 9898.0, 9889.0, 9889.0, 9896.0, 9867.0, 9868.0, 9874.0, 9875.0, 9878.0, 9870.0, 9850.0, 9899.0, 9929.0, 9923.0, 9890.0, 9856.0, 9835.0, 9849.0, 9866.0, 9878.0, 9868.0, 9857.0, 9866.0, 9874.0, 9902.0, 9918.0, 9899.0, 9907.0, 9902.0, 9898.0, 9909.0, 9894.0, 9897.0, 9896.0, 9904.0, 9894.0, 9909.0, 9927.0, 9923.0, 9913.0, 9901.0, 9879.0, 9877.0, 9870.0, 9896.0, 9891.0, 9876.0, 9863.0, 9853.0, 9871.0, 9893.0, 9891.0, 9875.0, 9861.0, 9871.0, 9891.0, 9894.0, 9881.0, 9873.0, 9870.0, 9865.0, 9881.0, 9907.0, 9925.0, 9923.0, 9912.0, 9882.0, 9865.0, 9843.0, 9837.0, 9837.0, 9851.0, 9856.0, 9875.0, 9892.0, 9908.0, 9905.0, 9910.0, 9910.0, 9916.0, 9926.0, 9941.0, 9967.0, 9978.0, 9974.0, 9937.0, 9918.0, 9914.0, 9921.0, 9941.0, 9955.0, 9946.0, 9918.0, 9892.0, 9913.0, 9922.0, 9912.0, 9919.0, 9925.0, 9931.0, 9937.0, 9925.0, 9864.0, 9909.0, 9904.0, 9890.0, 9895.0, 9911.0, 9893.0, 9866.0, 9859.0, 9877.0, 9904.0, 9895.0, 9919.0, 9921.0, 9918.0, 9885.0, 9865.0, 9848.0, 9851.0, 9860.0, 9866.0, 9842.0, 9842.0, 9850.0, 9867.0, 9882.0, 9901.0, 9922.0, 9916.0, 9906.0, 9934.0, 9873.0, 9924.0, 9951.0, 9938.0, 9910.0, 9885.0, 9873.0, 9857.0, 9851.0, 9853.0, 9864.0, 9878.0, 9876.0, 9902.0, 9917.0, 9974.0, 9961.0, 9943.0, 9935.0, 9899.0, 9909.0, 9936.0, 9976.0, 9981.0, 9872.0, 9900.0, 9871.0, 9875.0, 9865.0, 9859.0, 9844.0, 9842.0, 9849.0, 9888.0, 9883.0, 9874.0, 9866.0, 9882.0, 9891.0, 9925.0, 9947.0, 9938.0, 9923.0, 9916.0, 9906.0, 9918.0, 9919.0, 9928.0, 9926.0, 9922.0, 9908.0, 9874.0, 9857.0, 9868.0, 9875.0, 9886.0, 9874.0, 9865.0, 9865.0, 9868.0, 9876.0, 9888.0, 9898.0, 9891.0, 9891.0, 9888.0, 9890.0, 9922.0, 9941.0, 9955.0, 9948.0, 9920.0, 9924.0, 9911.0, 9909.0, 9842.0, 9906.0, 9903.0, 9857.0, 9860.0, 9900.0, 9899.0, 9891.0, 9879.0, 9867.0, 9849.0, 9861.0, 9835.0, 9876.0, 9885.0, 9892.0, 9896.0, 9887.0, 9864.0, 9856.0, 9848.0, 9877.0, 9902.0, 9885.0, 9873.0, 9879.0, 9896.0, 9885.0, 9897.0, 9893.0, 9902.0, 9882.0, 9905.0, 9907.0, 9906.0, 9914.0, 9909.0, 9906.0, 9902.0, 9924.0, 9918.0, 9901.0, 9883.0, 9880.0, 9883.0, 9889.0, 9884.0, 9865.0, 9850.0],
