{
  "AcquisitionMatrixPE": 104,
  "AcquisitionNumber": 1,
  "AcquisitionTime": "16:11:59.712500",
  "BandwidthPerPixelPhaseEncode": 17.17,
  "BaseResolution": 104,
  "BodyPartExamined": "BRAIN",
  "CoilCombinationMethod": "Sum of Squares",
  "ConsistencyInfo": "N4_VE11C_LATEST_20160120",
  "ConversionSoftware": "dcm2niix",
  "ConversionSoftwareVersion": "v1.0.20220505",
  "DerivedVendorReportedEchoSpacing": 0.000560011,
  "DeviceSerialNumber": "167006",
  "DwellTime": 2.1e-06,
  "EchoTime": 0.037,
  "EchoTrainLength": 104,
  "EffectiveEchoSpacing": 0.000560011,
  "FlipAngle": 52,
  "HeudiconvVersion": "0.5.3.post811+g6206e14",
  "ImageComments": "Unaliased MB4/PE3/LB",
  "ImageOrientationPatientDICOM": [0.998388, -0.055579, 0.0114739, 0.056343, 0.946541, -0.317624],
  "ImageOrientationText": "Tra>Cor(-18.5)>Sag(-0.4)",
  "ImageType": [
    "ORIGINAL",
    "PRIMARY",
    "M",
    "MB",
    "ND",
    "MOSAIC"
],
  "ImagingFrequency": 123.259,
  "InPlanePhaseEncodingDirectionDICOM": "COL",
  "InstitutionAddress": "Chemin Queen-Mary 4565,Montreal,District,CA,H3W 1W5",
  "InstitutionName": "IUGM",
  "InstitutionalDepartmentName": "Department",
  "MRAcquisitionType": "2D",
  "MagneticFieldStrength": 3,
  "Manufacturer": "Siemens",
  "ManufacturersModelName": "Prisma_fit",
  "MatrixCoilMode": "SENSE",
  "Modality": "MR",
  "MultibandAccelerationFactor": 4,
  "PartialFourier": 1,
  "PatientPosition": "HFS",
  "PercentPhaseFOV": 100,
  "PercentSampling": 100,
  "PhaseEncodingDirection": "j",
  "PhaseEncodingSteps": 104,
  "PhaseResolution": 1,
  "PixelBandwidth": 2290,
  "ProcedureStepDescription": "games^mario3",
  "ProtocolName": "func_task-mario3_run-01",
  "PulseSequenceDetails": "%CustomerSeq%\\cmrr_mbep2d_bold",
  "ReceiveCoilActiveElements": "HC1-7;NC1,2",
  "ReceiveCoilName": "HeadNeck_64",
  "ReconMatrixPE": 104,
  "RepetitionTime": 1.49,
  "SAR": 0.0420194,
  "ScanOptions": "FS",
  "ScanningSequence": "EP",
  "SequenceName": "epfid2d1_104",
  "SequenceVariant": "SK\\SS",
  "SeriesDescription": "func_task-mario3_run-01",
  "SeriesNumber": 10,
  "ShimSetting": [629, -7278, -8798, 571, 1, -235, -32, -8],
  "SliceThickness": 2,
  "SliceTiming": [0, 0.7825, 0.0975, 0.8825, 0.195, 0.98, 0.2925, 1.0775, 0.3925, 1.175, 0.49, 1.2725, 0.5875, 1.3725, 0.685, 0, 0.7825, 0.0975, 0.8825, 0.195, 0.98, 0.2925, 1.0775, 0.3925, 1.175, 0.49, 1.2725, 0.5875, 1.3725, 0.685, 0, 0.7825, 0.0975, 0.8825, 0.195, 0.98, 0.2925, 1.0775, 0.3925, 1.175, 0.49, 1.2725, 0.5875, 1.3725, 0.685, 0, 0.7825, 0.0975, 0.8825, 0.195, 0.98, 0.2925, 1.0775, 0.3925, 1.175, 0.49, 1.2725, 0.5875, 1.3725, 0.685],
  "SoftwareVersions": "syngo MR E11",
  "SpacingBetweenSlices": 2,
  "StationName": "MRC35049",
  "TaskName": "mario3",
  "TotalReadoutTime": 0.0576811,
  "TxRefAmp": 229.156,
  "WipMemBlock": "f12ceabb-5a4f-4f1f-bcec-cc78e6027c1f||Sequence: R017 ve11c/master r/75a17815+; Jun 28 2022 16:32:11 by eja",
  "dcmmeta_affine": [
    [-1.9967767000198364, 0.11268598586320877, -0.013585363514721394, 100.61431884765625],
    [0.11115794628858566, 1.8930823802947998, -0.6355177760124207, -71.58369445800781],
    [0.022947870194911957, 0.6352486610412598, 1.896294355392456, -56.14326095581055],
    [0.0, 0.0, 0.0, 1.0]
],
  "dcmmeta_reorient_transform": [
    [0.0, -1.0, 0.0, 103.0],
    [1.0, 0.0, 0.0, 0.0],
    [0.0, 0.0, 1.0, 0.0],
    [0.0, 0.0, 0.0, 1.0]
],
  "dcmmeta_shape": [104, 104, 60, 308],
  "dcmmeta_slice_dim": 2,
  "dcmmeta_version": 0.6,
  "global": {
    "const": {
      "AcquisitionMatrix": [104, 0, 0, 104],
      "AngioFlag": "N",
      "BitsAllocated": 16,
      "BitsStored": 16,
      "BodyPartExamined": "BRAIN",
      "Columns": 832,
      "EchoNumbers": 1,
      "EchoTime": 37.0,
      "EchoTrainLength": 104,
      "FlipAngle": 52.0,
      "HighBit": 15,
      "ImageOrientationPatient": [0.99838836457, -0.0555789736469, 0.01147393479143, 0.05634299393489, 0.94654120705503, -0.3176243227167],
      "ImagePositionPatient": [-880.06540091297, -772.02429729653, 232.16483279107],
      "ImageType": [
        "ORIGINAL",
        "PRIMARY",
        "M",
        "MB",
        "ND",
        "MOSAIC"
],
      "ImagedNucleus": "1H",
      "ImagingFrequency": 123.25875,
      "InPlanePhaseEncodingDirection": "COL",
      "MRAcquisitionType": "2D",
      "MagneticFieldStrength": 3.0,
      "Manufacturer": "SIEMENS",
      "ManufacturerModelName": "Prisma_fit",
      "Modality": "MR",
      "NumberOfAverages": 1.0,
      "NumberOfPhaseEncodingSteps": 104,
      "PercentPhaseFieldOfView": 100.0,
      "PercentSampling": 100.0,
      "PerformedProcedureStepStartTime": "160819.735000",
      "PhotometricInterpretation": "MONOCHROME2",
      "PixelBandwidth": 2290.0,
      "PixelRepresentation": 0,
      "PixelSpacing": [2.0, 2.0],
      "ProtocolName": "func_task-mario3_run-01",
      "RepetitionTime": 1490.0,
      "Rows": 832,
      "SAR": 0.04201937592812,
      "SamplesPerPixel": 1,
      "ScanOptions": "FS",
      "ScanningSequence": "EP",
      "SequenceName": "epfid2d1_104",
      "SequenceVariant": [
        "SK",
        "SS"
],
      "SeriesDescription": "func_task-mario3_run-01",
      "SeriesNumber": 10,
      "SeriesTime": "161322.188000",
      "SliceLocation": -31.16915945575,
      "SliceThickness": 2.0,
      "SmallestImagePixelValue": 0,
      "SoftwareVersions": "syngo MR E11",
      "SpacingBetweenSlices": 1.999999961331,
      "SpecificCharacterSet": "ISO_IR 100",
      "StudyID": "1",
      "StudyTime": "160819.655000",
      "TransmitCoilName": "Body",
      "VariableFlipAngleFlag": "N",
      "WindowCenterWidthExplanation": "Algo1",
      "dBdt": 0.0},
    "slices": {}
  },
  "time": {
    "samples": {
      "AcquisitionNumber": [1, 2, 3, 4, 5, 6, 7, 8, 9, 10, 11, 12, 13, 14, 15, 16, 17, 18, 19, 20, 21, 22, 23, 24, 25, 26, 27, 28, 29, 30, 31, 32, 33, 34, 35, 36, 37, 38, 39, 40, 41, 42, 43, 44, 45, 46, 47, 48, 49, 50, 51, 52, 53, 54, 55, 56, 57, 58, 59, 60, 61, 62, 63, 64, 65, 66, 67, 68, 69, 70, 71, 72, 73, 74, 75, 76, 77, 78, 79, 80, 81, 82, 83, 84, 85, 86, 87, 88, 89, 90, 91, 92, 93, 94, 95, 96, 97, 98, 99, 100, 101, 102, 103, 104, 105, 106, 107, 108, 109, 110, 111, 112, 113, 114, 115, 116, 117, 118, 119, 120, 121, 122, 123, 124, 125, 126, 127, 128, 129, 130, 131, 132, 133, 134, 135, 136, 137, 138, 139, 140, 141, 142, 143, 144, 145, 146, 147, 148, 149, 150, 151, 152, 153, 154, 155, 156, 157, 158, 159, 160, 161, 162, 163, 164, 165, 166, 167, 168, 169, 170, 171, 172, 173, 174, 175, 176, 177, 178, 179, 180, 181, 182, 183, 184, 185, 186, 187, 188, 189, 190, 191, 192, 193, 194, 195, 196, 197, 198, 199, 200, 201, 202, 203, 204, 205, 206, 207, 208, 209, 210, 211, 212, 213, 214, 215, 216, 217, 218, 219, 220, 221, 222, 223, 224, 225, 226, 227, 228, 229, 230, 231, 232, 233, 234, 235, 236, 237, 238, 239, 240, 241, 242, 243, 244, 245, 246, 247, 248, 249, 250, 251, 252, 253, 254, 255, 256, 257, 258, 259, 260, 261, 262, 263, 264, 265, 266, 267, 268, 269, 270, 271, 272, 273, 274, 275, 276, 277, 278, 279, 280, 281, 282, 283, 284, 285, 286, 287, 288, 289, 290, 291, 292, 293, 294, 295, 296, 297, 298, 299, 300, 301, 302, 303, 304, 305, 306, 307, 308],
      "AcquisitionTime": ["161159.712500", "161201.202500", "161202.692500", "161204.182500", "161205.672500", "161207.162500", "161208.652500", "161210.142500", "161211.632500", "161213.122500", "161214.612500", "161216.102500", "161217.592500", "161219.082500", "161220.572500", "161222.062500", "161223.552500", "161225.042500", "161226.532500", "161228.022500", "161229.512500", "161231.002500", "161232.492500", "161233.982500", "161235.472500", "161236.962500", "161238.452500", "161239.942500", "161241.432500", "161242.922500", "161244.412500", "161245.902500", "161247.392500", "161248.882500", "161250.372500", "161251.862500", "161253.352500", "161254.842500", "161256.332500", "161257.822500", "161259.312500", "161300.802500", "161302.292500", "161303.782500", "161305.272500", "161306.762500", "161308.252500", "161309.742500", "161311.232500", "161312.722500", "161314.212500", "161315.702500", "161317.192500", "161318.682500", "161320.172500", "161321.662500", "161323.152500", "161324.642500", "161326.132500", "161327.622500", "161329.112500", "161330.602500", "161332.092500", "161333.582500", "161335.072500", "161336.562500", "161338.052500", "161339.542500", "161341.032500", "161342.522500", "161344.012500", "161345.502500", "161346.992500", "161348.482500", "161349.972500", "161351.462500", "161352.952500", "161354.442500", "161355.932500", "161357.422500", "161358.912500", "161400.402500", "161401.892500", "161403.382500", "161404.872500", "161406.362500", "161407.852500", "161409.342500", "161410.832500", "161412.322500", "161413.812500", "161415.302500", "161416.792500", "161418.282500", "161419.772500", "161421.262500", "161422.752500", "161424.242500", "161425.732500", "161427.222500", "161428.712500", "161430.202500", "161431.692500", "161433.182500", "161434.672500", "161436.162500", "161437.652500", "161439.142500", "161440.632500", "161442.122500", "161443.612500", "161445.102500", "161446.592500", "161448.082500", "161449.572500", "161451.062500", "161452.552500", "161454.042500", "161455.532500", "161457.022500", "161458.512500", "161500.002500", "161501.492500", "161502.982500", "161504.472500", "161505.962500", "161507.452500", "161508.942500", "161510.432500", "161511.922500", "161513.412500", "161514.902500", "161516.392500", "161517.882500", "161519.372500", "161520.862500", "161522.352500", "161523.842500", "161525.332500", "161526.822500", "161528.312500", "161529.802500", "161531.292500", "161532.782500", "161534.272500", "161535.762500", "161537.252500", "161538.742500", "161540.232500", "161541.722500", "161543.212500", "161544.702500", "161546.192500", "161547.682500", "161549.172500", "161550.662500", "161552.152500", "161553.642500", "161555.132500", "161556.622500", "161558.112500", "161559.602500", "161601.092500", "161602.582500", "161604.072500", "161605.562500", "161607.052500", "161608.542500", "161610.032500", "161611.522500", "161613.012500", "161614.502500", "161615.992500", "161617.482500", "161618.972500", "161620.462500", "161621.952500", "161623.442500", "161624.932500", "161626.422500", "161627.912500", "161629.402500", "161630.892500", "161632.382500", "161633.872500", "161635.362500", "161636.852500", "161638.342500", "161639.832500", "161641.322500", "161642.812500", "161644.302500", "161645.792500", "161647.282500", "161648.772500", "161650.262500", "161651.752500", "161653.242500", "161654.732500", "161656.222500", "161657.712500", "161659.202500", "161700.692500", "161702.182500", "161703.672500", "161705.162500", "161706.652500", "161708.142500", "161709.632500", "161711.122500", "161712.612500", "161714.102500", "161715.592500", "161717.082500", "161718.572500", "161720.062500", "161721.552500", "161723.042500", "161724.532500", "161726.022500", "161727.512500", "161729.002500", "161730.492500", "161731.982500", "161733.472500", "161734.962500", "161736.452500", "161737.942500", "161739.432500", "161740.922500", "161742.412500", "161743.902500", "161745.392500", "161746.882500", "161748.372500", "161749.862500", "161751.352500", "161752.842500", "161754.332500", "161755.822500", "161757.312500", "161758.802500", "161800.292500", "161801.782500", "161803.272500", "161804.762500", "161806.252500", "161807.742500", "161809.232500", "161810.722500", "161812.212500", "161813.702500", "161815.192500", "161816.682500", "161818.172500", "161819.662500", "161821.152500", "161822.642500", "161824.132500", "161825.622500", "161827.112500", "161828.602500", "161830.092500", "161831.582500", "161833.072500", "161834.562500", "161836.052500", "161837.542500", "161839.032500", "161840.522500", "161842.012500", "161843.502500", "161844.992500", "161846.482500", "161847.972500", "161849.462500", "161850.952500", "161852.442500", "161853.932500", "161855.422500", "161856.912500", "161858.402500", "161859.892500", "161901.382500", "161902.872500", "161904.362500", "161905.852500", "161907.342500", "161908.832500", "161910.322500", "161911.812500", "161913.302500", "161914.792500", "161916.282500", "161917.772500", "161919.262500", "161920.752500", "161922.242500", "161923.732500", "161925.222500", "161926.712500", "161928.202500", "161929.692500", "161931.182500", "161932.672500", "161934.162500", "161935.652500", "161937.142500"],
      "ContentTime": ["161322.191000", "161322.196000", "161322.200000", "161322.203000", "161322.207000", "161322.210000", "161322.213000", "161322.217000", "161322.220000", "161322.223000", "161322.227000", "161322.230000", "161322.238000", "161322.242000", "161322.245000", "161322.248000", "161322.252000", "161322.255000", "161322.259000", "161322.262000", "161322.266000", "161322.269000", "161322.272000", "161322.276000", "161322.279000", "161322.283000", "161322.286000", "161322.290000", "161322.293000", "161322.297000", "161322.314000", "161322.318000", "161322.321000", "161342.157000", "161342.161000", "161342.164000", "161342.168000", "161342.171000", "161342.174000", "161342.178000", "161342.181000", "161342.185000", "161342.188000", "161342.191000", "161342.195000", "161342.198000", "161342.201000", "161342.205000", "161342.208000", "161342.211000", "161342.215000", "161342.218000", "161342.221000", "161402.156000", "161402.160000", "161402.163000", "161402.166000", "161402.175000", "161402.178000", "161402.182000", "161402.185000", "161402.189000", "161402.192000", "161402.195000", "161402.199000", "161402.202000", "161402.205000", "161402.209000", "161402.212000", "161402.215000", "161402.219000", "161402.222000", "161402.225000", "161422.157000", "161422.161000", "161422.164000", "161422.168000", "161422.171000", "161422.175000", "161422.178000", "161422.181000", "161422.185000", "161422.188000", "161422.191000", "161422.195000", "161422.199000", "161422.202000", "161422.206000", "161422.209000", "161422.213000", "161422.216000", "161422.219000", "161422.223000", "161502.157000", "161502.161000", "161502.165000", "161502.168000", "161502.172000", "161502.175000", "161502.179000", "161502.182000", "161502.186000", "161502.189000", "161502.192000", "161502.196000", "161502.199000", "161502.203000", "161502.206000", "161502.209000", "161502.213000", "161502.216000", "161502.219000", "161502.223000", "161502.226000", "161502.230000", "161502.233000", "161502.236000", "161502.240000", "161502.243000", "161502.246000", "161502.250000", "161542.157000", "161542.161000", "161542.164000", "161542.168000", "161542.171000", "161542.175000", "161542.178000", "161542.181000", "161542.185000", "161542.188000", "161542.192000", "161542.195000", "161542.198000", "161542.202000", "161542.211000", "161542.214000", "161542.218000", "161542.221000", "161542.224000", "161542.228000", "161542.231000", "161542.235000", "161542.238000", "161542.242000", "161542.245000", "161542.248000", "161542.253000", "161622.156000", "161622.160000", "161622.164000", "161622.167000", "161622.170000", "161622.174000", "161622.177000", "161622.180000", "161622.195000", "161622.198000", "161622.201000", "161622.205000", "161622.208000", "161622.212000", "161622.215000", "161622.218000", "161622.222000", "161622.225000", "161622.229000", "161622.232000", "161622.235000", "161622.239000", "161622.242000", "161622.246000", "161622.249000", "161622.252000", "161622.256000", "161702.157000", "161702.161000", "161702.164000", "161702.168000", "161702.171000", "161702.175000", "161702.178000", "161702.182000", "161702.185000", "161702.188000", "161702.192000", "161702.195000", "161702.199000", "161702.202000", "161702.205000", "161702.209000", "161702.212000", "161702.216000", "161702.219000", "161702.222000", "161702.226000", "161702.229000", "161702.233000", "161702.236000", "161702.239000", "161702.243000", "161702.246000", "161742.157000", "161742.161000", "161742.165000", "161742.168000", "161742.171000", "161742.175000", "161742.178000", "161742.182000", "161742.185000", "161742.188000", "161742.192000", "161742.195000", "161742.198000", "161742.202000", "161742.205000", "161742.209000", "161742.212000", "161742.216000", "161742.219000", "161742.222000", "161742.225000", "161742.229000", "161742.232000", "161742.236000", "161742.239000", "161742.243000", "161742.246000", "161802.157000", "161802.161000", "161802.164000", "161802.168000", "161802.171000", "161802.175000", "161802.178000", "161802.182000", "161802.185000", "161802.188000", "161802.192000", "161802.195000", "161802.199000", "161842.156000", "161842.160000", "161842.163000", "161842.167000", "161842.170000", "161842.173000", "161842.177000", "161842.180000", "161842.184000", "161842.187000", "161842.190000", "161842.194000", "161842.197000", "161842.200000", "161842.204000", "161842.207000", "161842.210000", "161842.214000", "161842.217000", "161842.221000", "161842.224000", "161842.227000", "161842.231000", "161842.234000", "161842.237000", "161842.241000", "161842.244000", "161922.157000", "161922.161000", "161922.164000", "161922.168000", "161922.171000", "161922.175000", "161922.178000", "161922.181000", "161922.185000", "161922.188000", "161922.191000", "161922.195000", "161922.198000", "161922.202000", "161922.205000", "161922.208000", "161922.212000", "161922.215000", "161922.219000", "161922.222000", "161922.225000", "161922.229000", "161922.232000", "161922.235000", "161922.239000", "161922.242000", "161922.245000", "161940.496000", "161940.500000", "161940.503000", "161940.506000", "161940.510000", "161940.513000", "161940.516000", "161940.520000", "161940.523000", "161940.526000", "161940.530000", "161940.533000"],
      "InstanceCreationTime": ["161322.191000", "161322.196000", "161322.200000", "161322.203000", "161322.207000", "161322.210000", "161322.213000", "161322.217000", "161322.220000", "161322.223000", "161322.227000", "161322.230000", "161322.238000", "161322.242000", "161322.245000", "161322.248000", "161322.252000", "161322.255000", "161322.259000", "161322.262000", "161322.266000", "161322.269000", "161322.272000", "161322.276000", "161322.279000", "161322.283000", "161322.286000", "161322.290000", "161322.293000", "161322.297000", "161322.314000", "161322.318000", "161322.321000", "161342.157000", "161342.161000", "161342.164000", "161342.168000", "161342.171000", "161342.174000", "161342.178000", "161342.181000", "161342.185000", "161342.188000", "161342.191000", "161342.195000", "161342.198000", "161342.201000", "161342.205000", "161342.208000", "161342.211000", "161342.215000", "161342.218000", "161342.221000", "161402.156000", "161402.160000", "161402.163000", "161402.166000", "161402.175000", "161402.178000", "161402.182000", "161402.185000", "161402.189000", "161402.192000", "161402.195000", "161402.199000", "161402.202000", "161402.205000", "161402.209000", "161402.212000", "161402.215000", "161402.219000", "161402.222000", "161402.225000", "161422.157000", "161422.161000", "161422.164000", "161422.168000", "161422.171000", "161422.175000", "161422.178000", "161422.181000", "161422.185000", "161422.188000", "161422.191000", "161422.195000", "161422.199000", "161422.202000", "161422.206000", "161422.209000", "161422.213000", "161422.216000", "161422.219000", "161422.223000", "161502.157000", "161502.161000", "161502.165000", "161502.168000", "161502.172000", "161502.175000", "161502.179000", "161502.182000", "161502.186000", "161502.189000", "161502.192000", "161502.196000", "161502.199000", "161502.203000", "161502.206000", "161502.209000", "161502.213000", "161502.216000", "161502.219000", "161502.223000", "161502.226000", "161502.230000", "161502.233000", "161502.236000", "161502.240000", "161502.243000", "161502.246000", "161502.250000", "161542.157000", "161542.161000", "161542.164000", "161542.168000", "161542.171000", "161542.175000", "161542.178000", "161542.181000", "161542.185000", "161542.188000", "161542.192000", "161542.195000", "161542.198000", "161542.202000", "161542.211000", "161542.214000", "161542.218000", "161542.221000", "161542.224000", "161542.228000", "161542.231000", "161542.235000", "161542.238000", "161542.242000", "161542.245000", "161542.248000", "161542.253000", "161622.156000", "161622.160000", "161622.164000", "161622.167000", "161622.170000", "161622.174000", "161622.177000", "161622.180000", "161622.195000", "161622.198000", "161622.201000", "161622.205000", "161622.208000", "161622.212000", "161622.215000", "161622.218000", "161622.222000", "161622.225000", "161622.229000", "161622.232000", "161622.235000", "161622.239000", "161622.242000", "161622.246000", "161622.249000", "161622.252000", "161622.256000", "161702.157000", "161702.161000", "161702.164000", "161702.168000", "161702.171000", "161702.175000", "161702.178000", "161702.182000", "161702.185000", "161702.188000", "161702.192000", "161702.195000", "161702.199000", "161702.202000", "161702.205000", "161702.209000", "161702.212000", "161702.216000", "161702.219000", "161702.222000", "161702.226000", "161702.229000", "161702.233000", "161702.236000", "161702.239000", "161702.243000", "161702.246000", "161742.157000", "161742.161000", "161742.165000", "161742.168000", "161742.171000", "161742.175000", "161742.178000", "161742.182000", "161742.185000", "161742.188000", "161742.192000", "161742.195000", "161742.198000", "161742.202000", "161742.205000", "161742.209000", "161742.212000", "161742.216000", "161742.219000", "161742.222000", "161742.225000", "161742.229000", "161742.232000", "161742.236000", "161742.239000", "161742.243000", "161742.246000", "161802.157000", "161802.161000", "161802.164000", "161802.168000", "161802.171000", "161802.175000", "161802.178000", "161802.182000", "161802.185000", "161802.188000", "161802.192000", "161802.195000", "161802.199000", "161842.156000", "161842.160000", "161842.163000", "161842.167000", "161842.170000", "161842.173000", "161842.177000", "161842.180000", "161842.184000", "161842.187000", "161842.190000", "161842.194000", "161842.197000", "161842.200000", "161842.204000", "161842.207000", "161842.210000", "161842.214000", "161842.217000", "161842.221000", "161842.224000", "161842.227000", "161842.231000", "161842.234000", "161842.237000", "161842.241000", "161842.244000", "161922.157000", "161922.161000", "161922.164000", "161922.168000", "161922.171000", "161922.175000", "161922.178000", "161922.181000", "161922.185000", "161922.188000", "161922.191000", "161922.195000", "161922.198000", "161922.202000", "161922.205000", "161922.208000", "161922.212000", "161922.215000", "161922.219000", "161922.222000", "161922.225000", "161922.229000", "161922.232000", "161922.235000", "161922.239000", "161922.242000", "161922.245000", "161940.496000", "161940.500000", "161940.503000", "161940.506000", "161940.510000", "161940.513000", "161940.516000", "161940.520000", "161940.523000", "161940.526000", "161940.530000", "161940.533000"],
      "InstanceNumber": [1, 2, 3, 4, 5, 6, 7, 8, 9, 10, 11, 12, 13, 14, 15, 16, 17, 18, 19, 20, 21, 22, 23, 24, 25, 26, 27, 28, 29, 30, 31, 32, 33, 34, 35, 36, 37, 38, 39, 40, 41, 42, 43, 44, 45, 46, 47, 48, 49, 50, 51, 52, 53, 54, 55, 56, 57, 58, 59, 60, 61, 62, 63, 64, 65, 66, 67, 68, 69, 70, 71, 72, 73, 74, 75, 76, 77, 78, 79, 80, 81, 82, 83, 84, 85, 86, 87, 88, 89, 90, 91, 92, 93, 94, 95, 96, 97, 98, 99, 100, 101, 102, 103, 104, 105, 106, 107, 108, 109, 110, 111, 112, 113, 114, 115, 116, 117, 118, 119, 120, 121, 122, 123, 124, 125, 126, 127, 128, 129, 130, 131, 132, 133, 134, 135, 136, 137, 138, 139, 140, 141, 142, 143, 144, 145, 146, 147, 148, 149, 150, 151, 152, 153, 154, 155, 156, 157, 158, 159, 160, 161, 162, 163, 164, 165, 166, 167, 168, 169, 170, 171, 172, 173, 174, 175, 176, 177, 178, 179, 180, 181, 182, 183, 184, 185, 186, 187, 188, 189, 190, 191, 192, 193, 194, 195, 196, 197, 198, 199, 200, 201, 202, 203, 204, 205, 206, 207, 208, 209, 210, 211, 212, 213, 214, 215, 216, 217, 218, 219, 220, 221, 222, 223, 224, 225, 226, 227, 228, 229, 230, 231, 232, 233, 234, 235, 236, 237, 238, 239, 240, 241, 242, 243, 244, 245, 246, 247, 248, 249, 250, 251, 252, 253, 254, 255, 256, 257, 258, 259, 260, 261, 262, 263, 264, 265, 266, 267, 268, 269, 270, 271, 272, 273, 274, 275, 276, 277, 278, 279, 280, 281, 282, 283, 284, 285, 286, 287, 288, 289, 290, 291, 292, 293, 294, 295, 296, 297, 298, 299, 300, 301, 302, 303, 304, 305, 306, 307, 308],
      "LargestImagePixelValue": [39005, 37713, 37584, 37170, 36762, 37119, 36946, 36072, 37276, 37080, 37601, 37663, 37176, 37959, 38227, 37763, 37764, 37531, 37589, 37480, 37711, 37968, 37769, 37381, 37440, 37659, 38023, 37976, 38767, 37348, 38281, 37775, 37191, 37168, 36775, 37458, 37910, 38670, 38331, 36508, 37770, 37783, 38286, 38064, 38825, 38895, 38751, 37314, 38119, 37490, 37957, 37779, 38193, 38402, 37221, 38932, 37299, 38608, 38583, 39673, 39465, 39304, 38964, 38476, 38993, 39093, 39526, 39999, 39101, 39280, 39438, 39279, 39852, 39687, 39672, 39179, 37996, 38603, 38938, 38781, 39039, 38541, 38996, 38912, 38713, 38859, 39076, 38185, 38472, 38719, 37888, 38032, 38009, 38055, 38600, 38515, 38417, 37432, 38373, 37855, 37935, 37951, 38207, 38507, 38112, 37645, 37766, 37989, 37424, 37837, 37765, 37748, 38466, 37995, 37897, 37815, 37503, 38143, 37850, 37446, 37248, 37143, 37554, 37293, 37287, 37257, 37094, 37578, 37799, 37019, 37160, 37378, 37492, 37085, 36903, 36884, 37493, 37871, 38441, 38337, 37771, 38211, 38320, 38249, 37187, 37383, 37628, 37660, 38043, 37217, 37140, 37463, 37391, 37795, 37674, 38071, 37953, 38087, 37707, 38478, 38330, 38185, 37873, 37679, 37937, 37556, 37954, 38474, 38048, 38072, 38842, 38352, 38718, 38698, 38406, 38437, 38399, 38060, 38207, 38415, 38701, 39227, 38290, 36367, 37852, 37456, 37976, 37738, 37126, 38474, 37913, 37477, 37773, 36930, 37745, 36113, 37355, 36248, 35387, 35586, 36732, 36322, 35136, 35781, 35186, 35468, 36047, 36517, 35488, 36251, 35526, 36195, 35169, 35073, 35327, 34940, 35030, 34796, 35210, 35170, 36113, 35412, 35383, 35207, 35102, 35917, 35832, 38161, 37339, 35995, 36210, 37229, 36388, 35794, 35501, 36157, 36367, 36450, 36644, 36010, 36009, 36374, 35702, 35934, 35760, 35836, 35620, 35418, 35701, 35500, 35967, 35689, 35593, 36161, 36254, 35788, 36732, 36387, 36724, 36376, 36083, 36833, 35973, 37472, 36532, 36521, 36505, 36092, 36400, 36675, 36962, 36803, 36588, 36461, 36475, 36436, 36302, 36994, 36690, 36334, 36458, 35868, 36688, 36108, 36211, 36021, 35930, 35859, 35864, 36379, 36079, 35868, 36924, 37163, 36849, 36255, 36424, 37317, 36663, 36172, 36740, 36769, 36683, 36910, 37007, 36262, 36419, 36049],
      "WindowCenter": [10069.0, 10001.0, 9976.0, 9988.0, 10001.0, 9995.0, 9997.0, 10004.0, 10014.0, 10011.0, 10017.0, 10016.0, 10002.0, 10001.0, 9999.0, 10003.0, 10011.0, 10021.0, 10013.0, 10006.0, 10009.0, 10018.0, 10026.0, 10030.0, 10022.0, 10027.0, 10026.0, 10016.0, 10030.0, 10012.0, 10017.0, 10003.0, 9976.0, 9979.0, 9973.0, 9971.0, 9976.0, 9963.0, 9953.0, 9956.0, 9991.0, 9994.0, 10001.0, 10000.0, 10004.0, 10018.0, 10038.0, 10020.0, 10012.0, 9981.0, 9985.0, 9995.0, 9993.0, 10000.0, 9997.0, 10020.0, 10013.0, 10009.0, 9989.0, 9973.0, 9982.0, 10000.0, 10013.0, 10000.0, 9990.0, 9973.0, 9984.0, 9991.0, 9991.0, 10003.0, 9988.0, 9988.0, 10000.0, 10002.0, 10004.0, 9998.0, 9965.0, 10015.0, 10040.0, 10056.0, 10041.0, 9998.0, 9991.0, 9995.0, 10015.0, 10043.0, 10041.0, 10023.0, 10018.0, 10021.0, 10014.0, 9986.0, 9995.0, 9993.0, 9991.0, 9953.0, 9948.0, 9952.0, 9948.0, 9963.0, 9978.0, 9980.0, 9972.0, 9977.0, 9978.0, 9995.0, 9989.0, 10004.0, 10006.0, 10013.0, 10015.0, 10014.0, 10012.0, 10006.0, 9994.0, 9971.0, 9974.0, 9986.0, 9997.0, 9983.0, 9984.0, 9984.0, 9991.0, 9993.0, 9999.0, 9975.0, 9983.0, 9985.0, 9988.0, 9984.0, 9974.0, 9990.0, 9983.0, 9976.0, 9961.0, 9985.0, 9999.0, 10007.0, 10005.0, 9988.0, 9991.0, 10003.0, 10020.0, 10018.0, 10005.0, 10009.0, 10010.0, 9981.0, 9951.0, 9929.0, 9927.0, 9925.0, 9910.0, 9910.0, 9934.0, 9964.0, 9976.0, 9993.0, 9981.0, 9984.0, 9986.0, 9992.0, 10004.0, 10011.0, 10011.0, 10005.0, 10003.0, 9991.0, 10001.0, 10005.0, 10002.0, 9986.0, 9983.0, 9983.0, 9988.0, 9997.0, 9993.0, 9990.0, 9997.0, 9992.0, 9998.0, 9992.0, 9996.0, 9990.0, 10009.0, 9986.0, 9990.0, 9973.0, 9968.0, 9984.0, 9984.0, 9985.0, 9986.0, 9979.0, 9999.0, 9985.0, 9983.0, 9962.0, 9940.0, 9938.0, 9950.0, 9921.0, 9902.0, 9899.0, 9895.0, 9908.0, 9931.0, 9947.0, 9937.0, 9951.0, 9953.0, 9969.0, 9958.0, 9947.0, 9956.0, 9968.0, 9978.0, 9971.0, 9976.0, 9977.0, 9972.0, 9975.0, 9982.0, 9967.0, 9946.0, 9946.0, 9946.0, 9966.0, 9963.0, 9954.0, 9927.0, 9969.0, 9993.0, 9991.0, 9958.0, 9926.0, 9911.0, 9913.0, 9937.0, 9935.0, 9942.0, 9950.0, 9939.0, 9945.0, 9944.0, 9953.0, 9956.0, 9979.0, 9962.0, 9961.0, 9964.0, 9963.0, 9962.0, 9968.0, 9977.0, 9969.0, 9971.0, 9965.0, 9965.0, 9956.0, 9952.0, 9958.0, 9945.0, 9959.0, 9948.0, 9976.0, 9993.0, 9987.0, 9957.0, 9954.0, 9959.0, 9960.0, 9955.0, 9947.0, 9933.0, 9940.0, 9943.0, 9948.0, 9948.0, 9950.0, 9958.0, 9953.0, 9969.0, 9959.0, 9966.0, 9954.0, 9954.0, 9943.0, 9967.0, 9983.0, 9968.0, 9971.0, 9978.0, 9973.0, 9964.0, 9940.0, 9924.0, 9909.0, 9912.0, 9917.0, 9906.0, 9895.0, 9896.0, 9895.0, 9921.0, 9945.0, 9965.0, 9935.0],
