{
  "AcquisitionMatrixPE": 104,
  "AcquisitionNumber": 1,
  "AcquisitionTime": "16:11:59.712500",
  "BandwidthPerPixelPhaseEncode": 17.17,
  "BaseResolution": 104,
  "BodyPartExamined": "BRAIN",
  "CoilCombinationMethod": "Sum of Squares",
  "ConsistencyInfo": "N4_VE11C_LATEST_20160120",
  "ConversionSoftware": "dcm2niix",
  "ConversionSoftwareVersion": "v1.0.20220505",
  "DerivedVendorReportedEchoSpacing": 0.000560011,
  "DeviceSerialNumber": "167006",
  "DwellTime": 2.1e-06,
  "EchoTime": 0.037,
  "EchoTime1": 0.037,
  "EchoTime2": 0.001,
  "EchoTrainLength": 104,
  "EffectiveEchoSpacing": 0.000560011,
  "FlipAngle": 52,
  "HeudiconvVersion": "0.5.3.post811+g6206e14",
  "ImageComments": "Unaliased MB4/PE3/LB",
  "ImageOrientationPatientDICOM": [0.998388, -0.055579, 0.0114739, 0.056343, 0.946541, -0.317624],
  "ImageOrientationText": "Tra>Cor(-18.5)>Sag(-0.4)",
  "ImageType": [
    "ORIGINAL",
    "PRIMARY",
    "P",
    "MB",
    "ND",
    "MOSAIC",
    "PHASE"
],
  "ImagingFrequency": 123.259,
  "InPlanePhaseEncodingDirectionDICOM": "COL",
  "InstitutionAddress": "Chemin Queen-Mary 4565,Montreal,District,CA,H3W 1W5",
  "InstitutionName": "IUGM",
  "InstitutionalDepartmentName": "Department",
  "MRAcquisitionType": "2D",
  "MagneticFieldStrength": 3,
  "Manufacturer": "Siemens",
  "ManufacturersModelName": "Prisma_fit",
  "MatrixCoilMode": "SENSE",
  "Modality": "MR",
  "MultibandAccelerationFactor": 4,
  "PartialFourier": 1,
  "PatientPosition": "HFS",
  "PercentPhaseFOV": 100,
  "PercentSampling": 100,
  "PhaseEncodingDirection": "j",
  "PhaseEncodingSteps": 104,
  "PhaseResolution": 1,
  "PixelBandwidth": 2290,
  "ProcedureStepDescription": "games^mario3",
  "ProtocolName": "func_task-mario3_run-01",
  "PulseSequenceDetails": "%CustomerSeq%\\cmrr_mbep2d_bold",
  "ReceiveCoilActiveElements": "HC1-7;NC1,2",
  "ReceiveCoilName": "HeadNeck_64",
  "ReconMatrixPE": 104,
  "RepetitionTime": 1.49,
  "SAR": 0.0420194,
  "ScanOptions": "FS",
  "ScanningSequence": "EP",
  "SequenceName": "epfid2d1_104",
  "SequenceVariant": "SK\\SS",
  "SeriesDescription": "func_task-mario3_run-01",
  "SeriesNumber": 11,
  "ShimSetting": [629, -7278, -8798, 571, 1, -235, -32, -8],
  "SliceThickness": 2,
  "SliceTiming": [0, 0.7825, 0.0975, 0.8825, 0.195, 0.98, 0.2925, 1.0775, 0.3925, 1.175, 0.49, 1.2725, 0.5875, 1.3725, 0.685, 0, 0.7825, 0.0975, 0.8825, 0.195, 0.98, 0.2925, 1.0775, 0.3925, 1.175, 0.49, 1.2725, 0.5875, 1.3725, 0.685, 0, 0.7825, 0.0975, 0.8825, 0.195, 0.98, 0.2925, 1.0775, 0.3925, 1.175, 0.49, 1.2725, 0.5875, 1.3725, 0.685, 0, 0.7825, 0.0975, 0.8825, 0.195, 0.98, 0.2925, 1.0775, 0.3925, 1.175, 0.49, 1.2725, 0.5875, 1.3725, 0.685],
  "SoftwareVersions": "syngo MR E11",
  "SpacingBetweenSlices": 2,
  "StationName": "MRC35049",
  "TaskName": "mario3",
  "TotalReadoutTime": 0.0576811,
  "TxRefAmp": 229.156,
  "WipMemBlock": "f12ceabb-5a4f-4f1f-bcec-cc78e6027c1f||Sequence: R017 ve11c/master r/75a17815+; Jun 28 2022 16:32:11 by eja",
  "dcmmeta_affine": [
    [-1.9967767000198364, 0.11268598586320877, -0.013585363514721394, 100.61431884765625],
    [0.11115794628858566, 1.8930823802947998, -0.6355177760124207, -71.58369445800781],
    [0.022947870194911957, 0.6352486610412598, 1.896294355392456, -56.14326095581055],
    [0.0, 0.0, 0.0, 1.0]
],
  "dcmmeta_reorient_transform": [
    [0.0, -1.0, 0.0, 103.0],
    [1.0, 0.0, 0.0, 0.0],
    [0.0, 0.0, 1.0, 0.0],
    [0.0, 0.0, 0.0, 1.0]
],
  "dcmmeta_shape": [104, 104, 60, 308],
  "dcmmeta_slice_dim": 2,
  "dcmmeta_version": 0.6,
  "global": {
    "const": {
      "AcquisitionMatrix": [104, 0, 0, 104],
      "AngioFlag": "N",
      "BitsAllocated": 16,
      "BitsStored": 16,
      "BodyPartExamined": "BRAIN",
      "Columns": 832,
      "EchoNumbers": 1,
      "EchoTime": 37.0,
      "EchoTrainLength": 104,
      "FlipAngle": 52.0,
      "HighBit": 15,
      "ImageOrientationPatient": [0.99838836457, -0.0555789736469, 0.01147393479143, 0.05634299393489, 0.94654120705503, -0.3176243227167],
      "ImagePositionPatient": [-880.06540091297, -772.02429729653, 232.16483279107],
      "ImageType": [
        "ORIGINAL",
        "PRIMARY",
        "P",
        "MB",
        "ND",
        "MOSAIC"
],
      "ImagedNucleus": "1H",
      "ImagingFrequency": 123.25875,
      "InPlanePhaseEncodingDirection": "COL",
      "LargestImagePixelValue": 4095,
      "MRAcquisitionType": "2D",
      "MagneticFieldStrength": 3.0,
      "Manufacturer": "SIEMENS",
      "ManufacturerModelName": "Prisma_fit",
      "Modality": "MR",
      "NumberOfAverages": 1.0,
      "NumberOfPhaseEncodingSteps": 104,
      "PercentPhaseFieldOfView": 100.0,
      "PercentSampling": 100.0,
      "PerformedProcedureStepStartTime": "160819.735000",
      "PhotometricInterpretation": "MONOCHROME2",
      "PixelBandwidth": 2290.0,
      "PixelRepresentation": 0,
      "PixelSpacing": [2.0, 2.0],
      "ProtocolName": "func_task-mario3_run-01",
      "RepetitionTime": 1490.0,
      "RescaleIntercept": -4096.0,
      "RescaleSlope": 2.0,
      "RescaleType": "US",
      "Rows": 832,
      "SAR": 0.04201937592812,
      "SamplesPerPixel": 1,
      "ScanOptions": "FS",
      "ScanningSequence": "EP",
      "SequenceName": "epfid2d1_104",
      "SequenceVariant": [
        "SK",
        "SS"
],
      "SeriesDescription": "func_task-mario3_run-01",
      "SeriesNumber": 11,
      "SeriesTime": "161322.382000",
      "SliceLocation": -31.16915945575,
      "SliceThickness": 2.0,
      "SmallestImagePixelValue": 0,
      "SoftwareVersions": "syngo MR E11",
      "SpacingBetweenSlices": 1.999999961331,
      "SpecificCharacterSet": "ISO_IR 100",
      "StudyID": "1",
      "StudyTime": "160819.655000",
      "TransmitCoilName": "Body",
      "VariableFlipAngleFlag": "N",
      "WindowCenterWidthExplanation": "Algo1",
      "dBdt": 0.0},
    "slices": {}
  },
  "time": {
    "samples": {
      "AcquisitionNumber": [1, 2, 3, 4, 5, 6, 7, 8, 9, 10, 11, 12, 13, 14, 15, 16, 17, 18, 19, 20, 21, 22, 23, 24, 25, 26, 27, 28, 29, 30, 31, 32, 33, 34, 35, 36, 37, 38, 39, 40, 41, 42, 43, 44, 45, 46, 47, 48, 49, 50, 51, 52, 53, 54, 55, 56, 57, 58, 59, 60, 61, 62, 63, 64, 65, 66, 67, 68, 69, 70, 71, 72, 73, 74, 75, 76, 77, 78, 79, 80, 81, 82, 83, 84, 85, 86, 87, 88, 89, 90, 91, 92, 93, 94, 95, 96, 97, 98, 99, 100, 101, 102, 103, 104, 105, 106, 107, 108, 109, 110, 111, 112, 113, 114, 115, 116, 117, 118, 119, 120, 121, 122, 123, 124, 125, 126, 127, 128, 129, 130, 131, 132, 133, 134, 135, 136, 137, 138, 139, 140, 141, 142, 143, 144, 145, 146, 147, 148, 149, 150, 151, 152, 153, 154, 155, 156, 157, 158, 159, 160, 161, 162, 163, 164, 165, 166, 167, 168, 169, 170, 171, 172, 173, 174, 175, 176, 177, 178, 179, 180, 181, 182, 183, 184, 185, 186, 187, 188, 189, 190, 191, 192, 193, 194, 195, 196, 197, 198, 199, 200, 201, 202, 203, 204, 205, 206, 207, 208, 209, 210, 211, 212, 213, 214, 215, 216, 217, 218, 219, 220, 221, 222, 223, 224, 225, 226, 227, 228, 229, 230, 231, 232, 233, 234, 235, 236, 237, 238, 239, 240, 241, 242, 243, 244, 245, 246, 247, 248, 249, 250, 251, 252, 253, 254, 255, 256, 257, 258, 259, 260, 261, 262, 263, 264, 265, 266, 267, 268, 269, 270, 271, 272, 273, 274, 275, 276, 277, 278, 279, 280, 281, 282, 283, 284, 285, 286, 287, 288, 289, 290, 291, 292, 293, 294, 295, 296, 297, 298, 299, 300, 301, 302, 303, 304, 305, 306, 307, 308],
      "AcquisitionTime": ["161159.712500", "161201.202500", "161202.692500", "161204.182500", "161205.672500", "161207.162500", "161208.652500", "161210.142500", "161211.632500", "161213.122500", "161214.612500", "161216.102500", "161217.592500", "161219.082500", "161220.572500", "161222.062500", "161223.552500", "161225.042500", "161226.532500", "161228.022500", "161229.512500", "161231.002500", "161232.492500", "161233.982500", "161235.472500", "161236.962500", "161238.452500", "161239.942500", "161241.432500", "161242.922500", "161244.412500", "161245.902500", "161247.392500", "161248.882500", "161250.372500", "161251.862500", "161253.352500", "161254.842500", "161256.332500", "161257.822500", "161259.312500", "161300.802500", "161302.292500", "161303.782500", "161305.272500", "161306.762500", "161308.252500", "161309.742500", "161311.232500", "161312.722500", "161314.212500", "161315.702500", "161317.192500", "161318.682500", "161320.172500", "161321.662500", "161323.152500", "161324.642500", "161326.132500", "161327.622500", "161329.112500", "161330.602500", "161332.092500", "161333.582500", "161335.072500", "161336.562500", "161338.052500", "161339.542500", "161341.032500", "161342.522500", "161344.012500", "161345.502500", "161346.992500", "161348.482500", "161349.972500", "161351.462500", "161352.952500", "161354.442500", "161355.932500", "161357.422500", "161358.912500", "161400.402500", "161401.892500", "161403.382500", "161404.872500", "161406.362500", "161407.852500", "161409.342500", "161410.832500", "161412.322500", "161413.812500", "161415.302500", "161416.792500", "161418.282500", "161419.772500", "161421.262500", "161422.752500", "161424.242500", "161425.732500", "161427.222500", "161428.712500", "161430.202500", "161431.692500", "161433.182500", "161434.672500", "161436.162500", "161437.652500", "161439.142500", "161440.632500", "161442.122500", "161443.612500", "161445.102500", "161446.592500", "161448.082500", "161449.572500", "161451.062500", "161452.552500", "161454.042500", "161455.532500", "161457.022500", "161458.512500", "161500.002500", "161501.492500", "161502.982500", "161504.472500", "161505.962500", "161507.452500", "161508.942500", "161510.432500", "161511.922500", "161513.412500", "161514.902500", "161516.392500", "161517.882500", "161519.372500", "161520.862500", "161522.352500", "161523.842500", "161525.332500", "161526.822500", "161528.312500", "161529.802500", "161531.292500", "161532.782500", "161534.272500", "161535.762500", "161537.252500", "161538.742500", "161540.232500", "161541.722500", "161543.212500", "161544.702500", "161546.192500", "161547.682500", "161549.172500", "161550.662500", "161552.152500", "161553.642500", "161555.132500", "161556.622500", "161558.112500", "161559.602500", "161601.092500", "161602.582500", "161604.072500", "161605.562500", "161607.052500", "161608.542500", "161610.032500", "161611.522500", "161613.012500", "161614.502500", "161615.992500", "161617.482500", "161618.972500", "161620.462500", "161621.952500", "161623.442500", "161624.932500", "161626.422500", "161627.912500", "161629.402500", "161630.892500", "161632.382500", "161633.872500", "161635.362500", "161636.852500", "161638.342500", "161639.832500", "161641.322500", "161642.812500", "161644.302500", "161645.792500", "161647.282500", "161648.772500", "161650.262500", "161651.752500", "161653.242500", "161654.732500", "161656.222500", "161657.712500", "161659.202500", "161700.692500", "161702.182500", "161703.672500", "161705.162500", "161706.652500", "161708.142500", "161709.632500", "161711.122500", "161712.612500", "161714.102500", "161715.592500", "161717.082500", "161718.572500", "161720.062500", "161721.552500", "161723.042500", "161724.532500", "161726.022500", "161727.512500", "161729.002500", "161730.492500", "161731.982500", "161733.472500", "161734.962500", "161736.452500", "161737.942500", "161739.432500", "161740.922500", "161742.412500", "161743.902500", "161745.392500", "161746.882500", "161748.372500", "161749.862500", "161751.352500", "161752.842500", "161754.332500", "161755.822500", "161757.312500", "161758.802500", "161800.292500", "161801.782500", "161803.272500", "161804.762500", "161806.252500", "161807.742500", "161809.232500", "161810.722500", "161812.212500", "161813.702500", "161815.192500", "161816.682500", "161818.172500", "161819.662500", "161821.152500", "161822.642500", "161824.132500", "161825.622500", "161827.112500", "161828.602500", "161830.092500", "161831.582500", "161833.072500", "161834.562500", "161836.052500", "161837.542500", "161839.032500", "161840.522500", "161842.012500", "161843.502500", "161844.992500", "161846.482500", "161847.972500", "161849.462500", "161850.952500", "161852.442500", "161853.932500", "161855.422500", "161856.912500", "161858.402500", "161859.892500", "161901.382500", "161902.872500", "161904.362500", "161905.852500", "161907.342500", "161908.832500", "161910.322500", "161911.812500", "161913.302500", "161914.792500", "161916.282500", "161917.772500", "161919.262500", "161920.752500", "161922.242500", "161923.732500", "161925.222500", "161926.712500", "161928.202500", "161929.692500", "161931.182500", "161932.672500", "161934.162500", "161935.652500", "161937.142500"],
      "ContentTime": ["161322.384000", "161322.387000", "161322.390000", "161322.392000", "161322.395000", "161322.397000", "161322.400000", "161322.402000", "161322.405000", "161322.407000", "161322.410000", "161322.413000", "161322.415000", "161322.418000", "161322.420000", "161322.423000", "161322.425000", "161322.428000", "161322.430000", "161322.433000", "161322.436000", "161322.438000", "161322.441000", "161322.443000", "161322.446000", "161322.448000", "161322.451000", "161322.454000", "161322.457000", "161322.459000", "161322.462000", "161322.471000", "161322.473000", "161342.267000", "161342.269000", "161342.272000", "161342.275000", "161342.283000", "161342.285000", "161342.288000", "161342.290000", "161342.293000", "161342.296000", "161342.298000", "161342.301000", "161342.303000", "161342.306000", "161342.308000", "161342.311000", "161342.314000", "161342.316000", "161342.319000", "161342.321000", "161402.283000", "161402.286000", "161402.288000", "161402.291000", "161402.298000", "161402.301000", "161402.304000", "161402.306000", "161402.309000", "161402.311000", "161402.314000", "161402.316000", "161402.319000", "161402.321000", "161402.324000", "161402.326000", "161402.329000", "161402.331000", "161402.334000", "161402.336000", "161422.271000", "161422.274000", "161422.276000", "161422.279000", "161422.281000", "161422.284000", "161422.287000", "161422.289000", "161422.292000", "161422.295000", "161422.297000", "161422.300000", "161422.302000", "161422.305000", "161422.307000", "161422.310000", "161422.313000", "161422.315000", "161422.318000", "161422.320000", "161502.860000", "161502.863000", "161502.866000", "161502.868000", "161502.871000", "161502.873000", "161502.876000", "161502.878000", "161502.881000", "161502.883000", "161502.886000", "161502.889000", "161502.891000", "161502.894000", "161502.896000", "161502.899000", "161502.902000", "161502.904000", "161502.907000", "161502.909000", "161502.912000", "161502.914000", "161502.917000", "161502.919000", "161502.922000", "161502.924000", "161502.927000", "161502.930000", "161542.309000", "161542.311000", "161542.314000", "161542.317000", "161542.319000", "161542.322000", "161542.324000", "161542.327000", "161542.329000", "161542.332000", "161542.335000", "161542.337000", "161542.340000", "161542.342000", "161542.345000", "161542.347000", "161542.350000", "161542.353000", "161542.355000", "161542.358000", "161542.360000", "161542.363000", "161542.366000", "161542.368000", "161542.371000", "161542.373000", "161542.376000", "161622.304000", "161622.307000", "161622.310000", "161622.313000", "161622.315000", "161622.318000", "161622.320000", "161622.323000", "161622.325000", "161622.328000", "161622.331000", "161622.333000", "161622.336000", "161622.338000", "161622.341000", "161622.353000", "161622.355000", "161622.358000", "161622.361000", "161622.363000", "161622.366000", "161622.368000", "161622.371000", "161622.374000", "161622.376000", "161622.379000", "161622.381000", "161702.308000", "161702.310000", "161702.313000", "161702.315000", "161702.318000", "161702.321000", "161702.323000", "161702.326000", "161702.329000", "161702.332000", "161702.335000", "161702.337000", "161702.340000", "161702.343000", "161702.345000", "161702.348000", "161702.351000", "161702.353000", "161702.356000", "161702.358000", "161702.361000", "161702.363000", "161702.366000", "161702.369000", "161702.371000", "161702.374000", "161702.376000", "161742.309000", "161742.312000", "161742.315000", "161742.317000", "161742.320000", "161742.322000", "161742.325000", "161742.328000", "161742.330000", "161742.333000", "161742.335000", "161742.338000", "161742.340000", "161742.343000", "161742.346000", "161742.348000", "161742.351000", "161742.353000", "161742.356000", "161742.358000", "161742.361000", "161742.363000", "161742.366000", "161742.369000", "161742.371000", "161742.374000", "161742.376000", "161802.227000", "161802.230000", "161802.233000", "161802.235000", "161802.238000", "161802.240000", "161802.243000", "161802.246000", "161802.248000", "161802.251000", "161802.253000", "161802.256000", "161802.258000", "161842.304000", "161842.307000", "161842.310000", "161842.312000", "161842.315000", "161842.317000", "161842.320000", "161842.322000", "161842.325000", "161842.327000", "161842.330000", "161842.332000", "161842.335000", "161842.338000", "161842.340000", "161842.343000", "161842.345000", "161842.348000", "161842.350000", "161842.353000", "161842.355000", "161842.358000", "161842.360000", "161842.363000", "161842.365000", "161842.368000", "161842.370000", "161922.302000", "161922.305000", "161922.307000", "161922.310000", "161922.312000", "161922.315000", "161922.317000", "161922.320000", "161922.322000", "161922.325000", "161922.327000", "161922.330000", "161922.332000", "161922.335000", "161922.337000", "161922.340000", "161922.343000", "161922.345000", "161922.348000", "161922.351000", "161922.353000", "161922.356000", "161922.358000", "161922.361000", "161922.363000", "161922.366000", "161922.368000", "161940.572000", "161940.575000", "161940.577000", "161940.580000", "161940.582000", "161940.585000", "161940.587000", "161940.590000", "161940.592000", "161940.595000", "161940.597000", "161940.600000"],
      "InstanceCreationTime": ["161322.384000", "161322.387000", "161322.390000", "161322.392000", "161322.395000", "161322.397000", "161322.400000", "161322.402000", "161322.405000", "161322.407000", "161322.410000", "161322.413000", "161322.415000", "161322.418000", "161322.420000", "161322.423000", "161322.425000", "161322.428000", "161322.430000", "161322.433000", "161322.436000", "161322.438000", "161322.441000", "161322.443000", "161322.446000", "161322.448000", "161322.451000", "161322.454000", "161322.457000", "161322.459000", "161322.462000", "161322.471000", "161322.473000", "161342.267000", "161342.269000", "161342.272000", "161342.275000", "161342.283000", "161342.285000", "161342.288000", "161342.290000", "161342.293000", "161342.296000", "161342.298000", "161342.301000", "161342.303000", "161342.306000", "161342.308000", "161342.311000", "161342.314000", "161342.316000", "161342.319000", "161342.321000", "161402.283000", "161402.286000", "161402.288000", "161402.291000", "161402.298000", "161402.301000", "161402.304000", "161402.306000", "161402.309000", "161402.311000", "161402.314000", "161402.316000", "161402.319000", "161402.321000", "161402.324000", "161402.326000", "161402.329000", "161402.331000", "161402.334000", "161402.336000", "161422.271000", "161422.274000", "161422.276000", "161422.279000", "161422.281000", "161422.284000", "161422.287000", "161422.289000", "161422.292000", "161422.295000", "161422.297000", "161422.300000", "161422.302000", "161422.305000", "161422.307000", "161422.310000", "161422.313000", "161422.315000", "161422.318000", "161422.320000", "161502.860000", "161502.863000", "161502.866000", "161502.868000", "161502.871000", "161502.873000", "161502.876000", "161502.878000", "161502.881000", "161502.883000", "161502.886000", "161502.889000", "161502.891000", "161502.894000", "161502.896000", "161502.899000", "161502.902000", "161502.904000", "161502.907000", "161502.909000", "161502.912000", "161502.914000", "161502.917000", "161502.919000", "161502.922000", "161502.924000", "161502.927000", "161502.930000", "161542.309000", "161542.311000", "161542.314000", "161542.317000", "161542.319000", "161542.322000", "161542.324000", "161542.327000", "161542.329000", "161542.332000", "161542.335000", "161542.337000", "161542.340000", "161542.342000", "161542.345000", "161542.347000", "161542.350000", "161542.353000", "161542.355000", "161542.358000", "161542.360000", "161542.363000", "161542.366000", "161542.368000", "161542.371000", "161542.373000", "161542.376000", "161622.304000", "161622.307000", "161622.310000", "161622.313000", "161622.315000", "161622.318000", "161622.320000", "161622.323000", "161622.325000", "161622.328000", "161622.331000", "161622.333000", "161622.336000", "161622.338000", "161622.341000", "161622.353000", "161622.355000", "161622.358000", "161622.361000", "161622.363000", "161622.366000", "161622.368000", "161622.371000", "161622.374000", "161622.376000", "161622.379000", "161622.381000", "161702.308000", "161702.310000", "161702.313000", "161702.315000", "161702.318000", "161702.321000", "161702.323000", "161702.326000", "161702.329000", "161702.332000", "161702.335000", "161702.337000", "161702.340000", "161702.343000", "161702.345000", "161702.348000", "161702.351000", "161702.353000", "161702.356000", "161702.358000", "161702.361000", "161702.363000", "161702.366000", "161702.369000", "161702.371000", "161702.374000", "161702.376000", "161742.309000", "161742.312000", "161742.315000", "161742.317000", "161742.320000", "161742.322000", "161742.325000", "161742.328000", "161742.330000", "161742.333000", "161742.335000", "161742.338000", "161742.340000", "161742.343000", "161742.346000", "161742.348000", "161742.351000", "161742.353000", "161742.356000", "161742.358000", "161742.361000", "161742.363000", "161742.366000", "161742.369000", "161742.371000", "161742.374000", "161742.376000", "161802.227000", "161802.230000", "161802.233000", "161802.235000", "161802.238000", "161802.240000", "161802.243000", "161802.246000", "161802.248000", "161802.251000", "161802.253000", "161802.256000", "161802.258000", "161842.304000", "161842.307000", "161842.310000", "161842.312000", "161842.315000", "161842.317000", "161842.320000", "161842.322000", "161842.325000", "161842.327000", "161842.330000", "161842.332000", "161842.335000", "161842.338000", "161842.340000", "161842.343000", "161842.345000", "161842.348000", "161842.350000", "161842.353000", "161842.355000", "161842.358000", "161842.360000", "161842.363000", "161842.365000", "161842.368000", "161842.370000", "161922.302000", "161922.305000", "161922.307000", "161922.310000", "161922.312000", "161922.315000", "161922.317000", "161922.320000", "161922.322000", "161922.325000", "161922.327000", "161922.330000", "161922.332000", "161922.335000", "161922.337000", "161922.340000", "161922.343000", "161922.345000", "161922.348000", "161922.351000", "161922.353000", "161922.356000", "161922.358000", "161922.361000", "161922.363000", "161922.366000", "161922.368000", "161940.572000", "161940.575000", "161940.577000", "161940.580000", "161940.582000", "161940.585000", "161940.587000", "161940.590000", "161940.592000", "161940.595000", "161940.597000", "161940.600000"],
      "InstanceNumber": [1, 2, 3, 4, 5, 6, 7, 8, 9, 10, 11, 12, 13, 14, 15, 16, 17, 18, 19, 20, 21, 22, 23, 24, 25, 26, 27, 28, 29, 30, 31, 32, 33, 34, 35, 36, 37, 38, 39, 40, 41, 42, 43, 44, 45, 46, 47, 48, 49, 50, 51, 52, 53, 54, 55, 56, 57, 58, 59, 60, 61, 62, 63, 64, 65, 66, 67, 68, 69, 70, 71, 72, 73, 74, 75, 76, 77, 78, 79, 80, 81, 82, 83, 84, 85, 86, 87, 88, 89, 90, 91, 92, 93, 94, 95, 96, 97, 98, 99, 100, 101, 102, 103, 104, 105, 106, 107, 108, 109, 110, 111, 112, 113, 114, 115, 116, 117, 118, 119, 120, 121, 122, 123, 124, 125, 126, 127, 128, 129, 130, 131, 132, 133, 134, 135, 136, 137, 138, 139, 140, 141, 142, 143, 144, 145, 146, 147, 148, 149, 150, 151, 152, 153, 154, 155, 156, 157, 158, 159, 160, 161, 162, 163, 164, 165, 166, 167, 168, 169, 170, 171, 172, 173, 174, 175, 176, 177, 178, 179, 180, 181, 182, 183, 184, 185, 186, 187, 188, 189, 190, 191, 192, 193, 194, 195, 196, 197, 198, 199, 200, 201, 202, 203, 204, 205, 206, 207, 208, 209, 210, 211, 212, 213, 214, 215, 216, 217, 218, 219, 220, 221, 222, 223, 224, 225, 226, 227, 228, 229, 230, 231, 232, 233, 234, 235, 236, 237, 238, 239, 240, 241, 242, 243, 244, 245, 246, 247, 248, 249, 250, 251, 252, 253, 254, 255, 256, 257, 258, 259, 260, 261, 262, 263, 264, 265, 266, 267, 268, 269, 270, 271, 272, 273, 274, 275, 276, 277, 278, 279, 280, 281, 282, 283, 284, 285, 286, 287, 288, 289, 290, 291, 292, 293, 294, 295, 296, 297, 298, 299, 300, 301, 302, 303, 304, 305, 306, 307, 308],
      "WindowCenter": [4836.0, 4832.0, 4832.0, 4828.0, 4834.0, 4828.0, 4830.0, 4840.0, 4830.0, 4838.0, 4836.0, 4834.0, 4838.0, 4834.0, 4834.0, 4836.0, 4834.0, 4836.0, 4838.0, 4832.0, 4834.0, 4840.0, 4838.0, 4834.0, 4838.0, 4836.0, 4838.0, 4838.0, 4804.0, 4836.0, 4832.0, 4844.0, 4840.0, 4830.0, 4842.0, 4866.0, 4840.0, 4834.0, 4806.0, 4832.0, 4830.0, 4838.0, 4840.0, 4838.0, 4840.0, 4836.0, 4840.0, 4840.0, 4832.0, 4836.0, 4830.0, 4836.0, 4836.0, 4836.0, 4836.0, 4800.0, 4834.0, 4842.0, 4844.0, 4844.0, 4838.0, 4830.0, 4832.0, 4830.0, 4836.0, 4840.0, 4840.0, 4834.0, 4834.0, 4840.0, 4870.0, 4844.0, 4842.0, 4842.0, 4838.0, 4836.0, 4838.0, 4836.0, 4840.0, 4834.0, 4838.0, 4840.0, 4836.0, 4838.0, 4842.0, 4832.0, 4838.0, 4836.0, 4830.0, 4828.0, 4834.0, 4838.0, 4844.0, 4838.0, 4840.0, 4836.0, 4838.0, 4840.0, 4834.0, 4836.0, 4832.0, 4838.0, 4840.0, 4842.0, 4842.0, 4838.0, 4838.0, 4838.0, 4832.0, 4834.0, 4836.0, 4842.0, 4842.0, 4838.0, 4840.0, 4844.0, 4840.0, 4840.0, 4838.0, 4840.0, 4838.0, 4840.0, 4840.0, 4840.0, 4844.0, 4838.0, 4838.0, 4840.0, 4842.0, 4840.0, 4838.0, 4838.0, 4842.0, 4840.0, 4842.0, 4838.0, 4836.0, 4838.0, 4838.0, 4834.0, 4838.0, 4836.0, 4836.0, 4840.0, 4834.0, 4808.0, 4810.0, 4848.0, 4848.0, 4850.0, 4848.0, 4838.0, 4842.0, 4834.0, 4810.0, 4836.0, 4840.0, 4836.0, 4840.0, 4836.0, 4844.0, 4842.0, 4840.0, 4840.0, 4834.0, 4840.0, 4838.0, 4832.0, 4838.0, 4838.0, 4842.0, 4840.0, 4842.0, 4838.0, 4836.0, 4834.0, 4834.0, 4836.0, 4836.0, 4838.0, 4836.0, 4838.0, 4836.0, 4834.0, 4832.0, 4836.0, 4836.0, 4836.0, 4836.0, 4834.0, 4838.0, 4836.0, 4840.0, 4832.0, 4836.0, 4808.0, 4838.0, 4838.0, 4806.0, 4806.0, 4832.0, 4842.0, 4844.0, 4842.0, 4840.0, 4834.0, 4836.0, 4836.0, 4836.0, 4838.0, 4834.0, 4840.0, 4834.0, 4836.0, 4838.0, 4840.0, 4836.0, 4836.0, 4810.0, 4832.0, 4808.0, 4836.0, 4836.0, 4836.0, 4840.0, 4838.0, 4840.0, 4832.0, 4838.0, 4834.0, 4838.0, 4834.0, 4836.0, 4838.0, 4832.0, 4836.0, 4832.0, 4838.0, 4836.0, 4842.0, 4832.0, 4840.0, 4840.0, 4834.0, 4836.0, 4836.0, 4836.0, 4836.0, 4836.0, 4836.0, 4838.0, 4834.0, 4838.0, 4840.0, 4836.0, 4836.0, 4838.0, 4832.0, 4834.0, 4832.0, 4810.0, 4836.0, 4838.0, 4832.0, 4838.0, 4806.0, 4832.0, 4834.0, 4838.0, 4832.0, 4836.0, 4838.0, 4836.0, 4832.0, 4834.0, 4832.0, 4834.0, 4836.0, 4836.0, 4830.0, 4838.0, 4834.0, 4834.0, 4838.0, 4836.0, 4838.0, 4834.0, 4838.0, 4840.0, 4838.0, 4836.0, 4840.0, 4834.0, 4804.0, 4808.0, 4830.0, 4832.0, 4838.0, 4840.0, 4836.0, 4834.0, 4832.0, 4836.0, 4834.0, 4808.0, 4808.0, 4840.0, 4844.0],
      "WindowWidth": [18648.0, 18646.0, 18648.0, 18646.0, 18642.0, 18644.0, 18646.0, 18648.0, 18644.0, 18650.0, 18646.0, 18642.0, 18646.0, 18646.0, 18642.0, 18644.0, 18648.0, 18638.0, 18648.0, 18640.0, 18642.0, 18650.0, 18644.0, 18646.0, 18644.0, 18646.0, 18648.0, 18646.0, 18618.0, 18650.0, 18644.0, 18646.0, 18648.0, 18640.0, 18652.0, 18678.0, 18646.0, 18640.0, 18620.0, 18646.0, 18644.0, 18648.0, 18654.0, 18646.0, 18648.0, 18644.0, 18648.0, 18648.0, 18646.0, 18644.0, 18642.0, 18646.0, 18644.0, 18642.0, 18646.0, 18612.0, 18648.0, 18652.0, 18644.0, 18646.0, 18644.0, 18632.0, 18642.0, 18650.0, 18646.0, 18646.0, 18642.0, 18650.0, 18648.0, 18642.0, 18678.0, 18656.0, 18644.0, 18644.0, 18642.0, 18644.0, 18644.0, 18642.0, 18642.0, 18638.0, 18640.0, 18646.0, 18644.0, 18638.0, 18648.0, 18644.0, 18646.0, 18640.0, 18646.0, 18648.0, 18642.0, 18646.0, 18646.0, 18644.0, 18646.0, 18642.0, 18646.0, 18646.0, 18642.0, 18646.0, 18644.0, 18646.0, 18646.0, 18642.0, 18650.0, 18642.0, 18640.0, 18642.0, 18646.0, 18642.0, 18648.0, 18638.0, 18650.0, 18638.0, 18644.0, 18644.0, 18642.0, 18642.0, 18646.0, 18646.0, 18640.0, 18648.0, 18644.0, 18644.0, 18648.0, 18642.0, 18638.0, 18644.0, 18646.0, 18638.0, 18646.0, 18648.0, 18646.0, 18644.0, 18650.0, 18644.0, 18642.0, 18646.0, 18644.0, 18642.0, 18648.0, 18644.0, 18646.0, 18644.0, 18644.0, 18616.0, 18624.0, 18652.0, 18646.0, 18642.0, 18638.0, 18642.0, 18648.0, 18646.0, 18622.0, 18642.0, 18650.0, 18640.0, 18646.0, 18642.0, 18642.0, 18646.0, 18642.0, 18644.0, 18640.0, 18650.0, 18646.0, 18638.0, 18644.0, 18648.0, 18644.0, 18644.0, 18648.0, 18642.0, 18648.0, 18638.0, 18640.0, 18644.0, 18642.0, 18642.0, 18642.0, 18644.0, 18640.0, 18642.0, 18644.0, 18644.0, 18642.0, 18642.0, 18644.0, 18640.0, 18646.0, 18642.0, 18648.0, 18640.0, 18638.0, 18612.0, 18638.0, 18636.0, 18612.0, 18620.0, 18642.0, 18646.0, 18642.0, 18638.0, 18638.0, 18640.0, 18644.0, 18648.0, 18648.0, 18642.0, 18640.0, 18644.0, 18640.0, 18642.0, 18636.0, 18646.0, 18640.0, 18640.0, 18614.0, 18638.0, 18620.0, 18644.0, 18644.0, 18640.0, 18642.0, 18642.0, 18642.0, 18638.0, 18642.0, 18648.0, 18650.0, 18644.0, 18642.0, 18642.0, 18636.0, 18640.0, 18642.0, 18644.0, 18644.0, 18646.0, 18642.0, 18648.0, 18644.0, 18638.0, 18644.0, 18642.0, 18642.0, 18640.0, 18640.0, 18648.0, 18646.0, 18642.0, 18644.0, 18644.0, 18646.0, 18636.0, 18642.0, 18642.0, 18642.0, 18640.0, 18610.0, 18642.0, 18644.0, 18640.0, 18642.0, 18616.0, 18642.0, 18638.0, 18638.0, 18638.0, 18638.0, 18644.0, 18644.0, 18644.0, 18646.0, 18640.0, 18642.0, 18644.0, 18644.0, 18642.0, 18640.0, 18644.0, 18636.0, 18644.0, 18640.0, 18644.0, 18642.0, 18642.0, 18642.0, 18642.0, 18638.0, 18642.0, 18638.0, 18618.0, 18622.0, 18648.0, 18640.0, 18644.0, 18646.0, 18642.0, 18650.0, 18652.0, 18644.0, 18646.0, 18620.0, 18618.0, 18648.0, 18644.0]
    },
    "slices": {}
  }
}