{
  "AcquisitionMatrixPE": 104,
  "AcquisitionNumber": 1,
  "AcquisitionTime": "14:17:34.402500",
  "BandwidthPerPixelPhaseEncode": 17.17,
  "BaseResolution": 104,
  "BodyPartExamined": "BRAIN",
  "CoilCombinationMethod": "Sum of Squares",
  "ConsistencyInfo": "N4_VE11C_LATEST_20160120",
  "ConversionSoftware": "dcm2niix",
  "ConversionSoftwareVersion": "v1.0.20220505",
  "DerivedVendorReportedEchoSpacing": 0.000560011,
  "DeviceSerialNumber": "167006",
  "DwellTime": 2.1e-06,
  "EchoTime": 0.037,
  "EchoTrainLength": 104,
  "EffectiveEchoSpacing": 0.000560011,
  "FlipAngle": 52,
  "HeudiconvVersion": "0.5.3.post811+g6206e14",
  "ImageComments": "Unaliased MB4/PE3/LB",
  "ImageOrientationPatientDICOM": [0.999728, 0.0156518, 0.0173084, -0.0104695, 0.963707, -0.266758],
  "ImageOrientationText": "Tra>Cor(-15.5)>Sag(1.2)",
  "ImageType": [
    "ORIGINAL",
    "PRIMARY",
    "M",
    "MB",
    "ND",
    "MOSAIC"
],
  "ImagingFrequency": 123.26,
  "InPlanePhaseEncodingDirectionDICOM": "COL",
  "InstitutionAddress": "Chemin Queen-Mary 4565,Montreal,District,CA,H3W 1W5",
  "InstitutionName": "IUGM",
  "InstitutionalDepartmentName": "Department",
  "MRAcquisitionType": "2D",
  "MagneticFieldStrength": 3,
  "Manufacturer": "Siemens",
  "ManufacturersModelName": "Prisma_fit",
  "MatrixCoilMode": "SENSE",
  "Modality": "MR",
  "MultibandAccelerationFactor": 4,
  "PartialFourier": 1,
  "PatientPosition": "HFS",
  "PercentPhaseFOV": 100,
  "PercentSampling": 100,
  "PhaseEncodingDirection": "j",
  "PhaseEncodingSteps": 104,
  "PhaseResolution": 1,
  "PixelBandwidth": 2290,
  "ProcedureStepDescription": "games^mario3",
  "ProtocolName": "func_task-mario3_run-01",
  "PulseSequenceDetails": "%CustomerSeq%\\cmrr_mbep2d_bold",
  "ReceiveCoilActiveElements": "HC1-7;NC1,2",
  "ReceiveCoilName": "HeadNeck_64",
  "ReconMatrixPE": 104,
  "RepetitionTime": 1.49,
  "SAR": 0.0655533,
  "ScanOptions": "FS",
  "ScanningSequence": "EP",
  "SequenceName": "epfid2d1_104",
  "SequenceVariant": "SK\\SS",
  "SeriesDescription": "func_task-mario3_run-01",
  "SeriesNumber": 14,
  "ShimSetting": [620, -7214, -8768, 669, 70, 19, 6, 0],
  "SliceThickness": 2,
  "SliceTiming": [0, 0.785, 0.1, 0.8825, 0.1975, 0.98, 0.295, 1.08, 0.3925, 1.1775, 0.49, 1.275, 0.59, 1.3725, 0.6875, 0, 0.785, 0.1, 0.8825, 0.1975, 0.98, 0.295, 1.08, 0.3925, 1.1775, 0.49, 1.275, 0.59, 1.3725, 0.6875, 0, 0.785, 0.1, 0.8825, 0.1975, 0.98, 0.295, 1.08, 0.3925, 1.1775, 0.49, 1.275, 0.59, 1.3725, 0.6875, 0, 0.785, 0.1, 0.8825, 0.1975, 0.98, 0.295, 1.08, 0.3925, 1.1775, 0.49, 1.275, 0.59, 1.3725, 0.6875],
  "SoftwareVersions": "syngo MR E11",
  "SpacingBetweenSlices": 2,
  "StationName": "MRC35049",
  "TaskName": "mario3",
  "TotalReadoutTime": 0.0576811,
  "TxRefAmp": 238.619,
  "WipMemBlock": "62a0a6ea-137b-4d31-8a44-3aac625499c2||Sequence: R017 ve11c/master r/75a17815+; Jun 28 2022 16:32:11 by eja",
  "dcmmeta_affine": [
    [-1.9994553327560425, -0.020938975736498833, 0.04171093553304672, 109.0552978515625],
    [-0.03130367770791054, 1.9274135828018188, -0.5330074429512024, -71.73737335205078],
    [0.03461679443717003, 0.5335151553153992, 1.9272165298461914, -56.58720779418945],
    [0.0, 0.0, 0.0, 1.0]
],
  "dcmmeta_reorient_transform": [
    [0.0, -1.0, 0.0, 103.0],
    [1.0, 0.0, 0.0, 0.0],
    [0.0, 0.0, 1.0, 0.0],
    [0.0, 0.0, 0.0, 1.0]
],
  "dcmmeta_shape": [104, 104, 60, 407],
  "dcmmeta_slice_dim": 2,
  "dcmmeta_version": 0.6,
  "global": {
    "const": {
      "AcquisitionMatrix": [104, 0, 0, 104],
      "AngioFlag": "N",
      "BitsAllocated": 16,
      "BitsStored": 16,
      "BodyPartExamined": "BRAIN",
      "Columns": 832,
      "EchoNumbers": 1,
      "EchoTime": 37.0,
      "EchoTrainLength": 104,
      "FlipAngle": 52.0,
      "HighBit": 15,
      "ImageOrientationPatient": [0.99972768259517, 0.01565183839575, 0.01730839702944, -0.0104694879586, 0.96370679389562, -0.2667575776268],
      "ImagePositionPatient": [-827.078547365, -839.7593082444, 179.96385837848],
      "ImageType": [
        "ORIGINAL",
        "PRIMARY",
        "M",
        "MB",
        "ND",
        "MOSAIC"
],
      "ImagedNucleus": "1H",
      "ImagingFrequency": 123.260229,
      "InPlanePhaseEncodingDirection": "COL",
      "MRAcquisitionType": "2D",
      "MagneticFieldStrength": 3.0,
      "Manufacturer": "SIEMENS",
      "ManufacturerModelName": "Prisma_fit",
      "Modality": "MR",
      "NumberOfAverages": 1.0,
      "NumberOfPhaseEncodingSteps": 104,
      "PercentPhaseFieldOfView": 100.0,
      "PercentSampling": 100.0,
      "PerformedProcedureStepStartTime": "140249.587000",
      "PhotometricInterpretation": "MONOCHROME2",
      "PixelBandwidth": 2290.0,
      "PixelRepresentation": 0,
      "PixelSpacing": [2.0, 2.0],
      "ProtocolName": "func_task-mario3_run-01",
      "RepetitionTime": 1490.0,
      "Rows": 832,
      "SAR": 0.06555332341009,
      "SamplesPerPixel": 1,
      "ScanOptions": "FS",
      "ScanningSequence": "EP",
      "SequenceName": "epfid2d1_104",
      "SequenceVariant": [
        "SK",
        "SS"
],
      "SeriesDescription": "func_task-mario3_run-01",
      "SeriesNumber": 14,
      "SeriesTime": "141901.292000",
      "SliceLocation": -33.135220435981,
      "SliceThickness": 2.0,
      "SmallestImagePixelValue": 0,
      "SoftwareVersions": "syngo MR E11",
      "SpacingBetweenSlices": 2.0000000634556,
      "SpecificCharacterSet": "ISO_IR 100",
      "StudyID": "1",
      "StudyTime": "140249.506000",
      "TransmitCoilName": "Body",
      "VariableFlipAngleFlag": "N",
      "WindowCenterWidthExplanation": "Algo1",
      "dBdt": 0.0},
    "slices": {}
  },
  "time": {
    "samples": {
      "AcquisitionNumber": [1, 2, 3, 4, 5, 6, 7, 8, 9, 10, 11, 12, 13, 14, 15, 16, 17, 18, 19, 20, 21, 22, 23, 24, 25, 26, 27, 28, 29, 30, 31, 32, 33, 34, 35, 36, 37, 38, 39, 40, 41, 42, 43, 44, 45, 46, 47, 48, 49, 50, 51, 52, 53, 54, 55, 56, 57, 58, 59, 60, 61, 62, 63, 64, 65, 66, 67, 68, 69, 70, 71, 72, 73, 74, 75, 76, 77, 78, 79, 80, 81, 82, 83, 84, 85, 86, 87, 88, 89, 90, 91, 92, 93, 94, 95, 96, 97, 98, 99, 100, 101, 102, 103, 104, 105, 106, 107, 108, 109, 110, 111, 112, 113, 114, 115, 116, 117, 118, 119, 120, 121, 122, 123, 124, 125, 126, 127, 128, 129, 130, 131, 132, 133, 134, 135, 136, 137, 138, 139, 140, 141, 142, 143, 144, 145, 146, 147, 148, 149, 150, 151, 152, 153, 154, 155, 156, 157, 158, 159, 160, 161, 162, 163, 164, 165, 166, 167, 168, 169, 170, 171, 172, 173, 174, 175, 176, 177, 178, 179, 180, 181, 182, 183, 184, 185, 186, 187, 188, 189, 190, 191, 192, 193, 194, 195, 196, 197, 198, 199, 200, 201, 202, 203, 204, 205, 206, 207, 208, 209, 210, 211, 212, 213, 214, 215, 216, 217, 218, 219, 220, 221, 222, 223, 224, 225, 226, 227, 228, 229, 230, 231, 232, 233, 234, 235, 236, 237, 238, 239, 240, 241, 242, 243, 244, 245, 246, 247, 248, 249, 250, 251, 252, 253, 254, 255, 256, 257, 258, 259, 260, 261, 262, 263, 264, 265, 266, 267, 268, 269, 270, 271, 272, 273, 274, 275, 276, 277, 278, 279, 280, 281, 282, 283, 284, 285, 286, 287, 288, 289, 290, 291, 292, 293, 294, 295, 296, 297, 298, 299, 300, 301, 302, 303, 304, 305, 306, 307, 308, 309, 310, 311, 312, 313, 314, 315, 316, 317, 318, 319, 320, 321, 322, 323, 324, 325, 326, 327, 328, 329, 330, 331, 332, 333, 334, 335, 336, 337, 338, 339, 340, 341, 342, 343, 344, 345, 346, 347, 348, 349, 350, 351, 352, 353, 354, 355, 356, 357, 358, 359, 360, 361, 362, 363, 364, 365, 366, 367, 368, 369, 370, 371, 372, 373, 374, 375, 376, 377, 378, 379, 380, 381, 382, 383, 384, 385, 386, 387, 388, 389, 390, 391, 392, 393, 394, 395, 396, 397, 398, 399, 400, 401, 402, 403, 404, 405, 406, 407],
      "AcquisitionTime": ["141734.402500", "141735.892500", "141737.382500", "141738.872500", "141740.362500", "141741.852500", "141743.342500", "141744.832500", "141746.322500", "141747.812500", "141749.302500", "141750.792500", "141752.282500", "141753.772500", "141755.262500", "141756.752500", "141758.242500", "141759.732500", "141801.222500", "141802.712500", "141804.202500", "141805.692500", "141807.182500", "141808.672500", "141810.162500", "141811.652500", "141813.142500", "141814.632500", "141816.122500", "141817.612500", "141819.102500", "141820.592500", "141822.082500", "141823.572500", "141825.062500", "141826.552500", "141828.042500", "141829.532500", "141831.022500", "141832.512500", "141834.002500", "141835.492500", "141836.982500", "141838.472500", "141839.962500", "141841.452500", "141842.942500", "141844.432500", "141845.922500", "141847.412500", "141848.902500", "141850.392500", "141851.882500", "141853.372500", "141854.862500", "141856.352500", "141857.842500", "141859.332500", "141900.822500", "141902.312500", "141903.802500", "141905.292500", "141906.782500", "141908.272500", "141909.762500", "141911.252500", "141912.742500", "141914.232500", "141915.722500", "141917.212500", "141918.702500", "141920.192500", "141921.682500", "141923.172500", "141924.662500", "141926.152500", "141927.642500", "141929.132500", "141930.622500", "141932.112500", "141933.602500", "141935.092500", "141936.582500", "141938.072500", "141939.562500", "141941.052500", "141942.542500", "141944.032500", "141945.522500", "141947.012500", "141948.502500", "141949.992500", "141951.482500", "141952.972500", "141954.462500", "141955.952500", "141957.442500", "141958.932500", "142000.422500", "142001.912500", "142003.402500", "142004.892500", "142006.382500", "142007.872500", "142009.362500", "142010.852500", "142012.342500", "142013.832500", "142015.322500", "142016.812500", "142018.302500", "142019.792500", "142021.282500", "142022.772500", "142024.262500", "142025.752500", "142027.242500", "142028.732500", "142030.222500", "142031.712500", "142033.202500", "142034.692500", "142036.182500", "142037.672500", "142039.162500", "142040.652500", "142042.142500", "142043.632500", "142045.122500", "142046.612500", "142048.102500", "142049.592500", "142051.082500", "142052.572500", "142054.062500", "142055.552500", "142057.042500", "142058.532500", "142100.022500", "142101.512500", "142103.002500", "142104.492500", "142105.982500", "142107.472500", "142108.962500", "142110.452500", "142111.942500", "142113.432500", "142114.922500", "142116.412500", "142117.902500", "142119.392500", "142120.882500", "142122.372500", "142123.862500", "142125.352500", "142126.842500", "142128.332500", "142129.822500", "142131.312500", "142132.802500", "142134.292500", "142135.782500", "142137.272500", "142138.762500", "142140.252500", "142141.742500", "142143.232500", "142144.722500", "142146.212500", "142147.702500", "142149.192500", "142150.682500", "142152.172500", "142153.662500", "142155.152500", "142156.642500", "142158.132500", "142159.622500", "142201.112500", "142202.602500", "142204.092500", "142205.582500", "142207.072500", "142208.562500", "142210.052500", "142211.542500", "142213.032500", "142214.522500", "142216.012500", "142217.502500", "142218.992500", "142220.482500", "142221.972500", "142223.462500", "142224.952500", "142226.442500", "142227.932500", "142229.422500", "142230.912500", "142232.402500", "142233.892500", "142235.382500", "142236.872500", "142238.362500", "142239.852500", "142241.342500", "142242.832500", "142244.322500", "142245.812500", "142247.302500", "142248.792500", "142250.282500", "142251.772500", "142253.262500", "142254.752500", "142256.242500", "142257.732500", "142259.222500", "142300.712500", "142302.202500", "142303.692500", "142305.182500", "142306.672500", "142308.162500", "142309.652500", "142311.142500", "142312.632500", "142314.122500", "142315.612500", "142317.102500", "142318.592500", "142320.082500", "142321.572500", "142323.062500", "142324.552500", "142326.042500", "142327.532500", "142329.022500", "142330.512500", "142332.002500", "142333.492500", "142334.982500", "142336.472500", "142337.962500", "142339.452500", "142340.942500", "142342.432500", "142343.922500", "142345.412500", "142346.902500", "142348.392500", "142349.882500", "142351.372500", "142352.862500", "142354.352500", "142355.842500", "142357.332500", "142358.822500", "142400.312500", "142401.802500", "142403.292500", "142404.782500", "142406.272500", "142407.762500", "142409.252500", "142410.742500", "142412.232500", "142413.722500", "142415.212500", "142416.702500", "142418.192500", "142419.682500", "142421.172500", "142422.662500", "142424.152500", "142425.642500", "142427.132500", "142428.622500", "142430.112500", "142431.602500", "142433.092500", "142434.582500", "142436.072500", "142437.562500", "142439.052500", "142440.542500", "142442.032500", "142443.522500", "142445.012500", "142446.502500", "142447.992500", "142449.482500", "142450.972500", "142452.462500", "142453.952500", "142455.442500", "142456.932500", "142458.422500", "142459.912500", "142501.402500", "142502.892500", "142504.382500", "142505.872500", "142507.362500", "142508.852500", "142510.342500", "142511.832500", "142513.322500", "142514.812500", "142516.302500", "142517.792500", "142519.282500", "142520.772500", "142522.262500", "142523.752500", "142525.242500", "142526.732500", "142528.222500", "142529.712500", "142531.202500", "142532.692500", "142534.182500", "142535.672500", "142537.162500", "142538.652500", "142540.142500", "142541.632500", "142543.122500", "142544.612500", "142546.102500", "142547.592500", "142549.082500", "142550.572500", "142552.062500", "142553.552500", "142555.042500", "142556.532500", "142558.022500", "142559.512500", "142601.002500", "142602.492500", "142603.982500", "142605.472500", "142606.962500", "142608.452500", "142609.942500", "142611.432500", "142612.922500", "142614.412500", "142615.902500", "142617.392500", "142618.882500", "142620.372500", "142621.862500", "142623.352500", "142624.842500", "142626.332500", "142627.822500", "142629.312500", "142630.802500", "142632.292500", "142633.782500", "142635.272500", "142636.762500", "142638.252500", "142639.742500", "142641.232500", "142642.722500", "142644.212500", "142645.702500", "142647.192500", "142648.682500", "142650.172500", "142651.662500", "142653.152500", "142654.642500", "142656.132500", "142657.622500", "142659.112500", "142700.602500", "142702.092500", "142703.582500", "142705.072500", "142706.562500", "142708.052500", "142709.542500", "142711.032500", "142712.522500", "142714.012500", "142715.502500", "142716.992500", "142718.482500", "142719.972500", "142721.462500", "142722.952500", "142724.442500", "142725.932500", "142727.422500", "142728.912500", "142730.402500", "142731.892500", "142733.382500", "142734.872500", "142736.362500", "142737.852500", "142739.342500"],
      "ContentTime": ["141901.295000", "141901.299000", "141901.302000", "141901.306000", "141901.309000", "141901.312000", "141901.316000", "141901.319000", "141901.322000", "141901.326000", "141901.329000", "141901.332000", "141901.336000", "141901.339000", "141901.342000", "141901.346000", "141901.349000", "141901.352000", "141901.356000", "141901.359000", "141901.362000", "141901.366000", "141901.369000", "141901.372000", "141901.375000", "141901.379000", "141901.382000", "141901.385000", "141901.389000", "141901.392000", "141901.395000", "141901.399000", "141901.402000", "141901.405000", "141901.409000", "141901.412000", "141901.415000", "141921.260000", "141921.264000", "141921.267000", "141921.271000", "141921.274000", "141921.277000", "141921.281000", "141921.284000", "141921.287000", "141921.291000", "141921.294000", "141921.297000", "141921.301000", "141921.304000", "141921.307000", "141921.311000", "141921.314000", "141921.317000", "141921.321000", "141921.324000", "141921.327000", "141941.261000", "141941.265000", "141941.268000", "141941.271000", "141941.275000", "141941.278000", "141941.281000", "141941.285000", "141941.288000", "141941.292000", "141941.295000", "141941.298000", "141941.301000", "141941.305000", "141941.308000", "141941.311000", "141941.315000", "141941.318000", "141941.321000", "141941.325000", "142001.261000", "142001.265000", "142001.268000", "142001.271000", "142001.275000", "142001.278000", "142001.295000", "142001.299000", "142001.302000", "142001.305000", "142001.309000", "142001.312000", "142001.315000", "142001.319000", "142001.322000", "142001.325000", "142001.329000", "142001.332000", "142001.335000", "142001.339000", "142041.260000", "142041.264000", "142041.267000", "142041.271000", "142041.274000", "142041.277000", "142041.281000", "142041.284000", "142041.287000", "142041.291000", "142041.294000", "142041.298000", "142041.301000", "142041.304000", "142041.308000", "142041.311000", "142041.314000", "142041.318000", "142041.321000", "142041.324000", "142041.328000", "142041.331000", "142041.334000", "142041.338000", "142041.341000", "142041.344000", "142041.348000", "142121.260000", "142121.264000", "142121.267000", "142121.271000", "142121.274000", "142121.277000", "142121.281000", "142121.284000", "142121.287000", "142121.291000", "142121.294000", "142121.297000", "142121.301000", "142121.304000", "142121.307000", "142121.311000", "142121.314000", "142121.317000", "142121.321000", "142121.324000", "142121.327000", "142121.331000", "142121.334000", "142121.337000", "142121.341000", "142121.344000", "142121.347000", "142201.261000", "142201.266000", "142201.270000", "142201.274000", "142201.277000", "142201.281000", "142201.284000", "142201.288000", "142201.291000", "142201.295000", "142201.298000", "142201.302000", "142201.305000", "142201.308000", "142201.312000", "142201.315000", "142201.318000", "142201.322000", "142201.325000", "142201.328000", "142201.332000", "142201.335000", "142201.338000", "142201.342000", "142201.345000", "142201.348000", "142241.260000", "142241.264000", "142241.267000", "142241.285000", "142241.288000", "142241.292000", "142241.295000", "142241.298000", "142241.302000", "142241.305000", "142241.308000", "142241.312000", "142241.315000", "142241.318000", "142241.322000", "142241.325000", "142241.328000", "142241.332000", "142241.335000", "142241.339000", "142241.342000", "142241.345000", "142241.349000", "142241.352000", "142241.355000", "142241.358000", "142241.363000", "142321.260000", "142321.264000", "142321.267000", "142321.271000", "142321.274000", "142321.277000", "142321.281000", "142321.284000", "142321.287000", "142321.291000", "142321.294000", "142321.297000", "142321.301000", "142321.304000", "142321.308000", "142321.311000", "142321.314000", "142321.318000", "142321.321000", "142321.325000", "142321.328000", "142321.331000", "142321.335000", "142321.338000", "142321.341000", "142321.345000", "142321.348000", "142401.260000", "142401.264000", "142401.267000", "142401.270000", "142401.274000", "142401.277000", "142401.280000", "142401.284000", "142401.287000", "142401.291000", "142401.294000", "142401.297000", "142401.301000", "142401.304000", "142401.307000", "142401.311000", "142401.314000", "142401.317000", "142401.321000", "142401.324000", "142401.327000", "142401.331000", "142401.334000", "142401.337000", "142401.341000", "142401.344000", "142401.347000", "142441.261000", "142441.265000", "142441.268000", "142441.272000", "142441.275000", "142441.278000", "142441.282000", "142441.285000", "142441.288000", "142441.292000", "142441.295000", "142441.298000", "142441.302000", "142441.305000", "142441.308000", "142441.321000", "142441.324000", "142441.328000", "142441.331000", "142441.334000", "142441.338000", "142441.341000", "142441.344000", "142441.348000", "142441.351000", "142441.354000", "142441.358000", "142521.260000", "142521.264000", "142521.267000", "142521.271000", "142521.274000", "142521.277000", "142521.281000", "142521.284000", "142521.287000", "142521.291000", "142521.294000", "142521.297000", "142521.301000", "142521.304000", "142521.307000", "142521.311000", "142521.314000", "142521.317000", "142521.321000", "142521.324000", "142521.327000", "142521.331000", "142521.334000", "142521.337000", "142521.341000", "142521.344000", "142521.347000", "142541.260000", "142541.264000", "142541.267000", "142541.271000", "142541.274000", "142541.277000", "142541.281000", "142541.284000", "142541.287000", "142541.291000", "142541.294000", "142541.297000", "142541.301000", "142621.260000", "142621.264000", "142621.267000", "142621.271000", "142621.274000", "142621.277000", "142621.281000", "142621.284000", "142621.287000", "142621.291000", "142621.294000", "142621.297000", "142621.301000", "142621.304000", "142621.307000", "142621.311000", "142621.314000", "142621.317000", "142621.321000", "142621.324000", "142621.327000", "142621.331000", "142621.334000", "142621.337000", "142621.341000", "142621.344000", "142621.347000", "142701.261000", "142701.265000", "142701.269000", "142701.272000", "142701.275000", "142701.279000", "142701.282000", "142701.285000", "142701.289000", "142701.292000", "142701.295000", "142701.299000", "142701.318000", "142701.322000", "142701.325000", "142701.328000", "142701.332000", "142701.335000", "142701.338000", "142701.342000", "142701.345000", "142701.349000", "142701.352000", "142701.355000", "142701.360000", "142701.363000", "142701.367000", "142741.260000", "142741.264000", "142741.267000", "142741.271000", "142741.274000", "142741.277000", "142741.281000", "142741.284000", "142741.287000", "142741.291000", "142741.294000", "142741.298000", "142741.301000", "142741.304000", "142741.308000", "142741.311000", "142741.314000", "142741.318000", "142741.321000", "142741.324000", "142741.328000", "142741.331000", "142741.334000", "142741.338000", "142741.341000", "142741.344000", "142741.348000"],
      "InstanceCreationTime": ["141901.295000", "141901.299000", "141901.302000", "141901.306000", "141901.309000", "141901.312000", "141901.316000", "141901.319000", "141901.322000", "141901.326000", "141901.329000", "141901.332000", "141901.336000", "141901.339000", "141901.342000", "141901.346000", "141901.349000", "141901.352000", "141901.356000", "141901.359000", "141901.362000", "141901.366000", "141901.369000", "141901.372000", "141901.375000", "141901.379000", "141901.382000", "141901.385000", "141901.389000", "141901.392000", "141901.395000", "141901.399000", "141901.402000", "141901.405000", "141901.409000", "141901.412000", "141901.415000", "141921.260000", "141921.264000", "141921.267000", "141921.271000", "141921.274000", "141921.277000", "141921.281000", "141921.284000", "141921.287000", "141921.291000", "141921.294000", "141921.297000", "141921.301000", "141921.304000", "141921.307000", "141921.311000", "141921.314000", "141921.317000", "141921.321000", "141921.324000", "141921.327000", "141941.261000", "141941.265000", "141941.268000", "141941.271000", "141941.275000", "141941.278000", "141941.281000", "141941.285000", "141941.288000", "141941.292000", "141941.295000", "141941.298000", "141941.301000", "141941.305000", "141941.308000", "141941.311000", "141941.315000", "141941.318000", "141941.321000", "141941.325000", "142001.261000", "142001.265000", "142001.268000", "142001.271000", "142001.275000", "142001.278000", "142001.295000", "142001.299000", "142001.302000", "142001.305000", "142001.309000", "142001.312000", "142001.315000", "142001.319000", "142001.322000", "142001.325000", "142001.329000", "142001.332000", "142001.335000", "142001.339000", "142041.260000", "142041.264000", "142041.267000", "142041.271000", "142041.274000", "142041.277000", "142041.281000", "142041.284000", "142041.287000", "142041.291000", "142041.294000", "142041.298000", "142041.301000", "142041.304000", "142041.308000", "142041.311000", "142041.314000", "142041.318000", "142041.321000", "142041.324000", "142041.328000", "142041.331000", "142041.334000", "142041.338000", "142041.341000", "142041.344000", "142041.348000", "142121.260000", "142121.264000", "142121.267000", "142121.271000", "142121.274000", "142121.277000", "142121.281000", "142121.284000", "142121.287000", "142121.291000", "142121.294000", "142121.297000", "142121.301000", "142121.304000", "142121.307000", "142121.311000", "142121.314000", "142121.317000", "142121.321000", "142121.324000", "142121.327000", "142121.331000", "142121.334000", "142121.337000", "142121.341000", "142121.344000", "142121.347000", "142201.261000", "142201.266000", "142201.270000", "142201.274000", "142201.277000", "142201.281000", "142201.284000", "142201.288000", "142201.291000", "142201.295000", "142201.298000", "142201.302000", "142201.305000", "142201.308000", "142201.312000", "142201.315000", "142201.318000", "142201.322000", "142201.325000", "142201.328000", "142201.332000", "142201.335000", "142201.338000", "142201.342000", "142201.345000", "142201.348000", "142241.260000", "142241.264000", "142241.267000", "142241.285000", "142241.288000", "142241.292000", "142241.295000", "142241.298000", "142241.302000", "142241.305000", "142241.308000", "142241.312000", "142241.315000", "142241.318000", "142241.322000", "142241.325000", "142241.328000", "142241.332000", "142241.335000", "142241.339000", "142241.342000", "142241.345000", "142241.349000", "142241.352000", "142241.355000", "142241.358000", "142241.363000", "142321.260000", "142321.264000", "142321.267000", "142321.271000", "142321.274000", "142321.277000", "142321.281000", "142321.284000", "142321.287000", "142321.291000", "142321.294000", "142321.297000", "142321.301000", "142321.304000", "142321.308000", "142321.311000", "142321.314000", "142321.318000", "142321.321000", "142321.325000", "142321.328000", "142321.331000", "142321.335000", "142321.338000", "142321.341000", "142321.345000", "142321.348000", "142401.260000", "142401.264000", "142401.267000", "142401.270000", "142401.274000", "142401.277000", "142401.280000", "142401.284000", "142401.287000", "142401.291000", "142401.294000", "142401.297000", "142401.301000", "142401.304000", "142401.307000", "142401.311000", "142401.314000", "142401.317000", "142401.321000", "142401.324000", "142401.327000", "142401.331000", "142401.334000", "142401.337000", "142401.341000", "142401.344000", "142401.347000", "142441.261000", "142441.265000", "142441.268000", "142441.272000", "142441.275000", "142441.278000", "142441.282000", "142441.285000", "142441.288000", "142441.292000", "142441.295000", "142441.298000", "142441.302000", "142441.305000", "142441.308000", "142441.321000", "142441.324000", "142441.328000", "142441.331000", "142441.334000", "142441.338000", "142441.341000", "142441.344000", "142441.348000", "142441.351000", "142441.354000", "142441.358000", "142521.260000", "142521.264000", "142521.267000", "142521.271000", "142521.274000", "142521.277000", "142521.281000", "142521.284000", "142521.287000", "142521.291000", "142521.294000", "142521.297000", "142521.301000", "142521.304000", "142521.307000", "142521.311000", "142521.314000", "142521.317000", "142521.321000", "142521.324000", "142521.327000", "142521.331000", "142521.334000", "142521.337000", "142521.341000", "142521.344000", "142521.347000", "142541.260000", "142541.264000", "142541.267000", "142541.271000", "142541.274000", "142541.277000", "142541.281000", "142541.284000", "142541.287000", "142541.291000", "142541.294000", "142541.297000", "142541.301000", "142621.260000", "142621.264000", "142621.267000", "142621.271000", "142621.274000", "142621.277000", "142621.281000", "142621.284000", "142621.287000", "142621.291000", "142621.294000", "142621.297000", "142621.301000", "142621.304000", "142621.307000", "142621.311000", "142621.314000", "142621.317000", "142621.321000", "142621.324000", "142621.327000", "142621.331000", "142621.334000", "142621.337000", "142621.341000", "142621.344000", "142621.347000", "142701.261000", "142701.265000", "142701.269000", "142701.272000", "142701.275000", "142701.279000", "142701.282000", "142701.285000", "142701.289000", "142701.292000", "142701.295000", "142701.299000", "142701.318000", "142701.322000", "142701.325000", "142701.328000", "142701.332000", "142701.335000", "142701.338000", "142701.342000", "142701.345000", "142701.349000", "142701.352000", "142701.355000", "142701.360000", "142701.363000", "142701.367000", "142741.260000", "142741.264000", "142741.267000", "142741.271000", "142741.274000", "142741.277000", "142741.281000", "142741.284000", "142741.287000", "142741.291000", "142741.294000", "142741.298000", "142741.301000", "142741.304000", "142741.308000", "142741.311000", "142741.314000", "142741.318000", "142741.321000", "142741.324000", "142741.328000", "142741.331000", "142741.334000", "142741.338000", "142741.341000", "142741.344000", "142741.348000"],
