{
  "AcquisitionMatrixPE": 104,
  "AcquisitionNumber": 1,
  "AcquisitionTime": "19:29:7.242500",
  "BandwidthPerPixelPhaseEncode": 17.17,
  "BaseResolution": 104,
  "BodyPartExamined": "BRAIN",
  "CoilCombinationMethod": "Sum of Squares",
  "ConsistencyInfo": "N4_VE11C_LATEST_20160120",
  "ConversionSoftware": "dcm2niix",
  "ConversionSoftwareVersion": "v1.0.20220505",
  "DerivedVendorReportedEchoSpacing": 0.000560011,
  "DeviceSerialNumber": "167006",
  "DwellTime": 2.1e-06,
  "EchoTime": 0.037,
  "EchoTrainLength": 104,
  "EffectiveEchoSpacing": 0.000560011,
  "FlipAngle": 52,
  "HeudiconvVersion": "0.5.3.post811+g6206e14",
  "ImageComments": "Unaliased MB4/PE3/LB",
  "ImageOrientationPatientDICOM": [0.999623, -0.0114989, 0.0249291, 0.0195428, 0.9358, -0.35199],
  "ImageOrientationText": "Tra>Cor(-20.6)>Sag(1.1)",
  "ImageType": [
    "ORIGINAL",
    "PRIMARY",
    "M",
    "MB",
    "ND",
    "MOSAIC"
],
  "ImagingFrequency": 123.259,
  "InPlanePhaseEncodingDirectionDICOM": "COL",
  "InstitutionAddress": "Chemin Queen-Mary 4565,Montreal,District,CA,H3W 1W5",
  "InstitutionName": "IUGM",
  "InstitutionalDepartmentName": "Department",
  "MRAcquisitionType": "2D",
  "MagneticFieldStrength": 3,
  "Manufacturer": "Siemens",
  "ManufacturersModelName": "Prisma_fit",
  "MatrixCoilMode": "SENSE",
  "Modality": "MR",
  "MultibandAccelerationFactor": 4,
  "PartialFourier": 1,
  "PatientPosition": "HFS",
  "PercentPhaseFOV": 100,
  "PercentSampling": 100,
  "PhaseEncodingDirection": "j",
  "PhaseEncodingSteps": 104,
  "PhaseResolution": 1,
  "PixelBandwidth": 2290,
  "ProcedureStepDescription": "games^mario3",
  "ProtocolName": "func_task-mario3_run-04",
  "PulseSequenceDetails": "%CustomerSeq%\\cmrr_mbep2d_bold",
  "ReceiveCoilActiveElements": "HC1-7;NC1,2",
  "ReceiveCoilName": "HeadNeck_64",
  "ReconMatrixPE": 104,
  "RepetitionTime": 1.49,
  "SAR": 0.0725356,
  "ScanOptions": "FS",
  "ScanningSequence": "EP",
  "SequenceName": "epfid2d1_104",
  "SequenceVariant": "SK\\SS",
  "SeriesDescription": "func_task-mario3_run-04",
  "SeriesNumber": 19,
  "ShimSetting": [595, -7294, -8797, 410, 31, -346, -40, 63],
  "SliceThickness": 2,
  "SliceTiming": [0, 0.785, 0.1, 0.8825, 0.1975, 0.98, 0.295, 1.08, 0.3925, 1.1775, 0.49, 1.275, 0.59, 1.3725, 0.6875, 0, 0.785, 0.1, 0.8825, 0.1975, 0.98, 0.295, 1.08, 0.3925, 1.1775, 0.49, 1.275, 0.59, 1.3725, 0.6875, 0, 0.785, 0.1, 0.8825, 0.1975, 0.98, 0.295, 1.08, 0.3925, 1.1775, 0.49, 1.275, 0.59, 1.3725, 0.6875, 0, 0.785, 0.1, 0.8825, 0.1975, 0.98, 0.295, 1.08, 0.3925, 1.1775, 0.49, 1.275, 0.59, 1.3725, 0.6875],
  "SoftwareVersions": "syngo MR E11",
  "SpacingBetweenSlices": 2,
  "StationName": "MRC35049",
  "TaskName": "mario3",
  "TotalReadoutTime": 0.0576811,
  "TxRefAmp": 289.133,
  "WipMemBlock": "b37ebf03-b2eb-49d0-a141-455110252fe5||Sequence: R017 ve11c/master r/75a17815+; Jun 28 2022 16:32:11 by eja",
  "dcmmeta_affine": [
    [-1.9992461204528809, 0.03908564895391464, 0.038562316447496414, 100.82984161376953],
    [0.022997811436653137, 1.871599793434143, -0.7046880722045898, -71.35917663574219],
    [0.049858205020427704, 0.7039790153503418, 1.8713438510894775, -57.700199127197266],
    [0.0, 0.0, 0.0, 1.0]
],
  "dcmmeta_reorient_transform": [
    [0.0, -1.0, 0.0, 103.0],
    [1.0, 0.0, 0.0, 0.0],
    [0.0, 0.0, 1.0, 0.0],
    [0.0, 0.0, 0.0, 1.0]
],
  "dcmmeta_shape": [104, 104, 60, 386],
  "dcmmeta_slice_dim": 2,
  "dcmmeta_version": 0.6,
  "global": {
    "const": {
      "AcquisitionMatrix": [104, 0, 0, 104],
      "AngioFlag": "N",
      "BitsAllocated": 16,
      "BitsStored": 16,
      "BodyPartExamined": "BRAIN",
      "Columns": 832,
      "EchoNumbers": 1,
      "EchoTime": 37.0,
      "EchoTrainLength": 104,
      "FlipAngle": 52.0,
      "HighBit": 15,
      "ImageOrientationPatient": [0.99962308647452, -0.0114989061639, 0.02492910235416, 0.0195428238097, 0.93579990477246, -0.3519895115843],
      "ImagePositionPatient": [-846.80844885549, -794.30672849549, 252.90961723001],
      "ImageType": [
        "ORIGINAL",
        "PRIMARY",
        "M",
        "MB",
        "ND",
        "MOSAIC"
],
      "ImagedNucleus": "1H",
      "ImagingFrequency": 123.258979,
      "InPlanePhaseEncodingDirection": "COL",
      "MRAcquisitionType": "2D",
      "MagneticFieldStrength": 3.0,
      "Manufacturer": "SIEMENS",
      "ManufacturerModelName": "Prisma_fit",
      "Modality": "MR",
      "NumberOfAverages": 1.0,
      "NumberOfPhaseEncodingSteps": 104,
      "PercentPhaseFieldOfView": 100.0,
      "PercentSampling": 100.0,
      "PerformedProcedureStepStartTime": "183831.130000",
      "PhotometricInterpretation": "MONOCHROME2",
      "PixelBandwidth": 2290.0,
      "PixelRepresentation": 0,
      "PixelSpacing": [2.0, 2.0],
      "ProtocolName": "func_task-mario3_run-04",
      "RepetitionTime": 1490.0,
      "Rows": 832,
      "SAR": 0.07253558514195,
      "SamplesPerPixel": 1,
      "ScanOptions": "FS",
      "ScanningSequence": "EP",
      "SequenceName": "epfid2d1_104",
      "SequenceVariant": [
        "SK",
        "SS"
],
      "SeriesDescription": "func_task-mario3_run-04",
      "SeriesNumber": 19,
      "SeriesTime": "193007.728000",
      "SliceLocation": -26.901359889195,
      "SliceThickness": 2.0,
      "SmallestImagePixelValue": 0,
      "SoftwareVersions": "syngo MR E11",
      "SpacingBetweenSlices": 2.0000000181618,
      "SpecificCharacterSet": "ISO_IR 100",
      "StudyID": "1",
      "StudyTime": "183831.060000",
      "TransmitCoilName": "Body",
      "VariableFlipAngleFlag": "N",
      "WindowCenterWidthExplanation": "Algo1",
      "dBdt": 0.0},
    "slices": {}
  },
  "time": {
    "samples": {
      "AcquisitionNumber": [1, 2, 3, 4, 5, 6, 7, 8, 9, 10, 11, 12, 13, 14, 15, 16, 17, 18, 19, 20, 21, 22, 23, 24, 25, 26, 27, 28, 29, 30, 31, 32, 33, 34, 35, 36, 37, 38, 39, 40, 41, 42, 43, 44, 45, 46, 47, 48, 49, 50, 51, 52, 53, 54, 55, 56, 57, 58, 59, 60, 61, 62, 63, 64, 65, 66, 67, 68, 69, 70, 71, 72, 73, 74, 75, 76, 77, 78, 79, 80, 81, 82, 83, 84, 85, 86, 87, 88, 89, 90, 91, 92, 93, 94, 95, 96, 97, 98, 99, 100, 101, 102, 103, 104, 105, 106, 107, 108, 109, 110, 111, 112, 113, 114, 115, 116, 117, 118, 119, 120, 121, 122, 123, 124, 125, 126, 127, 128, 129, 130, 131, 132, 133, 134, 135, 136, 137, 138, 139, 140, 141, 142, 143, 144, 145, 146, 147, 148, 149, 150, 151, 152, 153, 154, 155, 156, 157, 158, 159, 160, 161, 162, 163, 164, 165, 166, 167, 168, 169, 170, 171, 172, 173, 174, 175, 176, 177, 178, 179, 180, 181, 182, 183, 184, 185, 186, 187, 188, 189, 190, 191, 192, 193, 194, 195, 196, 197, 198, 199, 200, 201, 202, 203, 204, 205, 206, 207, 208, 209, 210, 211, 212, 213, 214, 215, 216, 217, 218, 219, 220, 221, 222, 223, 224, 225, 226, 227, 228, 229, 230, 231, 232, 233, 234, 235, 236, 237, 238, 239, 240, 241, 242, 243, 244, 245, 246, 247, 248, 249, 250, 251, 252, 253, 254, 255, 256, 257, 258, 259, 260, 261, 262, 263, 264, 265, 266, 267, 268, 269, 270, 271, 272, 273, 274, 275, 276, 277, 278, 279, 280, 281, 282, 283, 284, 285, 286, 287, 288, 289, 290, 291, 292, 293, 294, 295, 296, 297, 298, 299, 300, 301, 302, 303, 304, 305, 306, 307, 308, 309, 310, 311, 312, 313, 314, 315, 316, 317, 318, 319, 320, 321, 322, 323, 324, 325, 326, 327, 328, 329, 330, 331, 332, 333, 334, 335, 336, 337, 338, 339, 340, 341, 342, 343, 344, 345, 346, 347, 348, 349, 350, 351, 352, 353, 354, 355, 356, 357, 358, 359, 360, 361, 362, 363, 364, 365, 366, 367, 368, 369, 370, 371, 372, 373, 374, 375, 376, 377, 378, 379, 380, 381, 382, 383, 384, 385, 386],
      "AcquisitionTime": ["192907.242500", "192908.732500", "192910.222500", "192911.712500", "192913.202500", "192914.692500", "192916.182500", "192917.672500", "192919.162500", "192920.652500", "192922.142500", "192923.632500", "192925.122500", "192926.612500", "192928.102500", "192929.592500", "192931.082500", "192932.572500", "192934.062500", "192935.552500", "192937.042500", "192938.532500", "192940.022500", "192941.512500", "192943.002500", "192944.492500", "192945.982500", "192947.472500", "192948.962500", "192950.452500", "192951.942500", "192953.432500", "192954.922500", "192956.412500", "192957.902500", "192959.392500", "193000.882500", "193002.372500", "193003.862500", "193005.352500", "193006.842500", "193008.332500", "193009.822500", "193011.312500", "193012.802500", "193014.292500", "193015.782500", "193017.272500", "193018.762500", "193020.252500", "193021.742500", "193023.232500", "193024.722500", "193026.212500", "193027.702500", "193029.192500", "193030.682500", "193032.172500", "193033.662500", "193035.152500", "193036.642500", "193038.132500", "193039.622500", "193041.112500", "193042.602500", "193044.092500", "193045.582500", "193047.072500", "193048.562500", "193050.052500", "193051.542500", "193053.032500", "193054.522500", "193056.012500", "193057.502500", "193058.992500", "193100.482500", "193101.972500", "193103.462500", "193104.952500", "193106.442500", "193107.932500", "193109.422500", "193110.912500", "193112.402500", "193113.892500", "193115.382500", "193116.872500", "193118.362500", "193119.852500", "193121.342500", "193122.832500", "193124.322500", "193125.812500", "193127.302500", "193128.792500", "193130.282500", "193131.772500", "193133.262500", "193134.752500", "193136.242500", "193137.732500", "193139.222500", "193140.712500", "193142.202500", "193143.692500", "193145.182500", "193146.672500", "193148.162500", "193149.652500", "193151.142500", "193152.632500", "193154.122500", "193155.612500", "193157.102500", "193158.592500", "193200.082500", "193201.572500", "193203.062500", "193204.552500", "193206.042500", "193207.532500", "193209.022500", "193210.512500", "193212.002500", "193213.492500", "193214.982500", "193216.472500", "193217.962500", "193219.452500", "193220.942500", "193222.432500", "193223.922500", "193225.412500", "193226.902500", "193228.392500", "193229.882500", "193231.372500", "193232.862500", "193234.352500", "193235.842500", "193237.332500", "193238.822500", "193240.312500", "193241.802500", "193243.292500", "193244.782500", "193246.272500", "193247.762500", "193249.252500", "193250.742500", "193252.232500", "193253.722500", "193255.212500", "193256.702500", "193258.192500", "193259.682500", "193301.172500", "193302.662500", "193304.152500", "193305.642500", "193307.132500", "193308.622500", "193310.112500", "193311.602500", "193313.092500", "193314.582500", "193316.072500", "193317.562500", "193319.052500", "193320.542500", "193322.032500", "193323.522500", "193325.012500", "193326.502500", "193327.992500", "193329.482500", "193330.972500", "193332.462500", "193333.952500", "193335.442500", "193336.932500", "193338.422500", "193339.912500", "193341.402500", "193342.892500", "193344.382500", "193345.872500", "193347.362500", "193348.852500", "193350.342500", "193351.832500", "193353.322500", "193354.812500", "193356.302500", "193357.792500", "193359.282500", "193400.772500", "193402.262500", "193403.752500", "193405.242500", "193406.732500", "193408.222500", "193409.712500", "193411.202500", "193412.692500", "193414.182500", "193415.672500", "193417.162500", "193418.652500", "193420.142500", "193421.632500", "193423.122500", "193424.612500", "193426.102500", "193427.592500", "193429.082500", "193430.572500", "193432.062500", "193433.552500", "193435.042500", "193436.532500", "193438.022500", "193439.512500", "193441.002500", "193442.492500", "193443.982500", "193445.472500", "193446.962500", "193448.452500", "193449.942500", "193451.432500", "193452.922500", "193454.412500", "193455.902500", "193457.392500", "193458.882500", "193500.372500", "193501.862500", "193503.352500", "193504.842500", "193506.332500", "193507.822500", "193509.312500", "193510.802500", "193512.292500", "193513.782500", "193515.272500", "193516.762500", "193518.252500", "193519.742500", "193521.232500", "193522.722500", "193524.212500", "193525.702500", "193527.192500", "193528.682500", "193530.172500", "193531.662500", "193533.152500", "193534.642500", "193536.132500", "193537.622500", "193539.112500", "193540.602500", "193542.092500", "193543.582500", "193545.072500", "193546.562500", "193548.052500", "193549.542500", "193551.032500", "193552.522500", "193554.012500", "193555.502500", "193556.992500", "193558.482500", "193559.972500", "193601.462500", "193602.952500", "193604.442500", "193605.932500", "193607.422500", "193608.912500", "193610.402500", "193611.892500", "193613.382500", "193614.872500", "193616.362500", "193617.852500", "193619.342500", "193620.832500", "193622.322500", "193623.812500", "193625.302500", "193626.792500", "193628.282500", "193629.772500", "193631.262500", "193632.752500", "193634.242500", "193635.732500", "193637.222500", "193638.712500", "193640.202500", "193641.692500", "193643.182500", "193644.672500", "193646.162500", "193647.652500", "193649.142500", "193650.632500", "193652.122500", "193653.612500", "193655.102500", "193656.592500", "193658.082500", "193659.572500", "193701.062500", "193702.552500", "193704.042500", "193705.532500", "193707.022500", "193708.512500", "193710.002500", "193711.492500", "193712.982500", "193714.472500", "193715.962500", "193717.452500", "193718.942500", "193720.432500", "193721.922500", "193723.412500", "193724.902500", "193726.392500", "193727.882500", "193729.372500", "193730.862500", "193732.352500", "193733.842500", "193735.332500", "193736.822500", "193738.312500", "193739.802500", "193741.292500", "193742.782500", "193744.272500", "193745.762500", "193747.252500", "193748.742500", "193750.232500", "193751.722500", "193753.212500", "193754.702500", "193756.192500", "193757.682500", "193759.172500", "193800.662500", "193802.152500", "193803.642500", "193805.132500", "193806.622500", "193808.112500", "193809.602500", "193811.092500", "193812.582500", "193814.072500", "193815.562500", "193817.052500", "193818.542500", "193820.032500", "193821.522500", "193823.012500", "193824.502500", "193825.992500", "193827.482500", "193828.972500", "193830.462500", "193831.952500", "193833.442500", "193834.932500", "193836.422500", "193837.912500", "193839.402500", "193840.892500"],
      "ContentTime": ["193007.731000", "193007.735000", "193007.743000", "193007.746000", "193007.750000", "193007.755000", "193007.758000", "193007.767000", "193007.771000", "193007.774000", "193007.777000", "193007.781000", "193027.690000", "193027.695000", "193027.698000", "193027.702000", "193027.705000", "193027.712000", "193027.715000", "193027.719000", "193027.722000", "193027.725000", "193027.729000", "193027.732000", "193027.735000", "193027.739000", "193027.742000", "193027.745000", "193027.748000", "193027.752000", "193027.755000", "193027.758000", "193047.690000", "193047.694000", "193047.698000", "193047.701000", "193047.705000", "193047.708000", "193047.712000", "193047.715000", "193047.719000", "193047.722000", "193047.726000", "193047.729000", "193047.732000", "193047.735000", "193047.739000", "193047.742000", "193047.745000", "193047.749000", "193047.752000", "193047.755000", "193107.690000", "193107.694000", "193107.697000", "193107.700000", "193107.704000", "193107.707000", "193107.728000", "193107.731000", "193107.734000", "193107.738000", "193107.741000", "193107.744000", "193107.747000", "193107.751000", "193107.754000", "193107.757000", "193107.761000", "193107.764000", "193107.767000", "193107.771000", "193107.774000", "193127.689000", "193127.693000", "193127.696000", "193127.699000", "193127.703000", "193127.706000", "193127.709000", "193127.712000", "193127.716000", "193127.719000", "193127.722000", "193127.726000", "193127.729000", "193127.732000", "193127.735000", "193127.739000", "193127.742000", "193127.745000", "193127.748000", "193127.752000", "193207.689000", "193207.693000", "193207.696000", "193207.699000", "193207.703000", "193207.706000", "193207.709000", "193207.713000", "193207.716000", "193207.719000", "193207.723000", "193207.726000", "193207.729000", "193207.732000", "193207.736000", "193207.739000", "193207.742000", "193207.746000", "193207.749000", "193207.752000", "193207.756000", "193207.759000", "193207.762000", "193207.765000", "193207.769000", "193207.772000", "193207.775000", "193247.690000", "193247.694000", "193247.697000", "193247.701000", "193247.704000", "193247.707000", "193247.711000", "193247.714000", "193247.717000", "193247.721000", "193247.724000", "193247.727000", "193247.731000", "193247.734000", "193247.737000", "193247.740000", "193247.744000", "193247.747000", "193247.750000", "193247.754000", "193247.757000", "193247.760000", "193247.763000", "193247.767000", "193247.770000", "193247.773000", "193247.777000", "193327.689000", "193327.693000", "193327.696000", "193327.700000", "193327.703000", "193327.706000", "193327.710000", "193327.713000", "193327.716000", "193327.720000", "193327.723000", "193327.726000", "193327.730000", "193327.733000", "193327.736000", "193327.739000", "193327.755000", "193327.758000", "193327.761000", "193327.765000", "193327.768000", "193327.771000", "193327.775000", "193327.778000", "193327.781000", "193327.784000", "193327.788000", "193407.689000", "193407.693000", "193407.696000", "193407.699000", "193407.703000", "193407.706000", "193407.710000", "193407.713000", "193407.716000", "193407.720000", "193407.723000", "193407.726000", "193407.729000", "193407.733000", "193407.736000", "193407.739000", "193407.743000", "193407.746000", "193407.749000", "193407.753000", "193407.756000", "193407.759000", "193407.762000", "193407.766000", "193407.769000", "193407.772000", "193407.776000", "193447.689000", "193447.693000", "193447.696000", "193447.700000", "193447.703000", "193447.706000", "193447.710000", "193447.713000", "193447.716000", "193447.720000", "193447.723000", "193447.726000", "193447.730000", "193447.733000", "193447.736000", "193447.740000", "193447.743000", "193447.746000", "193447.750000", "193447.753000", "193447.756000", "193447.760000", "193447.763000", "193447.766000", "193447.770000", "193447.773000", "193527.690000", "193527.694000", "193527.697000", "193527.701000", "193527.704000", "193527.707000", "193527.710000", "193527.714000", "193527.717000", "193527.720000", "193527.724000", "193527.727000", "193527.730000", "193527.734000", "193527.737000", "193527.740000", "193527.744000", "193527.747000", "193527.750000", "193527.753000", "193527.757000", "193527.760000", "193527.763000", "193527.767000", "193527.770000", "193527.773000", "193527.788000", "193607.689000", "193607.697000", "193607.700000", "193607.704000", "193607.707000", "193607.711000", "193607.714000", "193607.717000", "193607.721000", "193607.724000", "193607.728000", "193607.731000", "193607.734000", "193607.738000", "193607.741000", "193607.744000", "193607.748000", "193607.751000", "193607.754000", "193607.758000", "193607.761000", "193607.764000", "193607.768000", "193607.771000", "193607.774000", "193607.777000", "193607.781000", "193647.689000", "193647.693000", "193647.696000", "193647.700000", "193647.703000", "193647.706000", "193647.710000", "193647.713000", "193647.716000", "193647.720000", "193647.723000", "193647.726000", "193647.730000", "193647.733000", "193647.736000", "193647.740000", "193647.743000", "193647.746000", "193647.749000", "193647.753000", "193647.756000", "193647.759000", "193647.763000", "193647.766000", "193647.769000", "193647.773000", "193647.776000", "193727.690000", "193727.694000", "193727.697000", "193727.701000", "193727.704000", "193727.707000", "193727.711000", "193727.714000", "193727.717000", "193727.721000", "193727.724000", "193727.727000", "193727.731000", "193727.734000", "193727.738000", "193727.741000", "193727.744000", "193727.747000", "193727.751000", "193727.754000", "193727.758000", "193727.761000", "193727.764000", "193727.768000", "193727.771000", "193727.775000", "193727.778000", "193807.689000", "193807.693000", "193807.707000", "193807.710000", "193807.714000", "193807.717000", "193807.720000", "193807.724000", "193807.727000", "193807.730000", "193807.734000", "193807.737000", "193807.740000", "193807.744000", "193807.747000", "193807.750000", "193807.754000", "193807.757000", "193807.760000", "193807.764000", "193807.767000", "193807.771000", "193807.774000", "193807.777000", "193807.780000", "193807.784000", "193807.787000", "193827.689000", "193827.693000", "193827.696000", "193827.700000", "193827.703000", "193827.706000", "193827.710000", "193827.713000", "193827.716000", "193827.720000", "193827.723000", "193827.726000", "193827.730000", "193843.359000", "193843.363000", "193843.366000", "193843.369000", "193843.373000", "193843.376000", "193843.379000", "193843.382000", "193843.386000", "193843.389000", "193843.392000"],
      "InstanceCreationTime": ["193007.731000", "193007.735000", "193007.743000", "193007.746000", "193007.750000", "193007.755000", "193007.758000", "193007.767000", "193007.771000", "193007.774000", "193007.777000", "193007.781000", "193027.690000", "193027.695000", "193027.698000", "193027.702000", "193027.705000", "193027.712000", "193027.715000", "193027.719000", "193027.722000", "193027.725000", "193027.729000", "193027.732000", "193027.735000", "193027.739000", "193027.742000", "193027.745000", "193027.748000", "193027.752000", "193027.755000", "193027.758000", "193047.690000", "193047.694000", "193047.698000", "193047.701000", "193047.705000", "193047.708000", "193047.712000", "193047.715000", "193047.719000", "193047.722000", "193047.726000", "193047.729000", "193047.732000", "193047.735000", "193047.739000", "193047.742000", "193047.745000", "193047.749000", "193047.752000", "193047.755000", "193107.690000", "193107.694000", "193107.697000", "193107.700000", "193107.704000", "193107.707000", "193107.728000", "193107.731000", "193107.734000", "193107.738000", "193107.741000", "193107.744000", "193107.747000", "193107.751000", "193107.754000", "193107.757000", "193107.761000", "193107.764000", "193107.767000", "193107.771000", "193107.774000", "193127.689000", "193127.693000", "193127.696000", "193127.699000", "193127.703000", "193127.706000", "193127.709000", "193127.712000", "193127.716000", "193127.719000", "193127.722000", "193127.726000", "193127.729000", "193127.732000", "193127.735000", "193127.739000", "193127.742000", "193127.745000", "193127.748000", "193127.752000", "193207.689000", "193207.693000", "193207.696000", "193207.699000", "193207.703000", "193207.706000", "193207.709000", "193207.713000", "193207.716000", "193207.719000", "193207.723000", "193207.726000", "193207.729000", "193207.732000", "193207.736000", "193207.739000", "193207.742000", "193207.746000", "193207.749000", "193207.752000", "193207.756000", "193207.759000", "193207.762000", "193207.765000", "193207.769000", "193207.772000", "193207.775000", "193247.690000", "193247.694000", "193247.697000", "193247.701000", "193247.704000", "193247.707000", "193247.711000", "193247.714000", "193247.717000", "193247.721000", "193247.724000", "193247.727000", "193247.731000", "193247.734000", "193247.737000", "193247.740000", "193247.744000", "193247.747000", "193247.750000", "193247.754000", "193247.757000", "193247.760000", "193247.763000", "193247.767000", "193247.770000", "193247.773000", "193247.777000", "193327.689000", "193327.693000", "193327.696000", "193327.700000", "193327.703000", "193327.706000", "193327.710000", "193327.713000", "193327.716000", "193327.720000", "193327.723000", "193327.726000", "193327.730000", "193327.733000", "193327.736000", "193327.739000", "193327.755000", "193327.758000", "193327.761000", "193327.765000", "193327.768000", "193327.771000", "193327.775000", "193327.778000", "193327.781000", "193327.784000", "193327.788000", "193407.689000", "193407.693000", "193407.696000", "193407.699000", "193407.703000", "193407.706000", "193407.710000", "193407.713000", "193407.716000", "193407.720000", "193407.723000", "193407.726000", "193407.729000", "193407.733000", "193407.736000", "193407.739000", "193407.743000", "193407.746000", "193407.749000", "193407.753000", "193407.756000", "193407.759000", "193407.762000", "193407.766000", "193407.769000", "193407.772000", "193407.776000", "193447.689000", "193447.693000", "193447.696000", "193447.700000", "193447.703000", "193447.706000", "193447.710000", "193447.713000", "193447.716000", "193447.720000", "193447.723000", "193447.726000", "193447.730000", "193447.733000", "193447.736000", "193447.740000", "193447.743000", "193447.746000", "193447.750000", "193447.753000", "193447.756000", "193447.760000", "193447.763000", "193447.766000", "193447.770000", "193447.773000", "193527.690000", "193527.694000", "193527.697000", "193527.701000", "193527.704000", "193527.707000", "193527.710000", "193527.714000", "193527.717000", "193527.720000", "193527.724000", "193527.727000", "193527.730000", "193527.734000", "193527.737000", "193527.740000", "193527.744000", "193527.747000", "193527.750000", "193527.753000", "193527.757000", "193527.760000", "193527.763000", "193527.767000", "193527.770000", "193527.773000", "193527.788000", "193607.689000", "193607.697000", "193607.700000", "193607.704000", "193607.707000", "193607.711000", "193607.714000", "193607.717000", "193607.721000", "193607.724000", "193607.728000", "193607.731000", "193607.734000", "193607.738000", "193607.741000", "193607.744000", "193607.748000", "193607.751000", "193607.754000", "193607.758000", "193607.761000", "193607.764000", "193607.768000", "193607.771000", "193607.774000", "193607.777000", "193607.781000", "193647.689000", "193647.693000", "193647.696000", "193647.700000", "193647.703000", "193647.706000", "193647.710000", "193647.713000", "193647.716000", "193647.720000", "193647.723000", "193647.726000", "193647.730000", "193647.733000", "193647.736000", "193647.740000", "193647.743000", "193647.746000", "193647.749000", "193647.753000", "193647.756000", "193647.759000", "193647.763000", "193647.766000", "193647.769000", "193647.773000", "193647.776000", "193727.690000", "193727.694000", "193727.697000", "193727.701000", "193727.704000", "193727.707000", "193727.711000", "193727.714000", "193727.717000", "193727.721000", "193727.724000", "193727.727000", "193727.731000", "193727.734000", "193727.738000", "193727.741000", "193727.744000", "193727.747000", "193727.751000", "193727.754000", "193727.758000", "193727.761000", "193727.764000", "193727.768000", "193727.771000", "193727.775000", "193727.778000", "193807.689000", "193807.693000", "193807.707000", "193807.710000", "193807.714000", "193807.717000", "193807.720000", "193807.724000", "193807.727000", "193807.730000", "193807.734000", "193807.737000", "193807.740000", "193807.744000", "193807.747000", "193807.750000", "193807.754000", "193807.757000", "193807.760000", "193807.764000", "193807.767000", "193807.771000", "193807.774000", "193807.777000", "193807.780000", "193807.784000", "193807.787000", "193827.689000", "193827.693000", "193827.696000", "193827.700000", "193827.703000", "193827.706000", "193827.710000", "193827.713000", "193827.716000", "193827.720000", "193827.723000", "193827.726000", "193827.730000", "193843.359000", "193843.363000", "193843.366000", "193843.369000", "193843.373000", "193843.376000", "193843.379000", "193843.382000", "193843.386000", "193843.389000", "193843.392000"],
      "InstanceNumber": [1, 2, 3, 4, 5, 6, 7, 8, 9, 10, 11, 12, 13, 14, 15, 16, 17, 18, 19, 20, 21, 22, 23, 24, 25, 26, 27, 28, 29, 30, 31, 32, 33, 34, 35, 36, 37, 38, 39, 40, 41, 42, 43, 44, 45, 46, 47, 48, 49, 50, 51, 52, 53, 54, 55, 56, 57, 58, 59, 60, 61, 62, 63, 64, 65, 66, 67, 68, 69, 70, 71, 72, 73, 74, 75, 76, 77, 78, 79, 80, 81, 82, 83, 84, 85, 86, 87, 88, 89, 90, 91, 92, 93, 94, 95, 96, 97, 98, 99, 100, 101, 102, 103, 104, 105, 106, 107, 108, 109, 110, 111, 112, 113, 114, 115, 116, 117, 118, 119, 120, 121, 122, 123, 124, 125, 126, 127, 128, 129, 130, 131, 132, 133, 134, 135, 136, 137, 138, 139, 140, 141, 142, 143, 144, 145, 146, 147, 148, 149, 150, 151, 152, 153, 154, 155, 156, 157, 158, 159, 160, 161, 162, 163, 164, 165, 166, 167, 168, 169, 170, 171, 172, 173, 174, 175, 176, 177, 178, 179, 180, 181, 182, 183, 184, 185, 186, 187, 188, 189, 190, 191, 192, 193, 194, 195, 196, 197, 198, 199, 200, 201, 202, 203, 204, 205, 206, 207, 208, 209, 210, 211, 212, 213, 214, 215, 216, 217, 218, 219, 220, 221, 222, 223, 224, 225, 226, 227, 228, 229, 230, 231, 232, 233, 234, 235, 236, 237, 238, 239, 240, 241, 242, 243, 244, 245, 246, 247, 248, 249, 250, 251, 252, 253, 254, 255, 256, 257, 258, 259, 260, 261, 262, 263, 264, 265, 266, 267, 268, 269, 270, 271, 272, 273, 274, 275, 276, 277, 278, 279, 280, 281, 282, 283, 284, 285, 286, 287, 288, 289, 290, 291, 292, 293, 294, 295, 296, 297, 298, 299, 300, 301, 302, 303, 304, 305, 306, 307, 308, 309, 310, 311, 312, 313, 314, 315, 316, 317, 318, 319, 320, 321, 322, 323, 324, 325, 326, 327, 328, 329, 330, 331, 332, 333, 334, 335, 336, 337, 338, 339, 340, 341, 342, 343, 344, 345, 346, 347, 348, 349, 350, 351, 352, 353, 354, 355, 356, 357, 358, 359, 360, 361, 362, 363, 364, 365, 366, 367, 368, 369, 370, 371, 372, 373, 374, 375, 376, 377, 378, 379, 380, 381, 382, 383, 384, 385, 386],
