{
  "AcquisitionMatrixPE": 104,
  "AcquisitionNumber": 1,
  "AcquisitionTime": "19:01:41.405000",
  "BandwidthPerPixelPhaseEncode": 17.17,
  "BaseResolution": 104,
  "BodyPartExamined": "BRAIN",
  "CoilCombinationMethod": "Sum of Squares",
  "ConsistencyInfo": "N4_VE11C_LATEST_20160120",
  "ConversionSoftware": "dcm2niix",
  "ConversionSoftwareVersion": "v1.0.20220505",
  "DerivedVendorReportedEchoSpacing": 0.000560011,
  "DeviceSerialNumber": "167006",
  "DwellTime": 2.1e-06,
  "EchoTime": 0.037,
  "EchoTime1": 0.037,
  "EchoTime2": 0.001,
  "EchoTrainLength": 104,
  "EffectiveEchoSpacing": 0.000560011,
  "FlipAngle": 52,
  "HeudiconvVersion": "0.5.3.post811+g6206e14",
  "ImageComments": "Unaliased MB4/PE3/LB",
  "ImageOrientationPatientDICOM": [0.999623, -0.0114989, 0.0249291, 0.0195428, 0.9358, -0.35199],
  "ImageOrientationText": "Tra>Cor(-20.6)>Sag(1.1)",
  "ImageType": [
    "ORIGINAL",
    "PRIMARY",
    "P",
    "MB",
    "ND",
    "MOSAIC",
    "PHASE"
],
  "ImagingFrequency": 123.259,
  "InPlanePhaseEncodingDirectionDICOM": "COL",
  "InstitutionAddress": "Chemin Queen-Mary 4565,Montreal,District,CA,H3W 1W5",
  "InstitutionName": "IUGM",
  "InstitutionalDepartmentName": "Department",
  "MRAcquisitionType": "2D",
  "MagneticFieldStrength": 3,
  "Manufacturer": "Siemens",
  "ManufacturersModelName": "Prisma_fit",
  "MatrixCoilMode": "SENSE",
  "Modality": "MR",
  "MultibandAccelerationFactor": 4,
  "PartialFourier": 1,
  "PatientPosition": "HFS",
  "PercentPhaseFOV": 100,
  "PercentSampling": 100,
  "PhaseEncodingDirection": "j",
  "PhaseEncodingSteps": 104,
  "PhaseResolution": 1,
  "PixelBandwidth": 2290,
  "ProcedureStepDescription": "games^mario3",
  "ProtocolName": "func_task-mario3_run-02",
  "PulseSequenceDetails": "%CustomerSeq%\\cmrr_mbep2d_bold",
  "ReceiveCoilActiveElements": "HC1-7;NC1,2",
  "ReceiveCoilName": "HeadNeck_64",
  "ReconMatrixPE": 104,
  "RepetitionTime": 1.49,
  "SAR": 0.0725356,
  "ScanOptions": "FS",
  "ScanningSequence": "EP",
  "SequenceName": "epfid2d1_104",
  "SequenceVariant": "SK\\SS",
  "SeriesDescription": "func_task-mario3_run-02",
  "SeriesNumber": 14,
  "ShimSetting": [595, -7294, -8797, 410, 31, -346, -40, 63],
  "SliceThickness": 2,
  "SliceTiming": [0, 0.785, 0.1, 0.8825, 0.1975, 0.98, 0.295, 1.08, 0.3925, 1.1775, 0.49, 1.275, 0.59, 1.3725, 0.6875, 0, 0.785, 0.1, 0.8825, 0.1975, 0.98, 0.295, 1.08, 0.3925, 1.1775, 0.49, 1.275, 0.59, 1.3725, 0.6875, 0, 0.785, 0.1, 0.8825, 0.1975, 0.98, 0.295, 1.08, 0.3925, 1.1775, 0.49, 1.275, 0.59, 1.3725, 0.6875, 0, 0.785, 0.1, 0.8825, 0.1975, 0.98, 0.295, 1.08, 0.3925, 1.1775, 0.49, 1.275, 0.59, 1.3725, 0.6875],
  "SoftwareVersions": "syngo MR E11",
  "SpacingBetweenSlices": 2,
  "StationName": "MRC35049",
  "TaskName": "mario3",
  "TotalReadoutTime": 0.0576811,
  "TxRefAmp": 289.133,
  "WipMemBlock": "d98716cb-b594-4a1c-82bd-ae8e9e42ab52||Sequence: R017 ve11c/master r/75a17815+; Jun 28 2022 16:32:11 by eja",
  "dcmmeta_affine": [
    [-1.9992461204528809, 0.03908564895391464, 0.038562316447496414, 100.82984161376953],
    [0.022997811436653137, 1.871599793434143, -0.7046880722045898, -71.35917663574219],
    [0.049858205020427704, 0.7039790153503418, 1.8713438510894775, -57.700199127197266],
    [0.0, 0.0, 0.0, 1.0]
],
  "dcmmeta_reorient_transform": [
    [0.0, -1.0, 0.0, 103.0],
    [1.0, 0.0, 0.0, 0.0],
    [0.0, 0.0, 1.0, 0.0],
    [0.0, 0.0, 0.0, 1.0]
],
  "dcmmeta_shape": [104, 104, 60, 338],
  "dcmmeta_slice_dim": 2,
  "dcmmeta_version": 0.6,
  "global": {
    "const": {
      "AcquisitionMatrix": [104, 0, 0, 104],
      "AngioFlag": "N",
      "BitsAllocated": 16,
      "BitsStored": 16,
      "BodyPartExamined": "BRAIN",
      "Columns": 832,
      "EchoNumbers": 1,
      "EchoTime": 37.0,
      "EchoTrainLength": 104,
      "FlipAngle": 52.0,
      "HighBit": 15,
      "ImageOrientationPatient": [0.99962308647452, -0.0114989061639, 0.02492910235416, 0.0195428238097, 0.93579990477246, -0.3519895115843],
      "ImagePositionPatient": [-846.80844885549, -794.30672849549, 252.90961723001],
      "ImageType": [
        "ORIGINAL",
        "PRIMARY",
        "P",
        "MB",
        "ND",
        "MOSAIC"
],
      "ImagedNucleus": "1H",
      "ImagingFrequency": 123.258975,
      "InPlanePhaseEncodingDirection": "COL",
      "LargestImagePixelValue": 4095,
      "MRAcquisitionType": "2D",
      "MagneticFieldStrength": 3.0,
      "Manufacturer": "SIEMENS",
      "ManufacturerModelName": "Prisma_fit",
      "Modality": "MR",
      "NumberOfAverages": 1.0,
      "NumberOfPhaseEncodingSteps": 104,
      "PercentPhaseFieldOfView": 100.0,
      "PercentSampling": 100.0,
      "PerformedProcedureStepStartTime": "183831.130000",
      "PhotometricInterpretation": "MONOCHROME2",
      "PixelBandwidth": 2290.0,
      "PixelRepresentation": 0,
      "PixelSpacing": [2.0, 2.0],
      "ProtocolName": "func_task-mario3_run-02",
      "RepetitionTime": 1490.0,
      "RescaleIntercept": -4096.0,
      "RescaleSlope": 2.0,
      "RescaleType": "US",
      "Rows": 832,
      "SAR": 0.07253558514195,
      "SamplesPerPixel": 1,
      "ScanOptions": "FS",
      "ScanningSequence": "EP",
      "SequenceName": "epfid2d1_104",
      "SequenceVariant": [
        "SK",
        "SS"
],
      "SeriesDescription": "func_task-mario3_run-02",
      "SeriesNumber": 14,
      "SeriesTime": "190257.934000",
      "SliceLocation": -26.901359889195,
      "SliceThickness": 2.0,
      "SmallestImagePixelValue": 0,
      "SoftwareVersions": "syngo MR E11",
      "SpacingBetweenSlices": 2.0000000181618,
      "SpecificCharacterSet": "ISO_IR 100",
      "StudyID": "1",
      "StudyTime": "183831.060000",
      "TransmitCoilName": "Body",
      "VariableFlipAngleFlag": "N",
      "WindowCenterWidthExplanation": "Algo1",
      "dBdt": 0.0},
    "slices": {}
  },
  "time": {
    "samples": {
      "AcquisitionNumber": [1, 2, 3, 4, 5, 6, 7, 8, 9, 10, 11, 12, 13, 14, 15, 16, 17, 18, 19, 20, 21, 22, 23, 24, 25, 26, 27, 28, 29, 30, 31, 32, 33, 34, 35, 36, 37, 38, 39, 40, 41, 42, 43, 44, 45, 46, 47, 48, 49, 50, 51, 52, 53, 54, 55, 56, 57, 58, 59, 60, 61, 62, 63, 64, 65, 66, 67, 68, 69, 70, 71, 72, 73, 74, 75, 76, 77, 78, 79, 80, 81, 82, 83, 84, 85, 86, 87, 88, 89, 90, 91, 92, 93, 94, 95, 96, 97, 98, 99, 100, 101, 102, 103, 104, 105, 106, 107, 108, 109, 110, 111, 112, 113, 114, 115, 116, 117, 118, 119, 120, 121, 122, 123, 124, 125, 126, 127, 128, 129, 130, 131, 132, 133, 134, 135, 136, 137, 138, 139, 140, 141, 142, 143, 144, 145, 146, 147, 148, 149, 150, 151, 152, 153, 154, 155, 156, 157, 158, 159, 160, 161, 162, 163, 164, 165, 166, 167, 168, 169, 170, 171, 172, 173, 174, 175, 176, 177, 178, 179, 180, 181, 182, 183, 184, 185, 186, 187, 188, 189, 190, 191, 192, 193, 194, 195, 196, 197, 198, 199, 200, 201, 202, 203, 204, 205, 206, 207, 208, 209, 210, 211, 212, 213, 214, 215, 216, 217, 218, 219, 220, 221, 222, 223, 224, 225, 226, 227, 228, 229, 230, 231, 232, 233, 234, 235, 236, 237, 238, 239, 240, 241, 242, 243, 244, 245, 246, 247, 248, 249, 250, 251, 252, 253, 254, 255, 256, 257, 258, 259, 260, 261, 262, 263, 264, 265, 266, 267, 268, 269, 270, 271, 272, 273, 274, 275, 276, 277, 278, 279, 280, 281, 282, 283, 284, 285, 286, 287, 288, 289, 290, 291, 292, 293, 294, 295, 296, 297, 298, 299, 300, 301, 302, 303, 304, 305, 306, 307, 308, 309, 310, 311, 312, 313, 314, 315, 316, 317, 318, 319, 320, 321, 322, 323, 324, 325, 326, 327, 328, 329, 330, 331, 332, 333, 334, 335, 336, 337, 338],
      "AcquisitionTime": ["190141.405000", "190142.895000", "190144.385000", "190145.875000", "190147.365000", "190148.855000", "190150.345000", "190151.835000", "190153.325000", "190154.815000", "190156.305000", "190157.795000", "190159.285000", "190200.775000", "190202.265000", "190203.755000", "190205.245000", "190206.735000", "190208.225000", "190209.715000", "190211.205000", "190212.695000", "190214.185000", "190215.675000", "190217.165000", "190218.655000", "190220.145000", "190221.635000", "190223.125000", "190224.615000", "190226.105000", "190227.595000", "190229.085000", "190230.575000", "190232.065000", "190233.555000", "190235.045000", "190236.535000", "190238.025000", "190239.515000", "190241.005000", "190242.495000", "190243.985000", "190245.475000", "190246.965000", "190248.455000", "190249.945000", "190251.435000", "190252.925000", "190254.415000", "190255.905000", "190257.395000", "190258.885000", "190300.375000", "190301.865000", "190303.355000", "190304.845000", "190306.335000", "190307.825000", "190309.315000", "190310.805000", "190312.295000", "190313.785000", "190315.275000", "190316.765000", "190318.255000", "190319.745000", "190321.235000", "190322.725000", "190324.215000", "190325.705000", "190327.195000", "190328.685000", "190330.175000", "190331.665000", "190333.155000", "190334.645000", "190336.135000", "190337.625000", "190339.115000", "190340.605000", "190342.095000", "190343.585000", "190345.075000", "190346.565000", "190348.055000", "190349.545000", "190351.035000", "190352.525000", "190354.015000", "190355.505000", "190356.995000", "190358.485000", "190359.975000", "190401.465000", "190402.955000", "190404.445000", "190405.935000", "190407.425000", "190408.915000", "190410.405000", "190411.895000", "190413.385000", "190414.875000", "190416.365000", "190417.855000", "190419.345000", "190420.835000", "190422.325000", "190423.815000", "190425.305000", "190426.795000", "190428.285000", "190429.775000", "190431.265000", "190432.755000", "190434.245000", "190435.735000", "190437.225000", "190438.715000", "190440.205000", "190441.695000", "190443.185000", "190444.675000", "190446.165000", "190447.655000", "190449.145000", "190450.635000", "190452.125000", "190453.615000", "190455.105000", "190456.595000", "190458.085000", "190459.575000", "190501.065000", "190502.555000", "190504.045000", "190505.535000", "190507.025000", "190508.515000", "190510.005000", "190511.495000", "190512.985000", "190514.475000", "190515.965000", "190517.455000", "190518.945000", "190520.435000", "190521.925000", "190523.415000", "190524.905000", "190526.395000", "190527.885000", "190529.375000", "190530.865000", "190532.355000", "190533.845000", "190535.335000", "190536.825000", "190538.315000", "190539.805000", "190541.295000", "190542.785000", "190544.275000", "190545.765000", "190547.255000", "190548.745000", "190550.235000", "190551.725000", "190553.215000", "190554.705000", "190556.195000", "190557.685000", "190559.175000", "190600.665000", "190602.155000", "190603.645000", "190605.135000", "190606.625000", "190608.115000", "190609.605000", "190611.095000", "190612.585000", "190614.075000", "190615.565000", "190617.055000", "190618.545000", "190620.035000", "190621.525000", "190623.015000", "190624.505000", "190625.995000", "190627.485000", "190628.975000", "190630.465000", "190631.955000", "190633.445000", "190634.935000", "190636.425000", "190637.915000", "190639.405000", "190640.895000", "190642.385000", "190643.875000", "190645.365000", "190646.855000", "190648.345000", "190649.835000", "190651.325000", "190652.815000", "190654.305000", "190655.795000", "190657.285000", "190658.775000", "190700.265000", "190701.755000", "190703.245000", "190704.735000", "190706.225000", "190707.715000", "190709.205000", "190710.695000", "190712.185000", "190713.675000", "190715.165000", "190716.655000", "190718.145000", "190719.635000", "190721.125000", "190722.615000", "190724.105000", "190725.595000", "190727.085000", "190728.575000", "190730.065000", "190731.555000", "190733.045000", "190734.535000", "190736.025000", "190737.515000", "190739.005000", "190740.495000", "190741.985000", "190743.475000", "190744.965000", "190746.455000", "190747.945000", "190749.435000", "190750.925000", "190752.415000", "190753.905000", "190755.395000", "190756.885000", "190758.375000", "190759.865000", "190801.355000", "190802.845000", "190804.335000", "190805.825000", "190807.315000", "190808.805000", "190810.295000", "190811.785000", "190813.275000", "190814.765000", "190816.255000", "190817.745000", "190819.235000", "190820.725000", "190822.215000", "190823.705000", "190825.195000", "190826.685000", "190828.175000", "190829.665000", "190831.155000", "190832.645000", "190834.135000", "190835.625000", "190837.115000", "190838.605000", "190840.095000", "190841.585000", "190843.075000", "190844.565000", "190846.055000", "190847.545000", "190849.035000", "190850.525000", "190852.015000", "190853.505000", "190854.995000", "190856.485000", "190857.975000", "190859.465000", "190900.955000", "190902.445000", "190903.935000", "190905.425000", "190906.915000", "190908.405000", "190909.895000", "190911.385000", "190912.875000", "190914.365000", "190915.855000", "190917.345000", "190918.835000", "190920.325000", "190921.815000", "190923.305000", "190924.795000", "190926.285000", "190927.775000", "190929.265000", "190930.755000", "190932.245000", "190933.735000", "190935.225000", "190936.715000", "190938.205000", "190939.695000", "190941.185000", "190942.675000", "190944.165000", "190945.655000", "190947.145000", "190948.635000", "190950.125000", "190951.615000", "190953.105000", "190954.595000", "190956.085000", "190957.575000", "190959.065000", "191000.555000", "191002.045000", "191003.535000"],
      "ContentTime": ["190257.936000", "190257.938000", "190257.941000", "190257.943000", "190257.946000", "190257.949000", "190257.951000", "190257.953000", "190257.956000", "190257.958000", "190257.961000", "190257.963000", "190257.966000", "190257.968000", "190257.971000", "190257.973000", "190257.976000", "190257.978000", "190257.981000", "190257.983000", "190257.986000", "190257.989000", "190257.991000", "190257.994000", "190257.997000", "190258.000000", "190258.003000", "190258.013000", "190317.896000", "190317.899000", "190317.901000", "190317.904000", "190317.906000", "190317.909000", "190317.911000", "190317.914000", "190317.916000", "190317.919000", "190317.921000", "190317.924000", "190317.926000", "190317.928000", "190317.931000", "190317.934000", "190317.936000", "190317.939000", "190317.941000", "190317.944000", "190337.869000", "190337.872000", "190337.874000", "190337.877000", "190337.879000", "190337.882000", "190337.884000", "190337.887000", "190337.889000", "190337.892000", "190337.894000", "190337.897000", "190337.899000", "190337.902000", "190337.904000", "190337.907000", "190337.909000", "190337.912000", "190337.914000", "190337.917000", "190337.919000", "190357.868000", "190357.871000", "190357.873000", "190357.881000", "190357.884000", "190357.886000", "190357.889000", "190357.891000", "190357.894000", "190357.896000", "190357.899000", "190357.901000", "190357.904000", "190357.906000", "190357.908000", "190357.911000", "190357.913000", "190357.916000", "190357.918000", "190357.921000", "190438.413000", "190438.415000", "190438.418000", "190438.420000", "190438.423000", "190438.425000", "190438.428000", "190438.430000", "190438.433000", "190438.435000", "190438.438000", "190438.440000", "190438.443000", "190438.445000", "190438.448000", "190438.450000", "190438.453000", "190438.455000", "190438.458000", "190438.460000", "190438.463000", "190438.465000", "190438.468000", "190438.470000", "190438.473000", "190438.475000", "190438.478000", "190438.480000", "190517.912000", "190517.915000", "190517.919000", "190517.922000", "190517.925000", "190517.927000", "190517.930000", "190517.932000", "190517.935000", "190517.937000", "190517.940000", "190517.942000", "190517.945000", "190517.947000", "190517.950000", "190517.952000", "190517.955000", "190517.957000", "190517.960000", "190517.962000", "190517.965000", "190517.967000", "190517.970000", "190517.972000", "190517.975000", "190517.977000", "190517.980000", "190557.893000", "190557.896000", "190557.898000", "190557.901000", "190557.904000", "190557.906000", "190557.909000", "190557.911000", "190557.914000", "190557.916000", "190557.919000", "190557.921000", "190557.924000", "190557.926000", "190557.929000", "190557.931000", "190557.934000", "190557.936000", "190557.939000", "190557.941000", "190557.944000", "190557.946000", "190557.948000", "190557.951000", "190557.953000", "190557.956000", "190557.958000", "190637.895000", "190637.898000", "190637.900000", "190637.903000", "190637.905000", "190637.908000", "190637.910000", "190637.913000", "190637.915000", "190637.918000", "190637.920000", "190637.923000", "190637.925000", "190637.928000", "190637.930000", "190637.933000", "190637.935000", "190637.937000", "190637.940000", "190637.943000", "190637.945000", "190637.948000", "190637.950000", "190637.953000", "190637.955000", "190637.958000", "190637.960000", "190717.932000", "190717.934000", "190717.937000", "190717.939000", "190717.942000", "190717.945000", "190717.947000", "190717.950000", "190717.952000", "190717.955000", "190717.957000", "190717.960000", "190717.962000", "190717.965000", "190717.967000", "190717.970000", "190717.972000", "190717.974000", "190717.977000", "190717.979000", "190717.982000", "190717.985000", "190717.987000", "190717.989000", "190717.992000", "190717.994000", "190717.997000", "190757.888000", "190757.891000", "190757.894000", "190757.896000", "190757.899000", "190757.901000", "190757.904000", "190757.906000", "190757.909000", "190757.911000", "190757.914000", "190757.916000", "190757.919000", "190757.922000", "190757.924000", "190757.927000", "190757.929000", "190757.932000", "190757.934000", "190757.937000", "190757.939000", "190757.942000", "190757.944000", "190757.947000", "190757.949000", "190757.952000", "190757.954000", "190837.904000", "190837.907000", "190837.909000", "190837.912000", "190837.915000", "190837.917000", "190837.920000", "190837.922000", "190837.925000", "190837.927000", "190837.930000", "190837.932000", "190837.935000", "190837.938000", "190837.940000", "190837.943000", "190837.945000", "190837.948000", "190837.950000", "190837.953000", "190837.955000", "190837.958000", "190837.960000", "190837.963000", "190837.967000", "190837.970000", "190837.973000", "190917.900000", "190917.903000", "190917.906000", "190917.909000", "190917.911000", "190917.914000", "190917.917000", "190917.919000", "190917.922000", "190917.925000", "190917.927000", "190917.930000", "190917.932000", "190917.939000", "190917.942000", "190917.944000", "190917.947000", "190917.949000", "190917.952000", "190917.955000", "190917.957000", "190917.960000", "190917.962000", "190917.965000", "190917.967000", "190917.980000", "190957.903000", "190957.905000", "190957.908000", "190957.910000", "190957.913000", "190957.915000", "190957.918000", "190957.920000", "190957.923000", "190957.925000", "190957.928000", "190957.930000", "190957.933000", "190957.935000", "190957.938000", "190957.940000", "190957.943000", "190957.945000", "190957.948000", "190957.950000", "190957.953000", "190957.955000", "190957.958000", "190957.960000", "190957.963000", "190957.965000", "190957.968000", "191006.402000", "191006.404000", "191006.407000", "191006.409000", "191006.412000", "191006.415000"],
      "InstanceCreationTime": ["190257.936000", "190257.938000", "190257.941000", "190257.943000", "190257.946000", "190257.949000", "190257.951000", "190257.953000", "190257.956000", "190257.958000", "190257.961000", "190257.963000", "190257.966000", "190257.968000", "190257.971000", "190257.973000", "190257.976000", "190257.978000", "190257.981000", "190257.983000", "190257.986000", "190257.989000", "190257.991000", "190257.994000", "190257.997000", "190258.000000", "190258.003000", "190258.013000", "190317.896000", "190317.899000", "190317.901000", "190317.904000", "190317.906000", "190317.909000", "190317.911000", "190317.914000", "190317.916000", "190317.919000", "190317.921000", "190317.924000", "190317.926000", "190317.928000", "190317.931000", "190317.934000", "190317.936000", "190317.939000", "190317.941000", "190317.944000", "190337.869000", "190337.872000", "190337.874000", "190337.877000", "190337.879000", "190337.882000", "190337.884000", "190337.887000", "190337.889000", "190337.892000", "190337.894000", "190337.897000", "190337.899000", "190337.902000", "190337.904000", "190337.907000", "190337.909000", "190337.912000", "190337.914000", "190337.917000", "190337.919000", "190357.868000", "190357.871000", "190357.873000", "190357.881000", "190357.884000", "190357.886000", "190357.889000", "190357.891000", "190357.894000", "190357.896000", "190357.899000", "190357.901000", "190357.904000", "190357.906000", "190357.908000", "190357.911000", "190357.913000", "190357.916000", "190357.918000", "190357.921000", "190438.413000", "190438.415000", "190438.418000", "190438.420000", "190438.423000", "190438.425000", "190438.428000", "190438.430000", "190438.433000", "190438.435000", "190438.438000", "190438.440000", "190438.443000", "190438.445000", "190438.448000", "190438.450000", "190438.453000", "190438.455000", "190438.458000", "190438.460000", "190438.463000", "190438.465000", "190438.468000", "190438.470000", "190438.473000", "190438.475000", "190438.478000", "190438.480000", "190517.912000", "190517.915000", "190517.919000", "190517.922000", "190517.925000", "190517.927000", "190517.930000", "190517.932000", "190517.935000", "190517.937000", "190517.940000", "190517.942000", "190517.945000", "190517.947000", "190517.950000", "190517.952000", "190517.955000", "190517.957000", "190517.960000", "190517.962000", "190517.965000", "190517.967000", "190517.970000", "190517.972000", "190517.975000", "190517.977000", "190517.980000", "190557.893000", "190557.896000", "190557.898000", "190557.901000", "190557.904000", "190557.906000", "190557.909000", "190557.911000", "190557.914000", "190557.916000", "190557.919000", "190557.921000", "190557.924000", "190557.926000", "190557.929000", "190557.931000", "190557.934000", "190557.936000", "190557.939000", "190557.941000", "190557.944000", "190557.946000", "190557.948000", "190557.951000", "190557.953000", "190557.956000", "190557.958000", "190637.895000", "190637.898000", "190637.900000", "190637.903000", "190637.905000", "190637.908000", "190637.910000", "190637.913000", "190637.915000", "190637.918000", "190637.920000", "190637.923000", "190637.925000", "190637.928000", "190637.930000", "190637.933000", "190637.935000", "190637.937000", "190637.940000", "190637.943000", "190637.945000", "190637.948000", "190637.950000", "190637.953000", "190637.955000", "190637.958000", "190637.960000", "190717.932000", "190717.934000", "190717.937000", "190717.939000", "190717.942000", "190717.945000", "190717.947000", "190717.950000", "190717.952000", "190717.955000", "190717.957000", "190717.960000", "190717.962000", "190717.965000", "190717.967000", "190717.970000", "190717.972000", "190717.974000", "190717.977000", "190717.979000", "190717.982000", "190717.985000", "190717.987000", "190717.989000", "190717.992000", "190717.994000", "190717.997000", "190757.888000", "190757.891000", "190757.894000", "190757.896000", "190757.899000", "190757.901000", "190757.904000", "190757.906000", "190757.909000", "190757.911000", "190757.914000", "190757.916000", "190757.919000", "190757.922000", "190757.924000", "190757.927000", "190757.929000", "190757.932000", "190757.934000", "190757.937000", "190757.939000", "190757.942000", "190757.944000", "190757.947000", "190757.949000", "190757.952000", "190757.954000", "190837.904000", "190837.907000", "190837.909000", "190837.912000", "190837.915000", "190837.917000", "190837.920000", "190837.922000", "190837.925000", "190837.927000", "190837.930000", "190837.932000", "190837.935000", "190837.938000", "190837.940000", "190837.943000", "190837.945000", "190837.948000", "190837.950000", "190837.953000", "190837.955000", "190837.958000", "190837.960000", "190837.963000", "190837.967000", "190837.970000", "190837.973000", "190917.900000", "190917.903000", "190917.906000", "190917.909000", "190917.911000", "190917.914000", "190917.917000", "190917.919000", "190917.922000", "190917.925000", "190917.927000", "190917.930000", "190917.932000", "190917.939000", "190917.942000", "190917.944000", "190917.947000", "190917.949000", "190917.952000", "190917.955000", "190917.957000", "190917.960000", "190917.962000", "190917.965000", "190917.967000", "190917.980000", "190957.903000", "190957.905000", "190957.908000", "190957.910000", "190957.913000", "190957.915000", "190957.918000", "190957.920000", "190957.923000", "190957.925000", "190957.928000", "190957.930000", "190957.933000", "190957.935000", "190957.938000", "190957.940000", "190957.943000", "190957.945000", "190957.948000", "190957.950000", "190957.953000", "190957.955000", "190957.958000", "190957.960000", "190957.963000", "190957.965000", "190957.968000", "191006.402000", "191006.404000", "191006.407000", "191006.409000", "191006.412000", "191006.415000"],
      "InstanceNumber": [1, 2, 3, 4, 5, 6, 7, 8, 9, 10, 11, 12, 13, 14, 15, 16, 17, 18, 19, 20, 21, 22, 23, 24, 25, 26, 27, 28, 29, 30, 31, 32, 33, 34, 35, 36, 37, 38, 39, 40, 41, 42, 43, 44, 45, 46, 47, 48, 49, 50, 51, 52, 53, 54, 55, 56, 57, 58, 59, 60, 61, 62, 63, 64, 65, 66, 67, 68, 69, 70, 71, 72, 73, 74, 75, 76, 77, 78, 79, 80, 81, 82, 83, 84, 85, 86, 87, 88, 89, 90, 91, 92, 93, 94, 95, 96, 97, 98, 99, 100, 101, 102, 103, 104, 105, 106, 107, 108, 109, 110, 111, 112, 113, 114, 115, 116, 117, 118, 119, 120, 121, 122, 123, 124, 125, 126, 127, 128, 129, 130, 131, 132, 133, 134, 135, 136, 137, 138, 139, 140, 141, 142, 143, 144, 145, 146, 147, 148, 149, 150, 151, 152, 153, 154, 155, 156, 157, 158, 159, 160, 161, 162, 163, 164, 165, 166, 167, 168, 169, 170, 171, 172, 173, 174, 175, 176, 177, 178, 179, 180, 181, 182, 183, 184, 185, 186, 187, 188, 189, 190, 191, 192, 193, 194, 195, 196, 197, 198, 199, 200, 201, 202, 203, 204, 205, 206, 207, 208, 209, 210, 211, 212, 213, 214, 215, 216, 217, 218, 219, 220, 221, 222, 223, 224, 225, 226, 227, 228, 229, 230, 231, 232, 233, 234, 235, 236, 237, 238, 239, 240, 241, 242, 243, 244, 245, 246, 247, 248, 249, 250, 251, 252, 253, 254, 255, 256, 257, 258, 259, 260, 261, 262, 263, 264, 265, 266, 267, 268, 269, 270, 271, 272, 273, 274, 275, 276, 277, 278, 279, 280, 281, 282, 283, 284, 285, 286, 287, 288, 289, 290, 291, 292, 293, 294, 295, 296, 297, 298, 299, 300, 301, 302, 303, 304, 305, 306, 307, 308, 309, 310, 311, 312, 313, 314, 315, 316, 317, 318, 319, 320, 321, 322, 323, 324, 325, 326, 327, 328, 329, 330, 331, 332, 333, 334, 335, 336, 337, 338],
      "WindowCenter": [4736.0, 4756.0, 4732.0, 4758.0, 4736.0, 4734.0, 4734.0, 4738.0, 4738.0, 4738.0, 4738.0, 4734.0, 4738.0, 4736.0, 4734.0, 4758.0, 4758.0, 4758.0, 4760.0, 4738.0, 4738.0, 4738.0, 4736.0, 4734.0, 4736.0, 4758.0, 4758.0, 4758.0, 4758.0, 4756.0, 4760.0, 4736.0, 4736.0, 4734.0, 4740.0, 4736.0, 4762.0, 4760.0, 4760.0, 4736.0, 4736.0, 4738.0, 4738.0, 4738.0, 4760.0, 4738.0, 4738.0, 4762.0, 4760.0, 4760.0, 4738.0, 4758.0, 4738.0, 4738.0, 4740.0, 4738.0, 4758.0, 4740.0, 4736.0, 4758.0, 4736.0, 4734.0, 4738.0, 4736.0, 4762.0, 4738.0, 4736.0, 4738.0, 4738.0, 4740.0, 4742.0, 4738.0, 4736.0, 4740.0, 4762.0, 4762.0, 4740.0, 4762.0, 4738.0, 4762.0, 4740.0, 4740.0, 4764.0, 4740.0, 4742.0, 4740.0, 4738.0, 4760.0, 4740.0, 4760.0, 4740.0, 4740.0, 4736.0, 4742.0, 4738.0, 4740.0, 4740.0, 4740.0, 4740.0, 4740.0, 4740.0, 4762.0, 4740.0, 4764.0, 4740.0, 4744.0, 4742.0, 4764.0, 4740.0, 4760.0, 4734.0, 4736.0, 4734.0, 4738.0, 4738.0, 4738.0, 4738.0, 4736.0, 4736.0, 4758.0, 4736.0, 4764.0, 4762.0, 4734.0, 4738.0, 4740.0, 4738.0, 4738.0, 4740.0, 4738.0, 4738.0, 4738.0, 4736.0, 4738.0, 4740.0, 4738.0, 4764.0, 4740.0, 4738.0, 4744.0, 4738.0, 4762.0, 4740.0, 4740.0, 4740.0, 4740.0, 4742.0, 4738.0, 4742.0, 4738.0, 4740.0, 4740.0, 4742.0, 4742.0, 4742.0, 4742.0, 4742.0, 4742.0, 4762.0, 4742.0, 4762.0, 4740.0, 4742.0, 4746.0, 4742.0, 4746.0, 4740.0, 4736.0, 4736.0, 4740.0, 4732.0, 4734.0, 4734.0, 4754.0, 4736.0, 4736.0, 4736.0, 4738.0, 4738.0, 4742.0, 4734.0, 4740.0, 4740.0, 4758.0, 4742.0, 4740.0, 4764.0, 4732.0, 4736.0, 4760.0, 4738.0, 4744.0, 4742.0, 4740.0, 4744.0, 4740.0, 4744.0, 4738.0, 4736.0, 4760.0, 4736.0, 4738.0, 4742.0, 4744.0, 4740.0, 4744.0, 4740.0, 4740.0, 4736.0, 4742.0, 4742.0, 4742.0, 4738.0, 4736.0, 4736.0, 4738.0, 4740.0, 4744.0, 4750.0, 4746.0, 4740.0, 4736.0, 4736.0, 4738.0, 4736.0, 4738.0, 4738.0, 4734.0, 4738.0, 4738.0, 4740.0, 4742.0, 4742.0, 4744.0, 4738.0, 4740.0, 4740.0, 4740.0, 4734.0, 4756.0, 4736.0, 4736.0, 4740.0, 4740.0, 4740.0, 4748.0, 4740.0, 4736.0, 4734.0, 4736.0, 4758.0, 4736.0, 4736.0, 4736.0, 4742.0, 4740.0, 4748.0, 4744.0, 4738.0, 4736.0, 4756.0, 4756.0, 4732.0, 4736.0, 4740.0, 4740.0, 4740.0, 4740.0, 4742.0, 4736.0, 4738.0, 4734.0, 4734.0, 4736.0, 4732.0, 4738.0, 4738.0, 4736.0, 4738.0, 4742.0, 4738.0, 4738.0, 4734.0, 4740.0, 4736.0, 4738.0, 4740.0, 4734.0, 4740.0, 4740.0, 4762.0, 4762.0, 4764.0, 4760.0, 4762.0, 4764.0, 4738.0, 4766.0, 4738.0, 4734.0, 4740.0, 4738.0, 4736.0, 4760.0, 4738.0, 4758.0, 4738.0, 4738.0, 4742.0, 4740.0, 4740.0, 4764.0, 4740.0, 4738.0, 4744.0, 4766.0, 4742.0, 4740.0, 4762.0, 4762.0, 4734.0, 4738.0, 4734.0, 4758.0, 4736.0, 4762.0, 4738.0, 4760.0, 4736.0, 4736.0, 4738.0, 4742.0, 4738.0, 4732.0, 4734.0, 4758.0, 4734.0, 4758.0],
