{
  "AcquisitionMatrixPE": 104,
  "AcquisitionNumber": 1,
  "AcquisitionTime": "19:48:53.215000",
  "BandwidthPerPixelPhaseEncode": 17.17,
  "BaseResolution": 104,
  "BodyPartExamined": "BRAIN",
  "CoilCombinationMethod": "Sum of Squares",
  "ConsistencyInfo": "N4_VE11C_LATEST_20160120",
  "ConversionSoftware": "dcm2niix",
  "ConversionSoftwareVersion": "v1.0.20220505",
  "DerivedVendorReportedEchoSpacing": 0.000560011,
  "DeviceSerialNumber": "167006",
  "DwellTime": 2.1e-06,
  "EchoTime": 0.037,
  "EchoTime1": 0.037,
  "EchoTime2": 0.001,
  "EchoTrainLength": 104,
  "EffectiveEchoSpacing": 0.000560011,
  "FlipAngle": 52,
  "HeudiconvVersion": "0.5.3.post811+g6206e14",
  "ImageComments": "Unaliased MB4/PE3/LB",
  "ImageOrientationPatientDICOM": [0.999623, -0.0114989, 0.0249291, 0.0195428, 0.9358, -0.35199],
  "ImageOrientationText": "Tra>Cor(-20.6)>Sag(1.1)",
  "ImageType": [
    "ORIGINAL",
    "PRIMARY",
    "P",
    "MB",
    "ND",
    "MOSAIC",
    "PHASE"
],
  "ImagingFrequency": 123.259,
  "InPlanePhaseEncodingDirectionDICOM": "COL",
  "InstitutionAddress": "Chemin Queen-Mary 4565,Montreal,District,CA,H3W 1W5",
  "InstitutionName": "IUGM",
  "InstitutionalDepartmentName": "Department",
  "MRAcquisitionType": "2D",
  "MagneticFieldStrength": 3,
  "Manufacturer": "Siemens",
  "ManufacturersModelName": "Prisma_fit",
  "MatrixCoilMode": "SENSE",
  "Modality": "MR",
  "MultibandAccelerationFactor": 4,
  "PartialFourier": 1,
  "PatientPosition": "HFS",
  "PercentPhaseFOV": 100,
  "PercentSampling": 100,
  "PhaseEncodingDirection": "j",
  "PhaseEncodingSteps": 104,
  "PhaseResolution": 1,
  "PixelBandwidth": 2290,
  "ProcedureStepDescription": "games^mario3",
  "ProtocolName": "func_task-mario3_run-06",
  "PulseSequenceDetails": "%CustomerSeq%\\cmrr_mbep2d_bold",
  "ReceiveCoilActiveElements": "HC1-7;NC1,2",
  "ReceiveCoilName": "HeadNeck_64",
  "ReconMatrixPE": 104,
  "RepetitionTime": 1.49,
  "SAR": 0.0725356,
  "ScanOptions": "FS",
  "ScanningSequence": "EP",
  "SequenceName": "epfid2d1_104",
  "SequenceVariant": "SK\\SS",
  "SeriesDescription": "func_task-mario3_run-06",
  "SeriesNumber": 26,
  "ShimSetting": [595, -7294, -8797, 410, 31, -346, -40, 63],
  "SliceThickness": 2,
  "SliceTiming": [0, 0.7825, 0.0975, 0.88, 0.195, 0.9775, 0.2925, 1.0775, 0.39, 1.175, 0.4875, 1.2725, 0.5875, 1.37, 0.685, 0, 0.7825, 0.0975, 0.88, 0.195, 0.9775, 0.2925, 1.0775, 0.39, 1.175, 0.4875, 1.2725, 0.5875, 1.37, 0.685, 0, 0.7825, 0.0975, 0.88, 0.195, 0.9775, 0.2925, 1.0775, 0.39, 1.175, 0.4875, 1.2725, 0.5875, 1.37, 0.685, 0, 0.7825, 0.0975, 0.88, 0.195, 0.9775, 0.2925, 1.0775, 0.39, 1.175, 0.4875, 1.2725, 0.5875, 1.37, 0.685],
  "SoftwareVersions": "syngo MR E11",
  "SpacingBetweenSlices": 2,
  "StationName": "MRC35049",
  "TaskName": "mario3",
  "TotalReadoutTime": 0.0576811,
  "TxRefAmp": 289.133,
  "WipMemBlock": "7ac32722-2b61-4e1f-b56d-4402207177e5||Sequence: R017 ve11c/master r/75a17815+; Jun 28 2022 16:32:11 by eja",
  "dcmmeta_affine": [
    [-1.9992461204528809, 0.03908564895391464, 0.038562316447496414, 100.82984161376953],
    [0.022997811436653137, 1.871599793434143, -0.7046880722045898, -71.35917663574219],
    [0.049858205020427704, 0.7039790153503418, 1.8713438510894775, -57.700199127197266],
    [0.0, 0.0, 0.0, 1.0]
],
  "dcmmeta_reorient_transform": [
    [0.0, -1.0, 0.0, 103.0],
    [1.0, 0.0, 0.0, 0.0],
    [0.0, 0.0, 1.0, 0.0],
    [0.0, 0.0, 0.0, 1.0]
],
  "dcmmeta_shape": [104, 104, 60, 323],
  "dcmmeta_slice_dim": 2,
  "dcmmeta_version": 0.6,
  "global": {
    "const": {
      "AcquisitionMatrix": [104, 0, 0, 104],
      "AngioFlag": "N",
      "BitsAllocated": 16,
      "BitsStored": 16,
      "BodyPartExamined": "BRAIN",
      "Columns": 832,
      "EchoNumbers": 1,
      "EchoTime": 37.0,
      "EchoTrainLength": 104,
      "FlipAngle": 52.0,
      "HighBit": 15,
      "ImageOrientationPatient": [0.99962308647452, -0.0114989061639, 0.02492910235416, 0.0195428238097, 0.93579990477246, -0.3519895115843],
      "ImagePositionPatient": [-846.80844885549, -794.30672849549, 252.90961723001],
      "ImageType": [
        "ORIGINAL",
        "PRIMARY",
        "P",
        "MB",
        "ND",
        "MOSAIC"
],
      "ImagedNucleus": "1H",
      "ImagingFrequency": 123.258979,
      "InPlanePhaseEncodingDirection": "COL",
      "LargestImagePixelValue": 4095,
      "MRAcquisitionType": "2D",
      "MagneticFieldStrength": 3.0,
      "Manufacturer": "SIEMENS",
      "ManufacturerModelName": "Prisma_fit",
      "Modality": "MR",
      "NumberOfAverages": 1.0,
      "NumberOfPhaseEncodingSteps": 104,
      "PercentPhaseFieldOfView": 100.0,
      "PercentSampling": 100.0,
      "PerformedProcedureStepStartTime": "183831.130000",
      "PhotometricInterpretation": "MONOCHROME2",
      "PixelBandwidth": 2290.0,
      "PixelRepresentation": 0,
      "PixelSpacing": [2.0, 2.0],
      "ProtocolName": "func_task-mario3_run-06",
      "RepetitionTime": 1490.0,
      "RescaleIntercept": -4096.0,
      "RescaleSlope": 2.0,
      "RescaleType": "US",
      "Rows": 832,
      "SAR": 0.07253558514195,
      "SamplesPerPixel": 1,
      "ScanOptions": "FS",
      "ScanningSequence": "EP",
      "SequenceName": "epfid2d1_104",
      "SequenceVariant": [
        "SK",
        "SS"
],
      "SeriesDescription": "func_task-mario3_run-06",
      "SeriesNumber": 26,
      "SeriesTime": "195012.914000",
      "SliceLocation": -26.901359889195,
      "SliceThickness": 2.0,
      "SmallestImagePixelValue": 0,
      "SoftwareVersions": "syngo MR E11",
      "SpacingBetweenSlices": 2.0000000181618,
      "SpecificCharacterSet": "ISO_IR 100",
      "StudyID": "1",
      "StudyTime": "183831.060000",
      "TransmitCoilName": "Body",
      "VariableFlipAngleFlag": "N",
      "WindowCenterWidthExplanation": "Algo1",
      "dBdt": 0.0},
    "slices": {}
  },
  "time": {
    "samples": {
      "AcquisitionNumber": [1, 2, 3, 4, 5, 6, 7, 8, 9, 10, 11, 12, 13, 14, 15, 16, 17, 18, 19, 20, 21, 22, 23, 24, 25, 26, 27, 28, 29, 30, 31, 32, 33, 34, 35, 36, 37, 38, 39, 40, 41, 42, 43, 44, 45, 46, 47, 48, 49, 50, 51, 52, 53, 54, 55, 56, 57, 58, 59, 60, 61, 62, 63, 64, 65, 66, 67, 68, 69, 70, 71, 72, 73, 74, 75, 76, 77, 78, 79, 80, 81, 82, 83, 84, 85, 86, 87, 88, 89, 90, 91, 92, 93, 94, 95, 96, 97, 98, 99, 100, 101, 102, 103, 104, 105, 106, 107, 108, 109, 110, 111, 112, 113, 114, 115, 116, 117, 118, 119, 120, 121, 122, 123, 124, 125, 126, 127, 128, 129, 130, 131, 132, 133, 134, 135, 136, 137, 138, 139, 140, 141, 142, 143, 144, 145, 146, 147, 148, 149, 150, 151, 152, 153, 154, 155, 156, 157, 158, 159, 160, 161, 162, 163, 164, 165, 166, 167, 168, 169, 170, 171, 172, 173, 174, 175, 176, 177, 178, 179, 180, 181, 182, 183, 184, 185, 186, 187, 188, 189, 190, 191, 192, 193, 194, 195, 196, 197, 198, 199, 200, 201, 202, 203, 204, 205, 206, 207, 208, 209, 210, 211, 212, 213, 214, 215, 216, 217, 218, 219, 220, 221, 222, 223, 224, 225, 226, 227, 228, 229, 230, 231, 232, 233, 234, 235, 236, 237, 238, 239, 240, 241, 242, 243, 244, 245, 246, 247, 248, 249, 250, 251, 252, 253, 254, 255, 256, 257, 258, 259, 260, 261, 262, 263, 264, 265, 266, 267, 268, 269, 270, 271, 272, 273, 274, 275, 276, 277, 278, 279, 280, 281, 282, 283, 284, 285, 286, 287, 288, 289, 290, 291, 292, 293, 294, 295, 296, 297, 298, 299, 300, 301, 302, 303, 304, 305, 306, 307, 308, 309, 310, 311, 312, 313, 314, 315, 316, 317, 318, 319, 320, 321, 322, 323],
      "AcquisitionTime": ["194853.215000", "194854.705000", "194856.195000", "194857.685000", "194859.175000", "194900.665000", "194902.155000", "194903.645000", "194905.135000", "194906.625000", "194908.115000", "194909.605000", "194911.095000", "194912.585000", "194914.075000", "194915.565000", "194917.055000", "194918.545000", "194920.035000", "194921.525000", "194923.015000", "194924.505000", "194925.995000", "194927.485000", "194928.975000", "194930.465000", "194931.955000", "194933.445000", "194934.935000", "194936.425000", "194937.915000", "194939.405000", "194940.895000", "194942.385000", "194943.875000", "194945.365000", "194946.855000", "194948.345000", "194949.835000", "194951.325000", "194952.815000", "194954.305000", "194955.795000", "194957.285000", "194958.775000", "195000.265000", "195001.755000", "195003.245000", "195004.735000", "195006.225000", "195007.715000", "195009.205000", "195010.695000", "195012.185000", "195013.675000", "195015.165000", "195016.655000", "195018.145000", "195019.635000", "195021.125000", "195022.615000", "195024.105000", "195025.595000", "195027.085000", "195028.575000", "195030.065000", "195031.555000", "195033.045000", "195034.535000", "195036.025000", "195037.515000", "195039.005000", "195040.495000", "195041.985000", "195043.475000", "195044.965000", "195046.455000", "195047.945000", "195049.435000", "195050.925000", "195052.415000", "195053.905000", "195055.395000", "195056.885000", "195058.375000", "195059.865000", "195101.355000", "195102.845000", "195104.335000", "195105.825000", "195107.315000", "195108.805000", "195110.295000", "195111.785000", "195113.275000", "195114.765000", "195116.255000", "195117.745000", "195119.235000", "195120.725000", "195122.215000", "195123.705000", "195125.195000", "195126.685000", "195128.175000", "195129.665000", "195131.155000", "195132.645000", "195134.135000", "195135.625000", "195137.115000", "195138.605000", "195140.095000", "195141.585000", "195143.075000", "195144.565000", "195146.055000", "195147.545000", "195149.035000", "195150.525000", "195152.015000", "195153.505000", "195154.995000", "195156.485000", "195157.975000", "195159.465000", "195200.955000", "195202.445000", "195203.935000", "195205.425000", "195206.915000", "195208.405000", "195209.895000", "195211.385000", "195212.875000", "195214.365000", "195215.855000", "195217.345000", "195218.835000", "195220.325000", "195221.815000", "195223.305000", "195224.795000", "195226.285000", "195227.775000", "195229.265000", "195230.755000", "195232.245000", "195233.735000", "195235.225000", "195236.715000", "195238.205000", "195239.695000", "195241.185000", "195242.675000", "195244.165000", "195245.655000", "195247.145000", "195248.635000", "195250.125000", "195251.615000", "195253.105000", "195254.595000", "195256.085000", "195257.575000", "195259.065000", "195300.555000", "195302.045000", "195303.535000", "195305.025000", "195306.515000", "195308.005000", "195309.495000", "195310.985000", "195312.475000", "195313.965000", "195315.455000", "195316.945000", "195318.435000", "195319.925000", "195321.415000", "195322.905000", "195324.395000", "195325.885000", "195327.375000", "195328.865000", "195330.355000", "195331.845000", "195333.335000", "195334.825000", "195336.315000", "195337.805000", "195339.295000", "195340.785000", "195342.275000", "195343.765000", "195345.255000", "195346.745000", "195348.235000", "195349.725000", "195351.215000", "195352.705000", "195354.195000", "195355.685000", "195357.175000", "195358.665000", "195400.155000", "195401.645000", "195403.135000", "195404.625000", "195406.115000", "195407.605000", "195409.095000", "195410.585000", "195412.075000", "195413.565000", "195415.055000", "195416.545000", "195418.035000", "195419.525000", "195421.015000", "195422.505000", "195423.995000", "195425.485000", "195426.975000", "195428.465000", "195429.955000", "195431.445000", "195432.935000", "195434.425000", "195435.915000", "195437.405000", "195438.895000", "195440.385000", "195441.875000", "195443.365000", "195444.855000", "195446.345000", "195447.835000", "195449.325000", "195450.815000", "195452.305000", "195453.795000", "195455.285000", "195456.775000", "195458.265000", "195459.755000", "195501.245000", "195502.735000", "195504.225000", "195505.715000", "195507.205000", "195508.695000", "195510.185000", "195511.675000", "195513.165000", "195514.655000", "195516.145000", "195517.635000", "195519.125000", "195520.615000", "195522.105000", "195523.595000", "195525.085000", "195526.575000", "195528.065000", "195529.555000", "195531.045000", "195532.535000", "195534.025000", "195535.515000", "195537.005000", "195538.495000", "195539.985000", "195541.475000", "195542.965000", "195544.455000", "195545.945000", "195547.435000", "195548.925000", "195550.415000", "195551.905000", "195553.395000", "195554.885000", "195556.375000", "195557.865000", "195559.355000", "195600.845000", "195602.335000", "195603.825000", "195605.315000", "195606.805000", "195608.295000", "195609.785000", "195611.275000", "195612.765000", "195614.255000", "195615.745000", "195617.235000", "195618.725000", "195620.215000", "195621.705000", "195623.195000", "195624.685000", "195626.175000", "195627.665000", "195629.155000", "195630.645000", "195632.135000", "195633.625000", "195635.115000", "195636.605000", "195638.095000", "195639.585000", "195641.075000", "195642.565000", "195644.055000", "195645.545000", "195647.035000", "195648.525000", "195650.015000", "195651.505000", "195652.995000"],
      "ContentTime": ["195012.916000", "195012.919000", "195012.922000", "195012.924000", "195012.927000", "195012.929000", "195012.932000", "195012.934000", "195012.937000", "195012.939000", "195012.942000", "195012.944000", "195012.947000", "195012.949000", "195012.952000", "195012.954000", "195012.956000", "195012.959000", "195012.961000", "195012.964000", "195012.967000", "195012.980000", "195012.982000", "195012.985000", "195012.987000", "195012.990000", "195012.992000", "195012.995000", "195012.997000", "195013.001000", "195013.003000", "195013.006000", "195032.795000", "195032.797000", "195032.800000", "195032.802000", "195032.805000", "195032.807000", "195032.810000", "195032.812000", "195032.815000", "195032.817000", "195032.820000", "195032.822000", "195032.825000", "195032.827000", "195032.830000", "195032.832000", "195032.835000", "195032.837000", "195032.840000", "195032.842000", "195052.794000", "195052.797000", "195052.799000", "195052.802000", "195052.804000", "195052.807000", "195052.809000", "195052.812000", "195052.815000", "195052.818000", "195052.820000", "195052.823000", "195052.825000", "195052.828000", "195052.831000", "195052.833000", "195052.836000", "195052.838000", "195052.841000", "195052.843000", "195112.799000", "195112.801000", "195112.804000", "195112.806000", "195112.809000", "195112.811000", "195112.814000", "195112.816000", "195112.819000", "195112.821000", "195112.824000", "195112.826000", "195112.829000", "195112.831000", "195112.834000", "195112.836000", "195112.839000", "195112.841000", "195112.844000", "195112.846000", "195112.849000", "195152.852000", "195152.854000", "195152.857000", "195152.859000", "195152.862000", "195152.864000", "195152.867000", "195152.869000", "195152.872000", "195152.874000", "195152.877000", "195152.879000", "195152.882000", "195152.884000", "195152.887000", "195152.889000", "195152.892000", "195152.894000", "195152.897000", "195152.899000", "195152.902000", "195152.904000", "195152.907000", "195152.909000", "195152.912000", "195152.914000", "195152.917000", "195232.819000", "195232.822000", "195232.824000", "195232.827000", "195232.829000", "195232.832000", "195232.834000", "195232.837000", "195232.839000", "195232.842000", "195232.844000", "195232.847000", "195232.849000", "195232.852000", "195232.854000", "195232.857000", "195232.859000", "195232.862000", "195232.864000", "195232.867000", "195232.869000", "195232.872000", "195232.874000", "195232.877000", "195232.879000", "195232.881000", "195312.834000", "195312.837000", "195312.839000", "195312.842000", "195312.844000", "195312.847000", "195312.849000", "195312.852000", "195312.854000", "195312.857000", "195312.859000", "195312.862000", "195312.864000", "195312.867000", "195312.869000", "195312.872000", "195312.874000", "195312.877000", "195312.879000", "195312.882000", "195312.884000", "195312.887000", "195312.889000", "195312.892000", "195312.894000", "195312.897000", "195312.899000", "195352.864000", "195352.867000", "195352.869000", "195352.872000", "195352.874000", "195352.877000", "195352.879000", "195352.882000", "195352.884000", "195352.887000", "195352.889000", "195352.891000", "195352.894000", "195352.896000", "195352.899000", "195352.901000", "195352.904000", "195352.906000", "195352.909000", "195352.911000", "195352.914000", "195352.916000", "195352.919000", "195352.921000", "195352.924000", "195352.926000", "195352.929000", "195432.871000", "195432.874000", "195432.877000", "195432.879000", "195432.882000", "195432.884000", "195432.887000", "195432.889000", "195432.892000", "195432.894000", "195432.896000", "195432.899000", "195432.901000", "195432.904000", "195432.906000", "195432.909000", "195432.911000", "195432.914000", "195432.916000", "195432.919000", "195432.921000", "195432.924000", "195432.926000", "195432.929000", "195432.941000", "195432.944000", "195432.946000", "195512.835000", "195512.838000", "195512.840000", "195512.843000", "195512.845000", "195512.848000", "195512.850000", "195512.853000", "195512.855000", "195512.858000", "195512.860000", "195512.863000", "195512.865000", "195512.868000", "195512.870000", "195512.873000", "195512.875000", "195512.878000", "195512.889000", "195512.891000", "195512.894000", "195512.896000", "195512.899000", "195512.901000", "195512.904000", "195512.906000", "195512.909000", "195552.820000", "195552.822000", "195552.825000", "195552.827000", "195552.830000", "195552.832000", "195552.835000", "195552.837000", "195552.840000", "195552.842000", "195552.845000", "195552.847000", "195552.850000", "195552.852000", "195552.855000", "195552.857000", "195552.860000", "195552.862000", "195552.865000", "195552.867000", "195552.870000", "195552.872000", "195552.875000", "195552.877000", "195552.880000", "195552.882000", "195552.885000", "195633.311000", "195633.314000", "195633.316000", "195633.319000", "195633.321000", "195633.324000", "195633.326000", "195633.329000", "195633.331000", "195633.334000", "195633.336000", "195633.339000", "195633.341000", "195633.344000", "195633.346000", "195633.349000", "195633.351000", "195633.354000", "195633.356000", "195633.359000", "195633.361000", "195633.364000", "195633.366000", "195633.369000", "195633.371000", "195633.374000", "195633.376000", "195655.734000", "195655.736000", "195655.739000", "195655.741000", "195655.744000", "195655.746000", "195655.749000", "195655.751000", "195655.754000", "195655.756000", "195655.759000", "195655.761000", "195655.764000", "195655.766000", "195655.769000"],
      "InstanceCreationTime": ["195012.916000", "195012.919000", "195012.922000", "195012.924000", "195012.927000", "195012.929000", "195012.932000", "195012.934000", "195012.937000", "195012.939000", "195012.942000", "195012.944000", "195012.947000", "195012.949000", "195012.952000", "195012.954000", "195012.956000", "195012.959000", "195012.961000", "195012.964000", "195012.967000", "195012.980000", "195012.982000", "195012.985000", "195012.987000", "195012.990000", "195012.992000", "195012.995000", "195012.997000", "195013.001000", "195013.003000", "195013.006000", "195032.795000", "195032.797000", "195032.800000", "195032.802000", "195032.805000", "195032.807000", "195032.810000", "195032.812000", "195032.815000", "195032.817000", "195032.820000", "195032.822000", "195032.825000", "195032.827000", "195032.830000", "195032.832000", "195032.835000", "195032.837000", "195032.840000", "195032.842000", "195052.794000", "195052.797000", "195052.799000", "195052.802000", "195052.804000", "195052.807000", "195052.809000", "195052.812000", "195052.815000", "195052.818000", "195052.820000", "195052.823000", "195052.825000", "195052.828000", "195052.831000", "195052.833000", "195052.836000", "195052.838000", "195052.841000", "195052.843000", "195112.799000", "195112.801000", "195112.804000", "195112.806000", "195112.809000", "195112.811000", "195112.814000", "195112.816000", "195112.819000", "195112.821000", "195112.824000", "195112.826000", "195112.829000", "195112.831000", "195112.834000", "195112.836000", "195112.839000", "195112.841000", "195112.844000", "195112.846000", "195112.849000", "195152.852000", "195152.854000", "195152.857000", "195152.859000", "195152.862000", "195152.864000", "195152.867000", "195152.869000", "195152.872000", "195152.874000", "195152.877000", "195152.879000", "195152.882000", "195152.884000", "195152.887000", "195152.889000", "195152.892000", "195152.894000", "195152.897000", "195152.899000", "195152.902000", "195152.904000", "195152.907000", "195152.909000", "195152.912000", "195152.914000", "195152.917000", "195232.819000", "195232.822000", "195232.824000", "195232.827000", "195232.829000", "195232.832000", "195232.834000", "195232.837000", "195232.839000", "195232.842000", "195232.844000", "195232.847000", "195232.849000", "195232.852000", "195232.854000", "195232.857000", "195232.859000", "195232.862000", "195232.864000", "195232.867000", "195232.869000", "195232.872000", "195232.874000", "195232.877000", "195232.879000", "195232.881000", "195312.834000", "195312.837000", "195312.839000", "195312.842000", "195312.844000", "195312.847000", "195312.849000", "195312.852000", "195312.854000", "195312.857000", "195312.859000", "195312.862000", "195312.864000", "195312.867000", "195312.869000", "195312.872000", "195312.874000", "195312.877000", "195312.879000", "195312.882000", "195312.884000", "195312.887000", "195312.889000", "195312.892000", "195312.894000", "195312.897000", "195312.899000", "195352.864000", "195352.867000", "195352.869000", "195352.872000", "195352.874000", "195352.877000", "195352.879000", "195352.882000", "195352.884000", "195352.887000", "195352.889000", "195352.891000", "195352.894000", "195352.896000", "195352.899000", "195352.901000", "195352.904000", "195352.906000", "195352.909000", "195352.911000", "195352.914000", "195352.916000", "195352.919000", "195352.921000", "195352.924000", "195352.926000", "195352.929000", "195432.871000", "195432.874000", "195432.877000", "195432.879000", "195432.882000", "195432.884000", "195432.887000", "195432.889000", "195432.892000", "195432.894000", "195432.896000", "195432.899000", "195432.901000", "195432.904000", "195432.906000", "195432.909000", "195432.911000", "195432.914000", "195432.916000", "195432.919000", "195432.921000", "195432.924000", "195432.926000", "195432.929000", "195432.941000", "195432.944000", "195432.946000", "195512.835000", "195512.838000", "195512.840000", "195512.843000", "195512.845000", "195512.848000", "195512.850000", "195512.853000", "195512.855000", "195512.858000", "195512.860000", "195512.863000", "195512.865000", "195512.868000", "195512.870000", "195512.873000", "195512.875000", "195512.878000", "195512.889000", "195512.891000", "195512.894000", "195512.896000", "195512.899000", "195512.901000", "195512.904000", "195512.906000", "195512.909000", "195552.820000", "195552.822000", "195552.825000", "195552.827000", "195552.830000", "195552.832000", "195552.835000", "195552.837000", "195552.840000", "195552.842000", "195552.845000", "195552.847000", "195552.850000", "195552.852000", "195552.855000", "195552.857000", "195552.860000", "195552.862000", "195552.865000", "195552.867000", "195552.870000", "195552.872000", "195552.875000", "195552.877000", "195552.880000", "195552.882000", "195552.885000", "195633.311000", "195633.314000", "195633.316000", "195633.319000", "195633.321000", "195633.324000", "195633.326000", "195633.329000", "195633.331000", "195633.334000", "195633.336000", "195633.339000", "195633.341000", "195633.344000", "195633.346000", "195633.349000", "195633.351000", "195633.354000", "195633.356000", "195633.359000", "195633.361000", "195633.364000", "195633.366000", "195633.369000", "195633.371000", "195633.374000", "195633.376000", "195655.734000", "195655.736000", "195655.739000", "195655.741000", "195655.744000", "195655.746000", "195655.749000", "195655.751000", "195655.754000", "195655.756000", "195655.759000", "195655.761000", "195655.764000", "195655.766000", "195655.769000"],
      "InstanceNumber": [1, 2, 3, 4, 5, 6, 7, 8, 9, 10, 11, 12, 13, 14, 15, 16, 17, 18, 19, 20, 21, 22, 23, 24, 25, 26, 27, 28, 29, 30, 31, 32, 33, 34, 35, 36, 37, 38, 39, 40, 41, 42, 43, 44, 45, 46, 47, 48, 49, 50, 51, 52, 53, 54, 55, 56, 57, 58, 59, 60, 61, 62, 63, 64, 65, 66, 67, 68, 69, 70, 71, 72, 73, 74, 75, 76, 77, 78, 79, 80, 81, 82, 83, 84, 85, 86, 87, 88, 89, 90, 91, 92, 93, 94, 95, 96, 97, 98, 99, 100, 101, 102, 103, 104, 105, 106, 107, 108, 109, 110, 111, 112, 113, 114, 115, 116, 117, 118, 119, 120, 121, 122, 123, 124, 125, 126, 127, 128, 129, 130, 131, 132, 133, 134, 135, 136, 137, 138, 139, 140, 141, 142, 143, 144, 145, 146, 147, 148, 149, 150, 151, 152, 153, 154, 155, 156, 157, 158, 159, 160, 161, 162, 163, 164, 165, 166, 167, 168, 169, 170, 171, 172, 173, 174, 175, 176, 177, 178, 179, 180, 181, 182, 183, 184, 185, 186, 187, 188, 189, 190, 191, 192, 193, 194, 195, 196, 197, 198, 199, 200, 201, 202, 203, 204, 205, 206, 207, 208, 209, 210, 211, 212, 213, 214, 215, 216, 217, 218, 219, 220, 221, 222, 223, 224, 225, 226, 227, 228, 229, 230, 231, 232, 233, 234, 235, 236, 237, 238, 239, 240, 241, 242, 243, 244, 245, 246, 247, 248, 249, 250, 251, 252, 253, 254, 255, 256, 257, 258, 259, 260, 261, 262, 263, 264, 265, 266, 267, 268, 269, 270, 271, 272, 273, 274, 275, 276, 277, 278, 279, 280, 281, 282, 283, 284, 285, 286, 287, 288, 289, 290, 291, 292, 293, 294, 295, 296, 297, 298, 299, 300, 301, 302, 303, 304, 305, 306, 307, 308, 309, 310, 311, 312, 313, 314, 315, 316, 317, 318, 319, 320, 321, 322, 323],
      "WindowCenter": [4732.0, 4728.0, 4730.0, 4730.0, 4730.0, 4734.0, 4734.0, 4736.0, 4736.0, 4734.0, 4734.0, 4732.0, 4732.0, 4728.0, 4736.0, 4738.0, 4738.0, 4736.0, 4736.0, 4734.0, 4732.0, 4736.0, 4734.0, 4730.0, 4736.0, 4734.0, 4740.0, 4734.0, 4734.0, 4738.0, 4734.0, 4734.0, 4732.0, 4738.0, 4738.0, 4738.0, 4738.0, 4734.0, 4736.0, 4736.0, 4736.0, 4750.0, 4744.0, 4736.0, 4732.0, 4756.0, 4730.0, 4734.0, 4738.0, 4734.0, 4740.0, 4738.0, 4742.0, 4738.0, 4738.0, 4734.0, 4736.0, 4732.0, 4734.0, 4756.0, 4732.0, 4732.0, 4734.0, 4736.0, 4732.0, 4734.0, 4734.0, 4732.0, 4734.0, 4732.0, 4732.0, 4738.0, 4734.0, 4716.0, 4734.0, 4734.0, 4734.0, 4734.0, 4730.0, 4730.0, 4732.0, 4734.0, 4712.0, 4734.0, 4734.0, 4734.0, 4734.0, 4734.0, 4732.0, 4734.0, 4736.0, 4732.0, 4734.0, 4718.0, 4736.0, 4730.0, 4730.0, 4736.0, 4730.0, 4732.0, 4734.0, 4730.0, 4732.0, 4742.0, 4734.0, 4736.0, 4732.0, 4730.0, 4732.0, 4732.0, 4732.0, 4734.0, 4738.0, 4714.0, 4736.0, 4738.0, 4748.0, 4738.0, 4738.0, 4732.0, 4736.0, 4738.0, 4732.0, 4736.0, 4738.0, 4736.0, 4736.0, 4738.0, 4738.0, 4736.0, 4738.0, 4736.0, 4734.0, 4740.0, 4738.0, 4734.0, 4760.0, 4736.0, 4742.0, 4742.0, 4750.0, 4768.0, 4752.0, 4732.0, 4784.0, 4784.0, 4816.0, 4782.0, 4728.0, 4742.0, 4750.0, 4750.0, 4748.0, 4744.0, 4728.0, 4732.0, 4758.0, 4752.0, 4752.0, 4732.0, 4732.0, 4736.0, 4746.0, 4738.0, 4738.0, 4734.0, 4736.0, 4734.0, 4734.0, 4732.0, 4736.0, 4736.0, 4736.0, 4738.0, 4738.0, 4738.0, 4738.0, 4730.0, 4732.0, 4734.0, 4734.0, 4714.0, 4734.0, 4732.0, 4730.0, 4728.0, 4734.0, 4730.0, 4730.0, 4732.0, 4730.0, 4730.0, 4728.0, 4732.0, 4728.0, 4730.0, 4734.0, 4734.0, 4732.0, 4730.0, 4736.0, 4736.0, 4712.0, 4730.0, 4732.0, 4730.0, 4732.0, 4754.0, 4732.0, 4732.0, 4736.0, 4746.0, 4738.0, 4738.0, 4732.0, 4730.0, 4730.0, 4756.0, 4732.0, 4730.0, 4732.0, 4712.0, 4740.0, 4736.0, 4714.0, 4734.0, 4734.0, 4738.0, 4736.0, 4736.0, 4708.0, 4734.0, 4736.0, 4738.0, 4730.0, 4734.0, 4736.0, 4740.0, 4740.0, 4734.0, 4734.0, 4736.0, 4736.0, 4734.0, 4738.0, 4738.0, 4736.0, 4734.0, 4736.0, 4734.0, 4738.0, 4736.0, 4738.0, 4736.0, 4738.0, 4734.0, 4736.0, 4738.0, 4736.0, 4738.0, 4730.0, 4734.0, 4730.0, 4738.0, 4736.0, 4734.0, 4738.0, 4738.0, 4738.0, 4738.0, 4736.0, 4740.0, 4736.0, 4736.0, 4736.0, 4738.0, 4736.0, 4736.0, 4738.0, 4736.0, 4734.0, 4736.0, 4732.0, 4732.0, 4734.0, 4736.0, 4736.0, 4738.0, 4738.0, 4740.0, 4744.0, 4736.0, 4740.0, 4738.0, 4734.0, 4738.0, 4742.0, 4738.0, 4736.0, 4740.0, 4738.0, 4742.0, 4740.0, 4740.0, 4738.0, 4738.0, 4736.0, 4736.0, 4738.0, 4734.0, 4736.0, 4740.0, 4740.0, 4736.0, 4742.0, 4738.0, 4738.0, 4738.0, 4734.0, 4732.0, 4738.0, 4748.0, 4750.0],
