{
  "AcquisitionMatrixPE": 104,
  "AcquisitionNumber": 1,
  "AcquisitionTime": "19:01:41.405000",
  "BandwidthPerPixelPhaseEncode": 17.17,
  "BaseResolution": 104,
  "BodyPartExamined": "BRAIN",
  "CoilCombinationMethod": "Sum of Squares",
  "ConsistencyInfo": "N4_VE11C_LATEST_20160120",
  "ConversionSoftware": "dcm2niix",
  "ConversionSoftwareVersion": "v1.0.20220505",
  "DerivedVendorReportedEchoSpacing": 0.000560011,
  "DeviceSerialNumber": "167006",
  "DwellTime": 2.1e-06,
  "EchoTime": 0.037,
  "EchoTrainLength": 104,
  "EffectiveEchoSpacing": 0.000560011,
  "FlipAngle": 52,
  "HeudiconvVersion": "0.5.3.post811+g6206e14",
  "ImageComments": "Unaliased MB4/PE3/LB",
  "ImageOrientationPatientDICOM": [0.999623, -0.0114989, 0.0249291, 0.0195428, 0.9358, -0.35199],
  "ImageOrientationText": "Tra>Cor(-20.6)>Sag(1.1)",
  "ImageType": [
    "ORIGINAL",
    "PRIMARY",
    "M",
    "MB",
    "ND",
    "MOSAIC"
],
  "ImagingFrequency": 123.259,
  "InPlanePhaseEncodingDirectionDICOM": "COL",
  "InstitutionAddress": "Chemin Queen-Mary 4565,Montreal,District,CA,H3W 1W5",
  "InstitutionName": "IUGM",
  "InstitutionalDepartmentName": "Department",
  "MRAcquisitionType": "2D",
  "MagneticFieldStrength": 3,
  "Manufacturer": "Siemens",
  "ManufacturersModelName": "Prisma_fit",
  "MatrixCoilMode": "SENSE",
  "Modality": "MR",
  "MultibandAccelerationFactor": 4,
  "PartialFourier": 1,
  "PatientPosition": "HFS",
  "PercentPhaseFOV": 100,
  "PercentSampling": 100,
  "PhaseEncodingDirection": "j",
  "PhaseEncodingSteps": 104,
  "PhaseResolution": 1,
  "PixelBandwidth": 2290,
  "ProcedureStepDescription": "games^mario3",
  "ProtocolName": "func_task-mario3_run-02",
  "PulseSequenceDetails": "%CustomerSeq%\\cmrr_mbep2d_bold",
  "ReceiveCoilActiveElements": "HC1-7;NC1,2",
  "ReceiveCoilName": "HeadNeck_64",
  "ReconMatrixPE": 104,
  "RepetitionTime": 1.49,
  "SAR": 0.0725356,
  "ScanOptions": "FS",
  "ScanningSequence": "EP",
  "SequenceName": "epfid2d1_104",
  "SequenceVariant": "SK\\SS",
  "SeriesDescription": "func_task-mario3_run-02",
  "SeriesNumber": 13,
  "ShimSetting": [595, -7294, -8797, 410, 31, -346, -40, 63],
  "SliceThickness": 2,
  "SliceTiming": [0, 0.785, 0.1, 0.8825, 0.1975, 0.98, 0.295, 1.08, 0.3925, 1.1775, 0.49, 1.275, 0.59, 1.3725, 0.6875, 0, 0.785, 0.1, 0.8825, 0.1975, 0.98, 0.295, 1.08, 0.3925, 1.1775, 0.49, 1.275, 0.59, 1.3725, 0.6875, 0, 0.785, 0.1, 0.8825, 0.1975, 0.98, 0.295, 1.08, 0.3925, 1.1775, 0.49, 1.275, 0.59, 1.3725, 0.6875, 0, 0.785, 0.1, 0.8825, 0.1975, 0.98, 0.295, 1.08, 0.3925, 1.1775, 0.49, 1.275, 0.59, 1.3725, 0.6875],
  "SoftwareVersions": "syngo MR E11",
  "SpacingBetweenSlices": 2,
  "StationName": "MRC35049",
  "TaskName": "mario3",
  "TotalReadoutTime": 0.0576811,
  "TxRefAmp": 289.133,
  "WipMemBlock": "d98716cb-b594-4a1c-82bd-ae8e9e42ab52||Sequence: R017 ve11c/master r/75a17815+; Jun 28 2022 16:32:11 by eja",
  "dcmmeta_affine": [
    [-1.9992461204528809, 0.03908564895391464, 0.038562316447496414, 100.82984161376953],
    [0.022997811436653137, 1.871599793434143, -0.7046880722045898, -71.35917663574219],
    [0.049858205020427704, 0.7039790153503418, 1.8713438510894775, -57.700199127197266],
    [0.0, 0.0, 0.0, 1.0]
],
  "dcmmeta_reorient_transform": [
    [0.0, -1.0, 0.0, 103.0],
    [1.0, 0.0, 0.0, 0.0],
    [0.0, 0.0, 1.0, 0.0],
    [0.0, 0.0, 0.0, 1.0]
],
  "dcmmeta_shape": [104, 104, 60, 338],
  "dcmmeta_slice_dim": 2,
  "dcmmeta_version": 0.6,
  "global": {
    "const": {
      "AcquisitionMatrix": [104, 0, 0, 104],
      "AngioFlag": "N",
      "BitsAllocated": 16,
      "BitsStored": 16,
      "BodyPartExamined": "BRAIN",
      "Columns": 832,
      "EchoNumbers": 1,
      "EchoTime": 37.0,
      "EchoTrainLength": 104,
      "FlipAngle": 52.0,
      "HighBit": 15,
      "ImageOrientationPatient": [0.99962308647452, -0.0114989061639, 0.02492910235416, 0.0195428238097, 0.93579990477246, -0.3519895115843],
      "ImagePositionPatient": [-846.80844885549, -794.30672849549, 252.90961723001],
      "ImageType": [
        "ORIGINAL",
        "PRIMARY",
        "M",
        "MB",
        "ND",
        "MOSAIC"
],
      "ImagedNucleus": "1H",
      "ImagingFrequency": 123.258975,
      "InPlanePhaseEncodingDirection": "COL",
      "MRAcquisitionType": "2D",
      "MagneticFieldStrength": 3.0,
      "Manufacturer": "SIEMENS",
      "ManufacturerModelName": "Prisma_fit",
      "Modality": "MR",
      "NumberOfAverages": 1.0,
      "NumberOfPhaseEncodingSteps": 104,
      "PercentPhaseFieldOfView": 100.0,
      "PercentSampling": 100.0,
      "PerformedProcedureStepStartTime": "183831.130000",
      "PhotometricInterpretation": "MONOCHROME2",
      "PixelBandwidth": 2290.0,
      "PixelRepresentation": 0,
      "PixelSpacing": [2.0, 2.0],
      "ProtocolName": "func_task-mario3_run-02",
      "RepetitionTime": 1490.0,
      "Rows": 832,
      "SAR": 0.07253558514195,
      "SamplesPerPixel": 1,
      "ScanOptions": "FS",
      "ScanningSequence": "EP",
      "SequenceName": "epfid2d1_104",
      "SequenceVariant": [
        "SK",
        "SS"
],
      "SeriesDescription": "func_task-mario3_run-02",
      "SeriesNumber": 13,
      "SeriesTime": "190257.787000",
      "SliceLocation": -26.901359889195,
      "SliceThickness": 2.0,
      "SmallestImagePixelValue": 0,
      "SoftwareVersions": "syngo MR E11",
      "SpacingBetweenSlices": 2.0000000181618,
      "SpecificCharacterSet": "ISO_IR 100",
      "StudyID": "1",
      "StudyTime": "183831.060000",
      "TransmitCoilName": "Body",
      "VariableFlipAngleFlag": "N",
      "WindowCenterWidthExplanation": "Algo1",
      "dBdt": 0.0},
    "slices": {}
  },
  "time": {
    "samples": {
      "AcquisitionNumber": [1, 2, 3, 4, 5, 6, 7, 8, 9, 10, 11, 12, 13, 14, 15, 16, 17, 18, 19, 20, 21, 22, 23, 24, 25, 26, 27, 28, 29, 30, 31, 32, 33, 34, 35, 36, 37, 38, 39, 40, 41, 42, 43, 44, 45, 46, 47, 48, 49, 50, 51, 52, 53, 54, 55, 56, 57, 58, 59, 60, 61, 62, 63, 64, 65, 66, 67, 68, 69, 70, 71, 72, 73, 74, 75, 76, 77, 78, 79, 80, 81, 82, 83, 84, 85, 86, 87, 88, 89, 90, 91, 92, 93, 94, 95, 96, 97, 98, 99, 100, 101, 102, 103, 104, 105, 106, 107, 108, 109, 110, 111, 112, 113, 114, 115, 116, 117, 118, 119, 120, 121, 122, 123, 124, 125, 126, 127, 128, 129, 130, 131, 132, 133, 134, 135, 136, 137, 138, 139, 140, 141, 142, 143, 144, 145, 146, 147, 148, 149, 150, 151, 152, 153, 154, 155, 156, 157, 158, 159, 160, 161, 162, 163, 164, 165, 166, 167, 168, 169, 170, 171, 172, 173, 174, 175, 176, 177, 178, 179, 180, 181, 182, 183, 184, 185, 186, 187, 188, 189, 190, 191, 192, 193, 194, 195, 196, 197, 198, 199, 200, 201, 202, 203, 204, 205, 206, 207, 208, 209, 210, 211, 212, 213, 214, 215, 216, 217, 218, 219, 220, 221, 222, 223, 224, 225, 226, 227, 228, 229, 230, 231, 232, 233, 234, 235, 236, 237, 238, 239, 240, 241, 242, 243, 244, 245, 246, 247, 248, 249, 250, 251, 252, 253, 254, 255, 256, 257, 258, 259, 260, 261, 262, 263, 264, 265, 266, 267, 268, 269, 270, 271, 272, 273, 274, 275, 276, 277, 278, 279, 280, 281, 282, 283, 284, 285, 286, 287, 288, 289, 290, 291, 292, 293, 294, 295, 296, 297, 298, 299, 300, 301, 302, 303, 304, 305, 306, 307, 308, 309, 310, 311, 312, 313, 314, 315, 316, 317, 318, 319, 320, 321, 322, 323, 324, 325, 326, 327, 328, 329, 330, 331, 332, 333, 334, 335, 336, 337, 338],
      "AcquisitionTime": ["190141.405000", "190142.895000", "190144.385000", "190145.875000", "190147.365000", "190148.855000", "190150.345000", "190151.835000", "190153.325000", "190154.815000", "190156.305000", "190157.795000", "190159.285000", "190200.775000", "190202.265000", "190203.755000", "190205.245000", "190206.735000", "190208.225000", "190209.715000", "190211.205000", "190212.695000", "190214.185000", "190215.675000", "190217.165000", "190218.655000", "190220.145000", "190221.635000", "190223.125000", "190224.615000", "190226.105000", "190227.595000", "190229.085000", "190230.575000", "190232.065000", "190233.555000", "190235.045000", "190236.535000", "190238.025000", "190239.515000", "190241.005000", "190242.495000", "190243.985000", "190245.475000", "190246.965000", "190248.455000", "190249.945000", "190251.435000", "190252.925000", "190254.415000", "190255.905000", "190257.395000", "190258.885000", "190300.375000", "190301.865000", "190303.355000", "190304.845000", "190306.335000", "190307.825000", "190309.315000", "190310.805000", "190312.295000", "190313.785000", "190315.275000", "190316.765000", "190318.255000", "190319.745000", "190321.235000", "190322.725000", "190324.215000", "190325.705000", "190327.195000", "190328.685000", "190330.175000", "190331.665000", "190333.155000", "190334.645000", "190336.135000", "190337.625000", "190339.115000", "190340.605000", "190342.095000", "190343.585000", "190345.075000", "190346.565000", "190348.055000", "190349.545000", "190351.035000", "190352.525000", "190354.015000", "190355.505000", "190356.995000", "190358.485000", "190359.975000", "190401.465000", "190402.955000", "190404.445000", "190405.935000", "190407.425000", "190408.915000", "190410.405000", "190411.895000", "190413.385000", "190414.875000", "190416.365000", "190417.855000", "190419.345000", "190420.835000", "190422.325000", "190423.815000", "190425.305000", "190426.795000", "190428.285000", "190429.775000", "190431.265000", "190432.755000", "190434.245000", "190435.735000", "190437.225000", "190438.715000", "190440.205000", "190441.695000", "190443.185000", "190444.675000", "190446.165000", "190447.655000", "190449.145000", "190450.635000", "190452.125000", "190453.615000", "190455.105000", "190456.595000", "190458.085000", "190459.575000", "190501.065000", "190502.555000", "190504.045000", "190505.535000", "190507.025000", "190508.515000", "190510.005000", "190511.495000", "190512.985000", "190514.475000", "190515.965000", "190517.455000", "190518.945000", "190520.435000", "190521.925000", "190523.415000", "190524.905000", "190526.395000", "190527.885000", "190529.375000", "190530.865000", "190532.355000", "190533.845000", "190535.335000", "190536.825000", "190538.315000", "190539.805000", "190541.295000", "190542.785000", "190544.275000", "190545.765000", "190547.255000", "190548.745000", "190550.235000", "190551.725000", "190553.215000", "190554.705000", "190556.195000", "190557.685000", "190559.175000", "190600.665000", "190602.155000", "190603.645000", "190605.135000", "190606.625000", "190608.115000", "190609.605000", "190611.095000", "190612.585000", "190614.075000", "190615.565000", "190617.055000", "190618.545000", "190620.035000", "190621.525000", "190623.015000", "190624.505000", "190625.995000", "190627.485000", "190628.975000", "190630.465000", "190631.955000", "190633.445000", "190634.935000", "190636.425000", "190637.915000", "190639.405000", "190640.895000", "190642.385000", "190643.875000", "190645.365000", "190646.855000", "190648.345000", "190649.835000", "190651.325000", "190652.815000", "190654.305000", "190655.795000", "190657.285000", "190658.775000", "190700.265000", "190701.755000", "190703.245000", "190704.735000", "190706.225000", "190707.715000", "190709.205000", "190710.695000", "190712.185000", "190713.675000", "190715.165000", "190716.655000", "190718.145000", "190719.635000", "190721.125000", "190722.615000", "190724.105000", "190725.595000", "190727.085000", "190728.575000", "190730.065000", "190731.555000", "190733.045000", "190734.535000", "190736.025000", "190737.515000", "190739.005000", "190740.495000", "190741.985000", "190743.475000", "190744.965000", "190746.455000", "190747.945000", "190749.435000", "190750.925000", "190752.415000", "190753.905000", "190755.395000", "190756.885000", "190758.375000", "190759.865000", "190801.355000", "190802.845000", "190804.335000", "190805.825000", "190807.315000", "190808.805000", "190810.295000", "190811.785000", "190813.275000", "190814.765000", "190816.255000", "190817.745000", "190819.235000", "190820.725000", "190822.215000", "190823.705000", "190825.195000", "190826.685000", "190828.175000", "190829.665000", "190831.155000", "190832.645000", "190834.135000", "190835.625000", "190837.115000", "190838.605000", "190840.095000", "190841.585000", "190843.075000", "190844.565000", "190846.055000", "190847.545000", "190849.035000", "190850.525000", "190852.015000", "190853.505000", "190854.995000", "190856.485000", "190857.975000", "190859.465000", "190900.955000", "190902.445000", "190903.935000", "190905.425000", "190906.915000", "190908.405000", "190909.895000", "190911.385000", "190912.875000", "190914.365000", "190915.855000", "190917.345000", "190918.835000", "190920.325000", "190921.815000", "190923.305000", "190924.795000", "190926.285000", "190927.775000", "190929.265000", "190930.755000", "190932.245000", "190933.735000", "190935.225000", "190936.715000", "190938.205000", "190939.695000", "190941.185000", "190942.675000", "190944.165000", "190945.655000", "190947.145000", "190948.635000", "190950.125000", "190951.615000", "190953.105000", "190954.595000", "190956.085000", "190957.575000", "190959.065000", "191000.555000", "191002.045000", "191003.535000"],
      "ContentTime": ["190257.790000", "190257.794000", "190257.798000", "190257.801000", "190257.804000", "190257.807000", "190257.811000", "190257.814000", "190257.817000", "190257.821000", "190257.824000", "190257.827000", "190257.830000", "190257.834000", "190257.842000", "190257.845000", "190257.849000", "190257.852000", "190257.855000", "190257.859000", "190257.863000", "190257.867000", "190257.870000", "190257.873000", "190257.877000", "190257.880000", "190257.883000", "190257.886000", "190317.756000", "190317.761000", "190317.764000", "190317.768000", "190317.782000", "190317.785000", "190317.788000", "190317.792000", "190317.795000", "190317.798000", "190317.801000", "190317.818000", "190317.822000", "190317.825000", "190317.828000", "190317.831000", "190317.835000", "190317.838000", "190317.841000", "190317.844000", "190317.848000", "190337.756000", "190337.760000", "190337.763000", "190337.766000", "190337.770000", "190337.773000", "190337.776000", "190337.780000", "190337.783000", "190337.786000", "190337.789000", "190337.793000", "190337.803000", "190337.806000", "190337.809000", "190337.813000", "190337.816000", "190337.819000", "190337.822000", "190337.826000", "190357.756000", "190357.760000", "190357.763000", "190357.766000", "190357.770000", "190357.773000", "190357.776000", "190357.780000", "190357.783000", "190357.786000", "190357.789000", "190357.793000", "190357.796000", "190357.799000", "190357.802000", "190357.806000", "190357.809000", "190357.812000", "190357.816000", "190357.819000", "190437.755000", "190437.759000", "190437.762000", "190437.766000", "190437.769000", "190437.772000", "190437.776000", "190437.779000", "190437.783000", "190437.786000", "190437.789000", "190437.793000", "190437.796000", "190437.799000", "190437.803000", "190437.806000", "190437.809000", "190437.813000", "190437.816000", "190437.819000", "190437.823000", "190437.826000", "190437.829000", "190437.833000", "190437.837000", "190437.840000", "190437.844000", "190437.847000", "190517.755000", "190517.759000", "190517.763000", "190517.766000", "190517.769000", "190517.773000", "190517.776000", "190517.779000", "190517.783000", "190517.786000", "190517.789000", "190517.792000", "190517.796000", "190517.819000", "190517.822000", "190517.826000", "190517.829000", "190517.832000", "190517.836000", "190517.839000", "190517.842000", "190517.845000", "190517.849000", "190517.852000", "190517.855000", "190517.859000", "190517.862000", "190557.756000", "190557.760000", "190557.763000", "190557.766000", "190557.770000", "190557.773000", "190557.776000", "190557.780000", "190557.783000", "190557.786000", "190557.798000", "190557.801000", "190557.804000", "190557.808000", "190557.811000", "190557.814000", "190557.817000", "190557.821000", "190557.824000", "190557.827000", "190557.831000", "190557.834000", "190557.837000", "190557.841000", "190557.844000", "190557.847000", "190557.850000", "190637.755000", "190637.759000", "190637.762000", "190637.765000", "190637.769000", "190637.772000", "190637.776000", "190637.779000", "190637.782000", "190637.785000", "190637.789000", "190637.792000", "190637.795000", "190637.799000", "190637.802000", "190637.805000", "190637.809000", "190637.812000", "190637.815000", "190637.819000", "190637.822000", "190637.825000", "190637.828000", "190637.832000", "190637.835000", "190637.838000", "190637.842000", "190717.755000", "190717.759000", "190717.762000", "190717.766000", "190717.769000", "190717.773000", "190717.776000", "190717.779000", "190717.782000", "190717.786000", "190717.789000", "190717.792000", "190717.796000", "190717.799000", "190717.802000", "190717.806000", "190717.809000", "190717.812000", "190717.816000", "190717.819000", "190717.822000", "190717.826000", "190717.829000", "190717.832000", "190717.835000", "190717.850000", "190717.853000", "190757.755000", "190757.759000", "190757.762000", "190757.766000", "190757.769000", "190757.773000", "190757.776000", "190757.780000", "190757.783000", "190757.787000", "190757.790000", "190757.794000", "190757.798000", "190757.801000", "190757.805000", "190757.808000", "190757.811000", "190757.815000", "190757.818000", "190757.821000", "190757.825000", "190757.828000", "190757.831000", "190757.835000", "190757.838000", "190757.841000", "190757.845000", "190837.756000", "190837.760000", "190837.763000", "190837.767000", "190837.770000", "190837.774000", "190837.777000", "190837.781000", "190837.785000", "190837.788000", "190837.792000", "190837.795000", "190837.799000", "190837.803000", "190837.806000", "190837.810000", "190837.813000", "190837.817000", "190837.820000", "190837.823000", "190837.827000", "190837.830000", "190837.834000", "190837.837000", "190837.841000", "190837.844000", "190837.848000", "190917.755000", "190917.759000", "190917.762000", "190917.766000", "190917.769000", "190917.772000", "190917.775000", "190917.779000", "190917.782000", "190917.785000", "190917.789000", "190917.792000", "190917.795000", "190917.799000", "190917.802000", "190917.807000", "190917.810000", "190917.813000", "190917.817000", "190917.820000", "190917.823000", "190917.826000", "190917.830000", "190917.833000", "190917.836000", "190917.840000", "190957.756000", "190957.759000", "190957.762000", "190957.766000", "190957.770000", "190957.773000", "190957.777000", "190957.780000", "190957.784000", "190957.787000", "190957.790000", "190957.794000", "190957.797000", "190957.800000", "190957.804000", "190957.807000", "190957.810000", "190957.813000", "190957.817000", "190957.820000", "190957.823000", "190957.827000", "190957.830000", "190957.833000", "190957.837000", "190957.840000", "190957.843000", "191006.333000", "191006.336000", "191006.340000", "191006.343000", "191006.346000", "191006.349000"],
      "InstanceCreationTime": ["190257.790000", "190257.794000", "190257.798000", "190257.801000", "190257.804000", "190257.807000", "190257.811000", "190257.814000", "190257.817000", "190257.821000", "190257.824000", "190257.827000", "190257.830000", "190257.834000", "190257.842000", "190257.845000", "190257.849000", "190257.852000", "190257.855000", "190257.859000", "190257.863000", "190257.867000", "190257.870000", "190257.873000", "190257.877000", "190257.880000", "190257.883000", "190257.886000", "190317.756000", "190317.761000", "190317.764000", "190317.768000", "190317.782000", "190317.785000", "190317.788000", "190317.792000", "190317.795000", "190317.798000", "190317.801000", "190317.818000", "190317.822000", "190317.825000", "190317.828000", "190317.831000", "190317.835000", "190317.838000", "190317.841000", "190317.844000", "190317.848000", "190337.756000", "190337.760000", "190337.763000", "190337.766000", "190337.770000", "190337.773000", "190337.776000", "190337.780000", "190337.783000", "190337.786000", "190337.789000", "190337.793000", "190337.803000", "190337.806000", "190337.809000", "190337.813000", "190337.816000", "190337.819000", "190337.822000", "190337.826000", "190357.756000", "190357.760000", "190357.763000", "190357.766000", "190357.770000", "190357.773000", "190357.776000", "190357.780000", "190357.783000", "190357.786000", "190357.789000", "190357.793000", "190357.796000", "190357.799000", "190357.802000", "190357.806000", "190357.809000", "190357.812000", "190357.816000", "190357.819000", "190437.755000", "190437.759000", "190437.762000", "190437.766000", "190437.769000", "190437.772000", "190437.776000", "190437.779000", "190437.783000", "190437.786000", "190437.789000", "190437.793000", "190437.796000", "190437.799000", "190437.803000", "190437.806000", "190437.809000", "190437.813000", "190437.816000", "190437.819000", "190437.823000", "190437.826000", "190437.829000", "190437.833000", "190437.837000", "190437.840000", "190437.844000", "190437.847000", "190517.755000", "190517.759000", "190517.763000", "190517.766000", "190517.769000", "190517.773000", "190517.776000", "190517.779000", "190517.783000", "190517.786000", "190517.789000", "190517.792000", "190517.796000", "190517.819000", "190517.822000", "190517.826000", "190517.829000", "190517.832000", "190517.836000", "190517.839000", "190517.842000", "190517.845000", "190517.849000", "190517.852000", "190517.855000", "190517.859000", "190517.862000", "190557.756000", "190557.760000", "190557.763000", "190557.766000", "190557.770000", "190557.773000", "190557.776000", "190557.780000", "190557.783000", "190557.786000", "190557.798000", "190557.801000", "190557.804000", "190557.808000", "190557.811000", "190557.814000", "190557.817000", "190557.821000", "190557.824000", "190557.827000", "190557.831000", "190557.834000", "190557.837000", "190557.841000", "190557.844000", "190557.847000", "190557.850000", "190637.755000", "190637.759000", "190637.762000", "190637.765000", "190637.769000", "190637.772000", "190637.776000", "190637.779000", "190637.782000", "190637.785000", "190637.789000", "190637.792000", "190637.795000", "190637.799000", "190637.802000", "190637.805000", "190637.809000", "190637.812000", "190637.815000", "190637.819000", "190637.822000", "190637.825000", "190637.828000", "190637.832000", "190637.835000", "190637.838000", "190637.842000", "190717.755000", "190717.759000", "190717.762000", "190717.766000", "190717.769000", "190717.773000", "190717.776000", "190717.779000", "190717.782000", "190717.786000", "190717.789000", "190717.792000", "190717.796000", "190717.799000", "190717.802000", "190717.806000", "190717.809000", "190717.812000", "190717.816000", "190717.819000", "190717.822000", "190717.826000", "190717.829000", "190717.832000", "190717.835000", "190717.850000", "190717.853000", "190757.755000", "190757.759000", "190757.762000", "190757.766000", "190757.769000", "190757.773000", "190757.776000", "190757.780000", "190757.783000", "190757.787000", "190757.790000", "190757.794000", "190757.798000", "190757.801000", "190757.805000", "190757.808000", "190757.811000", "190757.815000", "190757.818000", "190757.821000", "190757.825000", "190757.828000", "190757.831000", "190757.835000", "190757.838000", "190757.841000", "190757.845000", "190837.756000", "190837.760000", "190837.763000", "190837.767000", "190837.770000", "190837.774000", "190837.777000", "190837.781000", "190837.785000", "190837.788000", "190837.792000", "190837.795000", "190837.799000", "190837.803000", "190837.806000", "190837.810000", "190837.813000", "190837.817000", "190837.820000", "190837.823000", "190837.827000", "190837.830000", "190837.834000", "190837.837000", "190837.841000", "190837.844000", "190837.848000", "190917.755000", "190917.759000", "190917.762000", "190917.766000", "190917.769000", "190917.772000", "190917.775000", "190917.779000", "190917.782000", "190917.785000", "190917.789000", "190917.792000", "190917.795000", "190917.799000", "190917.802000", "190917.807000", "190917.810000", "190917.813000", "190917.817000", "190917.820000", "190917.823000", "190917.826000", "190917.830000", "190917.833000", "190917.836000", "190917.840000", "190957.756000", "190957.759000", "190957.762000", "190957.766000", "190957.770000", "190957.773000", "190957.777000", "190957.780000", "190957.784000", "190957.787000", "190957.790000", "190957.794000", "190957.797000", "190957.800000", "190957.804000", "190957.807000", "190957.810000", "190957.813000", "190957.817000", "190957.820000", "190957.823000", "190957.827000", "190957.830000", "190957.833000", "190957.837000", "190957.840000", "190957.843000", "191006.333000", "191006.336000", "191006.340000", "191006.343000", "191006.346000", "191006.349000"],
      "InstanceNumber": [1, 2, 3, 4, 5, 6, 7, 8, 9, 10, 11, 12, 13, 14, 15, 16, 17, 18, 19, 20, 21, 22, 23, 24, 25, 26, 27, 28, 29, 30, 31, 32, 33, 34, 35, 36, 37, 38, 39, 40, 41, 42, 43, 44, 45, 46, 47, 48, 49, 50, 51, 52, 53, 54, 55, 56, 57, 58, 59, 60, 61, 62, 63, 64, 65, 66, 67, 68, 69, 70, 71, 72, 73, 74, 75, 76, 77, 78, 79, 80, 81, 82, 83, 84, 85, 86, 87, 88, 89, 90, 91, 92, 93, 94, 95, 96, 97, 98, 99, 100, 101, 102, 103, 104, 105, 106, 107, 108, 109, 110, 111, 112, 113, 114, 115, 116, 117, 118, 119, 120, 121, 122, 123, 124, 125, 126, 127, 128, 129, 130, 131, 132, 133, 134, 135, 136, 137, 138, 139, 140, 141, 142, 143, 144, 145, 146, 147, 148, 149, 150, 151, 152, 153, 154, 155, 156, 157, 158, 159, 160, 161, 162, 163, 164, 165, 166, 167, 168, 169, 170, 171, 172, 173, 174, 175, 176, 177, 178, 179, 180, 181, 182, 183, 184, 185, 186, 187, 188, 189, 190, 191, 192, 193, 194, 195, 196, 197, 198, 199, 200, 201, 202, 203, 204, 205, 206, 207, 208, 209, 210, 211, 212, 213, 214, 215, 216, 217, 218, 219, 220, 221, 222, 223, 224, 225, 226, 227, 228, 229, 230, 231, 232, 233, 234, 235, 236, 237, 238, 239, 240, 241, 242, 243, 244, 245, 246, 247, 248, 249, 250, 251, 252, 253, 254, 255, 256, 257, 258, 259, 260, 261, 262, 263, 264, 265, 266, 267, 268, 269, 270, 271, 272, 273, 274, 275, 276, 277, 278, 279, 280, 281, 282, 283, 284, 285, 286, 287, 288, 289, 290, 291, 292, 293, 294, 295, 296, 297, 298, 299, 300, 301, 302, 303, 304, 305, 306, 307, 308, 309, 310, 311, 312, 313, 314, 315, 316, 317, 318, 319, 320, 321, 322, 323, 324, 325, 326, 327, 328, 329, 330, 331, 332, 333, 334, 335, 336, 337, 338],
      "LargestImagePixelValue": [61143, 59712, 58642, 57967, 57273, 57427, 56718, 56411, 57188, 57230, 57233, 57335, 57177, 57226, 57050, 57177, 56816, 57086, 57010, 56594, 56863, 57435, 57156, 57168, 57103, 57007, 56866, 56803, 56121, 56610, 56611, 56720, 56700, 56546, 57170, 56598, 55927, 56605, 55936, 55772, 55968, 55474, 56422, 56170, 56311, 56560, 55702, 56406, 55948, 55554, 55147, 56021, 55192, 56143, 56100, 56070, 56073, 57017, 55739, 55823, 56260, 56891, 56294, 57366, 57161, 56713, 57251, 57058, 56204, 56884, 56342, 56429, 56511, 56214, 56592, 56359, 56721, 56487, 56863, 57061, 56794, 56132, 56094, 55866, 55508, 55229, 54732, 55106, 54845, 55217, 55277, 55280, 54707, 55104, 55680, 55225, 54918, 55536, 54688, 54501, 54578, 54571, 54556, 55148, 54752, 54892, 54614, 55166, 55163, 56650, 56098, 55898, 56326, 56831, 57054, 56602, 56160, 55868, 55322, 55971, 56838, 56639, 56585, 56607, 56367, 56259, 56002, 55673, 55541, 55486, 54590, 55249, 54510, 55804, 54918, 55380, 55525, 55320, 54774, 55003, 55516, 56157, 56394, 56398, 55792, 55759, 55882, 55684, 55322, 55441, 55398, 55475, 55137, 55371, 55145, 55177, 55499, 55621, 55506, 55304, 55506, 55160, 55347, 55804, 55728, 55940, 57408, 55830, 56104, 56554, 56413, 56526, 56314, 55700, 55840, 56274, 55397, 55449, 55910, 56047, 56457, 55879, 56232, 57015, 60480, 58000, 57473, 57217, 56931, 56993, 57515, 57248, 57574, 57426, 57227, 56906, 57894, 56824, 56506, 56055, 56493, 56207, 56252, 56228, 55777, 55573, 55741, 55783, 55860, 55941, 55689, 55898, 56548, 56148, 56235, 55597, 55140, 56105, 55736, 56572, 56182, 57314, 57264, 56950, 56168, 55481, 56237, 56909, 56400, 56603, 56728, 56543, 56598, 56420, 56702, 55955, 55766, 56942, 56892, 56222, 56471, 56567, 56711, 57177, 56930, 57096, 57329, 57103, 56873, 57252, 57597, 56954, 57361, 57203, 57661, 57579, 57364, 58348, 58163, 58314, 57427, 57777, 57784, 57415, 57397, 57949, 57675, 57653, 58120, 58392, 57990, 58031, 57662, 57524, 57351, 58060, 58043, 57581, 57693, 57728, 57686, 58050, 57578, 57708, 57704, 57639, 57605, 58526, 56984, 56873, 60713, 57565, 57655, 57835, 57426, 57189, 57085, 57397, 58266, 57305, 57677, 57616, 57074, 57105, 57763, 57133, 57901, 57592, 57227, 56893, 57893, 56863, 57249, 57233, 56921, 56796, 57273, 57349, 57043, 56541, 57013, 57420, 57232, 57354, 57584, 57171, 57477, 57144, 57525, 57212, 57438, 57125, 57174, 57288, 56895, 57249, 56817, 56822],
