{
  "AcquisitionMatrixPE": 104,
  "AcquisitionNumber": 1,
  "AcquisitionTime": "19:48:53.215000",
  "BandwidthPerPixelPhaseEncode": 17.17,
  "BaseResolution": 104,
  "BodyPartExamined": "BRAIN",
  "CoilCombinationMethod": "Sum of Squares",
  "ConsistencyInfo": "N4_VE11C_LATEST_20160120",
  "ConversionSoftware": "dcm2niix",
  "ConversionSoftwareVersion": "v1.0.20220505",
  "DerivedVendorReportedEchoSpacing": 0.000560011,
  "DeviceSerialNumber": "167006",
  "DwellTime": 2.1e-06,
  "EchoTime": 0.037,
  "EchoTrainLength": 104,
  "EffectiveEchoSpacing": 0.000560011,
  "FlipAngle": 52,
  "HeudiconvVersion": "0.5.3.post811+g6206e14",
  "ImageComments": "Unaliased MB4/PE3/LB",
  "ImageOrientationPatientDICOM": [0.999623, -0.0114989, 0.0249291, 0.0195428, 0.9358, -0.35199],
  "ImageOrientationText": "Tra>Cor(-20.6)>Sag(1.1)",
  "ImageType": [
    "ORIGINAL",
    "PRIMARY",
    "M",
    "MB",
    "ND",
    "MOSAIC"
],
  "ImagingFrequency": 123.259,
  "InPlanePhaseEncodingDirectionDICOM": "COL",
  "InstitutionAddress": "Chemin Queen-Mary 4565,Montreal,District,CA,H3W 1W5",
  "InstitutionName": "IUGM",
  "InstitutionalDepartmentName": "Department",
  "MRAcquisitionType": "2D",
  "MagneticFieldStrength": 3,
  "Manufacturer": "Siemens",
  "ManufacturersModelName": "Prisma_fit",
  "MatrixCoilMode": "SENSE",
  "Modality": "MR",
  "MultibandAccelerationFactor": 4,
  "PartialFourier": 1,
  "PatientPosition": "HFS",
  "PercentPhaseFOV": 100,
  "PercentSampling": 100,
  "PhaseEncodingDirection": "j",
  "PhaseEncodingSteps": 104,
  "PhaseResolution": 1,
  "PixelBandwidth": 2290,
  "ProcedureStepDescription": "games^mario3",
  "ProtocolName": "func_task-mario3_run-06",
  "PulseSequenceDetails": "%CustomerSeq%\\cmrr_mbep2d_bold",
  "ReceiveCoilActiveElements": "HC1-7;NC1,2",
  "ReceiveCoilName": "HeadNeck_64",
  "ReconMatrixPE": 104,
  "RepetitionTime": 1.49,
  "SAR": 0.0725356,
  "ScanOptions": "FS",
  "ScanningSequence": "EP",
  "SequenceName": "epfid2d1_104",
  "SequenceVariant": "SK\\SS",
  "SeriesDescription": "func_task-mario3_run-06",
  "SeriesNumber": 25,
  "ShimSetting": [595, -7294, -8797, 410, 31, -346, -40, 63],
  "SliceThickness": 2,
  "SliceTiming": [0, 0.7825, 0.0975, 0.88, 0.195, 0.9775, 0.2925, 1.0775, 0.39, 1.175, 0.4875, 1.2725, 0.5875, 1.37, 0.685, 0, 0.7825, 0.0975, 0.88, 0.195, 0.9775, 0.2925, 1.0775, 0.39, 1.175, 0.4875, 1.2725, 0.5875, 1.37, 0.685, 0, 0.7825, 0.0975, 0.88, 0.195, 0.9775, 0.2925, 1.0775, 0.39, 1.175, 0.4875, 1.2725, 0.5875, 1.37, 0.685, 0, 0.7825, 0.0975, 0.88, 0.195, 0.9775, 0.2925, 1.0775, 0.39, 1.175, 0.4875, 1.2725, 0.5875, 1.37, 0.685],
  "SoftwareVersions": "syngo MR E11",
  "SpacingBetweenSlices": 2,
  "StationName": "MRC35049",
  "TaskName": "mario3",
  "TotalReadoutTime": 0.0576811,
  "TxRefAmp": 289.133,
  "WipMemBlock": "7ac32722-2b61-4e1f-b56d-4402207177e5||Sequence: R017 ve11c/master r/75a17815+; Jun 28 2022 16:32:11 by eja",
  "dcmmeta_affine": [
    [-1.9992461204528809, 0.03908564895391464, 0.038562316447496414, 100.82984161376953],
    [0.022997811436653137, 1.871599793434143, -0.7046880722045898, -71.35917663574219],
    [0.049858205020427704, 0.7039790153503418, 1.8713438510894775, -57.700199127197266],
    [0.0, 0.0, 0.0, 1.0]
],
  "dcmmeta_reorient_transform": [
    [0.0, -1.0, 0.0, 103.0],
    [1.0, 0.0, 0.0, 0.0],
    [0.0, 0.0, 1.0, 0.0],
    [0.0, 0.0, 0.0, 1.0]
],
  "dcmmeta_shape": [104, 104, 60, 323],
  "dcmmeta_slice_dim": 2,
  "dcmmeta_version": 0.6,
  "global": {
    "const": {
      "AcquisitionMatrix": [104, 0, 0, 104],
      "AngioFlag": "N",
      "BitsAllocated": 16,
      "BitsStored": 16,
      "BodyPartExamined": "BRAIN",
      "Columns": 832,
      "EchoNumbers": 1,
      "EchoTime": 37.0,
      "EchoTrainLength": 104,
      "FlipAngle": 52.0,
      "HighBit": 15,
      "ImageOrientationPatient": [0.99962308647452, -0.0114989061639, 0.02492910235416, 0.0195428238097, 0.93579990477246, -0.3519895115843],
      "ImagePositionPatient": [-846.80844885549, -794.30672849549, 252.90961723001],
      "ImageType": [
        "ORIGINAL",
        "PRIMARY",
        "M",
        "MB",
        "ND",
        "MOSAIC"
],
      "ImagedNucleus": "1H",
      "ImagingFrequency": 123.258979,
      "InPlanePhaseEncodingDirection": "COL",
      "MRAcquisitionType": "2D",
      "MagneticFieldStrength": 3.0,
      "Manufacturer": "SIEMENS",
      "ManufacturerModelName": "Prisma_fit",
      "Modality": "MR",
      "NumberOfAverages": 1.0,
      "NumberOfPhaseEncodingSteps": 104,
      "PercentPhaseFieldOfView": 100.0,
      "PercentSampling": 100.0,
      "PerformedProcedureStepStartTime": "183831.130000",
      "PhotometricInterpretation": "MONOCHROME2",
      "PixelBandwidth": 2290.0,
      "PixelRepresentation": 0,
      "PixelSpacing": [2.0, 2.0],
      "ProtocolName": "func_task-mario3_run-06",
      "RepetitionTime": 1490.0,
      "Rows": 832,
      "SAR": 0.07253558514195,
      "SamplesPerPixel": 1,
      "ScanOptions": "FS",
      "ScanningSequence": "EP",
      "SequenceName": "epfid2d1_104",
      "SequenceVariant": [
        "SK",
        "SS"
],
      "SeriesDescription": "func_task-mario3_run-06",
      "SeriesNumber": 25,
      "SeriesTime": "195012.727000",
      "SliceLocation": -26.901359889195,
      "SliceThickness": 2.0,
      "SmallestImagePixelValue": 0,
      "SoftwareVersions": "syngo MR E11",
      "SpacingBetweenSlices": 2.0000000181618,
      "SpecificCharacterSet": "ISO_IR 100",
      "StudyID": "1",
      "StudyTime": "183831.060000",
      "TransmitCoilName": "Body",
      "VariableFlipAngleFlag": "N",
      "WindowCenterWidthExplanation": "Algo1",
      "dBdt": 0.0},
    "slices": {}
  },
  "time": {
    "samples": {
      "AcquisitionNumber": [1, 2, 3, 4, 5, 6, 7, 8, 9, 10, 11, 12, 13, 14, 15, 16, 17, 18, 19, 20, 21, 22, 23, 24, 25, 26, 27, 28, 29, 30, 31, 32, 33, 34, 35, 36, 37, 38, 39, 40, 41, 42, 43, 44, 45, 46, 47, 48, 49, 50, 51, 52, 53, 54, 55, 56, 57, 58, 59, 60, 61, 62, 63, 64, 65, 66, 67, 68, 69, 70, 71, 72, 73, 74, 75, 76, 77, 78, 79, 80, 81, 82, 83, 84, 85, 86, 87, 88, 89, 90, 91, 92, 93, 94, 95, 96, 97, 98, 99, 100, 101, 102, 103, 104, 105, 106, 107, 108, 109, 110, 111, 112, 113, 114, 115, 116, 117, 118, 119, 120, 121, 122, 123, 124, 125, 126, 127, 128, 129, 130, 131, 132, 133, 134, 135, 136, 137, 138, 139, 140, 141, 142, 143, 144, 145, 146, 147, 148, 149, 150, 151, 152, 153, 154, 155, 156, 157, 158, 159, 160, 161, 162, 163, 164, 165, 166, 167, 168, 169, 170, 171, 172, 173, 174, 175, 176, 177, 178, 179, 180, 181, 182, 183, 184, 185, 186, 187, 188, 189, 190, 191, 192, 193, 194, 195, 196, 197, 198, 199, 200, 201, 202, 203, 204, 205, 206, 207, 208, 209, 210, 211, 212, 213, 214, 215, 216, 217, 218, 219, 220, 221, 222, 223, 224, 225, 226, 227, 228, 229, 230, 231, 232, 233, 234, 235, 236, 237, 238, 239, 240, 241, 242, 243, 244, 245, 246, 247, 248, 249, 250, 251, 252, 253, 254, 255, 256, 257, 258, 259, 260, 261, 262, 263, 264, 265, 266, 267, 268, 269, 270, 271, 272, 273, 274, 275, 276, 277, 278, 279, 280, 281, 282, 283, 284, 285, 286, 287, 288, 289, 290, 291, 292, 293, 294, 295, 296, 297, 298, 299, 300, 301, 302, 303, 304, 305, 306, 307, 308, 309, 310, 311, 312, 313, 314, 315, 316, 317, 318, 319, 320, 321, 322, 323],
      "AcquisitionTime": ["194853.215000", "194854.705000", "194856.195000", "194857.685000", "194859.175000", "194900.665000", "194902.155000", "194903.645000", "194905.135000", "194906.625000", "194908.115000", "194909.605000", "194911.095000", "194912.585000", "194914.075000", "194915.565000", "194917.055000", "194918.545000", "194920.035000", "194921.525000", "194923.015000", "194924.505000", "194925.995000", "194927.485000", "194928.975000", "194930.465000", "194931.955000", "194933.445000", "194934.935000", "194936.425000", "194937.915000", "194939.405000", "194940.895000", "194942.385000", "194943.875000", "194945.365000", "194946.855000", "194948.345000", "194949.835000", "194951.325000", "194952.815000", "194954.305000", "194955.795000", "194957.285000", "194958.775000", "195000.265000", "195001.755000", "195003.245000", "195004.735000", "195006.225000", "195007.715000", "195009.205000", "195010.695000", "195012.185000", "195013.675000", "195015.165000", "195016.655000", "195018.145000", "195019.635000", "195021.125000", "195022.615000", "195024.105000", "195025.595000", "195027.085000", "195028.575000", "195030.065000", "195031.555000", "195033.045000", "195034.535000", "195036.025000", "195037.515000", "195039.005000", "195040.495000", "195041.985000", "195043.475000", "195044.965000", "195046.455000", "195047.945000", "195049.435000", "195050.925000", "195052.415000", "195053.905000", "195055.395000", "195056.885000", "195058.375000", "195059.865000", "195101.355000", "195102.845000", "195104.335000", "195105.825000", "195107.315000", "195108.805000", "195110.295000", "195111.785000", "195113.275000", "195114.765000", "195116.255000", "195117.745000", "195119.235000", "195120.725000", "195122.215000", "195123.705000", "195125.195000", "195126.685000", "195128.175000", "195129.665000", "195131.155000", "195132.645000", "195134.135000", "195135.625000", "195137.115000", "195138.605000", "195140.095000", "195141.585000", "195143.075000", "195144.565000", "195146.055000", "195147.545000", "195149.035000", "195150.525000", "195152.015000", "195153.505000", "195154.995000", "195156.485000", "195157.975000", "195159.465000", "195200.955000", "195202.445000", "195203.935000", "195205.425000", "195206.915000", "195208.405000", "195209.895000", "195211.385000", "195212.875000", "195214.365000", "195215.855000", "195217.345000", "195218.835000", "195220.325000", "195221.815000", "195223.305000", "195224.795000", "195226.285000", "195227.775000", "195229.265000", "195230.755000", "195232.245000", "195233.735000", "195235.225000", "195236.715000", "195238.205000", "195239.695000", "195241.185000", "195242.675000", "195244.165000", "195245.655000", "195247.145000", "195248.635000", "195250.125000", "195251.615000", "195253.105000", "195254.595000", "195256.085000", "195257.575000", "195259.065000", "195300.555000", "195302.045000", "195303.535000", "195305.025000", "195306.515000", "195308.005000", "195309.495000", "195310.985000", "195312.475000", "195313.965000", "195315.455000", "195316.945000", "195318.435000", "195319.925000", "195321.415000", "195322.905000", "195324.395000", "195325.885000", "195327.375000", "195328.865000", "195330.355000", "195331.845000", "195333.335000", "195334.825000", "195336.315000", "195337.805000", "195339.295000", "195340.785000", "195342.275000", "195343.765000", "195345.255000", "195346.745000", "195348.235000", "195349.725000", "195351.215000", "195352.705000", "195354.195000", "195355.685000", "195357.175000", "195358.665000", "195400.155000", "195401.645000", "195403.135000", "195404.625000", "195406.115000", "195407.605000", "195409.095000", "195410.585000", "195412.075000", "195413.565000", "195415.055000", "195416.545000", "195418.035000", "195419.525000", "195421.015000", "195422.505000", "195423.995000", "195425.485000", "195426.975000", "195428.465000", "195429.955000", "195431.445000", "195432.935000", "195434.425000", "195435.915000", "195437.405000", "195438.895000", "195440.385000", "195441.875000", "195443.365000", "195444.855000", "195446.345000", "195447.835000", "195449.325000", "195450.815000", "195452.305000", "195453.795000", "195455.285000", "195456.775000", "195458.265000", "195459.755000", "195501.245000", "195502.735000", "195504.225000", "195505.715000", "195507.205000", "195508.695000", "195510.185000", "195511.675000", "195513.165000", "195514.655000", "195516.145000", "195517.635000", "195519.125000", "195520.615000", "195522.105000", "195523.595000", "195525.085000", "195526.575000", "195528.065000", "195529.555000", "195531.045000", "195532.535000", "195534.025000", "195535.515000", "195537.005000", "195538.495000", "195539.985000", "195541.475000", "195542.965000", "195544.455000", "195545.945000", "195547.435000", "195548.925000", "195550.415000", "195551.905000", "195553.395000", "195554.885000", "195556.375000", "195557.865000", "195559.355000", "195600.845000", "195602.335000", "195603.825000", "195605.315000", "195606.805000", "195608.295000", "195609.785000", "195611.275000", "195612.765000", "195614.255000", "195615.745000", "195617.235000", "195618.725000", "195620.215000", "195621.705000", "195623.195000", "195624.685000", "195626.175000", "195627.665000", "195629.155000", "195630.645000", "195632.135000", "195633.625000", "195635.115000", "195636.605000", "195638.095000", "195639.585000", "195641.075000", "195642.565000", "195644.055000", "195645.545000", "195647.035000", "195648.525000", "195650.015000", "195651.505000", "195652.995000"],
      "ContentTime": ["195012.730000", "195012.734000", "195012.737000", "195012.740000", "195012.744000", "195012.748000", "195012.752000", "195012.755000", "195012.758000", "195012.761000", "195012.765000", "195012.768000", "195012.771000", "195012.775000", "195012.778000", "195012.781000", "195012.785000", "195012.788000", "195012.791000", "195012.794000", "195012.798000", "195012.801000", "195012.805000", "195012.808000", "195012.811000", "195012.814000", "195012.818000", "195012.821000", "195012.838000", "195012.841000", "195012.845000", "195012.848000", "195032.684000", "195032.688000", "195032.691000", "195032.694000", "195032.698000", "195032.701000", "195032.704000", "195032.708000", "195032.711000", "195032.714000", "195032.718000", "195032.721000", "195032.724000", "195032.727000", "195032.731000", "195032.734000", "195032.737000", "195032.741000", "195032.744000", "195032.747000", "195052.683000", "195052.687000", "195052.690000", "195052.693000", "195052.697000", "195052.700000", "195052.711000", "195052.714000", "195052.718000", "195052.721000", "195052.726000", "195052.729000", "195052.732000", "195052.736000", "195052.739000", "195052.742000", "195052.746000", "195052.749000", "195052.752000", "195052.755000", "195112.683000", "195112.687000", "195112.690000", "195112.693000", "195112.697000", "195112.700000", "195112.703000", "195112.707000", "195112.710000", "195112.713000", "195112.716000", "195112.720000", "195112.723000", "195112.726000", "195112.729000", "195112.733000", "195112.736000", "195112.739000", "195112.742000", "195112.746000", "195112.749000", "195152.683000", "195152.687000", "195152.690000", "195152.694000", "195152.704000", "195152.707000", "195152.710000", "195152.714000", "195152.717000", "195152.720000", "195152.723000", "195152.727000", "195152.730000", "195152.733000", "195152.737000", "195152.740000", "195152.743000", "195152.747000", "195152.750000", "195152.753000", "195152.757000", "195152.760000", "195152.763000", "195152.767000", "195152.770000", "195152.773000", "195152.777000", "195232.683000", "195232.687000", "195232.698000", "195232.701000", "195232.705000", "195232.708000", "195232.711000", "195232.715000", "195232.718000", "195232.721000", "195232.725000", "195232.728000", "195232.731000", "195232.735000", "195232.738000", "195232.741000", "195232.744000", "195232.748000", "195232.751000", "195232.754000", "195232.758000", "195232.761000", "195232.764000", "195232.768000", "195232.771000", "195232.774000", "195312.683000", "195312.687000", "195312.690000", "195312.693000", "195312.697000", "195312.700000", "195312.703000", "195312.715000", "195312.718000", "195312.722000", "195312.725000", "195312.728000", "195312.732000", "195312.735000", "195312.738000", "195312.742000", "195312.745000", "195312.748000", "195312.751000", "195312.755000", "195312.758000", "195312.761000", "195312.765000", "195312.768000", "195312.771000", "195312.775000", "195312.778000", "195352.683000", "195352.687000", "195352.690000", "195352.694000", "195352.697000", "195352.700000", "195352.704000", "195352.707000", "195352.710000", "195352.714000", "195352.717000", "195352.720000", "195352.723000", "195352.727000", "195352.730000", "195352.733000", "195352.737000", "195352.740000", "195352.743000", "195352.747000", "195352.750000", "195352.753000", "195352.756000", "195352.760000", "195352.763000", "195352.766000", "195352.815000", "195432.683000", "195432.687000", "195432.690000", "195432.694000", "195432.697000", "195432.700000", "195432.703000", "195432.707000", "195432.710000", "195432.713000", "195432.717000", "195432.720000", "195432.723000", "195432.726000", "195432.730000", "195432.733000", "195432.736000", "195432.740000", "195432.743000", "195432.746000", "195432.750000", "195432.753000", "195432.756000", "195432.760000", "195432.763000", "195432.766000", "195432.808000", "195512.684000", "195512.688000", "195512.691000", "195512.695000", "195512.698000", "195512.701000", "195512.704000", "195512.708000", "195512.711000", "195512.714000", "195512.718000", "195512.721000", "195512.724000", "195512.728000", "195512.731000", "195512.734000", "195512.738000", "195512.741000", "195512.744000", "195512.747000", "195512.751000", "195512.754000", "195512.757000", "195512.761000", "195512.764000", "195512.767000", "195512.771000", "195552.683000", "195552.687000", "195552.690000", "195552.694000", "195552.697000", "195552.700000", "195552.704000", "195552.707000", "195552.710000", "195552.714000", "195552.717000", "195552.720000", "195552.724000", "195552.727000", "195552.730000", "195552.734000", "195552.737000", "195552.740000", "195552.743000", "195552.747000", "195552.750000", "195552.753000", "195552.757000", "195552.760000", "195552.763000", "195552.767000", "195552.770000", "195632.683000", "195632.687000", "195632.690000", "195632.694000", "195632.697000", "195632.700000", "195632.704000", "195632.707000", "195632.710000", "195632.714000", "195632.717000", "195632.720000", "195632.723000", "195632.727000", "195632.730000", "195632.733000", "195632.737000", "195632.740000", "195632.743000", "195632.747000", "195632.750000", "195632.753000", "195632.756000", "195632.760000", "195632.763000", "195632.766000", "195632.770000", "195655.629000", "195655.632000", "195655.636000", "195655.654000", "195655.657000", "195655.660000", "195655.664000", "195655.667000", "195655.670000", "195655.674000", "195655.677000", "195655.680000", "195655.684000", "195655.687000", "195655.690000"],
      "InstanceCreationTime": ["195012.730000", "195012.734000", "195012.737000", "195012.740000", "195012.744000", "195012.748000", "195012.752000", "195012.755000", "195012.758000", "195012.761000", "195012.765000", "195012.768000", "195012.771000", "195012.775000", "195012.778000", "195012.781000", "195012.785000", "195012.788000", "195012.791000", "195012.794000", "195012.798000", "195012.801000", "195012.805000", "195012.808000", "195012.811000", "195012.814000", "195012.818000", "195012.821000", "195012.838000", "195012.841000", "195012.845000", "195012.848000", "195032.684000", "195032.688000", "195032.691000", "195032.694000", "195032.698000", "195032.701000", "195032.704000", "195032.708000", "195032.711000", "195032.714000", "195032.718000", "195032.721000", "195032.724000", "195032.727000", "195032.731000", "195032.734000", "195032.737000", "195032.741000", "195032.744000", "195032.747000", "195052.683000", "195052.687000", "195052.690000", "195052.693000", "195052.697000", "195052.700000", "195052.711000", "195052.714000", "195052.718000", "195052.721000", "195052.726000", "195052.729000", "195052.732000", "195052.736000", "195052.739000", "195052.742000", "195052.746000", "195052.749000", "195052.752000", "195052.755000", "195112.683000", "195112.687000", "195112.690000", "195112.693000", "195112.697000", "195112.700000", "195112.703000", "195112.707000", "195112.710000", "195112.713000", "195112.716000", "195112.720000", "195112.723000", "195112.726000", "195112.729000", "195112.733000", "195112.736000", "195112.739000", "195112.742000", "195112.746000", "195112.749000", "195152.683000", "195152.687000", "195152.690000", "195152.694000", "195152.704000", "195152.707000", "195152.710000", "195152.714000", "195152.717000", "195152.720000", "195152.723000", "195152.727000", "195152.730000", "195152.733000", "195152.737000", "195152.740000", "195152.743000", "195152.747000", "195152.750000", "195152.753000", "195152.757000", "195152.760000", "195152.763000", "195152.767000", "195152.770000", "195152.773000", "195152.777000", "195232.683000", "195232.687000", "195232.698000", "195232.701000", "195232.705000", "195232.708000", "195232.711000", "195232.715000", "195232.718000", "195232.721000", "195232.725000", "195232.728000", "195232.731000", "195232.735000", "195232.738000", "195232.741000", "195232.744000", "195232.748000", "195232.751000", "195232.754000", "195232.758000", "195232.761000", "195232.764000", "195232.768000", "195232.771000", "195232.774000", "195312.683000", "195312.687000", "195312.690000", "195312.693000", "195312.697000", "195312.700000", "195312.703000", "195312.715000", "195312.718000", "195312.722000", "195312.725000", "195312.728000", "195312.732000", "195312.735000", "195312.738000", "195312.742000", "195312.745000", "195312.748000", "195312.751000", "195312.755000", "195312.758000", "195312.761000", "195312.765000", "195312.768000", "195312.771000", "195312.775000", "195312.778000", "195352.683000", "195352.687000", "195352.690000", "195352.694000", "195352.697000", "195352.700000", "195352.704000", "195352.707000", "195352.710000", "195352.714000", "195352.717000", "195352.720000", "195352.723000", "195352.727000", "195352.730000", "195352.733000", "195352.737000", "195352.740000", "195352.743000", "195352.747000", "195352.750000", "195352.753000", "195352.756000", "195352.760000", "195352.763000", "195352.766000", "195352.815000", "195432.683000", "195432.687000", "195432.690000", "195432.694000", "195432.697000", "195432.700000", "195432.703000", "195432.707000", "195432.710000", "195432.713000", "195432.717000", "195432.720000", "195432.723000", "195432.726000", "195432.730000", "195432.733000", "195432.736000", "195432.740000", "195432.743000", "195432.746000", "195432.750000", "195432.753000", "195432.756000", "195432.760000", "195432.763000", "195432.766000", "195432.808000", "195512.684000", "195512.688000", "195512.691000", "195512.695000", "195512.698000", "195512.701000", "195512.704000", "195512.708000", "195512.711000", "195512.714000", "195512.718000", "195512.721000", "195512.724000", "195512.728000", "195512.731000", "195512.734000", "195512.738000", "195512.741000", "195512.744000", "195512.747000", "195512.751000", "195512.754000", "195512.757000", "195512.761000", "195512.764000", "195512.767000", "195512.771000", "195552.683000", "195552.687000", "195552.690000", "195552.694000", "195552.697000", "195552.700000", "195552.704000", "195552.707000", "195552.710000", "195552.714000", "195552.717000", "195552.720000", "195552.724000", "195552.727000", "195552.730000", "195552.734000", "195552.737000", "195552.740000", "195552.743000", "195552.747000", "195552.750000", "195552.753000", "195552.757000", "195552.760000", "195552.763000", "195552.767000", "195552.770000", "195632.683000", "195632.687000", "195632.690000", "195632.694000", "195632.697000", "195632.700000", "195632.704000", "195632.707000", "195632.710000", "195632.714000", "195632.717000", "195632.720000", "195632.723000", "195632.727000", "195632.730000", "195632.733000", "195632.737000", "195632.740000", "195632.743000", "195632.747000", "195632.750000", "195632.753000", "195632.756000", "195632.760000", "195632.763000", "195632.766000", "195632.770000", "195655.629000", "195655.632000", "195655.636000", "195655.654000", "195655.657000", "195655.660000", "195655.664000", "195655.667000", "195655.670000", "195655.674000", "195655.677000", "195655.680000", "195655.684000", "195655.687000", "195655.690000"],
      "InstanceNumber": [1, 2, 3, 4, 5, 6, 7, 8, 9, 10, 11, 12, 13, 14, 15, 16, 17, 18, 19, 20, 21, 22, 23, 24, 25, 26, 27, 28, 29, 30, 31, 32, 33, 34, 35, 36, 37, 38, 39, 40, 41, 42, 43, 44, 45, 46, 47, 48, 49, 50, 51, 52, 53, 54, 55, 56, 57, 58, 59, 60, 61, 62, 63, 64, 65, 66, 67, 68, 69, 70, 71, 72, 73, 74, 75, 76, 77, 78, 79, 80, 81, 82, 83, 84, 85, 86, 87, 88, 89, 90, 91, 92, 93, 94, 95, 96, 97, 98, 99, 100, 101, 102, 103, 104, 105, 106, 107, 108, 109, 110, 111, 112, 113, 114, 115, 116, 117, 118, 119, 120, 121, 122, 123, 124, 125, 126, 127, 128, 129, 130, 131, 132, 133, 134, 135, 136, 137, 138, 139, 140, 141, 142, 143, 144, 145, 146, 147, 148, 149, 150, 151, 152, 153, 154, 155, 156, 157, 158, 159, 160, 161, 162, 163, 164, 165, 166, 167, 168, 169, 170, 171, 172, 173, 174, 175, 176, 177, 178, 179, 180, 181, 182, 183, 184, 185, 186, 187, 188, 189, 190, 191, 192, 193, 194, 195, 196, 197, 198, 199, 200, 201, 202, 203, 204, 205, 206, 207, 208, 209, 210, 211, 212, 213, 214, 215, 216, 217, 218, 219, 220, 221, 222, 223, 224, 225, 226, 227, 228, 229, 230, 231, 232, 233, 234, 235, 236, 237, 238, 239, 240, 241, 242, 243, 244, 245, 246, 247, 248, 249, 250, 251, 252, 253, 254, 255, 256, 257, 258, 259, 260, 261, 262, 263, 264, 265, 266, 267, 268, 269, 270, 271, 272, 273, 274, 275, 276, 277, 278, 279, 280, 281, 282, 283, 284, 285, 286, 287, 288, 289, 290, 291, 292, 293, 294, 295, 296, 297, 298, 299, 300, 301, 302, 303, 304, 305, 306, 307, 308, 309, 310, 311, 312, 313, 314, 315, 316, 317, 318, 319, 320, 321, 322, 323],
      "LargestImagePixelValue": [56332, 54822, 53266, 52735, 53437, 52435, 52760, 53230, 52523, 51752, 51679, 51326, 51666, 51368, 53063, 54737, 55804, 56749, 57789, 54192, 53990, 54143, 54446, 54306, 54796, 54211, 54490, 54140, 55494, 55383, 55315, 53354, 54714, 55579, 55947, 57394, 56878, 56807, 57011, 56559, 58490, 56858, 55580, 55322, 54967, 55638, 55412, 55785, 56564, 55262, 55481, 55375, 55431, 56016, 55917, 55456, 55106, 55017, 54987, 55120, 54510, 54374, 54103, 53760, 54135, 52782, 52197, 52242, 52679, 52616, 53022, 52684, 52852, 51705, 51937, 51413, 51486, 52926, 52382, 51492, 51304, 51282, 52224, 52457, 52525, 52252, 52821, 53164, 52762, 53236, 53581, 53160, 56819, 52474, 54075, 53075, 53027, 52661, 52212, 52428, 52821, 52460, 52923, 52771, 53223, 53103, 53318, 53470, 53019, 53473, 52494, 52639, 53461, 53027, 53595, 53350, 54279, 53787, 54065, 53510, 51877, 52734, 52943, 51945, 50971, 51513, 51942, 52566, 52089, 52324, 53164, 53205, 52435, 51076, 52448, 51366, 56231, 52645, 50966, 51703, 52771, 53567, 55982, 56216, 54876, 52703, 52850, 52698, 52403, 52065, 51817, 52553, 52557, 52978, 52827, 52624, 52892, 52970, 52380, 52589, 52556, 52683, 52887, 53606, 53395, 53771, 52853, 53407, 52886, 52693, 52988, 52756, 52342, 52805, 52862, 53058, 52722, 52683, 52579, 52742, 53747, 52598, 53668, 52352, 52901, 53059, 52578, 54150, 54020, 53157, 53695, 53371, 52944, 53422, 52804, 53055, 52742, 53324, 53220, 53571, 54264, 53963, 54357, 54226, 54072, 54224, 54092, 54088, 53263, 53466, 53072, 53681, 53797, 53981, 53724, 53379, 53543, 53618, 53048, 53591, 52795, 53039, 53165, 54396, 53132, 53942, 53802, 52980, 52079, 52032, 56193, 52707, 52390, 53258, 52741, 53428, 52425, 52030, 52332, 52634, 52601, 52402, 52994, 53090, 52471, 53039, 53266, 52995, 53374, 53558, 53704, 53618, 53169, 53210, 53251, 54161, 53150, 55114, 53882, 54363, 54335, 54380, 54751, 54291, 54446, 53886, 54601, 54109, 54314, 53518, 53924, 54503, 54364, 54823, 54088, 54131, 53793, 53137, 54204, 53944, 54209, 53419, 53849, 54132, 53988, 54466, 53974, 54078, 55214, 53943, 53853, 54732, 54619, 53281, 53629, 53465, 52685, 53830, 54652, 53627, 53582, 52536, 52671, 54236, 53644, 53260, 54168, 54597, 53677, 53856, 53228, 52526, 52945, 52568, 52317, 52256, 52330, 53343, 53454, 52436, 52869, 52131, 54336],
