{
  "AcquisitionMatrixPE": 104,
  "AcquisitionNumber": 1,
  "AcquisitionTime": "19:29:7.242500",
  "BandwidthPerPixelPhaseEncode": 17.17,
  "BaseResolution": 104,
  "BodyPartExamined": "BRAIN",
  "CoilCombinationMethod": "Sum of Squares",
  "ConsistencyInfo": "N4_VE11C_LATEST_20160120",
  "ConversionSoftware": "dcm2niix",
  "ConversionSoftwareVersion": "v1.0.20220505",
  "DerivedVendorReportedEchoSpacing": 0.000560011,
  "DeviceSerialNumber": "167006",
  "DwellTime": 2.1e-06,
  "EchoTime": 0.037,
  "EchoTime1": 0.037,
  "EchoTime2": 0.001,
  "EchoTrainLength": 104,
  "EffectiveEchoSpacing": 0.000560011,
  "FlipAngle": 52,
  "HeudiconvVersion": "0.5.3.post811+g6206e14",
  "ImageComments": "Unaliased MB4/PE3/LB",
  "ImageOrientationPatientDICOM": [0.999623, -0.0114989, 0.0249291, 0.0195428, 0.9358, -0.35199],
  "ImageOrientationText": "Tra>Cor(-20.6)>Sag(1.1)",
  "ImageType": [
    "ORIGINAL",
    "PRIMARY",
    "P",
    "MB",
    "ND",
    "MOSAIC",
    "PHASE"
],
  "ImagingFrequency": 123.259,
  "InPlanePhaseEncodingDirectionDICOM": "COL",
  "InstitutionAddress": "Chemin Queen-Mary 4565,Montreal,District,CA,H3W 1W5",
  "InstitutionName": "IUGM",
  "InstitutionalDepartmentName": "Department",
  "MRAcquisitionType": "2D",
  "MagneticFieldStrength": 3,
  "Manufacturer": "Siemens",
  "ManufacturersModelName": "Prisma_fit",
  "MatrixCoilMode": "SENSE",
  "Modality": "MR",
  "MultibandAccelerationFactor": 4,
  "PartialFourier": 1,
  "PatientPosition": "HFS",
  "PercentPhaseFOV": 100,
  "PercentSampling": 100,
  "PhaseEncodingDirection": "j",
  "PhaseEncodingSteps": 104,
  "PhaseResolution": 1,
  "PixelBandwidth": 2290,
  "ProcedureStepDescription": "games^mario3",
  "ProtocolName": "func_task-mario3_run-04",
  "PulseSequenceDetails": "%CustomerSeq%\\cmrr_mbep2d_bold",
  "ReceiveCoilActiveElements": "HC1-7;NC1,2",
  "ReceiveCoilName": "HeadNeck_64",
  "ReconMatrixPE": 104,
  "RepetitionTime": 1.49,
  "SAR": 0.0725356,
  "ScanOptions": "FS",
  "ScanningSequence": "EP",
  "SequenceName": "epfid2d1_104",
  "SequenceVariant": "SK\\SS",
  "SeriesDescription": "func_task-mario3_run-04",
  "SeriesNumber": 20,
  "ShimSetting": [595, -7294, -8797, 410, 31, -346, -40, 63],
  "SliceThickness": 2,
  "SliceTiming": [0, 0.785, 0.1, 0.8825, 0.1975, 0.98, 0.295, 1.08, 0.3925, 1.1775, 0.49, 1.275, 0.59, 1.3725, 0.6875, 0, 0.785, 0.1, 0.8825, 0.1975, 0.98, 0.295, 1.08, 0.3925, 1.1775, 0.49, 1.275, 0.59, 1.3725, 0.6875, 0, 0.785, 0.1, 0.8825, 0.1975, 0.98, 0.295, 1.08, 0.3925, 1.1775, 0.49, 1.275, 0.59, 1.3725, 0.6875, 0, 0.785, 0.1, 0.8825, 0.1975, 0.98, 0.295, 1.08, 0.3925, 1.1775, 0.49, 1.275, 0.59, 1.3725, 0.6875],
  "SoftwareVersions": "syngo MR E11",
  "SpacingBetweenSlices": 2,
  "StationName": "MRC35049",
  "TaskName": "mario3",
  "TotalReadoutTime": 0.0576811,
  "TxRefAmp": 289.133,
  "WipMemBlock": "b37ebf03-b2eb-49d0-a141-455110252fe5||Sequence: R017 ve11c/master r/75a17815+; Jun 28 2022 16:32:11 by eja",
  "dcmmeta_affine": [
    [-1.9992461204528809, 0.03908564895391464, 0.038562316447496414, 100.82984161376953],
    [0.022997811436653137, 1.871599793434143, -0.7046880722045898, -71.35917663574219],
    [0.049858205020427704, 0.7039790153503418, 1.8713438510894775, -57.700199127197266],
    [0.0, 0.0, 0.0, 1.0]
],
  "dcmmeta_reorient_transform": [
    [0.0, -1.0, 0.0, 103.0],
    [1.0, 0.0, 0.0, 0.0],
    [0.0, 0.0, 1.0, 0.0],
    [0.0, 0.0, 0.0, 1.0]
],
  "dcmmeta_shape": [104, 104, 60, 386],
  "dcmmeta_slice_dim": 2,
  "dcmmeta_version": 0.6,
  "global": {
    "const": {
      "AcquisitionMatrix": [104, 0, 0, 104],
      "AngioFlag": "N",
      "BitsAllocated": 16,
      "BitsStored": 16,
      "BodyPartExamined": "BRAIN",
      "Columns": 832,
      "EchoNumbers": 1,
      "EchoTime": 37.0,
      "EchoTrainLength": 104,
      "FlipAngle": 52.0,
      "HighBit": 15,
      "ImageOrientationPatient": [0.99962308647452, -0.0114989061639, 0.02492910235416, 0.0195428238097, 0.93579990477246, -0.3519895115843],
      "ImagePositionPatient": [-846.80844885549, -794.30672849549, 252.90961723001],
      "ImageType": [
        "ORIGINAL",
        "PRIMARY",
        "P",
        "MB",
        "ND",
        "MOSAIC"
],
      "ImagedNucleus": "1H",
      "ImagingFrequency": 123.258979,
      "InPlanePhaseEncodingDirection": "COL",
      "LargestImagePixelValue": 4095,
      "MRAcquisitionType": "2D",
      "MagneticFieldStrength": 3.0,
      "Manufacturer": "SIEMENS",
      "ManufacturerModelName": "Prisma_fit",
      "Modality": "MR",
      "NumberOfAverages": 1.0,
      "NumberOfPhaseEncodingSteps": 104,
      "PercentPhaseFieldOfView": 100.0,
      "PercentSampling": 100.0,
      "PerformedProcedureStepStartTime": "183831.130000",
      "PhotometricInterpretation": "MONOCHROME2",
      "PixelBandwidth": 2290.0,
      "PixelRepresentation": 0,
      "PixelSpacing": [2.0, 2.0],
      "ProtocolName": "func_task-mario3_run-04",
      "RepetitionTime": 1490.0,
      "RescaleIntercept": -4096.0,
      "RescaleSlope": 2.0,
      "RescaleType": "US",
      "Rows": 832,
      "SAR": 0.07253558514195,
      "SamplesPerPixel": 1,
      "ScanOptions": "FS",
      "ScanningSequence": "EP",
      "SequenceName": "epfid2d1_104",
      "SequenceVariant": [
        "SK",
        "SS"
],
      "SeriesDescription": "func_task-mario3_run-04",
      "SeriesNumber": 20,
      "SeriesTime": "193007.803000",
      "SliceLocation": -26.901359889195,
      "SliceThickness": 2.0,
      "SmallestImagePixelValue": 0,
      "SoftwareVersions": "syngo MR E11",
      "SpacingBetweenSlices": 2.0000000181618,
      "SpecificCharacterSet": "ISO_IR 100",
      "StudyID": "1",
      "StudyTime": "183831.060000",
      "TransmitCoilName": "Body",
      "VariableFlipAngleFlag": "N",
      "WindowCenterWidthExplanation": "Algo1",
      "dBdt": 0.0},
    "slices": {}
  },
  "time": {
    "samples": {
      "AcquisitionNumber": [1, 2, 3, 4, 5, 6, 7, 8, 9, 10, 11, 12, 13, 14, 15, 16, 17, 18, 19, 20, 21, 22, 23, 24, 25, 26, 27, 28, 29, 30, 31, 32, 33, 34, 35, 36, 37, 38, 39, 40, 41, 42, 43, 44, 45, 46, 47, 48, 49, 50, 51, 52, 53, 54, 55, 56, 57, 58, 59, 60, 61, 62, 63, 64, 65, 66, 67, 68, 69, 70, 71, 72, 73, 74, 75, 76, 77, 78, 79, 80, 81, 82, 83, 84, 85, 86, 87, 88, 89, 90, 91, 92, 93, 94, 95, 96, 97, 98, 99, 100, 101, 102, 103, 104, 105, 106, 107, 108, 109, 110, 111, 112, 113, 114, 115, 116, 117, 118, 119, 120, 121, 122, 123, 124, 125, 126, 127, 128, 129, 130, 131, 132, 133, 134, 135, 136, 137, 138, 139, 140, 141, 142, 143, 144, 145, 146, 147, 148, 149, 150, 151, 152, 153, 154, 155, 156, 157, 158, 159, 160, 161, 162, 163, 164, 165, 166, 167, 168, 169, 170, 171, 172, 173, 174, 175, 176, 177, 178, 179, 180, 181, 182, 183, 184, 185, 186, 187, 188, 189, 190, 191, 192, 193, 194, 195, 196, 197, 198, 199, 200, 201, 202, 203, 204, 205, 206, 207, 208, 209, 210, 211, 212, 213, 214, 215, 216, 217, 218, 219, 220, 221, 222, 223, 224, 225, 226, 227, 228, 229, 230, 231, 232, 233, 234, 235, 236, 237, 238, 239, 240, 241, 242, 243, 244, 245, 246, 247, 248, 249, 250, 251, 252, 253, 254, 255, 256, 257, 258, 259, 260, 261, 262, 263, 264, 265, 266, 267, 268, 269, 270, 271, 272, 273, 274, 275, 276, 277, 278, 279, 280, 281, 282, 283, 284, 285, 286, 287, 288, 289, 290, 291, 292, 293, 294, 295, 296, 297, 298, 299, 300, 301, 302, 303, 304, 305, 306, 307, 308, 309, 310, 311, 312, 313, 314, 315, 316, 317, 318, 319, 320, 321, 322, 323, 324, 325, 326, 327, 328, 329, 330, 331, 332, 333, 334, 335, 336, 337, 338, 339, 340, 341, 342, 343, 344, 345, 346, 347, 348, 349, 350, 351, 352, 353, 354, 355, 356, 357, 358, 359, 360, 361, 362, 363, 364, 365, 366, 367, 368, 369, 370, 371, 372, 373, 374, 375, 376, 377, 378, 379, 380, 381, 382, 383, 384, 385, 386],
      "AcquisitionTime": ["192907.242500", "192908.732500", "192910.222500", "192911.712500", "192913.202500", "192914.692500", "192916.182500", "192917.672500", "192919.162500", "192920.652500", "192922.142500", "192923.632500", "192925.122500", "192926.612500", "192928.102500", "192929.592500", "192931.082500", "192932.572500", "192934.062500", "192935.552500", "192937.042500", "192938.532500", "192940.022500", "192941.512500", "192943.002500", "192944.492500", "192945.982500", "192947.472500", "192948.962500", "192950.452500", "192951.942500", "192953.432500", "192954.922500", "192956.412500", "192957.902500", "192959.392500", "193000.882500", "193002.372500", "193003.862500", "193005.352500", "193006.842500", "193008.332500", "193009.822500", "193011.312500", "193012.802500", "193014.292500", "193015.782500", "193017.272500", "193018.762500", "193020.252500", "193021.742500", "193023.232500", "193024.722500", "193026.212500", "193027.702500", "193029.192500", "193030.682500", "193032.172500", "193033.662500", "193035.152500", "193036.642500", "193038.132500", "193039.622500", "193041.112500", "193042.602500", "193044.092500", "193045.582500", "193047.072500", "193048.562500", "193050.052500", "193051.542500", "193053.032500", "193054.522500", "193056.012500", "193057.502500", "193058.992500", "193100.482500", "193101.972500", "193103.462500", "193104.952500", "193106.442500", "193107.932500", "193109.422500", "193110.912500", "193112.402500", "193113.892500", "193115.382500", "193116.872500", "193118.362500", "193119.852500", "193121.342500", "193122.832500", "193124.322500", "193125.812500", "193127.302500", "193128.792500", "193130.282500", "193131.772500", "193133.262500", "193134.752500", "193136.242500", "193137.732500", "193139.222500", "193140.712500", "193142.202500", "193143.692500", "193145.182500", "193146.672500", "193148.162500", "193149.652500", "193151.142500", "193152.632500", "193154.122500", "193155.612500", "193157.102500", "193158.592500", "193200.082500", "193201.572500", "193203.062500", "193204.552500", "193206.042500", "193207.532500", "193209.022500", "193210.512500", "193212.002500", "193213.492500", "193214.982500", "193216.472500", "193217.962500", "193219.452500", "193220.942500", "193222.432500", "193223.922500", "193225.412500", "193226.902500", "193228.392500", "193229.882500", "193231.372500", "193232.862500", "193234.352500", "193235.842500", "193237.332500", "193238.822500", "193240.312500", "193241.802500", "193243.292500", "193244.782500", "193246.272500", "193247.762500", "193249.252500", "193250.742500", "193252.232500", "193253.722500", "193255.212500", "193256.702500", "193258.192500", "193259.682500", "193301.172500", "193302.662500", "193304.152500", "193305.642500", "193307.132500", "193308.622500", "193310.112500", "193311.602500", "193313.092500", "193314.582500", "193316.072500", "193317.562500", "193319.052500", "193320.542500", "193322.032500", "193323.522500", "193325.012500", "193326.502500", "193327.992500", "193329.482500", "193330.972500", "193332.462500", "193333.952500", "193335.442500", "193336.932500", "193338.422500", "193339.912500", "193341.402500", "193342.892500", "193344.382500", "193345.872500", "193347.362500", "193348.852500", "193350.342500", "193351.832500", "193353.322500", "193354.812500", "193356.302500", "193357.792500", "193359.282500", "193400.772500", "193402.262500", "193403.752500", "193405.242500", "193406.732500", "193408.222500", "193409.712500", "193411.202500", "193412.692500", "193414.182500", "193415.672500", "193417.162500", "193418.652500", "193420.142500", "193421.632500", "193423.122500", "193424.612500", "193426.102500", "193427.592500", "193429.082500", "193430.572500", "193432.062500", "193433.552500", "193435.042500", "193436.532500", "193438.022500", "193439.512500", "193441.002500", "193442.492500", "193443.982500", "193445.472500", "193446.962500", "193448.452500", "193449.942500", "193451.432500", "193452.922500", "193454.412500", "193455.902500", "193457.392500", "193458.882500", "193500.372500", "193501.862500", "193503.352500", "193504.842500", "193506.332500", "193507.822500", "193509.312500", "193510.802500", "193512.292500", "193513.782500", "193515.272500", "193516.762500", "193518.252500", "193519.742500", "193521.232500", "193522.722500", "193524.212500", "193525.702500", "193527.192500", "193528.682500", "193530.172500", "193531.662500", "193533.152500", "193534.642500", "193536.132500", "193537.622500", "193539.112500", "193540.602500", "193542.092500", "193543.582500", "193545.072500", "193546.562500", "193548.052500", "193549.542500", "193551.032500", "193552.522500", "193554.012500", "193555.502500", "193556.992500", "193558.482500", "193559.972500", "193601.462500", "193602.952500", "193604.442500", "193605.932500", "193607.422500", "193608.912500", "193610.402500", "193611.892500", "193613.382500", "193614.872500", "193616.362500", "193617.852500", "193619.342500", "193620.832500", "193622.322500", "193623.812500", "193625.302500", "193626.792500", "193628.282500", "193629.772500", "193631.262500", "193632.752500", "193634.242500", "193635.732500", "193637.222500", "193638.712500", "193640.202500", "193641.692500", "193643.182500", "193644.672500", "193646.162500", "193647.652500", "193649.142500", "193650.632500", "193652.122500", "193653.612500", "193655.102500", "193656.592500", "193658.082500", "193659.572500", "193701.062500", "193702.552500", "193704.042500", "193705.532500", "193707.022500", "193708.512500", "193710.002500", "193711.492500", "193712.982500", "193714.472500", "193715.962500", "193717.452500", "193718.942500", "193720.432500", "193721.922500", "193723.412500", "193724.902500", "193726.392500", "193727.882500", "193729.372500", "193730.862500", "193732.352500", "193733.842500", "193735.332500", "193736.822500", "193738.312500", "193739.802500", "193741.292500", "193742.782500", "193744.272500", "193745.762500", "193747.252500", "193748.742500", "193750.232500", "193751.722500", "193753.212500", "193754.702500", "193756.192500", "193757.682500", "193759.172500", "193800.662500", "193802.152500", "193803.642500", "193805.132500", "193806.622500", "193808.112500", "193809.602500", "193811.092500", "193812.582500", "193814.072500", "193815.562500", "193817.052500", "193818.542500", "193820.032500", "193821.522500", "193823.012500", "193824.502500", "193825.992500", "193827.482500", "193828.972500", "193830.462500", "193831.952500", "193833.442500", "193834.932500", "193836.422500", "193837.912500", "193839.402500", "193840.892500"],
      "ContentTime": ["193007.805000", "193007.808000", "193007.810000", "193007.813000", "193007.815000", "193007.818000", "193007.820000", "193007.823000", "193007.825000", "193007.828000", "193007.830000", "193007.833000", "193027.804000", "193027.807000", "193027.809000", "193027.811000", "193027.814000", "193027.816000", "193027.819000", "193027.821000", "193027.824000", "193027.826000", "193027.829000", "193027.831000", "193027.834000", "193027.836000", "193027.839000", "193027.841000", "193027.844000", "193027.846000", "193027.848000", "193027.851000", "193047.803000", "193047.806000", "193047.808000", "193047.811000", "193047.813000", "193047.822000", "193047.825000", "193047.827000", "193047.830000", "193047.832000", "193047.835000", "193047.837000", "193047.840000", "193047.842000", "193047.845000", "193047.847000", "193047.850000", "193047.852000", "193047.855000", "193047.857000", "193107.814000", "193107.816000", "193107.819000", "193107.821000", "193107.824000", "193107.826000", "193107.829000", "193107.831000", "193107.834000", "193107.836000", "193107.838000", "193107.841000", "193107.843000", "193107.846000", "193107.848000", "193107.851000", "193107.853000", "193107.856000", "193107.858000", "193107.861000", "193107.863000", "193127.824000", "193127.827000", "193127.829000", "193127.831000", "193127.834000", "193127.836000", "193127.839000", "193127.841000", "193127.844000", "193127.846000", "193127.849000", "193127.851000", "193127.854000", "193127.856000", "193127.859000", "193127.861000", "193127.864000", "193127.866000", "193127.869000", "193127.871000", "193207.838000", "193207.840000", "193207.843000", "193207.845000", "193207.848000", "193207.850000", "193207.853000", "193207.855000", "193207.858000", "193207.860000", "193207.862000", "193207.865000", "193207.867000", "193207.870000", "193207.872000", "193207.875000", "193207.877000", "193207.880000", "193207.882000", "193207.885000", "193207.887000", "193207.890000", "193207.892000", "193207.895000", "193207.897000", "193207.900000", "193207.902000", "193247.834000", "193247.837000", "193247.839000", "193247.842000", "193247.844000", "193247.847000", "193247.849000", "193247.852000", "193247.854000", "193247.857000", "193247.859000", "193247.862000", "193247.864000", "193247.867000", "193247.869000", "193247.872000", "193247.874000", "193247.877000", "193247.879000", "193247.882000", "193247.884000", "193247.887000", "193247.889000", "193247.892000", "193247.894000", "193247.897000", "193247.899000", "193327.836000", "193327.839000", "193327.841000", "193327.844000", "193327.846000", "193327.849000", "193327.851000", "193327.854000", "193327.856000", "193327.859000", "193327.861000", "193327.864000", "193327.866000", "193327.869000", "193327.871000", "193327.874000", "193327.876000", "193327.879000", "193327.881000", "193327.884000", "193327.886000", "193327.889000", "193327.891000", "193327.894000", "193327.896000", "193327.899000", "193327.901000", "193407.831000", "193407.834000", "193407.836000", "193407.838000", "193407.841000", "193407.843000", "193407.846000", "193407.848000", "193407.851000", "193407.853000", "193407.856000", "193407.858000", "193407.861000", "193407.863000", "193407.866000", "193407.868000", "193407.871000", "193407.873000", "193407.876000", "193407.878000", "193407.881000", "193407.883000", "193407.886000", "193407.888000", "193407.891000", "193407.893000", "193407.896000", "193448.266000", "193448.269000", "193448.272000", "193448.275000", "193448.278000", "193448.280000", "193448.283000", "193448.285000", "193448.288000", "193448.290000", "193448.293000", "193448.295000", "193448.298000", "193448.300000", "193448.303000", "193448.305000", "193448.308000", "193448.310000", "193448.313000", "193448.315000", "193448.318000", "193448.320000", "193448.323000", "193448.325000", "193448.328000", "193448.330000", "193527.830000", "193527.833000", "193527.835000", "193527.838000", "193527.841000", "193527.843000", "193527.845000", "193527.848000", "193527.850000", "193527.853000", "193527.855000", "193527.858000", "193527.860000", "193527.863000", "193527.865000", "193527.868000", "193527.870000", "193527.885000", "193527.887000", "193527.890000", "193527.893000", "193527.896000", "193527.898000", "193527.901000", "193527.903000", "193527.906000", "193527.908000", "193607.832000", "193607.835000", "193607.838000", "193607.840000", "193607.843000", "193607.845000", "193607.848000", "193607.850000", "193607.853000", "193607.855000", "193607.858000", "193607.860000", "193607.863000", "193607.865000", "193607.868000", "193607.870000", "193607.873000", "193607.875000", "193607.878000", "193607.880000", "193607.883000", "193607.885000", "193607.888000", "193607.890000", "193607.893000", "193607.895000", "193607.898000", "193647.835000", "193647.837000", "193647.840000", "193647.842000", "193647.845000", "193647.847000", "193647.850000", "193647.852000", "193647.855000", "193647.857000", "193647.860000", "193647.862000", "193647.865000", "193647.867000", "193647.870000", "193647.872000", "193647.875000", "193647.877000", "193647.880000", "193647.882000", "193647.885000", "193647.887000", "193647.890000", "193647.892000", "193647.895000", "193647.897000", "193647.900000", "193727.832000", "193727.835000", "193727.837000", "193727.840000", "193727.843000", "193727.845000", "193727.847000", "193727.850000", "193727.852000", "193727.855000", "193727.857000", "193727.860000", "193727.862000", "193727.865000", "193727.867000", "193727.870000", "193727.872000", "193727.875000", "193727.877000", "193727.880000", "193727.882000", "193727.885000", "193727.887000", "193727.890000", "193727.892000", "193727.895000", "193727.897000", "193807.829000", "193807.832000", "193807.834000", "193807.836000", "193807.839000", "193807.842000", "193807.844000", "193807.847000", "193807.849000", "193807.852000", "193807.854000", "193807.857000", "193807.859000", "193807.862000", "193807.864000", "193807.867000", "193807.872000", "193807.874000", "193807.877000", "193807.879000", "193807.882000", "193807.884000", "193807.887000", "193807.889000", "193807.892000", "193807.895000", "193807.897000", "193827.759000", "193827.762000", "193827.764000", "193827.767000", "193827.769000", "193827.772000", "193827.774000", "193827.777000", "193827.780000", "193827.782000", "193827.785000", "193827.787000", "193827.790000", "193843.441000", "193843.443000", "193843.446000", "193843.448000", "193843.451000", "193843.453000", "193843.456000", "193843.458000", "193843.461000", "193843.463000", "193843.466000"],
      "InstanceCreationTime": ["193007.805000", "193007.808000", "193007.810000", "193007.813000", "193007.815000", "193007.818000", "193007.820000", "193007.823000", "193007.825000", "193007.828000", "193007.830000", "193007.833000", "193027.804000", "193027.807000", "193027.809000", "193027.811000", "193027.814000", "193027.816000", "193027.819000", "193027.821000", "193027.824000", "193027.826000", "193027.829000", "193027.831000", "193027.834000", "193027.836000", "193027.839000", "193027.841000", "193027.844000", "193027.846000", "193027.848000", "193027.851000", "193047.803000", "193047.806000", "193047.808000", "193047.811000", "193047.813000", "193047.822000", "193047.825000", "193047.827000", "193047.830000", "193047.832000", "193047.835000", "193047.837000", "193047.840000", "193047.842000", "193047.845000", "193047.847000", "193047.850000", "193047.852000", "193047.855000", "193047.857000", "193107.814000", "193107.816000", "193107.819000", "193107.821000", "193107.824000", "193107.826000", "193107.829000", "193107.831000", "193107.834000", "193107.836000", "193107.838000", "193107.841000", "193107.843000", "193107.846000", "193107.848000", "193107.851000", "193107.853000", "193107.856000", "193107.858000", "193107.861000", "193107.863000", "193127.824000", "193127.827000", "193127.829000", "193127.831000", "193127.834000", "193127.836000", "193127.839000", "193127.841000", "193127.844000", "193127.846000", "193127.849000", "193127.851000", "193127.854000", "193127.856000", "193127.859000", "193127.861000", "193127.864000", "193127.866000", "193127.869000", "193127.871000", "193207.838000", "193207.840000", "193207.843000", "193207.845000", "193207.848000", "193207.850000", "193207.853000", "193207.855000", "193207.858000", "193207.860000", "193207.862000", "193207.865000", "193207.867000", "193207.870000", "193207.872000", "193207.875000", "193207.877000", "193207.880000", "193207.882000", "193207.885000", "193207.887000", "193207.890000", "193207.892000", "193207.895000", "193207.897000", "193207.900000", "193207.902000", "193247.834000", "193247.837000", "193247.839000", "193247.842000", "193247.844000", "193247.847000", "193247.849000", "193247.852000", "193247.854000", "193247.857000", "193247.859000", "193247.862000", "193247.864000", "193247.867000", "193247.869000", "193247.872000", "193247.874000", "193247.877000", "193247.879000", "193247.882000", "193247.884000", "193247.887000", "193247.889000", "193247.892000", "193247.894000", "193247.897000", "193247.899000", "193327.836000", "193327.839000", "193327.841000", "193327.844000", "193327.846000", "193327.849000", "193327.851000", "193327.854000", "193327.856000", "193327.859000", "193327.861000", "193327.864000", "193327.866000", "193327.869000", "193327.871000", "193327.874000", "193327.876000", "193327.879000", "193327.881000", "193327.884000", "193327.886000", "193327.889000", "193327.891000", "193327.894000", "193327.896000", "193327.899000", "193327.901000", "193407.831000", "193407.834000", "193407.836000", "193407.838000", "193407.841000", "193407.843000", "193407.846000", "193407.848000", "193407.851000", "193407.853000", "193407.856000", "193407.858000", "193407.861000", "193407.863000", "193407.866000", "193407.868000", "193407.871000", "193407.873000", "193407.876000", "193407.878000", "193407.881000", "193407.883000", "193407.886000", "193407.888000", "193407.891000", "193407.893000", "193407.896000", "193448.266000", "193448.269000", "193448.272000", "193448.275000", "193448.278000", "193448.280000", "193448.283000", "193448.285000", "193448.288000", "193448.290000", "193448.293000", "193448.295000", "193448.298000", "193448.300000", "193448.303000", "193448.305000", "193448.308000", "193448.310000", "193448.313000", "193448.315000", "193448.318000", "193448.320000", "193448.323000", "193448.325000", "193448.328000", "193448.330000", "193527.830000", "193527.833000", "193527.835000", "193527.838000", "193527.841000", "193527.843000", "193527.845000", "193527.848000", "193527.850000", "193527.853000", "193527.855000", "193527.858000", "193527.860000", "193527.863000", "193527.865000", "193527.868000", "193527.870000", "193527.885000", "193527.887000", "193527.890000", "193527.893000", "193527.896000", "193527.898000", "193527.901000", "193527.903000", "193527.906000", "193527.908000", "193607.832000", "193607.835000", "193607.838000", "193607.840000", "193607.843000", "193607.845000", "193607.848000", "193607.850000", "193607.853000", "193607.855000", "193607.858000", "193607.860000", "193607.863000", "193607.865000", "193607.868000", "193607.870000", "193607.873000", "193607.875000", "193607.878000", "193607.880000", "193607.883000", "193607.885000", "193607.888000", "193607.890000", "193607.893000", "193607.895000", "193607.898000", "193647.835000", "193647.837000", "193647.840000", "193647.842000", "193647.845000", "193647.847000", "193647.850000", "193647.852000", "193647.855000", "193647.857000", "193647.860000", "193647.862000", "193647.865000", "193647.867000", "193647.870000", "193647.872000", "193647.875000", "193647.877000", "193647.880000", "193647.882000", "193647.885000", "193647.887000", "193647.890000", "193647.892000", "193647.895000", "193647.897000", "193647.900000", "193727.832000", "193727.835000", "193727.837000", "193727.840000", "193727.843000", "193727.845000", "193727.847000", "193727.850000", "193727.852000", "193727.855000", "193727.857000", "193727.860000", "193727.862000", "193727.865000", "193727.867000", "193727.870000", "193727.872000", "193727.875000", "193727.877000", "193727.880000", "193727.882000", "193727.885000", "193727.887000", "193727.890000", "193727.892000", "193727.895000", "193727.897000", "193807.829000", "193807.832000", "193807.834000", "193807.836000", "193807.839000", "193807.842000", "193807.844000", "193807.847000", "193807.849000", "193807.852000", "193807.854000", "193807.857000", "193807.859000", "193807.862000", "193807.864000", "193807.867000", "193807.872000", "193807.874000", "193807.877000", "193807.879000", "193807.882000", "193807.884000", "193807.887000", "193807.889000", "193807.892000", "193807.895000", "193807.897000", "193827.759000", "193827.762000", "193827.764000", "193827.767000", "193827.769000", "193827.772000", "193827.774000", "193827.777000", "193827.780000", "193827.782000", "193827.785000", "193827.787000", "193827.790000", "193843.441000", "193843.443000", "193843.446000", "193843.448000", "193843.451000", "193843.453000", "193843.456000", "193843.458000", "193843.461000", "193843.463000", "193843.466000"],
      "InstanceNumber": [1, 2, 3, 4, 5, 6, 7, 8, 9, 10, 11, 12, 13, 14, 15, 16, 17, 18, 19, 20, 21, 22, 23, 24, 25, 26, 27, 28, 29, 30, 31, 32, 33, 34, 35, 36, 37, 38, 39, 40, 41, 42, 43, 44, 45, 46, 47, 48, 49, 50, 51, 52, 53, 54, 55, 56, 57, 58, 59, 60, 61, 62, 63, 64, 65, 66, 67, 68, 69, 70, 71, 72, 73, 74, 75, 76, 77, 78, 79, 80, 81, 82, 83, 84, 85, 86, 87, 88, 89, 90, 91, 92, 93, 94, 95, 96, 97, 98, 99, 100, 101, 102, 103, 104, 105, 106, 107, 108, 109, 110, 111, 112, 113, 114, 115, 116, 117, 118, 119, 120, 121, 122, 123, 124, 125, 126, 127, 128, 129, 130, 131, 132, 133, 134, 135, 136, 137, 138, 139, 140, 141, 142, 143, 144, 145, 146, 147, 148, 149, 150, 151, 152, 153, 154, 155, 156, 157, 158, 159, 160, 161, 162, 163, 164, 165, 166, 167, 168, 169, 170, 171, 172, 173, 174, 175, 176, 177, 178, 179, 180, 181, 182, 183, 184, 185, 186, 187, 188, 189, 190, 191, 192, 193, 194, 195, 196, 197, 198, 199, 200, 201, 202, 203, 204, 205, 206, 207, 208, 209, 210, 211, 212, 213, 214, 215, 216, 217, 218, 219, 220, 221, 222, 223, 224, 225, 226, 227, 228, 229, 230, 231, 232, 233, 234, 235, 236, 237, 238, 239, 240, 241, 242, 243, 244, 245, 246, 247, 248, 249, 250, 251, 252, 253, 254, 255, 256, 257, 258, 259, 260, 261, 262, 263, 264, 265, 266, 267, 268, 269, 270, 271, 272, 273, 274, 275, 276, 277, 278, 279, 280, 281, 282, 283, 284, 285, 286, 287, 288, 289, 290, 291, 292, 293, 294, 295, 296, 297, 298, 299, 300, 301, 302, 303, 304, 305, 306, 307, 308, 309, 310, 311, 312, 313, 314, 315, 316, 317, 318, 319, 320, 321, 322, 323, 324, 325, 326, 327, 328, 329, 330, 331, 332, 333, 334, 335, 336, 337, 338, 339, 340, 341, 342, 343, 344, 345, 346, 347, 348, 349, 350, 351, 352, 353, 354, 355, 356, 357, 358, 359, 360, 361, 362, 363, 364, 365, 366, 367, 368, 369, 370, 371, 372, 373, 374, 375, 376, 377, 378, 379, 380, 381, 382, 383, 384, 385, 386],
