{
  "AcquisitionMatrixPE": 104,
  "AcquisitionNumber": 1,
  "AcquisitionTime": "19:12:29.287500",
  "BandwidthPerPixelPhaseEncode": 17.17,
  "BaseResolution": 104,
  "BodyPartExamined": "BRAIN",
  "CoilCombinationMethod": "Sum of Squares",
  "ConsistencyInfo": "N4_VE11C_LATEST_20160120",
  "ConversionSoftware": "dcm2niix",
  "ConversionSoftwareVersion": "v1.0.20220505",
  "DerivedVendorReportedEchoSpacing": 0.000560011,
  "DeviceSerialNumber": "167006",
  "DwellTime": 2.1e-06,
  "EchoTime": 0.037,
  "EchoTrainLength": 104,
  "EffectiveEchoSpacing": 0.000560011,
  "FlipAngle": 52,
  "HeudiconvVersion": "0.5.3.post811+g6206e14",
  "ImageComments": "Unaliased MB4/PE3/LB",
  "ImageOrientationPatientDICOM": [0.999623, -0.0114989, 0.0249291, 0.0195428, 0.9358, -0.35199],
  "ImageOrientationText": "Tra>Cor(-20.6)>Sag(1.1)",
  "ImageType": [
    "ORIGINAL",
    "PRIMARY",
    "M",
    "MB",
    "ND",
    "MOSAIC"
],
  "ImagingFrequency": 123.259,
  "InPlanePhaseEncodingDirectionDICOM": "COL",
  "InstitutionAddress": "Chemin Queen-Mary 4565,Montreal,District,CA,H3W 1W5",
  "InstitutionName": "IUGM",
  "InstitutionalDepartmentName": "Department",
  "MRAcquisitionType": "2D",
  "MagneticFieldStrength": 3,
  "Manufacturer": "Siemens",
  "ManufacturersModelName": "Prisma_fit",
  "MatrixCoilMode": "SENSE",
  "Modality": "MR",
  "MultibandAccelerationFactor": 4,
  "PartialFourier": 1,
  "PatientPosition": "HFS",
  "PercentPhaseFOV": 100,
  "PercentSampling": 100,
  "PhaseEncodingDirection": "j",
  "PhaseEncodingSteps": 104,
  "PhaseResolution": 1,
  "PixelBandwidth": 2290,
  "ProcedureStepDescription": "games^mario3",
  "ProtocolName": "func_task-mario3_run-03",
  "PulseSequenceDetails": "%CustomerSeq%\\cmrr_mbep2d_bold",
  "ReceiveCoilActiveElements": "HC1-7;NC1,2",
  "ReceiveCoilName": "HeadNeck_64",
  "ReconMatrixPE": 104,
  "RepetitionTime": 1.49,
  "SAR": 0.0725356,
  "ScanOptions": "FS",
  "ScanningSequence": "EP",
  "SequenceName": "epfid2d1_104",
  "SequenceVariant": "SK\\SS",
  "SeriesDescription": "func_task-mario3_run-03",
  "SeriesNumber": 16,
  "ShimSetting": [595, -7294, -8797, 410, 31, -346, -40, 63],
  "SliceThickness": 2,
  "SliceTiming": [0, 0.7825, 0.0975, 0.8825, 0.195, 0.98, 0.2925, 1.0775, 0.3925, 1.175, 0.49, 1.2725, 0.5875, 1.3725, 0.685, 0, 0.7825, 0.0975, 0.8825, 0.195, 0.98, 0.2925, 1.0775, 0.3925, 1.175, 0.49, 1.2725, 0.5875, 1.3725, 0.685, 0, 0.7825, 0.0975, 0.8825, 0.195, 0.98, 0.2925, 1.0775, 0.3925, 1.175, 0.49, 1.2725, 0.5875, 1.3725, 0.685, 0, 0.7825, 0.0975, 0.8825, 0.195, 0.98, 0.2925, 1.0775, 0.3925, 1.175, 0.49, 1.2725, 0.5875, 1.3725, 0.685],
  "SoftwareVersions": "syngo MR E11",
  "SpacingBetweenSlices": 2,
  "StationName": "MRC35049",
  "TaskName": "mario3",
  "TotalReadoutTime": 0.0576811,
  "TxRefAmp": 289.133,
  "WipMemBlock": "66330a21-be24-419d-b85a-24f23665e257||Sequence: R017 ve11c/master r/75a17815+; Jun 28 2022 16:32:11 by eja",
  "dcmmeta_affine": [
    [-1.9992461204528809, 0.03908564895391464, 0.038562316447496414, 100.82984161376953],
    [0.022997811436653137, 1.871599793434143, -0.7046880722045898, -71.35917663574219],
    [0.049858205020427704, 0.7039790153503418, 1.8713438510894775, -57.700199127197266],
    [0.0, 0.0, 0.0, 1.0]
],
  "dcmmeta_reorient_transform": [
    [0.0, -1.0, 0.0, 103.0],
    [1.0, 0.0, 0.0, 0.0],
    [0.0, 0.0, 1.0, 0.0],
    [0.0, 0.0, 0.0, 1.0]
],
  "dcmmeta_shape": [104, 104, 60, 345],
  "dcmmeta_slice_dim": 2,
  "dcmmeta_version": 0.6,
  "global": {
    "const": {
      "AcquisitionMatrix": [104, 0, 0, 104],
      "AngioFlag": "N",
      "BitsAllocated": 16,
      "BitsStored": 16,
      "BodyPartExamined": "BRAIN",
      "Columns": 832,
      "EchoNumbers": 1,
      "EchoTime": 37.0,
      "EchoTrainLength": 104,
      "FlipAngle": 52.0,
      "HighBit": 15,
      "ImageOrientationPatient": [0.99962308647452, -0.0114989061639, 0.02492910235416, 0.0195428238097, 0.93579990477246, -0.3519895115843],
      "ImagePositionPatient": [-846.80844885549, -794.30672849549, 252.90961723001],
      "ImageType": [
        "ORIGINAL",
        "PRIMARY",
        "M",
        "MB",
        "ND",
        "MOSAIC"
],
      "ImagedNucleus": "1H",
      "ImagingFrequency": 123.25898,
      "InPlanePhaseEncodingDirection": "COL",
      "MRAcquisitionType": "2D",
      "MagneticFieldStrength": 3.0,
      "Manufacturer": "SIEMENS",
      "ManufacturerModelName": "Prisma_fit",
      "Modality": "MR",
      "NumberOfAverages": 1.0,
      "NumberOfPhaseEncodingSteps": 104,
      "PercentPhaseFieldOfView": 100.0,
      "PercentSampling": 100.0,
      "PerformedProcedureStepStartTime": "183831.130000",
      "PhotometricInterpretation": "MONOCHROME2",
      "PixelBandwidth": 2290.0,
      "PixelRepresentation": 0,
      "PixelSpacing": [2.0, 2.0],
      "ProtocolName": "func_task-mario3_run-03",
      "RepetitionTime": 1490.0,
      "Rows": 832,
      "SAR": 0.07253558514195,
      "SamplesPerPixel": 1,
      "ScanOptions": "FS",
      "ScanningSequence": "EP",
      "SequenceName": "epfid2d1_104",
      "SequenceVariant": [
        "SK",
        "SS"
],
      "SeriesDescription": "func_task-mario3_run-03",
      "SeriesNumber": 16,
      "SeriesTime": "191352.716000",
      "SliceLocation": -26.901359889195,
      "SliceThickness": 2.0,
      "SmallestImagePixelValue": 0,
      "SoftwareVersions": "syngo MR E11",
      "SpacingBetweenSlices": 2.0000000181618,
      "SpecificCharacterSet": "ISO_IR 100",
      "StudyID": "1",
      "StudyTime": "183831.060000",
      "TransmitCoilName": "Body",
      "VariableFlipAngleFlag": "N",
      "WindowCenterWidthExplanation": "Algo1",
      "dBdt": 0.0},
    "slices": {}
  },
  "time": {
    "samples": {
      "AcquisitionNumber": [1, 2, 3, 4, 5, 6, 7, 8, 9, 10, 11, 12, 13, 14, 15, 16, 17, 18, 19, 20, 21, 22, 23, 24, 25, 26, 27, 28, 29, 30, 31, 32, 33, 34, 35, 36, 37, 38, 39, 40, 41, 42, 43, 44, 45, 46, 47, 48, 49, 50, 51, 52, 53, 54, 55, 56, 57, 58, 59, 60, 61, 62, 63, 64, 65, 66, 67, 68, 69, 70, 71, 72, 73, 74, 75, 76, 77, 78, 79, 80, 81, 82, 83, 84, 85, 86, 87, 88, 89, 90, 91, 92, 93, 94, 95, 96, 97, 98, 99, 100, 101, 102, 103, 104, 105, 106, 107, 108, 109, 110, 111, 112, 113, 114, 115, 116, 117, 118, 119, 120, 121, 122, 123, 124, 125, 126, 127, 128, 129, 130, 131, 132, 133, 134, 135, 136, 137, 138, 139, 140, 141, 142, 143, 144, 145, 146, 147, 148, 149, 150, 151, 152, 153, 154, 155, 156, 157, 158, 159, 160, 161, 162, 163, 164, 165, 166, 167, 168, 169, 170, 171, 172, 173, 174, 175, 176, 177, 178, 179, 180, 181, 182, 183, 184, 185, 186, 187, 188, 189, 190, 191, 192, 193, 194, 195, 196, 197, 198, 199, 200, 201, 202, 203, 204, 205, 206, 207, 208, 209, 210, 211, 212, 213, 214, 215, 216, 217, 218, 219, 220, 221, 222, 223, 224, 225, 226, 227, 228, 229, 230, 231, 232, 233, 234, 235, 236, 237, 238, 239, 240, 241, 242, 243, 244, 245, 246, 247, 248, 249, 250, 251, 252, 253, 254, 255, 256, 257, 258, 259, 260, 261, 262, 263, 264, 265, 266, 267, 268, 269, 270, 271, 272, 273, 274, 275, 276, 277, 278, 279, 280, 281, 282, 283, 284, 285, 286, 287, 288, 289, 290, 291, 292, 293, 294, 295, 296, 297, 298, 299, 300, 301, 302, 303, 304, 305, 306, 307, 308, 309, 310, 311, 312, 313, 314, 315, 316, 317, 318, 319, 320, 321, 322, 323, 324, 325, 326, 327, 328, 329, 330, 331, 332, 333, 334, 335, 336, 337, 338, 339, 340, 341, 342, 343, 344, 345],
      "AcquisitionTime": ["191229.287500", "191230.777500", "191232.267500", "191233.757500", "191235.247500", "191236.737500", "191238.227500", "191239.717500", "191241.207500", "191242.697500", "191244.187500", "191245.677500", "191247.167500", "191248.657500", "191250.147500", "191251.637500", "191253.127500", "191254.617500", "191256.107500", "191257.597500", "191259.087500", "191300.577500", "191302.067500", "191303.557500", "191305.047500", "191306.537500", "191308.027500", "191309.517500", "191311.007500", "191312.497500", "191313.987500", "191315.477500", "191316.967500", "191318.457500", "191319.947500", "191321.437500", "191322.927500", "191324.417500", "191325.907500", "191327.397500", "191328.887500", "191330.377500", "191331.867500", "191333.357500", "191334.847500", "191336.337500", "191337.827500", "191339.317500", "191340.807500", "191342.297500", "191343.787500", "191345.277500", "191346.767500", "191348.257500", "191349.747500", "191351.237500", "191352.727500", "191354.217500", "191355.707500", "191357.197500", "191358.687500", "191400.177500", "191401.667500", "191403.157500", "191404.647500", "191406.137500", "191407.627500", "191409.117500", "191410.607500", "191412.097500", "191413.587500", "191415.077500", "191416.567500", "191418.057500", "191419.547500", "191421.037500", "191422.527500", "191424.017500", "191425.507500", "191426.997500", "191428.487500", "191429.977500", "191431.467500", "191432.957500", "191434.447500", "191435.937500", "191437.427500", "191438.917500", "191440.407500", "191441.897500", "191443.387500", "191444.877500", "191446.367500", "191447.857500", "191449.347500", "191450.837500", "191452.327500", "191453.817500", "191455.307500", "191456.797500", "191458.287500", "191459.777500", "191501.267500", "191502.757500", "191504.247500", "191505.737500", "191507.227500", "191508.717500", "191510.207500", "191511.697500", "191513.187500", "191514.677500", "191516.167500", "191517.657500", "191519.147500", "191520.637500", "191522.127500", "191523.617500", "191525.107500", "191526.597500", "191528.087500", "191529.577500", "191531.067500", "191532.557500", "191534.047500", "191535.537500", "191537.027500", "191538.517500", "191540.007500", "191541.497500", "191542.987500", "191544.477500", "191545.967500", "191547.457500", "191548.947500", "191550.437500", "191551.927500", "191553.417500", "191554.907500", "191556.397500", "191557.887500", "191559.377500", "191600.867500", "191602.357500", "191603.847500", "191605.337500", "191606.827500", "191608.317500", "191609.807500", "191611.297500", "191612.787500", "191614.277500", "191615.767500", "191617.257500", "191618.747500", "191620.237500", "191621.727500", "191623.217500", "191624.707500", "191626.197500", "191627.687500", "191629.177500", "191630.667500", "191632.157500", "191633.647500", "191635.137500", "191636.627500", "191638.117500", "191639.607500", "191641.097500", "191642.587500", "191644.077500", "191645.567500", "191647.057500", "191648.547500", "191650.037500", "191651.527500", "191653.017500", "191654.507500", "191655.997500", "191657.487500", "191658.977500", "191700.467500", "191701.957500", "191703.447500", "191704.937500", "191706.427500", "191707.917500", "191709.407500", "191710.897500", "191712.387500", "191713.877500", "191715.367500", "191716.857500", "191718.347500", "191719.837500", "191721.327500", "191722.817500", "191724.307500", "191725.797500", "191727.287500", "191728.777500", "191730.267500", "191731.757500", "191733.247500", "191734.737500", "191736.227500", "191737.717500", "191739.207500", "191740.697500", "191742.187500", "191743.677500", "191745.167500", "191746.657500", "191748.147500", "191749.637500", "191751.127500", "191752.617500", "191754.107500", "191755.597500", "191757.087500", "191758.577500", "191800.067500", "191801.557500", "191803.047500", "191804.537500", "191806.027500", "191807.517500", "191809.007500", "191810.497500", "191811.987500", "191813.477500", "191814.967500", "191816.457500", "191817.947500", "191819.437500", "191820.927500", "191822.417500", "191823.907500", "191825.397500", "191826.887500", "191828.377500", "191829.867500", "191831.357500", "191832.847500", "191834.337500", "191835.827500", "191837.317500", "191838.807500", "191840.297500", "191841.787500", "191843.277500", "191844.767500", "191846.257500", "191847.747500", "191849.237500", "191850.727500", "191852.217500", "191853.707500", "191855.197500", "191856.687500", "191858.177500", "191859.667500", "191901.157500", "191902.647500", "191904.137500", "191905.627500", "191907.117500", "191908.607500", "191910.097500", "191911.587500", "191913.077500", "191914.567500", "191916.057500", "191917.547500", "191919.037500", "191920.527500", "191922.017500", "191923.507500", "191924.997500", "191926.487500", "191927.977500", "191929.467500", "191930.957500", "191932.447500", "191933.937500", "191935.427500", "191936.917500", "191938.407500", "191939.897500", "191941.387500", "191942.877500", "191944.367500", "191945.857500", "191947.347500", "191948.837500", "191950.327500", "191951.817500", "191953.307500", "191954.797500", "191956.287500", "191957.777500", "191959.267500", "192000.757500", "192002.247500", "192003.737500", "192005.227500", "192006.717500", "192008.207500", "192009.697500", "192011.187500", "192012.677500", "192014.167500", "192015.657500", "192017.147500", "192018.637500", "192020.127500", "192021.617500", "192023.107500", "192024.597500", "192026.087500", "192027.577500", "192029.067500", "192030.557500", "192032.047500", "192033.537500", "192035.027500", "192036.517500", "192038.007500", "192039.497500", "192040.987500", "192042.477500", "192043.967500", "192045.457500", "192046.947500", "192048.437500", "192049.927500", "192051.417500", "192052.907500", "192054.397500", "192055.887500", "192057.377500", "192058.867500", "192100.357500", "192101.847500"],
      "ContentTime": ["191352.719000", "191352.723000", "191352.726000", "191352.729000", "191352.732000", "191352.736000", "191352.739000", "191352.742000", "191352.746000", "191352.749000", "191352.752000", "191352.755000", "191352.759000", "191352.762000", "191352.765000", "191352.777000", "191352.781000", "191352.784000", "191352.787000", "191352.791000", "191352.794000", "191352.797000", "191352.800000", "191352.804000", "191352.807000", "191352.810000", "191352.814000", "191352.817000", "191352.820000", "191352.823000", "191352.827000", "191352.830000", "191352.834000", "191352.837000", "191352.841000", "191412.683000", "191412.687000", "191412.690000", "191412.703000", "191412.706000", "191412.709000", "191412.712000", "191412.716000", "191412.719000", "191412.722000", "191412.726000", "191412.729000", "191412.732000", "191412.735000", "191412.739000", "191412.742000", "191412.745000", "191412.748000", "191412.759000", "191412.762000", "191412.765000", "191432.683000", "191432.687000", "191432.690000", "191432.693000", "191432.697000", "191432.700000", "191432.703000", "191432.707000", "191432.710000", "191432.713000", "191432.716000", "191432.720000", "191432.723000", "191432.726000", "191432.730000", "191432.733000", "191432.736000", "191432.740000", "191432.743000", "191432.746000", "191512.683000", "191512.687000", "191512.690000", "191512.693000", "191512.697000", "191512.700000", "191512.703000", "191512.707000", "191512.710000", "191512.713000", "191512.717000", "191512.720000", "191512.723000", "191512.726000", "191512.730000", "191512.733000", "191512.736000", "191512.740000", "191512.743000", "191512.746000", "191512.750000", "191512.753000", "191512.756000", "191512.760000", "191512.763000", "191512.766000", "191512.769000", "191512.773000", "191512.776000", "191512.779000", "191512.783000", "191512.786000", "191512.789000", "191552.684000", "191552.688000", "191552.691000", "191552.695000", "191552.698000", "191552.701000", "191552.704000", "191552.708000", "191552.711000", "191552.714000", "191552.718000", "191552.721000", "191552.724000", "191552.727000", "191552.731000", "191552.734000", "191552.738000", "191552.742000", "191552.745000", "191552.749000", "191552.752000", "191552.755000", "191552.758000", "191552.762000", "191552.765000", "191552.768000", "191632.700000", "191632.704000", "191632.707000", "191632.711000", "191632.714000", "191632.718000", "191632.721000", "191632.724000", "191632.727000", "191632.731000", "191632.734000", "191632.738000", "191632.741000", "191632.744000", "191632.747000", "191632.751000", "191632.754000", "191632.757000", "191632.761000", "191632.764000", "191632.767000", "191632.771000", "191632.774000", "191632.777000", "191632.781000", "191632.784000", "191632.787000", "191712.683000", "191712.687000", "191712.690000", "191712.694000", "191712.697000", "191712.700000", "191712.704000", "191712.707000", "191712.710000", "191712.714000", "191712.717000", "191712.720000", "191712.724000", "191712.727000", "191712.730000", "191712.734000", "191712.737000", "191712.740000", "191712.743000", "191712.747000", "191712.750000", "191712.753000", "191712.757000", "191712.760000", "191712.764000", "191712.767000", "191712.770000", "191752.683000", "191752.687000", "191752.690000", "191752.694000", "191752.697000", "191752.700000", "191752.704000", "191752.707000", "191752.710000", "191752.713000", "191752.717000", "191752.720000", "191752.723000", "191752.727000", "191752.730000", "191752.733000", "191752.737000", "191752.740000", "191752.743000", "191752.747000", "191752.757000", "191752.761000", "191752.764000", "191752.767000", "191752.809000", "191752.813000", "191752.816000", "191832.683000", "191832.687000", "191832.690000", "191832.694000", "191832.697000", "191832.700000", "191832.704000", "191832.707000", "191832.710000", "191832.714000", "191832.717000", "191832.720000", "191832.724000", "191832.727000", "191832.730000", "191832.734000", "191832.737000", "191832.740000", "191832.744000", "191832.758000", "191832.762000", "191832.765000", "191832.769000", "191832.772000", "191832.775000", "191832.778000", "191832.782000", "191912.683000", "191912.687000", "191912.690000", "191912.694000", "191912.697000", "191912.700000", "191912.704000", "191912.707000", "191912.710000", "191912.714000", "191912.717000", "191912.720000", "191912.724000", "191912.727000", "191912.730000", "191912.733000", "191912.737000", "191912.740000", "191912.743000", "191912.747000", "191912.750000", "191912.753000", "191912.757000", "191912.760000", "191912.763000", "191912.766000", "191912.853000", "191952.683000", "191952.687000", "191952.690000", "191952.694000", "191952.697000", "191952.708000", "191952.711000", "191952.714000", "191952.717000", "191952.721000", "191952.724000", "191952.728000", "191952.731000", "191952.735000", "191952.738000", "191952.741000", "191952.745000", "191952.748000", "191952.751000", "191952.755000", "191952.758000", "191952.763000", "191952.766000", "191952.831000", "191952.834000", "191952.838000", "192032.684000", "192032.688000", "192032.691000", "192032.695000", "192032.698000", "192032.701000", "192032.705000", "192032.708000", "192032.711000", "192032.715000", "192032.718000", "192032.721000", "192032.725000", "192032.728000", "192032.731000", "192032.735000", "192032.738000", "192032.741000", "192032.745000", "192032.748000", "192032.751000", "192032.754000", "192032.758000", "192032.761000", "192032.764000", "192032.768000", "192032.771000", "192105.094000", "192105.108000", "192105.111000", "192105.115000", "192105.118000", "192105.121000", "192105.125000", "192105.128000", "192105.131000", "192105.135000", "192105.138000", "192105.142000", "192105.145000", "192105.148000", "192105.151000", "192105.155000", "192105.158000", "192105.161000", "192105.165000", "192105.168000", "192105.172000", "192105.175000"],
      "InstanceCreationTime": ["191352.719000", "191352.723000", "191352.726000", "191352.729000", "191352.732000", "191352.736000", "191352.739000", "191352.742000", "191352.746000", "191352.749000", "191352.752000", "191352.755000", "191352.759000", "191352.762000", "191352.765000", "191352.777000", "191352.781000", "191352.784000", "191352.787000", "191352.791000", "191352.794000", "191352.797000", "191352.800000", "191352.804000", "191352.807000", "191352.810000", "191352.814000", "191352.817000", "191352.820000", "191352.823000", "191352.827000", "191352.830000", "191352.834000", "191352.837000", "191352.841000", "191412.683000", "191412.687000", "191412.690000", "191412.703000", "191412.706000", "191412.709000", "191412.712000", "191412.716000", "191412.719000", "191412.722000", "191412.726000", "191412.729000", "191412.732000", "191412.735000", "191412.739000", "191412.742000", "191412.745000", "191412.748000", "191412.759000", "191412.762000", "191412.765000", "191432.683000", "191432.687000", "191432.690000", "191432.693000", "191432.697000", "191432.700000", "191432.703000", "191432.707000", "191432.710000", "191432.713000", "191432.716000", "191432.720000", "191432.723000", "191432.726000", "191432.730000", "191432.733000", "191432.736000", "191432.740000", "191432.743000", "191432.746000", "191512.683000", "191512.687000", "191512.690000", "191512.693000", "191512.697000", "191512.700000", "191512.703000", "191512.707000", "191512.710000", "191512.713000", "191512.717000", "191512.720000", "191512.723000", "191512.726000", "191512.730000", "191512.733000", "191512.736000", "191512.740000", "191512.743000", "191512.746000", "191512.750000", "191512.753000", "191512.756000", "191512.760000", "191512.763000", "191512.766000", "191512.769000", "191512.773000", "191512.776000", "191512.779000", "191512.783000", "191512.786000", "191512.789000", "191552.684000", "191552.688000", "191552.691000", "191552.695000", "191552.698000", "191552.701000", "191552.704000", "191552.708000", "191552.711000", "191552.714000", "191552.718000", "191552.721000", "191552.724000", "191552.727000", "191552.731000", "191552.734000", "191552.738000", "191552.742000", "191552.745000", "191552.749000", "191552.752000", "191552.755000", "191552.758000", "191552.762000", "191552.765000", "191552.768000", "191632.700000", "191632.704000", "191632.707000", "191632.711000", "191632.714000", "191632.718000", "191632.721000", "191632.724000", "191632.727000", "191632.731000", "191632.734000", "191632.738000", "191632.741000", "191632.744000", "191632.747000", "191632.751000", "191632.754000", "191632.757000", "191632.761000", "191632.764000", "191632.767000", "191632.771000", "191632.774000", "191632.777000", "191632.781000", "191632.784000", "191632.787000", "191712.683000", "191712.687000", "191712.690000", "191712.694000", "191712.697000", "191712.700000", "191712.704000", "191712.707000", "191712.710000", "191712.714000", "191712.717000", "191712.720000", "191712.724000", "191712.727000", "191712.730000", "191712.734000", "191712.737000", "191712.740000", "191712.743000", "191712.747000", "191712.750000", "191712.753000", "191712.757000", "191712.760000", "191712.764000", "191712.767000", "191712.770000", "191752.683000", "191752.687000", "191752.690000", "191752.694000", "191752.697000", "191752.700000", "191752.704000", "191752.707000", "191752.710000", "191752.713000", "191752.717000", "191752.720000", "191752.723000", "191752.727000", "191752.730000", "191752.733000", "191752.737000", "191752.740000", "191752.743000", "191752.747000", "191752.757000", "191752.761000", "191752.764000", "191752.767000", "191752.809000", "191752.813000", "191752.816000", "191832.683000", "191832.687000", "191832.690000", "191832.694000", "191832.697000", "191832.700000", "191832.704000", "191832.707000", "191832.710000", "191832.714000", "191832.717000", "191832.720000", "191832.724000", "191832.727000", "191832.730000", "191832.734000", "191832.737000", "191832.740000", "191832.744000", "191832.758000", "191832.762000", "191832.765000", "191832.769000", "191832.772000", "191832.775000", "191832.778000", "191832.782000", "191912.683000", "191912.687000", "191912.690000", "191912.694000", "191912.697000", "191912.700000", "191912.704000", "191912.707000", "191912.710000", "191912.714000", "191912.717000", "191912.720000", "191912.724000", "191912.727000", "191912.730000", "191912.733000", "191912.737000", "191912.740000", "191912.743000", "191912.747000", "191912.750000", "191912.753000", "191912.757000", "191912.760000", "191912.763000", "191912.766000", "191912.853000", "191952.683000", "191952.687000", "191952.690000", "191952.694000", "191952.697000", "191952.708000", "191952.711000", "191952.714000", "191952.717000", "191952.721000", "191952.724000", "191952.728000", "191952.731000", "191952.735000", "191952.738000", "191952.741000", "191952.745000", "191952.748000", "191952.751000", "191952.755000", "191952.758000", "191952.763000", "191952.766000", "191952.831000", "191952.834000", "191952.838000", "192032.684000", "192032.688000", "192032.691000", "192032.695000", "192032.698000", "192032.701000", "192032.705000", "192032.708000", "192032.711000", "192032.715000", "192032.718000", "192032.721000", "192032.725000", "192032.728000", "192032.731000", "192032.735000", "192032.738000", "192032.741000", "192032.745000", "192032.748000", "192032.751000", "192032.754000", "192032.758000", "192032.761000", "192032.764000", "192032.768000", "192032.771000", "192105.094000", "192105.108000", "192105.111000", "192105.115000", "192105.118000", "192105.121000", "192105.125000", "192105.128000", "192105.131000", "192105.135000", "192105.138000", "192105.142000", "192105.145000", "192105.148000", "192105.151000", "192105.155000", "192105.158000", "192105.161000", "192105.165000", "192105.168000", "192105.172000", "192105.175000"],
      "InstanceNumber": [1, 2, 3, 4, 5, 6, 7, 8, 9, 10, 11, 12, 13, 14, 15, 16, 17, 18, 19, 20, 21, 22, 23, 24, 25, 26, 27, 28, 29, 30, 31, 32, 33, 34, 35, 36, 37, 38, 39, 40, 41, 42, 43, 44, 45, 46, 47, 48, 49, 50, 51, 52, 53, 54, 55, 56, 57, 58, 59, 60, 61, 62, 63, 64, 65, 66, 67, 68, 69, 70, 71, 72, 73, 74, 75, 76, 77, 78, 79, 80, 81, 82, 83, 84, 85, 86, 87, 88, 89, 90, 91, 92, 93, 94, 95, 96, 97, 98, 99, 100, 101, 102, 103, 104, 105, 106, 107, 108, 109, 110, 111, 112, 113, 114, 115, 116, 117, 118, 119, 120, 121, 122, 123, 124, 125, 126, 127, 128, 129, 130, 131, 132, 133, 134, 135, 136, 137, 138, 139, 140, 141, 142, 143, 144, 145, 146, 147, 148, 149, 150, 151, 152, 153, 154, 155, 156, 157, 158, 159, 160, 161, 162, 163, 164, 165, 166, 167, 168, 169, 170, 171, 172, 173, 174, 175, 176, 177, 178, 179, 180, 181, 182, 183, 184, 185, 186, 187, 188, 189, 190, 191, 192, 193, 194, 195, 196, 197, 198, 199, 200, 201, 202, 203, 204, 205, 206, 207, 208, 209, 210, 211, 212, 213, 214, 215, 216, 217, 218, 219, 220, 221, 222, 223, 224, 225, 226, 227, 228, 229, 230, 231, 232, 233, 234, 235, 236, 237, 238, 239, 240, 241, 242, 243, 244, 245, 246, 247, 248, 249, 250, 251, 252, 253, 254, 255, 256, 257, 258, 259, 260, 261, 262, 263, 264, 265, 266, 267, 268, 269, 270, 271, 272, 273, 274, 275, 276, 277, 278, 279, 280, 281, 282, 283, 284, 285, 286, 287, 288, 289, 290, 291, 292, 293, 294, 295, 296, 297, 298, 299, 300, 301, 302, 303, 304, 305, 306, 307, 308, 309, 310, 311, 312, 313, 314, 315, 316, 317, 318, 319, 320, 321, 322, 323, 324, 325, 326, 327, 328, 329, 330, 331, 332, 333, 334, 335, 336, 337, 338, 339, 340, 341, 342, 343, 344, 345],
      "LargestImagePixelValue": [60031, 58514, 57775, 56216, 56141, 56664, 56345, 56719, 56132, 56604, 56374, 55933, 55644, 56646, 55952, 55702, 55380, 55601, 55165, 55259, 55536, 55592, 55619, 55199, 55484, 55471, 55514, 55339, 55734, 55822, 55681, 55867, 55868, 56157, 56013, 55718, 56189, 55414, 55614, 55604, 55118, 54756, 54882, 54429, 54428, 54448, 54965, 56101, 55079, 55299, 55452, 55455, 56336, 55498, 55790, 55494, 55847, 55875, 55691, 55598, 55748, 56239, 55690, 56012, 56223, 55829, 56013, 56374, 55966, 55898, 56284, 56316, 56577, 56369, 56182, 56575, 55907, 56246, 56614, 56373, 55725, 56683, 55962, 56343, 56082, 56457, 55995, 56454, 56303, 56286, 56415, 55860, 55991, 55997, 55926, 55627, 57097, 57123, 57365, 56133, 56840, 57565, 55999, 55780, 56805, 56746, 56318, 56384, 55821, 55969, 55643, 55508, 55144, 55146, 54973, 55763, 55112, 55233, 55080, 55355, 54718, 54990, 54719, 54823, 53972, 53877, 53398, 53614, 53451, 53732, 53530, 53779, 53597, 53912, 54100, 53919, 54251, 54380, 57484, 57245, 55023, 53843, 55182, 54113, 54039, 53929, 54947, 54362, 53919, 54225, 53754, 53736, 54148, 54276, 54225, 54778, 54528, 55146, 54602, 54219, 55054, 54331, 54251, 54633, 54737, 54747, 54180, 56947, 56141, 55684, 56022, 55151, 54895, 54747, 54461, 53964, 53956, 54115, 54187, 54205, 54310, 54749, 54681, 54811, 55245, 55163, 57022, 55769, 55684, 55359, 55628, 55765, 55390, 55723, 55197, 55204, 55473, 56294, 56659, 56345, 57047, 55934, 55568, 55672, 55025, 54871, 55119, 55053, 55602, 55251, 55203, 54975, 57045, 56645, 56080, 56315, 56226, 56100, 55453, 55619, 55557, 55302, 55218, 55579, 55680, 55478, 54944, 53298, 51427, 51724, 53027, 52644, 53692, 53403, 53265, 53271, 53388, 53650, 54383, 52677, 52874, 53015, 53252, 53159, 53122, 54042, 54632, 54119, 54103, 54008, 53839, 53185, 53934, 54696, 54297, 54594, 55008, 54894, 55006, 55421, 55408, 55428, 54735, 54165, 53610, 53740, 53696, 53896, 54441, 53998, 54601, 54539, 54312, 55253, 54382, 54221, 54039, 54138, 54361, 54734, 54887, 54995, 54599, 54566, 56578, 54070, 54740, 54105, 53605, 54373, 53689, 53678, 53535, 53963, 54037, 53626, 53724, 54337, 54181, 54052, 54074, 53854, 53582, 53546, 53592, 53989, 53729, 53398, 53210, 53759, 53402, 54366, 54455, 53666, 54068, 53570, 53818, 53550, 53644, 53399, 53321, 53898, 53305, 53443, 53458, 53519, 53195, 53042, 53489, 53676, 53473, 53231, 53705, 53734, 53185, 53634, 53255, 52900, 52942, 53301, 53471, 52630, 54273, 53748, 54616],
