{
  "AcquisitionMatrixPE": 104,
  "AcquisitionNumber": 1,
  "AcquisitionTime": "18:49:54.565000",
  "BandwidthPerPixelPhaseEncode": 17.17,
  "BaseResolution": 104,
  "BodyPartExamined": "BRAIN",
  "CoilCombinationMethod": "Sum of Squares",
  "ConsistencyInfo": "N4_VE11C_LATEST_20160120",
  "ConversionSoftware": "dcm2niix",
  "ConversionSoftwareVersion": "v1.0.20220505",
  "DerivedVendorReportedEchoSpacing": 0.000560011,
  "DeviceSerialNumber": "167006",
  "DwellTime": 2.1e-06,
  "EchoTime": 0.037,
  "EchoTrainLength": 104,
  "EffectiveEchoSpacing": 0.000560011,
  "FlipAngle": 52,
  "HeudiconvVersion": "0.5.3.post811+g6206e14",
  "ImageComments": "Unaliased MB4/PE3/LB",
  "ImageOrientationPatientDICOM": [0.999623, -0.0114989, 0.0249291, 0.0195428, 0.9358, -0.35199],
  "ImageOrientationText": "Tra>Cor(-20.6)>Sag(1.1)",
  "ImageType": [
    "ORIGINAL",
    "PRIMARY",
    "M",
    "MB",
    "ND",
    "MOSAIC"
],
  "ImagingFrequency": 123.259,
  "InPlanePhaseEncodingDirectionDICOM": "COL",
  "InstitutionAddress": "Chemin Queen-Mary 4565,Montreal,District,CA,H3W 1W5",
  "InstitutionName": "IUGM",
  "InstitutionalDepartmentName": "Department",
  "MRAcquisitionType": "2D",
  "MagneticFieldStrength": 3,
  "Manufacturer": "Siemens",
  "ManufacturersModelName": "Prisma_fit",
  "MatrixCoilMode": "SENSE",
  "Modality": "MR",
  "MultibandAccelerationFactor": 4,
  "PartialFourier": 1,
  "PatientPosition": "HFS",
  "PercentPhaseFOV": 100,
  "PercentSampling": 100,
  "PhaseEncodingDirection": "j",
  "PhaseEncodingSteps": 104,
  "PhaseResolution": 1,
  "PixelBandwidth": 2290,
  "ProcedureStepDescription": "games^mario3",
  "ProtocolName": "func_task-mario3_run-01",
  "PulseSequenceDetails": "%CustomerSeq%\\cmrr_mbep2d_bold",
  "ReceiveCoilActiveElements": "HC1-7;NC1,2",
  "ReceiveCoilName": "HeadNeck_64",
  "ReconMatrixPE": 104,
  "RepetitionTime": 1.49,
  "SAR": 0.0725356,
  "ScanOptions": "FS",
  "ScanningSequence": "EP",
  "SequenceName": "epfid2d1_104",
  "SequenceVariant": "SK\\SS",
  "SeriesDescription": "func_task-mario3_run-01",
  "SeriesNumber": 10,
  "ShimSetting": [595, -7294, -8797, 410, 31, -346, -40, 63],
  "SliceThickness": 2,
  "SliceTiming": [0, 0.785, 0.0975, 0.8825, 0.195, 0.98, 0.295, 1.0775, 0.3925, 1.175, 0.49, 1.275, 0.5875, 1.3725, 0.685, 0, 0.785, 0.0975, 0.8825, 0.195, 0.98, 0.295, 1.0775, 0.3925, 1.175, 0.49, 1.275, 0.5875, 1.3725, 0.685, 0, 0.785, 0.0975, 0.8825, 0.195, 0.98, 0.295, 1.0775, 0.3925, 1.175, 0.49, 1.275, 0.5875, 1.3725, 0.685, 0, 0.785, 0.0975, 0.8825, 0.195, 0.98, 0.295, 1.0775, 0.3925, 1.175, 0.49, 1.275, 0.5875, 1.3725, 0.685],
  "SoftwareVersions": "syngo MR E11",
  "SpacingBetweenSlices": 2,
  "StationName": "MRC35049",
  "TaskName": "mario3",
  "TotalReadoutTime": 0.0576811,
  "TxRefAmp": 289.133,
  "WipMemBlock": "82fd9f3b-71fb-4cf4-a81b-8e52799c1ab8||Sequence: R017 ve11c/master r/75a17815+; Jun 28 2022 16:32:11 by eja",
  "dcmmeta_affine": [
    [-1.9992461204528809, 0.03908564895391464, 0.038562316447496414, 100.82984161376953],
    [0.022997811436653137, 1.871599793434143, -0.7046880722045898, -71.35917663574219],
    [0.049858205020427704, 0.7039790153503418, 1.8713438510894775, -57.700199127197266],
    [0.0, 0.0, 0.0, 1.0]
],
  "dcmmeta_reorient_transform": [
    [0.0, -1.0, 0.0, 103.0],
    [1.0, 0.0, 0.0, 0.0],
    [0.0, 0.0, 1.0, 0.0],
    [0.0, 0.0, 0.0, 1.0]
],
  "dcmmeta_shape": [104, 104, 60, 376],
  "dcmmeta_slice_dim": 2,
  "dcmmeta_version": 0.6,
  "global": {
    "const": {
      "AcquisitionMatrix": [104, 0, 0, 104],
      "AngioFlag": "N",
      "BitsAllocated": 16,
      "BitsStored": 16,
      "BodyPartExamined": "BRAIN",
      "Columns": 832,
      "EchoNumbers": 1,
      "EchoTime": 37.0,
      "EchoTrainLength": 104,
      "FlipAngle": 52.0,
      "HighBit": 15,
      "ImageOrientationPatient": [0.99962308647452, -0.0114989061639, 0.02492910235416, 0.0195428238097, 0.93579990477246, -0.3519895115843],
      "ImagePositionPatient": [-846.80844885549, -794.30672849549, 252.90961723001],
      "ImageType": [
        "ORIGINAL",
        "PRIMARY",
        "M",
        "MB",
        "ND",
        "MOSAIC"
],
      "ImagedNucleus": "1H",
      "ImagingFrequency": 123.258973,
      "InPlanePhaseEncodingDirection": "COL",
      "MRAcquisitionType": "2D",
      "MagneticFieldStrength": 3.0,
      "Manufacturer": "SIEMENS",
      "ManufacturerModelName": "Prisma_fit",
      "Modality": "MR",
      "NumberOfAverages": 1.0,
      "NumberOfPhaseEncodingSteps": 104,
      "PercentPhaseFieldOfView": 100.0,
      "PercentSampling": 100.0,
      "PerformedProcedureStepStartTime": "183831.130000",
      "PhotometricInterpretation": "MONOCHROME2",
      "PixelBandwidth": 2290.0,
      "PixelRepresentation": 0,
      "PixelSpacing": [2.0, 2.0],
      "ProtocolName": "func_task-mario3_run-01",
      "RepetitionTime": 1490.0,
      "Rows": 832,
      "SAR": 0.07253558514195,
      "SamplesPerPixel": 1,
      "ScanOptions": "FS",
      "ScanningSequence": "EP",
      "SequenceName": "epfid2d1_104",
      "SequenceVariant": [
        "SK",
        "SS"
],
      "SeriesDescription": "func_task-mario3_run-01",
      "SeriesNumber": 10,
      "SeriesTime": "185107.725000",
      "SliceLocation": -26.901359889195,
      "SliceThickness": 2.0,
      "SmallestImagePixelValue": 0,
      "SoftwareVersions": "syngo MR E11",
      "SpacingBetweenSlices": 2.0000000181618,
      "SpecificCharacterSet": "ISO_IR 100",
      "StudyID": "1",
      "StudyTime": "183831.060000",
      "TransmitCoilName": "Body",
      "VariableFlipAngleFlag": "N",
      "WindowCenterWidthExplanation": "Algo1",
      "dBdt": 0.0},
    "slices": {}
  },
  "time": {
    "samples": {
      "AcquisitionNumber": [1, 2, 3, 4, 5, 6, 7, 8, 9, 10, 11, 12, 13, 14, 15, 16, 17, 18, 19, 20, 21, 22, 23, 24, 25, 26, 27, 28, 29, 30, 31, 32, 33, 34, 35, 36, 37, 38, 39, 40, 41, 42, 43, 44, 45, 46, 47, 48, 49, 50, 51, 52, 53, 54, 55, 56, 57, 58, 59, 60, 61, 62, 63, 64, 65, 66, 67, 68, 69, 70, 71, 72, 73, 74, 75, 76, 77, 78, 79, 80, 81, 82, 83, 84, 85, 86, 87, 88, 89, 90, 91, 92, 93, 94, 95, 96, 97, 98, 99, 100, 101, 102, 103, 104, 105, 106, 107, 108, 109, 110, 111, 112, 113, 114, 115, 116, 117, 118, 119, 120, 121, 122, 123, 124, 125, 126, 127, 128, 129, 130, 131, 132, 133, 134, 135, 136, 137, 138, 139, 140, 141, 142, 143, 144, 145, 146, 147, 148, 149, 150, 151, 152, 153, 154, 155, 156, 157, 158, 159, 160, 161, 162, 163, 164, 165, 166, 167, 168, 169, 170, 171, 172, 173, 174, 175, 176, 177, 178, 179, 180, 181, 182, 183, 184, 185, 186, 187, 188, 189, 190, 191, 192, 193, 194, 195, 196, 197, 198, 199, 200, 201, 202, 203, 204, 205, 206, 207, 208, 209, 210, 211, 212, 213, 214, 215, 216, 217, 218, 219, 220, 221, 222, 223, 224, 225, 226, 227, 228, 229, 230, 231, 232, 233, 234, 235, 236, 237, 238, 239, 240, 241, 242, 243, 244, 245, 246, 247, 248, 249, 250, 251, 252, 253, 254, 255, 256, 257, 258, 259, 260, 261, 262, 263, 264, 265, 266, 267, 268, 269, 270, 271, 272, 273, 274, 275, 276, 277, 278, 279, 280, 281, 282, 283, 284, 285, 286, 287, 288, 289, 290, 291, 292, 293, 294, 295, 296, 297, 298, 299, 300, 301, 302, 303, 304, 305, 306, 307, 308, 309, 310, 311, 312, 313, 314, 315, 316, 317, 318, 319, 320, 321, 322, 323, 324, 325, 326, 327, 328, 329, 330, 331, 332, 333, 334, 335, 336, 337, 338, 339, 340, 341, 342, 343, 344, 345, 346, 347, 348, 349, 350, 351, 352, 353, 354, 355, 356, 357, 358, 359, 360, 361, 362, 363, 364, 365, 366, 367, 368, 369, 370, 371, 372, 373, 374, 375, 376],
      "AcquisitionTime": ["184954.565000", "184956.055000", "184957.545000", "184959.035000", "185000.525000", "185002.015000", "185003.505000", "185004.995000", "185006.485000", "185007.975000", "185009.465000", "185010.955000", "185012.445000", "185013.935000", "185015.425000", "185016.915000", "185018.405000", "185019.895000", "185021.385000", "185022.875000", "185024.365000", "185025.855000", "185027.345000", "185028.835000", "185030.325000", "185031.815000", "185033.305000", "185034.795000", "185036.285000", "185037.775000", "185039.265000", "185040.755000", "185042.245000", "185043.735000", "185045.225000", "185046.715000", "185048.205000", "185049.695000", "185051.185000", "185052.675000", "185054.165000", "185055.655000", "185057.145000", "185058.635000", "185100.125000", "185101.615000", "185103.105000", "185104.595000", "185106.085000", "185107.575000", "185109.065000", "185110.555000", "185112.045000", "185113.535000", "185115.025000", "185116.515000", "185118.005000", "185119.495000", "185120.985000", "185122.475000", "185123.965000", "185125.455000", "185126.945000", "185128.435000", "185129.925000", "185131.415000", "185132.905000", "185134.395000", "185135.885000", "185137.375000", "185138.865000", "185140.355000", "185141.845000", "185143.335000", "185144.825000", "185146.315000", "185147.805000", "185149.295000", "185150.785000", "185152.275000", "185153.765000", "185155.255000", "185156.745000", "185158.235000", "185159.725000", "185201.215000", "185202.705000", "185204.195000", "185205.685000", "185207.175000", "185208.665000", "185210.155000", "185211.645000", "185213.135000", "185214.625000", "185216.115000", "185217.605000", "185219.095000", "185220.585000", "185222.075000", "185223.565000", "185225.055000", "185226.545000", "185228.035000", "185229.525000", "185231.015000", "185232.505000", "185233.995000", "185235.485000", "185236.975000", "185238.465000", "185239.955000", "185241.445000", "185242.935000", "185244.425000", "185245.915000", "185247.405000", "185248.895000", "185250.385000", "185251.875000", "185253.365000", "185254.855000", "185256.345000", "185257.835000", "185259.325000", "185300.815000", "185302.305000", "185303.795000", "185305.285000", "185306.775000", "185308.265000", "185309.755000", "185311.245000", "185312.735000", "185314.225000", "185315.715000", "185317.205000", "185318.695000", "185320.185000", "185321.675000", "185323.165000", "185324.655000", "185326.145000", "185327.635000", "185329.125000", "185330.615000", "185332.105000", "185333.595000", "185335.085000", "185336.575000", "185338.065000", "185339.555000", "185341.045000", "185342.535000", "185344.025000", "185345.515000", "185347.005000", "185348.495000", "185349.985000", "185351.475000", "185352.965000", "185354.455000", "185355.945000", "185357.435000", "185358.925000", "185400.415000", "185401.905000", "185403.395000", "185404.885000", "185406.375000", "185407.865000", "185409.355000", "185410.845000", "185412.335000", "185413.825000", "185415.315000", "185416.805000", "185418.295000", "185419.785000", "185421.275000", "185422.765000", "185424.255000", "185425.745000", "185427.235000", "185428.725000", "185430.215000", "185431.705000", "185433.195000", "185434.685000", "185436.175000", "185437.665000", "185439.155000", "185440.645000", "185442.135000", "185443.625000", "185445.115000", "185446.605000", "185448.095000", "185449.585000", "185451.075000", "185452.565000", "185454.055000", "185455.545000", "185457.035000", "185458.525000", "185500.015000", "185501.505000", "185502.995000", "185504.485000", "185505.975000", "185507.465000", "185508.955000", "185510.445000", "185511.935000", "185513.425000", "185514.915000", "185516.405000", "185517.895000", "185519.385000", "185520.875000", "185522.365000", "185523.855000", "185525.345000", "185526.835000", "185528.325000", "185529.815000", "185531.305000", "185532.795000", "185534.285000", "185535.775000", "185537.265000", "185538.755000", "185540.245000", "185541.735000", "185543.225000", "185544.715000", "185546.205000", "185547.695000", "185549.185000", "185550.675000", "185552.165000", "185553.655000", "185555.145000", "185556.635000", "185558.125000", "185559.615000", "185601.105000", "185602.595000", "185604.085000", "185605.575000", "185607.065000", "185608.555000", "185610.045000", "185611.535000", "185613.025000", "185614.515000", "185616.005000", "185617.495000", "185618.985000", "185620.475000", "185621.965000", "185623.455000", "185624.945000", "185626.435000", "185627.925000", "185629.415000", "185630.905000", "185632.395000", "185633.885000", "185635.375000", "185636.865000", "185638.355000", "185639.845000", "185641.335000", "185642.825000", "185644.315000", "185645.805000", "185647.295000", "185648.785000", "185650.275000", "185651.765000", "185653.255000", "185654.745000", "185656.235000", "185657.725000", "185659.215000", "185700.705000", "185702.195000", "185703.685000", "185705.175000", "185706.665000", "185708.155000", "185709.645000", "185711.135000", "185712.625000", "185714.115000", "185715.605000", "185717.095000", "185718.585000", "185720.075000", "185721.565000", "185723.055000", "185724.545000", "185726.035000", "185727.525000", "185729.015000", "185730.505000", "185731.995000", "185733.485000", "185734.975000", "185736.465000", "185737.955000", "185739.445000", "185740.935000", "185742.425000", "185743.915000", "185745.405000", "185746.895000", "185748.385000", "185749.875000", "185751.365000", "185752.855000", "185754.345000", "185755.835000", "185757.325000", "185758.815000", "185800.305000", "185801.795000", "185803.285000", "185804.775000", "185806.265000", "185807.755000", "185809.245000", "185810.735000", "185812.225000", "185813.715000", "185815.205000", "185816.695000", "185818.185000", "185819.675000", "185821.165000", "185822.655000", "185824.145000", "185825.635000", "185827.125000", "185828.615000", "185830.105000", "185831.595000", "185833.085000", "185834.575000", "185836.065000", "185837.555000", "185839.045000", "185840.535000", "185842.025000", "185843.515000", "185845.005000", "185846.495000", "185847.985000", "185849.475000", "185850.965000", "185852.455000", "185853.945000", "185855.435000", "185856.925000", "185858.415000", "185859.905000", "185901.395000", "185902.885000", "185904.375000", "185905.865000", "185907.355000", "185908.845000", "185910.335000", "185911.825000", "185913.315000"],
      "ContentTime": ["185107.730000", "185107.734000", "185107.737000", "185107.740000", "185107.750000", "185107.754000", "185107.757000", "185107.761000", "185107.764000", "185107.767000", "185107.771000", "185107.774000", "185107.777000", "185107.790000", "185107.794000", "185107.797000", "185107.802000", "185107.805000", "185107.809000", "185107.812000", "185107.815000", "185107.819000", "185107.822000", "185107.825000", "185107.829000", "185127.690000", "185127.694000", "185127.697000", "185127.700000", "185127.704000", "185127.707000", "185127.710000", "185127.714000", "185127.717000", "185127.720000", "185127.723000", "185127.727000", "185127.730000", "185127.733000", "185127.737000", "185127.740000", "185127.743000", "185127.747000", "185127.750000", "185127.753000", "185147.689000", "185147.693000", "185147.696000", "185147.699000", "185147.702000", "185147.706000", "185147.709000", "185147.712000", "185147.716000", "185147.719000", "185147.722000", "185147.726000", "185147.729000", "185147.732000", "185147.735000", "185147.739000", "185147.742000", "185147.745000", "185147.754000", "185147.757000", "185207.689000", "185207.693000", "185207.696000", "185207.699000", "185207.702000", "185207.706000", "185207.710000", "185207.714000", "185207.717000", "185207.720000", "185207.724000", "185207.727000", "185207.730000", "185207.734000", "185207.737000", "185207.740000", "185207.744000", "185207.747000", "185207.750000", "185207.754000", "185247.689000", "185247.693000", "185247.696000", "185247.699000", "185247.703000", "185247.706000", "185247.709000", "185247.713000", "185247.716000", "185247.719000", "185247.723000", "185247.726000", "185247.729000", "185247.732000", "185247.736000", "185247.739000", "185247.742000", "185247.746000", "185247.749000", "185247.753000", "185247.756000", "185247.760000", "185247.763000", "185247.766000", "185247.770000", "185247.773000", "185247.776000", "185247.779000", "185247.783000", "185247.786000", "185327.690000", "185327.694000", "185327.697000", "185327.700000", "185327.704000", "185327.707000", "185327.710000", "185327.714000", "185327.717000", "185327.720000", "185327.724000", "185327.727000", "185327.730000", "185327.734000", "185327.737000", "185327.740000", "185327.744000", "185327.747000", "185327.751000", "185327.754000", "185327.757000", "185327.760000", "185327.764000", "185327.767000", "185327.770000", "185327.774000", "185327.777000", "185407.689000", "185407.693000", "185407.696000", "185407.700000", "185407.703000", "185407.706000", "185407.709000", "185407.713000", "185407.716000", "185407.719000", "185407.722000", "185407.726000", "185407.729000", "185407.733000", "185407.736000", "185407.750000", "185407.753000", "185407.756000", "185407.760000", "185407.763000", "185407.766000", "185407.769000", "185407.773000", "185407.776000", "185407.779000", "185407.783000", "185407.786000", "185447.689000", "185447.693000", "185447.696000", "185447.699000", "185447.703000", "185447.706000", "185447.709000", "185447.713000", "185447.716000", "185447.719000", "185447.723000", "185447.726000", "185447.729000", "185447.732000", "185447.736000", "185447.739000", "185447.742000", "185447.746000", "185447.749000", "185447.752000", "185447.755000", "185447.759000", "185447.762000", "185447.765000", "185447.769000", "185447.772000", "185447.775000", "185527.689000", "185527.693000", "185527.696000", "185527.699000", "185527.703000", "185527.706000", "185527.709000", "185527.712000", "185527.716000", "185527.719000", "185527.722000", "185527.726000", "185527.729000", "185527.732000", "185527.736000", "185527.739000", "185527.742000", "185527.745000", "185527.749000", "185527.752000", "185527.755000", "185527.759000", "185527.762000", "185527.765000", "185527.768000", "185527.772000", "185527.775000", "185607.690000", "185607.694000", "185607.697000", "185607.701000", "185607.704000", "185607.708000", "185607.711000", "185607.715000", "185607.718000", "185607.721000", "185607.724000", "185607.728000", "185607.731000", "185607.734000", "185607.738000", "185607.741000", "185607.744000", "185607.747000", "185607.751000", "185607.766000", "185607.769000", "185607.773000", "185607.776000", "185607.788000", "185607.791000", "185607.794000", "185607.797000", "185647.689000", "185647.693000", "185647.696000", "185647.699000", "185647.703000", "185647.706000", "185647.709000", "185647.712000", "185647.716000", "185647.719000", "185647.722000", "185647.726000", "185647.729000", "185647.732000", "185647.735000", "185647.739000", "185647.742000", "185647.746000", "185647.749000", "185647.752000", "185647.756000", "185647.759000", "185647.762000", "185647.766000", "185647.769000", "185647.772000", "185647.776000", "185727.689000", "185727.693000", "185727.696000", "185727.699000", "185727.703000", "185727.706000", "185727.709000", "185727.712000", "185727.716000", "185727.719000", "185727.722000", "185727.726000", "185727.729000", "185727.733000", "185727.737000", "185727.740000", "185727.744000", "185727.747000", "185727.751000", "185727.754000", "185727.757000", "185727.761000", "185727.764000", "185727.767000", "185727.771000", "185727.774000", "185807.690000", "185807.694000", "185807.697000", "185807.700000", "185807.704000", "185807.707000", "185807.710000", "185807.713000", "185807.717000", "185807.720000", "185807.724000", "185807.727000", "185807.730000", "185807.733000", "185807.737000", "185807.740000", "185807.743000", "185807.747000", "185807.750000", "185807.753000", "185807.757000", "185807.760000", "185807.763000", "185807.766000", "185807.770000", "185807.773000", "185807.777000", "185827.690000", "185827.703000", "185827.706000", "185827.710000", "185827.713000", "185827.716000", "185827.720000", "185827.723000", "185827.726000", "185827.730000", "185827.733000", "185827.736000", "185827.740000", "185827.743000", "185907.689000", "185907.693000", "185907.697000", "185907.700000", "185907.704000", "185907.707000", "185907.711000", "185907.715000", "185907.718000", "185907.722000", "185907.725000", "185907.728000", "185907.732000", "185907.735000", "185907.739000", "185907.742000", "185907.745000", "185907.748000", "185907.752000", "185907.755000", "185907.758000", "185907.762000", "185907.765000", "185907.768000", "185907.772000", "185907.775000", "185916.453000", "185916.458000", "185916.462000", "185916.465000", "185916.468000", "185916.472000"],
      "InstanceCreationTime": ["185107.730000", "185107.734000", "185107.737000", "185107.740000", "185107.750000", "185107.754000", "185107.757000", "185107.761000", "185107.764000", "185107.767000", "185107.771000", "185107.774000", "185107.777000", "185107.790000", "185107.794000", "185107.797000", "185107.802000", "185107.805000", "185107.809000", "185107.812000", "185107.815000", "185107.819000", "185107.822000", "185107.825000", "185107.829000", "185127.690000", "185127.694000", "185127.697000", "185127.700000", "185127.704000", "185127.707000", "185127.710000", "185127.714000", "185127.717000", "185127.720000", "185127.723000", "185127.727000", "185127.730000", "185127.733000", "185127.737000", "185127.740000", "185127.743000", "185127.747000", "185127.750000", "185127.753000", "185147.689000", "185147.693000", "185147.696000", "185147.699000", "185147.702000", "185147.706000", "185147.709000", "185147.712000", "185147.716000", "185147.719000", "185147.722000", "185147.726000", "185147.729000", "185147.732000", "185147.735000", "185147.739000", "185147.742000", "185147.745000", "185147.754000", "185147.757000", "185207.689000", "185207.693000", "185207.696000", "185207.699000", "185207.702000", "185207.706000", "185207.710000", "185207.714000", "185207.717000", "185207.720000", "185207.724000", "185207.727000", "185207.730000", "185207.734000", "185207.737000", "185207.740000", "185207.744000", "185207.747000", "185207.750000", "185207.754000", "185247.689000", "185247.693000", "185247.696000", "185247.699000", "185247.703000", "185247.706000", "185247.709000", "185247.713000", "185247.716000", "185247.719000", "185247.723000", "185247.726000", "185247.729000", "185247.732000", "185247.736000", "185247.739000", "185247.742000", "185247.746000", "185247.749000", "185247.753000", "185247.756000", "185247.760000", "185247.763000", "185247.766000", "185247.770000", "185247.773000", "185247.776000", "185247.779000", "185247.783000", "185247.786000", "185327.690000", "185327.694000", "185327.697000", "185327.700000", "185327.704000", "185327.707000", "185327.710000", "185327.714000", "185327.717000", "185327.720000", "185327.724000", "185327.727000", "185327.730000", "185327.734000", "185327.737000", "185327.740000", "185327.744000", "185327.747000", "185327.751000", "185327.754000", "185327.757000", "185327.760000", "185327.764000", "185327.767000", "185327.770000", "185327.774000", "185327.777000", "185407.689000", "185407.693000", "185407.696000", "185407.700000", "185407.703000", "185407.706000", "185407.709000", "185407.713000", "185407.716000", "185407.719000", "185407.722000", "185407.726000", "185407.729000", "185407.733000", "185407.736000", "185407.750000", "185407.753000", "185407.756000", "185407.760000", "185407.763000", "185407.766000", "185407.769000", "185407.773000", "185407.776000", "185407.779000", "185407.783000", "185407.786000", "185447.689000", "185447.693000", "185447.696000", "185447.699000", "185447.703000", "185447.706000", "185447.709000", "185447.713000", "185447.716000", "185447.719000", "185447.723000", "185447.726000", "185447.729000", "185447.732000", "185447.736000", "185447.739000", "185447.742000", "185447.746000", "185447.749000", "185447.752000", "185447.755000", "185447.759000", "185447.762000", "185447.765000", "185447.769000", "185447.772000", "185447.775000", "185527.689000", "185527.693000", "185527.696000", "185527.699000", "185527.703000", "185527.706000", "185527.709000", "185527.712000", "185527.716000", "185527.719000", "185527.722000", "185527.726000", "185527.729000", "185527.732000", "185527.736000", "185527.739000", "185527.742000", "185527.745000", "185527.749000", "185527.752000", "185527.755000", "185527.759000", "185527.762000", "185527.765000", "185527.768000", "185527.772000", "185527.775000", "185607.690000", "185607.694000", "185607.697000", "185607.701000", "185607.704000", "185607.708000", "185607.711000", "185607.715000", "185607.718000", "185607.721000", "185607.724000", "185607.728000", "185607.731000", "185607.734000", "185607.738000", "185607.741000", "185607.744000", "185607.747000", "185607.751000", "185607.766000", "185607.769000", "185607.773000", "185607.776000", "185607.788000", "185607.791000", "185607.794000", "185607.797000", "185647.689000", "185647.693000", "185647.696000", "185647.699000", "185647.703000", "185647.706000", "185647.709000", "185647.712000", "185647.716000", "185647.719000", "185647.722000", "185647.726000", "185647.729000", "185647.732000", "185647.735000", "185647.739000", "185647.742000", "185647.746000", "185647.749000", "185647.752000", "185647.756000", "185647.759000", "185647.762000", "185647.766000", "185647.769000", "185647.772000", "185647.776000", "185727.689000", "185727.693000", "185727.696000", "185727.699000", "185727.703000", "185727.706000", "185727.709000", "185727.712000", "185727.716000", "185727.719000", "185727.722000", "185727.726000", "185727.729000", "185727.733000", "185727.737000", "185727.740000", "185727.744000", "185727.747000", "185727.751000", "185727.754000", "185727.757000", "185727.761000", "185727.764000", "185727.767000", "185727.771000", "185727.774000", "185807.690000", "185807.694000", "185807.697000", "185807.700000", "185807.704000", "185807.707000", "185807.710000", "185807.713000", "185807.717000", "185807.720000", "185807.724000", "185807.727000", "185807.730000", "185807.733000", "185807.737000", "185807.740000", "185807.743000", "185807.747000", "185807.750000", "185807.753000", "185807.757000", "185807.760000", "185807.763000", "185807.766000", "185807.770000", "185807.773000", "185807.777000", "185827.690000", "185827.703000", "185827.706000", "185827.710000", "185827.713000", "185827.716000", "185827.720000", "185827.723000", "185827.726000", "185827.730000", "185827.733000", "185827.736000", "185827.740000", "185827.743000", "185907.689000", "185907.693000", "185907.697000", "185907.700000", "185907.704000", "185907.707000", "185907.711000", "185907.715000", "185907.718000", "185907.722000", "185907.725000", "185907.728000", "185907.732000", "185907.735000", "185907.739000", "185907.742000", "185907.745000", "185907.748000", "185907.752000", "185907.755000", "185907.758000", "185907.762000", "185907.765000", "185907.768000", "185907.772000", "185907.775000", "185916.453000", "185916.458000", "185916.462000", "185916.465000", "185916.468000", "185916.472000"],
      "InstanceNumber": [1, 2, 3, 4, 5, 6, 7, 8, 9, 10, 11, 12, 13, 14, 15, 16, 17, 18, 19, 20, 21, 22, 23, 24, 25, 26, 27, 28, 29, 30, 31, 32, 33, 34, 35, 36, 37, 38, 39, 40, 41, 42, 43, 44, 45, 46, 47, 48, 49, 50, 51, 52, 53, 54, 55, 56, 57, 58, 59, 60, 61, 62, 63, 64, 65, 66, 67, 68, 69, 70, 71, 72, 73, 74, 75, 76, 77, 78, 79, 80, 81, 82, 83, 84, 85, 86, 87, 88, 89, 90, 91, 92, 93, 94, 95, 96, 97, 98, 99, 100, 101, 102, 103, 104, 105, 106, 107, 108, 109, 110, 111, 112, 113, 114, 115, 116, 117, 118, 119, 120, 121, 122, 123, 124, 125, 126, 127, 128, 129, 130, 131, 132, 133, 134, 135, 136, 137, 138, 139, 140, 141, 142, 143, 144, 145, 146, 147, 148, 149, 150, 151, 152, 153, 154, 155, 156, 157, 158, 159, 160, 161, 162, 163, 164, 165, 166, 167, 168, 169, 170, 171, 172, 173, 174, 175, 176, 177, 178, 179, 180, 181, 182, 183, 184, 185, 186, 187, 188, 189, 190, 191, 192, 193, 194, 195, 196, 197, 198, 199, 200, 201, 202, 203, 204, 205, 206, 207, 208, 209, 210, 211, 212, 213, 214, 215, 216, 217, 218, 219, 220, 221, 222, 223, 224, 225, 226, 227, 228, 229, 230, 231, 232, 233, 234, 235, 236, 237, 238, 239, 240, 241, 242, 243, 244, 245, 246, 247, 248, 249, 250, 251, 252, 253, 254, 255, 256, 257, 258, 259, 260, 261, 262, 263, 264, 265, 266, 267, 268, 269, 270, 271, 272, 273, 274, 275, 276, 277, 278, 279, 280, 281, 282, 283, 284, 285, 286, 287, 288, 289, 290, 291, 292, 293, 294, 295, 296, 297, 298, 299, 300, 301, 302, 303, 304, 305, 306, 307, 308, 309, 310, 311, 312, 313, 314, 315, 316, 317, 318, 319, 320, 321, 322, 323, 324, 325, 326, 327, 328, 329, 330, 331, 332, 333, 334, 335, 336, 337, 338, 339, 340, 341, 342, 343, 344, 345, 346, 347, 348, 349, 350, 351, 352, 353, 354, 355, 356, 357, 358, 359, 360, 361, 362, 363, 364, 365, 366, 367, 368, 369, 370, 371, 372, 373, 374, 375, 376],
