{
  "AcquisitionMatrixPE": 104,
  "AcquisitionNumber": 1,
  "AcquisitionTime": "16:19:57.087500",
  "BandwidthPerPixelPhaseEncode": 17.17,
  "BaseResolution": 104,
  "BodyPartExamined": "BRAIN",
  "CoilCombinationMethod": "Sum of Squares",
  "ConsistencyInfo": "N4_VE11C_LATEST_20160120",
  "ConversionSoftware": "dcm2niix",
  "ConversionSoftwareVersion": "v1.0.20220505",
  "DerivedVendorReportedEchoSpacing": 0.000560011,
  "DeviceSerialNumber": "167006",
  "DwellTime": 2.1e-06,
  "EchoTime": 0.037,
  "EchoTime1": 0.037,
  "EchoTime2": 0.001,
  "EchoTrainLength": 104,
  "EffectiveEchoSpacing": 0.000560011,
  "FlipAngle": 52,
  "HeudiconvVersion": "0.5.3.post811+g6206e14",
  "ImageComments": "Unaliased MB4/PE3/LB",
  "ImageOrientationPatientDICOM": [0.998023, -0.000696906, 0.0628473, 0.0332822, 0.854093, -0.519054],
  "ImageOrientationText": "Tra>Cor(-31.4)>Sag(3.1)",
  "ImageType": [
    "ORIGINAL",
    "PRIMARY",
    "P",
    "MB",
    "ND",
    "MOSAIC",
    "PHASE"
],
  "ImagingFrequency": 123.259,
  "InPlanePhaseEncodingDirectionDICOM": "COL",
  "InstitutionAddress": "Chemin Queen-Mary 4565,Montreal,District,CA,H3W 1W5",
  "InstitutionName": "IUGM",
  "InstitutionalDepartmentName": "Department",
  "MRAcquisitionType": "2D",
  "MagneticFieldStrength": 3,
  "Manufacturer": "Siemens",
  "ManufacturersModelName": "Prisma_fit",
  "MatrixCoilMode": "SENSE",
  "Modality": "MR",
  "MultibandAccelerationFactor": 4,
  "PartialFourier": 1,
  "PatientPosition": "HFS",
  "PercentPhaseFOV": 100,
  "PercentSampling": 100,
  "PhaseEncodingDirection": "j",
  "PhaseEncodingSteps": 104,
  "PhaseResolution": 1,
  "PixelBandwidth": 2290,
  "ProcedureStepDescription": "games^mario3",
  "ProtocolName": "func_task-mario3_run-01",
  "PulseSequenceDetails": "%CustomerSeq%\\cmrr_mbep2d_bold",
  "ReceiveCoilActiveElements": "HC1-7;NC1,2",
  "ReceiveCoilName": "HeadNeck_64",
  "ReconMatrixPE": 104,
  "RepetitionTime": 1.49,
  "SAR": 0.0499543,
  "ScanOptions": "FS",
  "ScanningSequence": "EP",
  "SequenceName": "epfid2d1_104",
  "SequenceVariant": "SK\\SS",
  "SeriesDescription": "func_task-mario3_run-01",
  "SeriesNumber": 11,
  "ShimSetting": [633, -7188, -8880, 298, 24, -168, 3, 48],
  "SliceThickness": 2,
  "SliceTiming": [0, 0.7825, 0.0975, 0.8825, 0.195, 0.98, 0.2925, 1.0775, 0.3925, 1.175, 0.49, 1.2725, 0.5875, 1.3725, 0.685, 0, 0.7825, 0.0975, 0.8825, 0.195, 0.98, 0.2925, 1.0775, 0.3925, 1.175, 0.49, 1.2725, 0.5875, 1.3725, 0.685, 0, 0.7825, 0.0975, 0.8825, 0.195, 0.98, 0.2925, 1.0775, 0.3925, 1.175, 0.49, 1.2725, 0.5875, 1.3725, 0.685, 0, 0.7825, 0.0975, 0.8825, 0.195, 0.98, 0.2925, 1.0775, 0.3925, 1.175, 0.49, 1.2725, 0.5875, 1.3725, 0.685],
  "SoftwareVersions": "syngo MR E11",
  "SpacingBetweenSlices": 2,
  "StationName": "MRC35049",
  "TaskName": "mario3",
  "TotalReadoutTime": 0.0576811,
  "TxRefAmp": 269.272,
  "WipMemBlock": "1eb20d0a-8120-43f4-ad3c-9ea79f09e619||Sequence: R017 ve11c/master r/75a17815+; Jun 28 2022 16:32:11 by eja",
  "dcmmeta_affine": [
    [-1.9960458278656006, 0.06656436622142792, 0.10663148015737534, 101.86430358886719],
    [0.0013938124757260084, 1.708186388015747, -1.0402390956878662, -49.90155029296875],
    [0.1256946474313736, 1.0381081104278564, 1.7048555612564087, -106.11486053466797],
    [0.0, 0.0, 0.0, 1.0]
],
  "dcmmeta_reorient_transform": [
    [0.0, -1.0, 0.0, 103.0],
    [1.0, 0.0, 0.0, 0.0],
    [0.0, 0.0, 1.0, 0.0],
    [0.0, 0.0, 0.0, 1.0]
],
  "dcmmeta_shape": [104, 104, 60, 349],
  "dcmmeta_slice_dim": 2,
  "dcmmeta_version": 0.6,
  "global": {
    "const": {
      "AcquisitionMatrix": [104, 0, 0, 104],
      "AngioFlag": "N",
      "BitsAllocated": 16,
      "BitsStored": 16,
      "BodyPartExamined": "BRAIN",
      "Columns": 832,
      "EchoNumbers": 1,
      "EchoTime": 37.0,
      "EchoTrainLength": 104,
      "FlipAngle": 52.0,
      "HighBit": 15,
      "ImageOrientationPatient": [0.99802290965767, -0.0006969062388, 0.06284732389003, 0.03328218247914, 0.85409319989782, -0.5190540455653],
      "ImagePositionPatient": [-859.51054164821, -747.31414939927, 332.92876904517],
      "ImageType": [
        "ORIGINAL",
        "PRIMARY",
        "P",
        "MB",
        "ND",
        "MOSAIC"
],
      "ImagedNucleus": "1H",
      "ImagingFrequency": 123.258829,
      "InPlanePhaseEncodingDirection": "COL",
      "LargestImagePixelValue": 4095,
      "MRAcquisitionType": "2D",
      "MagneticFieldStrength": 3.0,
      "Manufacturer": "SIEMENS",
      "ManufacturerModelName": "Prisma_fit",
      "Modality": "MR",
      "NumberOfAverages": 1.0,
      "NumberOfPhaseEncodingSteps": 104,
      "PercentPhaseFieldOfView": 100.0,
      "PercentSampling": 100.0,
      "PerformedProcedureStepStartTime": "161631.138000",
      "PhotometricInterpretation": "MONOCHROME2",
      "PixelBandwidth": 2290.0,
      "PixelRepresentation": 0,
      "PixelSpacing": [2.0, 2.0],
      "ProtocolName": "func_task-mario3_run-01",
      "RepetitionTime": 1490.0,
      "RescaleIntercept": -4096.0,
      "RescaleSlope": 2.0,
      "RescaleType": "US",
      "Rows": 832,
      "SAR": 0.04995425674452,
      "SamplesPerPixel": 1,
      "ScanOptions": "FS",
      "ScanningSequence": "EP",
      "SequenceName": "epfid2d1_104",
      "SequenceVariant": [
        "SK",
        "SS"
],
      "SeriesDescription": "func_task-mario3_run-01",
      "SeriesNumber": 11,
      "SeriesTime": "162116.958000",
      "SliceLocation": -59.069509977581,
      "SliceThickness": 2.0,
      "SmallestImagePixelValue": 0,
      "SoftwareVersions": "syngo MR E11",
      "SpacingBetweenSlices": 1.9999999824391,
      "SpecificCharacterSet": "ISO_IR 100",
      "StudyID": "1",
      "StudyTime": "161631.066000",
      "TransmitCoilName": "Body",
      "VariableFlipAngleFlag": "N",
      "WindowCenterWidthExplanation": "Algo1",
      "dBdt": 0.0},
    "slices": {}
  },
  "time": {
    "samples": {
      "AcquisitionNumber": [1, 2, 3, 4, 5, 6, 7, 8, 9, 10, 11, 12, 13, 14, 15, 16, 17, 18, 19, 20, 21, 22, 23, 24, 25, 26, 27, 28, 29, 30, 31, 32, 33, 34, 35, 36, 37, 38, 39, 40, 41, 42, 43, 44, 45, 46, 47, 48, 49, 50, 51, 52, 53, 54, 55, 56, 57, 58, 59, 60, 61, 62, 63, 64, 65, 66, 67, 68, 69, 70, 71, 72, 73, 74, 75, 76, 77, 78, 79, 80, 81, 82, 83, 84, 85, 86, 87, 88, 89, 90, 91, 92, 93, 94, 95, 96, 97, 98, 99, 100, 101, 102, 103, 104, 105, 106, 107, 108, 109, 110, 111, 112, 113, 114, 115, 116, 117, 118, 119, 120, 121, 122, 123, 124, 125, 126, 127, 128, 129, 130, 131, 132, 133, 134, 135, 136, 137, 138, 139, 140, 141, 142, 143, 144, 145, 146, 147, 148, 149, 150, 151, 152, 153, 154, 155, 156, 157, 158, 159, 160, 161, 162, 163, 164, 165, 166, 167, 168, 169, 170, 171, 172, 173, 174, 175, 176, 177, 178, 179, 180, 181, 182, 183, 184, 185, 186, 187, 188, 189, 190, 191, 192, 193, 194, 195, 196, 197, 198, 199, 200, 201, 202, 203, 204, 205, 206, 207, 208, 209, 210, 211, 212, 213, 214, 215, 216, 217, 218, 219, 220, 221, 222, 223, 224, 225, 226, 227, 228, 229, 230, 231, 232, 233, 234, 235, 236, 237, 238, 239, 240, 241, 242, 243, 244, 245, 246, 247, 248, 249, 250, 251, 252, 253, 254, 255, 256, 257, 258, 259, 260, 261, 262, 263, 264, 265, 266, 267, 268, 269, 270, 271, 272, 273, 274, 275, 276, 277, 278, 279, 280, 281, 282, 283, 284, 285, 286, 287, 288, 289, 290, 291, 292, 293, 294, 295, 296, 297, 298, 299, 300, 301, 302, 303, 304, 305, 306, 307, 308, 309, 310, 311, 312, 313, 314, 315, 316, 317, 318, 319, 320, 321, 322, 323, 324, 325, 326, 327, 328, 329, 330, 331, 332, 333, 334, 335, 336, 337, 338, 339, 340, 341, 342, 343, 344, 345, 346, 347, 348, 349],
      "AcquisitionTime": ["161957.087500", "161958.577500", "162000.067500", "162001.557500", "162003.047500", "162004.537500", "162006.027500", "162007.517500", "162009.007500", "162010.497500", "162011.987500", "162013.477500", "162014.967500", "162016.457500", "162017.947500", "162019.437500", "162020.927500", "162022.417500", "162023.907500", "162025.397500", "162026.887500", "162028.377500", "162029.867500", "162031.357500", "162032.847500", "162034.337500", "162035.827500", "162037.317500", "162038.807500", "162040.297500", "162041.787500", "162043.277500", "162044.767500", "162046.257500", "162047.747500", "162049.237500", "162050.727500", "162052.217500", "162053.707500", "162055.197500", "162056.687500", "162058.177500", "162059.667500", "162101.157500", "162102.647500", "162104.137500", "162105.627500", "162107.117500", "162108.607500", "162110.097500", "162111.587500", "162113.077500", "162114.567500", "162116.057500", "162117.547500", "162119.037500", "162120.527500", "162122.017500", "162123.507500", "162124.997500", "162126.487500", "162127.977500", "162129.467500", "162130.957500", "162132.447500", "162133.937500", "162135.427500", "162136.917500", "162138.407500", "162139.897500", "162141.387500", "162142.877500", "162144.367500", "162145.857500", "162147.347500", "162148.837500", "162150.327500", "162151.817500", "162153.307500", "162154.797500", "162156.287500", "162157.777500", "162159.267500", "162200.757500", "162202.247500", "162203.737500", "162205.227500", "162206.717500", "162208.207500", "162209.697500", "162211.187500", "162212.677500", "162214.167500", "162215.657500", "162217.147500", "162218.637500", "162220.127500", "162221.617500", "162223.107500", "162224.597500", "162226.087500", "162227.577500", "162229.067500", "162230.557500", "162232.047500", "162233.537500", "162235.027500", "162236.517500", "162238.007500", "162239.497500", "162240.987500", "162242.477500", "162243.967500", "162245.457500", "162246.947500", "162248.437500", "162249.927500", "162251.417500", "162252.907500", "162254.397500", "162255.887500", "162257.377500", "162258.867500", "162300.357500", "162301.847500", "162303.337500", "162304.827500", "162306.317500", "162307.807500", "162309.297500", "162310.787500", "162312.277500", "162313.767500", "162315.257500", "162316.747500", "162318.237500", "162319.727500", "162321.217500", "162322.707500", "162324.197500", "162325.687500", "162327.177500", "162328.667500", "162330.157500", "162331.647500", "162333.137500", "162334.627500", "162336.117500", "162337.607500", "162339.097500", "162340.587500", "162342.077500", "162343.567500", "162345.057500", "162346.547500", "162348.037500", "162349.527500", "162351.017500", "162352.507500", "162353.997500", "162355.487500", "162356.977500", "162358.467500", "162359.957500", "162401.447500", "162402.937500", "162404.427500", "162405.917500", "162407.407500", "162408.897500", "162410.387500", "162411.877500", "162413.367500", "162414.857500", "162416.347500", "162417.837500", "162419.327500", "162420.817500", "162422.307500", "162423.797500", "162425.287500", "162426.777500", "162428.267500", "162429.757500", "162431.247500", "162432.737500", "162434.227500", "162435.717500", "162437.207500", "162438.697500", "162440.187500", "162441.677500", "162443.167500", "162444.657500", "162446.147500", "162447.637500", "162449.127500", "162450.617500", "162452.107500", "162453.597500", "162455.087500", "162456.577500", "162458.067500", "162459.557500", "162501.047500", "162502.537500", "162504.027500", "162505.517500", "162507.007500", "162508.497500", "162509.987500", "162511.477500", "162512.967500", "162514.457500", "162515.947500", "162517.437500", "162518.927500", "162520.417500", "162521.907500", "162523.397500", "162524.887500", "162526.377500", "162527.867500", "162529.357500", "162530.847500", "162532.337500", "162533.827500", "162535.317500", "162536.807500", "162538.297500", "162539.787500", "162541.277500", "162542.767500", "162544.257500", "162545.747500", "162547.237500", "162548.727500", "162550.217500", "162551.707500", "162553.197500", "162554.687500", "162556.177500", "162557.667500", "162559.157500", "162600.647500", "162602.137500", "162603.627500", "162605.117500", "162606.607500", "162608.097500", "162609.587500", "162611.077500", "162612.567500", "162614.057500", "162615.547500", "162617.037500", "162618.527500", "162620.017500", "162621.507500", "162622.997500", "162624.487500", "162625.977500", "162627.467500", "162628.957500", "162630.447500", "162631.937500", "162633.427500", "162634.917500", "162636.407500", "162637.897500", "162639.387500", "162640.877500", "162642.367500", "162643.857500", "162645.347500", "162646.837500", "162648.327500", "162649.817500", "162651.307500", "162652.797500", "162654.287500", "162655.777500", "162657.267500", "162658.757500", "162700.247500", "162701.737500", "162703.227500", "162704.717500", "162706.207500", "162707.697500", "162709.187500", "162710.677500", "162712.167500", "162713.657500", "162715.147500", "162716.637500", "162718.127500", "162719.617500", "162721.107500", "162722.597500", "162724.087500", "162725.577500", "162727.067500", "162728.557500", "162730.047500", "162731.537500", "162733.027500", "162734.517500", "162736.007500", "162737.497500", "162738.987500", "162740.477500", "162741.967500", "162743.457500", "162744.947500", "162746.437500", "162747.927500", "162749.417500", "162750.907500", "162752.397500", "162753.887500", "162755.377500", "162756.867500", "162758.357500", "162759.847500", "162801.337500", "162802.827500", "162804.317500", "162805.807500", "162807.297500", "162808.787500", "162810.277500", "162811.767500", "162813.257500", "162814.747500", "162816.237500", "162817.727500", "162819.217500", "162820.707500", "162822.197500", "162823.687500", "162825.177500", "162826.667500", "162828.157500", "162829.647500", "162831.137500", "162832.627500", "162834.117500", "162835.607500"],
      "ContentTime": ["162116.960000", "162116.963000", "162116.966000", "162116.968000", "162116.971000", "162116.974000", "162116.976000", "162116.979000", "162116.981000", "162116.984000", "162116.986000", "162116.989000", "162116.991000", "162116.994000", "162116.996000", "162116.999000", "162117.001000", "162117.004000", "162117.006000", "162117.009000", "162117.011000", "162117.014000", "162117.017000", "162117.019000", "162117.022000", "162117.024000", "162117.027000", "162117.040000", "162117.043000", "162117.045000", "162117.048000", "162136.873000", "162136.877000", "162136.880000", "162136.883000", "162136.885000", "162136.888000", "162136.890000", "162136.893000", "162136.896000", "162136.898000", "162136.909000", "162136.912000", "162136.914000", "162136.917000", "162136.919000", "162136.923000", "162136.926000", "162136.928000", "162136.931000", "162136.933000", "162156.866000", "162156.868000", "162156.871000", "162156.874000", "162156.876000", "162156.879000", "162156.881000", "162156.884000", "162156.886000", "162156.889000", "162156.892000", "162156.894000", "162156.897000", "162156.900000", "162156.903000", "162156.906000", "162156.908000", "162156.911000", "162156.914000", "162156.917000", "162216.900000", "162216.903000", "162216.906000", "162216.908000", "162216.911000", "162216.914000", "162216.922000", "162216.925000", "162216.928000", "162216.930000", "162216.933000", "162216.935000", "162216.938000", "162216.941000", "162216.943000", "162216.946000", "162216.948000", "162216.951000", "162216.954000", "162216.956000", "162216.959000", "162256.908000", "162256.910000", "162256.913000", "162256.916000", "162256.918000", "162256.921000", "162256.923000", "162256.926000", "162256.928000", "162256.931000", "162256.933000", "162256.936000", "162256.938000", "162256.941000", "162256.943000", "162256.946000", "162256.949000", "162256.951000", "162256.954000", "162256.956000", "162256.959000", "162256.961000", "162256.964000", "162256.966000", "162256.969000", "162256.972000", "162256.975000", "162336.899000", "162336.902000", "162336.904000", "162336.907000", "162336.910000", "162336.913000", "162336.915000", "162336.918000", "162336.920000", "162336.923000", "162336.925000", "162336.928000", "162336.930000", "162336.933000", "162336.936000", "162336.938000", "162336.941000", "162336.943000", "162336.946000", "162336.948000", "162336.951000", "162336.953000", "162336.956000", "162336.958000", "162336.961000", "162336.964000", "162336.967000", "162416.906000", "162416.909000", "162416.912000", "162416.914000", "162416.917000", "162416.928000", "162416.931000", "162416.933000", "162416.936000", "162416.938000", "162416.941000", "162416.944000", "162416.946000", "162416.949000", "162416.951000", "162416.954000", "162416.957000", "162416.959000", "162416.962000", "162416.964000", "162416.967000", "162416.969000", "162416.972000", "162416.974000", "162416.977000", "162416.979000", "162416.982000", "162456.904000", "162456.907000", "162456.909000", "162456.912000", "162456.914000", "162456.917000", "162456.919000", "162456.922000", "162456.924000", "162456.927000", "162456.930000", "162456.933000", "162456.935000", "162456.938000", "162456.941000", "162456.943000", "162456.946000", "162456.948000", "162456.951000", "162456.953000", "162456.956000", "162456.959000", "162456.961000", "162456.964000", "162456.966000", "162456.969000", "162456.971000", "162536.901000", "162536.903000", "162536.906000", "162536.908000", "162536.911000", "162536.913000", "162536.916000", "162536.919000", "162536.921000", "162536.924000", "162536.926000", "162536.929000", "162536.931000", "162536.934000", "162536.936000", "162536.939000", "162536.942000", "162536.944000", "162536.947000", "162536.949000", "162536.952000", "162536.954000", "162536.957000", "162536.959000", "162536.962000", "162536.965000", "162536.967000", "162616.903000", "162616.906000", "162616.908000", "162616.911000", "162616.913000", "162616.916000", "162616.918000", "162616.921000", "162616.923000", "162616.926000", "162616.929000", "162616.931000", "162616.934000", "162616.936000", "162616.939000", "162616.941000", "162616.944000", "162616.946000", "162616.949000", "162616.952000", "162616.954000", "162616.957000", "162616.959000", "162616.962000", "162616.965000", "162616.967000", "162616.970000", "162656.924000", "162656.927000", "162656.930000", "162656.933000", "162656.935000", "162656.938000", "162656.940000", "162656.943000", "162656.946000", "162656.948000", "162656.951000", "162656.954000", "162656.956000", "162656.959000", "162656.962000", "162656.964000", "162656.967000", "162656.969000", "162656.972000", "162656.975000", "162656.977000", "162656.980000", "162656.982000", "162656.985000", "162656.987000", "162656.990000", "162656.993000", "162736.903000", "162736.906000", "162736.909000", "162736.911000", "162736.914000", "162736.917000", "162736.920000", "162736.922000", "162736.925000", "162736.928000", "162736.932000", "162736.935000", "162736.937000", "162736.940000", "162736.943000", "162736.946000", "162736.949000", "162736.952000", "162736.955000", "162736.958000", "162736.960000", "162736.963000", "162736.965000", "162736.968000", "162736.970000", "162736.973000", "162816.917000", "162816.920000", "162816.923000", "162816.925000", "162816.928000", "162816.930000", "162816.933000", "162816.936000", "162816.938000", "162816.941000", "162816.943000", "162816.946000", "162816.949000", "162816.951000", "162816.954000", "162816.956000", "162816.959000", "162816.962000", "162816.964000", "162816.967000", "162816.969000", "162816.972000", "162816.974000", "162816.977000", "162816.979000", "162816.982000", "162816.984000", "162839.215000", "162839.217000", "162839.220000", "162839.223000", "162839.225000", "162839.228000", "162839.230000", "162839.233000", "162839.235000", "162839.238000", "162839.240000", "162839.243000", "162839.245000", "162839.248000", "162839.250000"],
      "InstanceCreationTime": ["162116.960000", "162116.963000", "162116.966000", "162116.968000", "162116.971000", "162116.974000", "162116.976000", "162116.979000", "162116.981000", "162116.984000", "162116.986000", "162116.989000", "162116.991000", "162116.994000", "162116.996000", "162116.999000", "162117.001000", "162117.004000", "162117.006000", "162117.009000", "162117.011000", "162117.014000", "162117.017000", "162117.019000", "162117.022000", "162117.024000", "162117.027000", "162117.040000", "162117.043000", "162117.045000", "162117.048000", "162136.873000", "162136.877000", "162136.880000", "162136.883000", "162136.885000", "162136.888000", "162136.890000", "162136.893000", "162136.896000", "162136.898000", "162136.909000", "162136.912000", "162136.914000", "162136.917000", "162136.919000", "162136.923000", "162136.926000", "162136.928000", "162136.931000", "162136.933000", "162156.866000", "162156.868000", "162156.871000", "162156.874000", "162156.876000", "162156.879000", "162156.881000", "162156.884000", "162156.886000", "162156.889000", "162156.892000", "162156.894000", "162156.897000", "162156.900000", "162156.903000", "162156.906000", "162156.908000", "162156.911000", "162156.914000", "162156.917000", "162216.900000", "162216.903000", "162216.906000", "162216.908000", "162216.911000", "162216.914000", "162216.922000", "162216.925000", "162216.928000", "162216.930000", "162216.933000", "162216.935000", "162216.938000", "162216.941000", "162216.943000", "162216.946000", "162216.948000", "162216.951000", "162216.954000", "162216.956000", "162216.959000", "162256.908000", "162256.910000", "162256.913000", "162256.916000", "162256.918000", "162256.921000", "162256.923000", "162256.926000", "162256.928000", "162256.931000", "162256.933000", "162256.936000", "162256.938000", "162256.941000", "162256.943000", "162256.946000", "162256.949000", "162256.951000", "162256.954000", "162256.956000", "162256.959000", "162256.961000", "162256.964000", "162256.966000", "162256.969000", "162256.972000", "162256.975000", "162336.899000", "162336.902000", "162336.904000", "162336.907000", "162336.910000", "162336.913000", "162336.915000", "162336.918000", "162336.920000", "162336.923000", "162336.925000", "162336.928000", "162336.930000", "162336.933000", "162336.936000", "162336.938000", "162336.941000", "162336.943000", "162336.946000", "162336.948000", "162336.951000", "162336.953000", "162336.956000", "162336.958000", "162336.961000", "162336.964000", "162336.967000", "162416.906000", "162416.909000", "162416.912000", "162416.914000", "162416.917000", "162416.928000", "162416.931000", "162416.933000", "162416.936000", "162416.938000", "162416.941000", "162416.944000", "162416.946000", "162416.949000", "162416.951000", "162416.954000", "162416.957000", "162416.959000", "162416.962000", "162416.964000", "162416.967000", "162416.969000", "162416.972000", "162416.974000", "162416.977000", "162416.979000", "162416.982000", "162456.904000", "162456.907000", "162456.909000", "162456.912000", "162456.914000", "162456.917000", "162456.919000", "162456.922000", "162456.924000", "162456.927000", "162456.930000", "162456.933000", "162456.935000", "162456.938000", "162456.941000", "162456.943000", "162456.946000", "162456.948000", "162456.951000", "162456.953000", "162456.956000", "162456.959000", "162456.961000", "162456.964000", "162456.966000", "162456.969000", "162456.971000", "162536.901000", "162536.903000", "162536.906000", "162536.908000", "162536.911000", "162536.913000", "162536.916000", "162536.919000", "162536.921000", "162536.924000", "162536.926000", "162536.929000", "162536.931000", "162536.934000", "162536.936000", "162536.939000", "162536.942000", "162536.944000", "162536.947000", "162536.949000", "162536.952000", "162536.954000", "162536.957000", "162536.959000", "162536.962000", "162536.965000", "162536.967000", "162616.903000", "162616.906000", "162616.908000", "162616.911000", "162616.913000", "162616.916000", "162616.918000", "162616.921000", "162616.923000", "162616.926000", "162616.929000", "162616.931000", "162616.934000", "162616.936000", "162616.939000", "162616.941000", "162616.944000", "162616.946000", "162616.949000", "162616.952000", "162616.954000", "162616.957000", "162616.959000", "162616.962000", "162616.965000", "162616.967000", "162616.970000", "162656.924000", "162656.927000", "162656.930000", "162656.933000", "162656.935000", "162656.938000", "162656.940000", "162656.943000", "162656.946000", "162656.948000", "162656.951000", "162656.954000", "162656.956000", "162656.959000", "162656.962000", "162656.964000", "162656.967000", "162656.969000", "162656.972000", "162656.975000", "162656.977000", "162656.980000", "162656.982000", "162656.985000", "162656.987000", "162656.990000", "162656.993000", "162736.903000", "162736.906000", "162736.909000", "162736.911000", "162736.914000", "162736.917000", "162736.920000", "162736.922000", "162736.925000", "162736.928000", "162736.932000", "162736.935000", "162736.937000", "162736.940000", "162736.943000", "162736.946000", "162736.949000", "162736.952000", "162736.955000", "162736.958000", "162736.960000", "162736.963000", "162736.965000", "162736.968000", "162736.970000", "162736.973000", "162816.917000", "162816.920000", "162816.923000", "162816.925000", "162816.928000", "162816.930000", "162816.933000", "162816.936000", "162816.938000", "162816.941000", "162816.943000", "162816.946000", "162816.949000", "162816.951000", "162816.954000", "162816.956000", "162816.959000", "162816.962000", "162816.964000", "162816.967000", "162816.969000", "162816.972000", "162816.974000", "162816.977000", "162816.979000", "162816.982000", "162816.984000", "162839.215000", "162839.217000", "162839.220000", "162839.223000", "162839.225000", "162839.228000", "162839.230000", "162839.233000", "162839.235000", "162839.238000", "162839.240000", "162839.243000", "162839.245000", "162839.248000", "162839.250000"],
      "InstanceNumber": [1, 2, 3, 4, 5, 6, 7, 8, 9, 10, 11, 12, 13, 14, 15, 16, 17, 18, 19, 20, 21, 22, 23, 24, 25, 26, 27, 28, 29, 30, 31, 32, 33, 34, 35, 36, 37, 38, 39, 40, 41, 42, 43, 44, 45, 46, 47, 48, 49, 50, 51, 52, 53, 54, 55, 56, 57, 58, 59, 60, 61, 62, 63, 64, 65, 66, 67, 68, 69, 70, 71, 72, 73, 74, 75, 76, 77, 78, 79, 80, 81, 82, 83, 84, 85, 86, 87, 88, 89, 90, 91, 92, 93, 94, 95, 96, 97, 98, 99, 100, 101, 102, 103, 104, 105, 106, 107, 108, 109, 110, 111, 112, 113, 114, 115, 116, 117, 118, 119, 120, 121, 122, 123, 124, 125, 126, 127, 128, 129, 130, 131, 132, 133, 134, 135, 136, 137, 138, 139, 140, 141, 142, 143, 144, 145, 146, 147, 148, 149, 150, 151, 152, 153, 154, 155, 156, 157, 158, 159, 160, 161, 162, 163, 164, 165, 166, 167, 168, 169, 170, 171, 172, 173, 174, 175, 176, 177, 178, 179, 180, 181, 182, 183, 184, 185, 186, 187, 188, 189, 190, 191, 192, 193, 194, 195, 196, 197, 198, 199, 200, 201, 202, 203, 204, 205, 206, 207, 208, 209, 210, 211, 212, 213, 214, 215, 216, 217, 218, 219, 220, 221, 222, 223, 224, 225, 226, 227, 228, 229, 230, 231, 232, 233, 234, 235, 236, 237, 238, 239, 240, 241, 242, 243, 244, 245, 246, 247, 248, 249, 250, 251, 252, 253, 254, 255, 256, 257, 258, 259, 260, 261, 262, 263, 264, 265, 266, 267, 268, 269, 270, 271, 272, 273, 274, 275, 276, 277, 278, 279, 280, 281, 282, 283, 284, 285, 286, 287, 288, 289, 290, 291, 292, 293, 294, 295, 296, 297, 298, 299, 300, 301, 302, 303, 304, 305, 306, 307, 308, 309, 310, 311, 312, 313, 314, 315, 316, 317, 318, 319, 320, 321, 322, 323, 324, 325, 326, 327, 328, 329, 330, 331, 332, 333, 334, 335, 336, 337, 338, 339, 340, 341, 342, 343, 344, 345, 346, 347, 348, 349],
      "WindowCenter": [4792.0, 4796.0, 4826.0, 4824.0, 4826.0, 4792.0, 4794.0, 4796.0, 4798.0, 4822.0, 4824.0, 4830.0, 4834.0, 4832.0, 4804.0, 4796.0, 4800.0, 4796.0, 4782.0, 4782.0, 4784.0, 4800.0, 4800.0, 4798.0, 4800.0, 4800.0, 4794.0, 4796.0, 4792.0, 4798.0, 4800.0, 4798.0, 4798.0, 4798.0, 4802.0, 4798.0, 4800.0, 4796.0, 4798.0, 4824.0, 4822.0, 4826.0, 4798.0, 4792.0, 4802.0, 4794.0, 4790.0, 4788.0, 4794.0, 4798.0, 4796.0, 4794.0, 4796.0, 4794.0, 4792.0, 4798.0, 4798.0, 4804.0, 4800.0, 4794.0, 4790.0, 4790.0, 4792.0, 4804.0, 4802.0, 4802.0, 4802.0, 4802.0, 4808.0, 4802.0, 4824.0, 4794.0, 4794.0, 4786.0, 4800.0, 4802.0, 4804.0, 4826.0, 4826.0, 4786.0, 4788.0, 4780.0, 4780.0, 4788.0, 4794.0, 4796.0, 4826.0, 4826.0, 4800.0, 4798.0, 4802.0, 4794.0, 4786.0, 4776.0, 4776.0, 4784.0, 4788.0, 4820.0, 4794.0, 4798.0, 4796.0, 4798.0, 4794.0, 4780.0, 4782.0, 4778.0, 4792.0, 4794.0, 4794.0, 4800.0, 4802.0, 4826.0, 4804.0, 4822.0, 4790.0, 4792.0, 4794.0, 4788.0, 4788.0, 4794.0, 4790.0, 4794.0, 4794.0, 4804.0, 4828.0, 4830.0, 4798.0, 4796.0, 4796.0, 4794.0, 4794.0, 4784.0, 4794.0, 4798.0, 4804.0, 4802.0, 4794.0, 4796.0, 4792.0, 4788.0, 4790.0, 4792.0, 4788.0, 4794.0, 4792.0, 4802.0, 4800.0, 4792.0, 4796.0, 4794.0, 4792.0, 4794.0, 4796.0, 4794.0, 4792.0, 4794.0, 4790.0, 4788.0, 4788.0, 4792.0, 4800.0, 4798.0, 4794.0, 4792.0, 4792.0, 4794.0, 4792.0, 4798.0, 4796.0, 4796.0, 4798.0, 4798.0, 4794.0, 4788.0, 4786.0, 4790.0, 4788.0, 4794.0, 4792.0, 4800.0, 4792.0, 4794.0, 4792.0, 4790.0, 4796.0, 4788.0, 4788.0, 4788.0, 4814.0, 4800.0, 4830.0, 4830.0, 4798.0, 4792.0, 4790.0, 4766.0, 4790.0, 4794.0, 4800.0, 4830.0, 4804.0, 4802.0, 4792.0, 4786.0, 4794.0, 4788.0, 4792.0, 4800.0, 4800.0, 4788.0, 4796.0, 4788.0, 4794.0, 4794.0, 4788.0, 4788.0, 4790.0, 4790.0, 4800.0, 4800.0, 4796.0, 4798.0, 4794.0, 4792.0, 4792.0, 4792.0, 4790.0, 4788.0, 4792.0, 4794.0, 4798.0, 4796.0, 4798.0, 4792.0, 4780.0, 4792.0, 4784.0, 4788.0, 4792.0, 4788.0, 4790.0, 4790.0, 4784.0, 4790.0, 4790.0, 4794.0, 4786.0, 4790.0, 4788.0, 4790.0, 4786.0, 4788.0, 4794.0, 4804.0, 4802.0, 4790.0, 4798.0, 4796.0, 4788.0, 4786.0, 4796.0, 4790.0, 4784.0, 4792.0, 4794.0, 4794.0, 4794.0, 4800.0, 4792.0, 4804.0, 4798.0, 4792.0, 4794.0, 4788.0, 4790.0, 4792.0, 4794.0, 4796.0, 4796.0, 4796.0, 4802.0, 4794.0, 4800.0, 4802.0, 4796.0, 4792.0, 4796.0, 4796.0, 4790.0, 4796.0, 4800.0, 4788.0, 4790.0, 4788.0, 4786.0, 4790.0, 4786.0, 4792.0, 4792.0, 4792.0, 4794.0, 4798.0, 4794.0, 4790.0, 4796.0, 4784.0, 4794.0, 4794.0, 4782.0, 4792.0, 4792.0, 4796.0, 4822.0, 4796.0, 4792.0, 4796.0, 4798.0, 4792.0, 4796.0, 4792.0, 4784.0, 4786.0, 4788.0, 4790.0, 4790.0, 4792.0, 4800.0, 4792.0, 4794.0, 4790.0, 4796.0, 4788.0, 4800.0, 4784.0, 4792.0, 4776.0, 4788.0, 4784.0, 4796.0, 4790.0, 4790.0, 4792.0, 4790.0, 4790.0, 4788.0, 4788.0, 4784.0, 4792.0, 4788.0],
