{
  "AcquisitionMatrixPE": 104,
  "AcquisitionNumber": 1,
  "AcquisitionTime": "16:29:41.970000",
  "BandwidthPerPixelPhaseEncode": 17.17,
  "BaseResolution": 104,
  "BodyPartExamined": "BRAIN",
  "CoilCombinationMethod": "Sum of Squares",
  "ConsistencyInfo": "N4_VE11C_LATEST_20160120",
  "ConversionSoftware": "dcm2niix",
  "ConversionSoftwareVersion": "v1.0.20220505",
  "DerivedVendorReportedEchoSpacing": 0.000560011,
  "DeviceSerialNumber": "167006",
  "DwellTime": 2.1e-06,
  "EchoTime": 0.037,
  "EchoTrainLength": 104,
  "EffectiveEchoSpacing": 0.000560011,
  "FlipAngle": 52,
  "HeudiconvVersion": "0.5.3.post811+g6206e14",
  "ImageComments": "Unaliased MB4/PE3/LB",
  "ImageOrientationPatientDICOM": [0.998023, -0.000696906, 0.0628473, 0.0332822, 0.854093, -0.519054],
  "ImageOrientationText": "Tra>Cor(-31.4)>Sag(3.1)",
  "ImageType": [
    "ORIGINAL",
    "PRIMARY",
    "M",
    "MB",
    "ND",
    "MOSAIC"
],
  "ImagingFrequency": 123.259,
  "InPlanePhaseEncodingDirectionDICOM": "COL",
  "InstitutionAddress": "Chemin Queen-Mary 4565,Montreal,District,CA,H3W 1W5",
  "InstitutionName": "IUGM",
  "InstitutionalDepartmentName": "Department",
  "MRAcquisitionType": "2D",
  "MagneticFieldStrength": 3,
  "Manufacturer": "Siemens",
  "ManufacturersModelName": "Prisma_fit",
  "MatrixCoilMode": "SENSE",
  "Modality": "MR",
  "MultibandAccelerationFactor": 4,
  "PartialFourier": 1,
  "PatientPosition": "HFS",
  "PercentPhaseFOV": 100,
  "PercentSampling": 100,
  "PhaseEncodingDirection": "j",
  "PhaseEncodingSteps": 104,
  "PhaseResolution": 1,
  "PixelBandwidth": 2290,
  "ProcedureStepDescription": "games^mario3",
  "ProtocolName": "func_task-mario3_run-02",
  "PulseSequenceDetails": "%CustomerSeq%\\cmrr_mbep2d_bold",
  "ReceiveCoilActiveElements": "HC1-7;NC1,2",
  "ReceiveCoilName": "HeadNeck_64",
  "ReconMatrixPE": 104,
  "RepetitionTime": 1.49,
  "SAR": 0.0499543,
  "ScanOptions": "FS",
  "ScanningSequence": "EP",
  "SequenceName": "epfid2d1_104",
  "SequenceVariant": "SK\\SS",
  "SeriesDescription": "func_task-mario3_run-02",
  "SeriesNumber": 13,
  "ShimSetting": [633, -7188, -8880, 298, 24, -168, 3, 48],
  "SliceThickness": 2,
  "SliceTiming": [0, 0.7825, 0.0975, 0.8825, 0.195, 0.98, 0.2925, 1.0775, 0.3925, 1.175, 0.49, 1.2725, 0.5875, 1.3725, 0.685, 0, 0.7825, 0.0975, 0.8825, 0.195, 0.98, 0.2925, 1.0775, 0.3925, 1.175, 0.49, 1.2725, 0.5875, 1.3725, 0.685, 0, 0.7825, 0.0975, 0.8825, 0.195, 0.98, 0.2925, 1.0775, 0.3925, 1.175, 0.49, 1.2725, 0.5875, 1.3725, 0.685, 0, 0.7825, 0.0975, 0.8825, 0.195, 0.98, 0.2925, 1.0775, 0.3925, 1.175, 0.49, 1.2725, 0.5875, 1.3725, 0.685],
  "SoftwareVersions": "syngo MR E11",
  "SpacingBetweenSlices": 2,
  "StationName": "MRC35049",
  "TaskName": "mario3",
  "TotalReadoutTime": 0.0576811,
  "TxRefAmp": 269.272,
  "WipMemBlock": "ca506fd9-d3b1-4f7a-a476-8d6e4c37c90e||Sequence: R017 ve11c/master r/75a17815+; Jun 28 2022 16:32:11 by eja",
  "dcmmeta_affine": [
    [-1.9960458278656006, 0.06656436622142792, 0.10663148015737534, 101.86430358886719],
    [0.0013938124757260084, 1.708186388015747, -1.0402390956878662, -49.90155029296875],
    [0.1256946474313736, 1.0381081104278564, 1.7048555612564087, -106.11486053466797],
    [0.0, 0.0, 0.0, 1.0]
],
  "dcmmeta_reorient_transform": [
    [0.0, -1.0, 0.0, 103.0],
    [1.0, 0.0, 0.0, 0.0],
    [0.0, 0.0, 1.0, 0.0],
    [0.0, 0.0, 0.0, 1.0]
],
  "dcmmeta_shape": [104, 104, 60, 333],
  "dcmmeta_slice_dim": 2,
  "dcmmeta_version": 0.6,
  "global": {
    "const": {
      "AcquisitionMatrix": [104, 0, 0, 104],
      "AngioFlag": "N",
      "BitsAllocated": 16,
      "BitsStored": 16,
      "BodyPartExamined": "BRAIN",
      "Columns": 832,
      "EchoNumbers": 1,
      "EchoTime": 37.0,
      "EchoTrainLength": 104,
      "FlipAngle": 52.0,
      "HighBit": 15,
      "ImageOrientationPatient": [0.99802290965767, -0.0006969062388, 0.06284732389003, 0.03328218247914, 0.85409319989782, -0.5190540455653],
      "ImagePositionPatient": [-859.51054164821, -747.31414939927, 332.92876904517],
      "ImageType": [
        "ORIGINAL",
        "PRIMARY",
        "M",
        "MB",
        "ND",
        "MOSAIC"
],
      "ImagedNucleus": "1H",
      "ImagingFrequency": 123.258835,
      "InPlanePhaseEncodingDirection": "COL",
      "MRAcquisitionType": "2D",
      "MagneticFieldStrength": 3.0,
      "Manufacturer": "SIEMENS",
      "ManufacturerModelName": "Prisma_fit",
      "Modality": "MR",
      "NumberOfAverages": 1.0,
      "NumberOfPhaseEncodingSteps": 104,
      "PercentPhaseFieldOfView": 100.0,
      "PercentSampling": 100.0,
      "PerformedProcedureStepStartTime": "161631.138000",
      "PhotometricInterpretation": "MONOCHROME2",
      "PixelBandwidth": 2290.0,
      "PixelRepresentation": 0,
      "PixelSpacing": [2.0, 2.0],
      "ProtocolName": "func_task-mario3_run-02",
      "RepetitionTime": 1490.0,
      "Rows": 832,
      "SAR": 0.04995425674452,
      "SamplesPerPixel": 1,
      "ScanOptions": "FS",
      "ScanningSequence": "EP",
      "SequenceName": "epfid2d1_104",
      "SequenceVariant": [
        "SK",
        "SS"
],
      "SeriesDescription": "func_task-mario3_run-02",
      "SeriesNumber": 13,
      "SeriesTime": "163100.951000",
      "SliceLocation": -59.069509977581,
      "SliceThickness": 2.0,
      "SmallestImagePixelValue": 0,
      "SoftwareVersions": "syngo MR E11",
      "SpacingBetweenSlices": 1.9999999824391,
      "SpecificCharacterSet": "ISO_IR 100",
      "StudyID": "1",
      "StudyTime": "161631.066000",
      "TransmitCoilName": "Body",
      "VariableFlipAngleFlag": "N",
      "WindowCenterWidthExplanation": "Algo1",
      "dBdt": 0.0},
    "slices": {}
  },
  "time": {
    "samples": {
      "AcquisitionNumber": [1, 2, 3, 4, 5, 6, 7, 8, 9, 10, 11, 12, 13, 14, 15, 16, 17, 18, 19, 20, 21, 22, 23, 24, 25, 26, 27, 28, 29, 30, 31, 32, 33, 34, 35, 36, 37, 38, 39, 40, 41, 42, 43, 44, 45, 46, 47, 48, 49, 50, 51, 52, 53, 54, 55, 56, 57, 58, 59, 60, 61, 62, 63, 64, 65, 66, 67, 68, 69, 70, 71, 72, 73, 74, 75, 76, 77, 78, 79, 80, 81, 82, 83, 84, 85, 86, 87, 88, 89, 90, 91, 92, 93, 94, 95, 96, 97, 98, 99, 100, 101, 102, 103, 104, 105, 106, 107, 108, 109, 110, 111, 112, 113, 114, 115, 116, 117, 118, 119, 120, 121, 122, 123, 124, 125, 126, 127, 128, 129, 130, 131, 132, 133, 134, 135, 136, 137, 138, 139, 140, 141, 142, 143, 144, 145, 146, 147, 148, 149, 150, 151, 152, 153, 154, 155, 156, 157, 158, 159, 160, 161, 162, 163, 164, 165, 166, 167, 168, 169, 170, 171, 172, 173, 174, 175, 176, 177, 178, 179, 180, 181, 182, 183, 184, 185, 186, 187, 188, 189, 190, 191, 192, 193, 194, 195, 196, 197, 198, 199, 200, 201, 202, 203, 204, 205, 206, 207, 208, 209, 210, 211, 212, 213, 214, 215, 216, 217, 218, 219, 220, 221, 222, 223, 224, 225, 226, 227, 228, 229, 230, 231, 232, 233, 234, 235, 236, 237, 238, 239, 240, 241, 242, 243, 244, 245, 246, 247, 248, 249, 250, 251, 252, 253, 254, 255, 256, 257, 258, 259, 260, 261, 262, 263, 264, 265, 266, 267, 268, 269, 270, 271, 272, 273, 274, 275, 276, 277, 278, 279, 280, 281, 282, 283, 284, 285, 286, 287, 288, 289, 290, 291, 292, 293, 294, 295, 296, 297, 298, 299, 300, 301, 302, 303, 304, 305, 306, 307, 308, 309, 310, 311, 312, 313, 314, 315, 316, 317, 318, 319, 320, 321, 322, 323, 324, 325, 326, 327, 328, 329, 330, 331, 332, 333],
      "AcquisitionTime": ["162941.970000", "162943.460000", "162944.950000", "162946.440000", "162947.930000", "162949.420000", "162950.910000", "162952.400000", "162953.890000", "162955.380000", "162956.870000", "162958.360000", "162959.850000", "163001.340000", "163002.830000", "163004.320000", "163005.810000", "163007.300000", "163008.790000", "163010.280000", "163011.770000", "163013.260000", "163014.750000", "163016.240000", "163017.730000", "163019.220000", "163020.710000", "163022.200000", "163023.690000", "163025.180000", "163026.670000", "163028.160000", "163029.650000", "163031.140000", "163032.630000", "163034.120000", "163035.610000", "163037.100000", "163038.590000", "163040.080000", "163041.570000", "163043.060000", "163044.550000", "163046.040000", "163047.530000", "163049.020000", "163050.510000", "163052.000000", "163053.490000", "163054.980000", "163056.470000", "163057.960000", "163059.450000", "163100.940000", "163102.430000", "163103.920000", "163105.410000", "163106.900000", "163108.390000", "163109.880000", "163111.370000", "163112.860000", "163114.350000", "163115.840000", "163117.330000", "163118.820000", "163120.310000", "163121.800000", "163123.290000", "163124.780000", "163126.270000", "163127.760000", "163129.250000", "163130.740000", "163132.230000", "163133.720000", "163135.210000", "163136.700000", "163138.190000", "163139.680000", "163141.170000", "163142.660000", "163144.150000", "163145.640000", "163147.130000", "163148.620000", "163150.110000", "163151.600000", "163153.090000", "163154.580000", "163156.070000", "163157.560000", "163159.050000", "163200.540000", "163202.030000", "163203.520000", "163205.010000", "163206.500000", "163207.990000", "163209.480000", "163210.970000", "163212.460000", "163213.950000", "163215.440000", "163216.930000", "163218.420000", "163219.910000", "163221.400000", "163222.890000", "163224.380000", "163225.870000", "163227.360000", "163228.850000", "163230.340000", "163231.830000", "163233.320000", "163234.810000", "163236.300000", "163237.790000", "163239.280000", "163240.770000", "163242.260000", "163243.750000", "163245.240000", "163246.730000", "163248.220000", "163249.710000", "163251.200000", "163252.690000", "163254.180000", "163255.670000", "163257.160000", "163258.650000", "163300.140000", "163301.630000", "163303.120000", "163304.610000", "163306.100000", "163307.590000", "163309.080000", "163310.570000", "163312.060000", "163313.550000", "163315.040000", "163316.530000", "163318.020000", "163319.510000", "163321.000000", "163322.490000", "163323.980000", "163325.470000", "163326.960000", "163328.450000", "163329.940000", "163331.430000", "163332.920000", "163334.410000", "163335.900000", "163337.390000", "163338.880000", "163340.370000", "163341.860000", "163343.350000", "163344.840000", "163346.330000", "163347.820000", "163349.310000", "163350.800000", "163352.290000", "163353.780000", "163355.270000", "163356.760000", "163358.250000", "163359.740000", "163401.230000", "163402.720000", "163404.210000", "163405.700000", "163407.190000", "163408.680000", "163410.170000", "163411.660000", "163413.150000", "163414.640000", "163416.130000", "163417.620000", "163419.110000", "163420.600000", "163422.090000", "163423.580000", "163425.070000", "163426.560000", "163428.050000", "163429.540000", "163431.030000", "163432.520000", "163434.010000", "163435.500000", "163436.990000", "163438.480000", "163439.970000", "163441.460000", "163442.950000", "163444.440000", "163445.930000", "163447.420000", "163448.910000", "163450.400000", "163451.890000", "163453.380000", "163454.870000", "163456.360000", "163457.850000", "163459.340000", "163500.830000", "163502.320000", "163503.810000", "163505.300000", "163506.790000", "163508.280000", "163509.770000", "163511.260000", "163512.750000", "163514.240000", "163515.730000", "163517.220000", "163518.710000", "163520.200000", "163521.690000", "163523.180000", "163524.670000", "163526.160000", "163527.650000", "163529.140000", "163530.630000", "163532.120000", "163533.610000", "163535.100000", "163536.590000", "163538.080000", "163539.570000", "163541.060000", "163542.550000", "163544.040000", "163545.530000", "163547.020000", "163548.510000", "163550.000000", "163551.490000", "163552.980000", "163554.470000", "163555.960000", "163557.450000", "163558.940000", "163600.430000", "163601.920000", "163603.410000", "163604.900000", "163606.390000", "163607.880000", "163609.370000", "163610.860000", "163612.350000", "163613.840000", "163615.330000", "163616.820000", "163618.310000", "163619.800000", "163621.290000", "163622.780000", "163624.270000", "163625.760000", "163627.250000", "163628.740000", "163630.230000", "163631.720000", "163633.210000", "163634.700000", "163636.190000", "163637.680000", "163639.170000", "163640.660000", "163642.150000", "163643.640000", "163645.130000", "163646.620000", "163648.110000", "163649.600000", "163651.090000", "163652.580000", "163654.070000", "163655.560000", "163657.050000", "163658.540000", "163700.030000", "163701.520000", "163703.010000", "163704.500000", "163705.990000", "163707.480000", "163708.970000", "163710.460000", "163711.950000", "163713.440000", "163714.930000", "163716.420000", "163717.910000", "163719.400000", "163720.890000", "163722.380000", "163723.870000", "163725.360000", "163726.850000", "163728.340000", "163729.830000", "163731.320000", "163732.810000", "163734.300000", "163735.790000", "163737.280000", "163738.770000", "163740.260000", "163741.750000", "163743.240000", "163744.730000", "163746.220000", "163747.710000", "163749.200000", "163750.690000", "163752.180000", "163753.670000", "163755.160000", "163756.650000"],
      "ContentTime": ["163100.954000", "163100.958000", "163100.962000", "163100.965000", "163100.977000", "163100.980000", "163100.984000", "163100.987000", "163100.991000", "163100.994000", "163100.997000", "163101.002000", "163101.005000", "163101.008000", "163101.012000", "163101.015000", "163101.019000", "163101.022000", "163101.025000", "163101.029000", "163101.032000", "163101.036000", "163101.039000", "163101.042000", "163101.046000", "163101.054000", "163101.057000", "163101.060000", "163101.064000", "163101.067000", "163101.071000", "163101.074000", "163120.921000", "163120.930000", "163120.934000", "163120.938000", "163120.942000", "163120.946000", "163120.950000", "163120.954000", "163120.957000", "163120.960000", "163120.964000", "163120.967000", "163120.970000", "163120.974000", "163120.977000", "163120.980000", "163120.984000", "163120.987000", "163120.991000", "163120.994000", "163140.921000", "163140.925000", "163140.928000", "163140.932000", "163140.935000", "163140.938000", "163140.942000", "163140.945000", "163140.949000", "163140.952000", "163140.955000", "163140.959000", "163140.962000", "163140.966000", "163140.969000", "163140.972000", "163140.976000", "163140.979000", "163140.982000", "163140.986000", "163200.921000", "163200.925000", "163200.929000", "163200.932000", "163200.935000", "163200.952000", "163200.955000", "163200.959000", "163200.962000", "163200.965000", "163200.969000", "163200.972000", "163200.975000", "163200.979000", "163200.982000", "163200.986000", "163200.989000", "163200.992000", "163200.996000", "163201.000000", "163240.921000", "163240.925000", "163240.928000", "163240.932000", "163240.935000", "163240.939000", "163240.942000", "163240.945000", "163240.949000", "163240.952000", "163240.955000", "163240.959000", "163240.962000", "163240.966000", "163240.969000", "163240.973000", "163240.976000", "163240.979000", "163240.983000", "163240.986000", "163240.989000", "163240.993000", "163240.996000", "163241.000000", "163241.004000", "163241.007000", "163241.011000", "163320.920000", "163320.924000", "163320.927000", "163320.931000", "163320.934000", "163320.938000", "163320.941000", "163320.944000", "163320.948000", "163320.951000", "163320.955000", "163320.958000", "163320.962000", "163320.965000", "163320.968000", "163320.972000", "163320.975000", "163320.979000", "163320.982000", "163320.985000", "163320.989000", "163320.992000", "163320.995000", "163321.000000", "163321.003000", "163321.007000", "163321.010000", "163400.921000", "163400.925000", "163400.928000", "163400.932000", "163400.935000", "163400.939000", "163400.942000", "163400.945000", "163400.949000", "163400.952000", "163400.956000", "163400.959000", "163400.962000", "163400.966000", "163400.969000", "163400.972000", "163400.976000", "163400.979000", "163400.983000", "163400.986000", "163400.989000", "163400.993000", "163400.996000", "163401.000000", "163401.004000", "163401.007000", "163401.011000", "163440.921000", "163440.936000", "163440.939000", "163440.943000", "163440.946000", "163440.950000", "163440.953000", "163440.956000", "163440.960000", "163440.963000", "163440.967000", "163440.970000", "163440.973000", "163440.977000", "163440.980000", "163440.984000", "163440.987000", "163440.990000", "163440.994000", "163440.997000", "163441.002000", "163441.005000", "163441.008000", "163441.012000", "163441.015000", "163441.019000", "163441.022000", "163520.920000", "163520.924000", "163520.928000", "163520.931000", "163520.934000", "163520.938000", "163520.941000", "163520.945000", "163520.948000", "163520.952000", "163520.955000", "163520.958000", "163520.962000", "163520.965000", "163520.969000", "163520.972000", "163520.976000", "163520.979000", "163520.983000", "163520.986000", "163520.989000", "163520.993000", "163520.996000", "163521.001000", "163521.004000", "163521.008000", "163521.011000", "163600.921000", "163600.925000", "163600.929000", "163600.932000", "163600.935000", "163600.939000", "163600.942000", "163600.946000", "163600.949000", "163600.952000", "163600.956000", "163600.959000", "163600.963000", "163600.966000", "163600.969000", "163600.973000", "163600.976000", "163600.980000", "163600.983000", "163600.986000", "163600.990000", "163600.993000", "163600.997000", "163601.001000", "163601.005000", "163601.008000", "163601.011000", "163640.921000", "163640.925000", "163640.928000", "163640.932000", "163640.936000", "163640.939000", "163640.943000", "163640.946000", "163640.950000", "163640.954000", "163640.957000", "163640.961000", "163640.964000", "163640.968000", "163640.971000", "163640.974000", "163640.978000", "163640.981000", "163640.985000", "163640.988000", "163640.991000", "163641.004000", "163641.008000", "163641.012000", "163641.015000", "163641.018000", "163700.921000", "163700.925000", "163700.928000", "163700.932000", "163700.935000", "163700.939000", "163700.942000", "163700.946000", "163700.949000", "163700.952000", "163700.956000", "163700.959000", "163700.962000", "163700.966000", "163740.920000", "163740.924000", "163740.928000", "163740.931000", "163740.934000", "163740.938000", "163740.941000", "163740.944000", "163740.948000", "163740.951000", "163740.955000", "163740.958000", "163740.961000", "163740.965000", "163740.968000", "163740.972000", "163740.975000", "163740.979000", "163740.982000", "163740.985000", "163740.989000", "163740.992000", "163740.995000", "163741.000000", "163741.007000", "163741.011000", "163741.014000", "163758.660000", "163758.664000", "163758.667000", "163758.671000", "163758.674000", "163758.678000", "163758.681000", "163758.684000", "163758.688000", "163758.691000", "163758.695000", "163758.698000"],
      "InstanceCreationTime": ["163100.954000", "163100.958000", "163100.962000", "163100.965000", "163100.977000", "163100.980000", "163100.984000", "163100.987000", "163100.991000", "163100.994000", "163100.997000", "163101.002000", "163101.005000", "163101.008000", "163101.012000", "163101.015000", "163101.019000", "163101.022000", "163101.025000", "163101.029000", "163101.032000", "163101.036000", "163101.039000", "163101.042000", "163101.046000", "163101.054000", "163101.057000", "163101.060000", "163101.064000", "163101.067000", "163101.071000", "163101.074000", "163120.921000", "163120.930000", "163120.934000", "163120.938000", "163120.942000", "163120.946000", "163120.950000", "163120.954000", "163120.957000", "163120.960000", "163120.964000", "163120.967000", "163120.970000", "163120.974000", "163120.977000", "163120.980000", "163120.984000", "163120.987000", "163120.991000", "163120.994000", "163140.921000", "163140.925000", "163140.928000", "163140.932000", "163140.935000", "163140.938000", "163140.942000", "163140.945000", "163140.949000", "163140.952000", "163140.955000", "163140.959000", "163140.962000", "163140.966000", "163140.969000", "163140.972000", "163140.976000", "163140.979000", "163140.982000", "163140.986000", "163200.921000", "163200.925000", "163200.929000", "163200.932000", "163200.935000", "163200.952000", "163200.955000", "163200.959000", "163200.962000", "163200.965000", "163200.969000", "163200.972000", "163200.975000", "163200.979000", "163200.982000", "163200.986000", "163200.989000", "163200.992000", "163200.996000", "163201.000000", "163240.921000", "163240.925000", "163240.928000", "163240.932000", "163240.935000", "163240.939000", "163240.942000", "163240.945000", "163240.949000", "163240.952000", "163240.955000", "163240.959000", "163240.962000", "163240.966000", "163240.969000", "163240.973000", "163240.976000", "163240.979000", "163240.983000", "163240.986000", "163240.989000", "163240.993000", "163240.996000", "163241.000000", "163241.004000", "163241.007000", "163241.011000", "163320.920000", "163320.924000", "163320.927000", "163320.931000", "163320.934000", "163320.938000", "163320.941000", "163320.944000", "163320.948000", "163320.951000", "163320.955000", "163320.958000", "163320.962000", "163320.965000", "163320.968000", "163320.972000", "163320.975000", "163320.979000", "163320.982000", "163320.985000", "163320.989000", "163320.992000", "163320.995000", "163321.000000", "163321.003000", "163321.007000", "163321.010000", "163400.921000", "163400.925000", "163400.928000", "163400.932000", "163400.935000", "163400.939000", "163400.942000", "163400.945000", "163400.949000", "163400.952000", "163400.956000", "163400.959000", "163400.962000", "163400.966000", "163400.969000", "163400.972000", "163400.976000", "163400.979000", "163400.983000", "163400.986000", "163400.989000", "163400.993000", "163400.996000", "163401.000000", "163401.004000", "163401.007000", "163401.011000", "163440.921000", "163440.936000", "163440.939000", "163440.943000", "163440.946000", "163440.950000", "163440.953000", "163440.956000", "163440.960000", "163440.963000", "163440.967000", "163440.970000", "163440.973000", "163440.977000", "163440.980000", "163440.984000", "163440.987000", "163440.990000", "163440.994000", "163440.997000", "163441.002000", "163441.005000", "163441.008000", "163441.012000", "163441.015000", "163441.019000", "163441.022000", "163520.920000", "163520.924000", "163520.928000", "163520.931000", "163520.934000", "163520.938000", "163520.941000", "163520.945000", "163520.948000", "163520.952000", "163520.955000", "163520.958000", "163520.962000", "163520.965000", "163520.969000", "163520.972000", "163520.976000", "163520.979000", "163520.983000", "163520.986000", "163520.989000", "163520.993000", "163520.996000", "163521.001000", "163521.004000", "163521.008000", "163521.011000", "163600.921000", "163600.925000", "163600.929000", "163600.932000", "163600.935000", "163600.939000", "163600.942000", "163600.946000", "163600.949000", "163600.952000", "163600.956000", "163600.959000", "163600.963000", "163600.966000", "163600.969000", "163600.973000", "163600.976000", "163600.980000", "163600.983000", "163600.986000", "163600.990000", "163600.993000", "163600.997000", "163601.001000", "163601.005000", "163601.008000", "163601.011000", "163640.921000", "163640.925000", "163640.928000", "163640.932000", "163640.936000", "163640.939000", "163640.943000", "163640.946000", "163640.950000", "163640.954000", "163640.957000", "163640.961000", "163640.964000", "163640.968000", "163640.971000", "163640.974000", "163640.978000", "163640.981000", "163640.985000", "163640.988000", "163640.991000", "163641.004000", "163641.008000", "163641.012000", "163641.015000", "163641.018000", "163700.921000", "163700.925000", "163700.928000", "163700.932000", "163700.935000", "163700.939000", "163700.942000", "163700.946000", "163700.949000", "163700.952000", "163700.956000", "163700.959000", "163700.962000", "163700.966000", "163740.920000", "163740.924000", "163740.928000", "163740.931000", "163740.934000", "163740.938000", "163740.941000", "163740.944000", "163740.948000", "163740.951000", "163740.955000", "163740.958000", "163740.961000", "163740.965000", "163740.968000", "163740.972000", "163740.975000", "163740.979000", "163740.982000", "163740.985000", "163740.989000", "163740.992000", "163740.995000", "163741.000000", "163741.007000", "163741.011000", "163741.014000", "163758.660000", "163758.664000", "163758.667000", "163758.671000", "163758.674000", "163758.678000", "163758.681000", "163758.684000", "163758.688000", "163758.691000", "163758.695000", "163758.698000"],
      "InstanceNumber": [1, 2, 3, 4, 5, 6, 7, 8, 9, 10, 11, 12, 13, 14, 15, 16, 17, 18, 19, 20, 21, 22, 23, 24, 25, 26, 27, 28, 29, 30, 31, 32, 33, 34, 35, 36, 37, 38, 39, 40, 41, 42, 43, 44, 45, 46, 47, 48, 49, 50, 51, 52, 53, 54, 55, 56, 57, 58, 59, 60, 61, 62, 63, 64, 65, 66, 67, 68, 69, 70, 71, 72, 73, 74, 75, 76, 77, 78, 79, 80, 81, 82, 83, 84, 85, 86, 87, 88, 89, 90, 91, 92, 93, 94, 95, 96, 97, 98, 99, 100, 101, 102, 103, 104, 105, 106, 107, 108, 109, 110, 111, 112, 113, 114, 115, 116, 117, 118, 119, 120, 121, 122, 123, 124, 125, 126, 127, 128, 129, 130, 131, 132, 133, 134, 135, 136, 137, 138, 139, 140, 141, 142, 143, 144, 145, 146, 147, 148, 149, 150, 151, 152, 153, 154, 155, 156, 157, 158, 159, 160, 161, 162, 163, 164, 165, 166, 167, 168, 169, 170, 171, 172, 173, 174, 175, 176, 177, 178, 179, 180, 181, 182, 183, 184, 185, 186, 187, 188, 189, 190, 191, 192, 193, 194, 195, 196, 197, 198, 199, 200, 201, 202, 203, 204, 205, 206, 207, 208, 209, 210, 211, 212, 213, 214, 215, 216, 217, 218, 219, 220, 221, 222, 223, 224, 225, 226, 227, 228, 229, 230, 231, 232, 233, 234, 235, 236, 237, 238, 239, 240, 241, 242, 243, 244, 245, 246, 247, 248, 249, 250, 251, 252, 253, 254, 255, 256, 257, 258, 259, 260, 261, 262, 263, 264, 265, 266, 267, 268, 269, 270, 271, 272, 273, 274, 275, 276, 277, 278, 279, 280, 281, 282, 283, 284, 285, 286, 287, 288, 289, 290, 291, 292, 293, 294, 295, 296, 297, 298, 299, 300, 301, 302, 303, 304, 305, 306, 307, 308, 309, 310, 311, 312, 313, 314, 315, 316, 317, 318, 319, 320, 321, 322, 323, 324, 325, 326, 327, 328, 329, 330, 331, 332, 333],
      "LargestImagePixelValue": [48097, 47865, 47998, 46559, 46788, 46675, 47197, 45547, 46432, 46822, 46634, 46057, 46045, 46347, 46325, 46431, 46504, 46487, 46016, 46364, 46456, 47034, 45865, 46531, 45773, 46606, 45920, 45995, 46482, 45583, 46083, 45888, 46376, 46641, 45359, 46624, 45979, 45823, 47066, 47319, 45568, 46081, 47071, 45526, 46254, 46430, 45561, 47407, 45813, 46082, 46733, 46618, 46818, 47419, 46902, 46898, 46758, 46681, 46285, 46009, 46801, 44919, 45975, 46273, 46483, 46360, 46952, 46549, 44556, 45545, 43691, 45849, 46973, 46835, 46578, 46888, 46520, 46113, 46028, 46191, 46863, 46219, 45889, 46488, 46616, 46356, 45881, 45760, 46422, 46091, 46771, 46488, 46653, 46249, 45687, 45415, 46841, 46958, 46361, 47075, 46285, 45944, 45734, 46257, 45146, 44677, 47064, 46852, 47209, 46035, 46013, 46657, 46503, 45823, 46227, 45838, 45491, 46187, 46582, 45980, 45785, 44620, 45937, 46448, 46580, 46062, 46140, 45403, 46925, 46946, 46267, 46964, 47716, 46949, 47120, 46580, 46681, 47206, 46846, 46163, 46722, 46383, 45426, 46333, 46039, 45368, 45265, 47177, 46148, 46145, 46488, 46409, 46139, 45551, 45682, 46820, 46002, 45543, 46093, 45820, 46100, 46359, 46012, 45694, 46063, 45815, 45524, 45525, 45128, 45625, 45655, 46948, 46445, 45622, 45833, 44554, 45283, 45262, 44928, 46095, 44794, 45163, 45317, 44483, 46359, 46815, 46621, 47280, 45819, 44694, 45875, 46975, 46334, 46158, 46315, 44995, 46552, 45701, 46010, 46599, 46285, 46196, 46421, 45899, 45883, 46055, 45705, 45271, 44820, 47121, 46469, 46270, 46563, 45748, 46181, 46213, 45708, 46130, 45929, 46126, 46251, 45861, 45908, 45253, 45995, 47353, 45670, 46009, 45831, 46551, 45190, 45921, 45869, 46087, 46253, 45817, 45876, 43068, 45041, 44349, 45458, 44597, 45515, 45551, 46726, 46551, 45508, 44620, 46483, 46908, 46930, 46482, 46006, 46405, 47334, 47076, 46374, 46690, 46917, 45567, 46134, 45676, 46825, 47278, 45995, 47204, 46731, 47439, 46302, 47104, 46489, 47207, 46215, 46560, 45480, 47285, 46433, 46761, 46689, 46215, 47370, 45817, 46037, 46393, 46223, 46971, 48461, 47972, 46532, 46873, 45841, 45739, 45274, 45770, 45840, 45028, 46366, 46191, 46517, 45208, 46399, 46036, 45072, 46188, 45045, 45986, 46022, 42335, 44424, 44887, 45311, 45249, 45364, 45849, 45075, 45976, 45947, 45719, 44713, 45411, 46549, 46645, 46221, 46499, 46684, 46426, 46591, 46115, 46726, 46189, 46406, 46226, 46760],
