{
  "AcquisitionMatrixPE": 104,
  "AcquisitionNumber": 1,
  "AcquisitionTime": "16:38:55.445000",
  "BandwidthPerPixelPhaseEncode": 17.17,
  "BaseResolution": 104,
  "BodyPartExamined": "BRAIN",
  "CoilCombinationMethod": "Sum of Squares",
  "ConsistencyInfo": "N4_VE11C_LATEST_20160120",
  "ConversionSoftware": "dcm2niix",
  "ConversionSoftwareVersion": "v1.0.20220505",
  "DerivedVendorReportedEchoSpacing": 0.000560011,
  "DeviceSerialNumber": "167006",
  "DwellTime": 2.1e-06,
  "EchoTime": 0.037,
  "EchoTime1": 0.037,
  "EchoTime2": 0.001,
  "EchoTrainLength": 104,
  "EffectiveEchoSpacing": 0.000560011,
  "FlipAngle": 52,
  "HeudiconvVersion": "0.5.3.post811+g6206e14",
  "ImageComments": "Unaliased MB4/PE3/LB",
  "ImageOrientationPatientDICOM": [0.998023, -0.000696906, 0.0628473, 0.0332822, 0.854093, -0.519054],
  "ImageOrientationText": "Tra>Cor(-31.4)>Sag(3.1)",
  "ImageType": [
    "ORIGINAL",
    "PRIMARY",
    "P",
    "MB",
    "ND",
    "MOSAIC",
    "PHASE"
],
  "ImagingFrequency": 123.259,
  "InPlanePhaseEncodingDirectionDICOM": "COL",
  "InstitutionAddress": "Chemin Queen-Mary 4565,Montreal,District,CA,H3W 1W5",
  "InstitutionName": "IUGM",
  "InstitutionalDepartmentName": "Department",
  "MRAcquisitionType": "2D",
  "MagneticFieldStrength": 3,
  "Manufacturer": "Siemens",
  "ManufacturersModelName": "Prisma_fit",
  "MatrixCoilMode": "SENSE",
  "Modality": "MR",
  "MultibandAccelerationFactor": 4,
  "PartialFourier": 1,
  "PatientPosition": "HFS",
  "PercentPhaseFOV": 100,
  "PercentSampling": 100,
  "PhaseEncodingDirection": "j",
  "PhaseEncodingSteps": 104,
  "PhaseResolution": 1,
  "PixelBandwidth": 2290,
  "ProcedureStepDescription": "games^mario3",
  "ProtocolName": "func_task-mario3_run-03",
  "PulseSequenceDetails": "%CustomerSeq%\\cmrr_mbep2d_bold",
  "ReceiveCoilActiveElements": "HC1-7;NC1,2",
  "ReceiveCoilName": "HeadNeck_64",
  "ReconMatrixPE": 104,
  "RepetitionTime": 1.49,
  "SAR": 0.0499543,
  "ScanOptions": "FS",
  "ScanningSequence": "EP",
  "SequenceName": "epfid2d1_104",
  "SequenceVariant": "SK\\SS",
  "SeriesDescription": "func_task-mario3_run-03",
  "SeriesNumber": 17,
  "ShimSetting": [633, -7188, -8880, 298, 24, -168, 3, 48],
  "SliceThickness": 2,
  "SliceTiming": [0, 0.7825, 0.0975, 0.88, 0.195, 0.98, 0.2925, 1.0775, 0.3925, 1.175, 0.49, 1.2725, 0.5875, 1.37, 0.685, 0, 0.7825, 0.0975, 0.88, 0.195, 0.98, 0.2925, 1.0775, 0.3925, 1.175, 0.49, 1.2725, 0.5875, 1.37, 0.685, 0, 0.7825, 0.0975, 0.88, 0.195, 0.98, 0.2925, 1.0775, 0.3925, 1.175, 0.49, 1.2725, 0.5875, 1.37, 0.685, 0, 0.7825, 0.0975, 0.88, 0.195, 0.98, 0.2925, 1.0775, 0.3925, 1.175, 0.49, 1.2725, 0.5875, 1.37, 0.685],
  "SoftwareVersions": "syngo MR E11",
  "SpacingBetweenSlices": 2,
  "StationName": "MRC35049",
  "TaskName": "mario3",
  "TotalReadoutTime": 0.0576811,
  "TxRefAmp": 269.272,
  "WipMemBlock": "772971eb-5b2a-418f-9298-40cebf28e75a||Sequence: R017 ve11c/master r/75a17815+; Jun 28 2022 16:32:11 by eja",
  "dcmmeta_affine": [
    [-1.9960458278656006, 0.06656436622142792, 0.10663148015737534, 101.86430358886719],
    [0.0013938124757260084, 1.708186388015747, -1.0402390956878662, -49.90155029296875],
    [0.1256946474313736, 1.0381081104278564, 1.7048555612564087, -106.11486053466797],
    [0.0, 0.0, 0.0, 1.0]
],
  "dcmmeta_reorient_transform": [
    [0.0, -1.0, 0.0, 103.0],
    [1.0, 0.0, 0.0, 0.0],
    [0.0, 0.0, 1.0, 0.0],
    [0.0, 0.0, 0.0, 1.0]
],
  "dcmmeta_shape": [104, 104, 60, 315],
  "dcmmeta_slice_dim": 2,
  "dcmmeta_version": 0.6,
  "global": {
    "const": {
      "AcquisitionMatrix": [104, 0, 0, 104],
      "AngioFlag": "N",
      "BitsAllocated": 16,
      "BitsStored": 16,
      "BodyPartExamined": "BRAIN",
      "Columns": 832,
      "EchoNumbers": 1,
      "EchoTime": 37.0,
      "EchoTrainLength": 104,
      "FlipAngle": 52.0,
      "HighBit": 15,
      "ImageOrientationPatient": [0.99802290965767, -0.0006969062388, 0.06284732389003, 0.03328218247914, 0.85409319989782, -0.5190540455653],
      "ImagePositionPatient": [-859.51054164821, -747.31414939927, 332.92876904517],
      "ImageType": [
        "ORIGINAL",
        "PRIMARY",
        "P",
        "MB",
        "ND",
        "MOSAIC"
],
      "ImagedNucleus": "1H",
      "ImagingFrequency": 123.258838,
      "InPlanePhaseEncodingDirection": "COL",
      "LargestImagePixelValue": 4095,
      "MRAcquisitionType": "2D",
      "MagneticFieldStrength": 3.0,
      "Manufacturer": "SIEMENS",
      "ManufacturerModelName": "Prisma_fit",
      "Modality": "MR",
      "NumberOfAverages": 1.0,
      "NumberOfPhaseEncodingSteps": 104,
      "PercentPhaseFieldOfView": 100.0,
      "PercentSampling": 100.0,
      "PerformedProcedureStepStartTime": "161631.138000",
      "PhotometricInterpretation": "MONOCHROME2",
      "PixelBandwidth": 2290.0,
      "PixelRepresentation": 0,
      "PixelSpacing": [2.0, 2.0],
      "ProtocolName": "func_task-mario3_run-03",
      "RepetitionTime": 1490.0,
      "RescaleIntercept": -4096.0,
      "RescaleSlope": 2.0,
      "RescaleType": "US",
      "Rows": 832,
      "SAR": 0.04995425674452,
      "SamplesPerPixel": 1,
      "ScanOptions": "FS",
      "ScanningSequence": "EP",
      "SequenceName": "epfid2d1_104",
      "SequenceVariant": [
        "SK",
        "SS"
],
      "SeriesDescription": "func_task-mario3_run-03",
      "SeriesNumber": 17,
      "SeriesTime": "164019.722000",
      "SliceLocation": -59.069509977581,
      "SliceThickness": 2.0,
      "SmallestImagePixelValue": 0,
      "SoftwareVersions": "syngo MR E11",
      "SpacingBetweenSlices": 1.9999999824391,
      "SpecificCharacterSet": "ISO_IR 100",
      "StudyID": "1",
      "StudyTime": "161631.066000",
      "TransmitCoilName": "Body",
      "VariableFlipAngleFlag": "N",
      "WindowCenterWidthExplanation": "Algo1",
      "dBdt": 0.0},
    "slices": {}
  },
  "time": {
    "samples": {
      "AcquisitionNumber": [1, 2, 3, 4, 5, 6, 7, 8, 9, 10, 11, 12, 13, 14, 15, 16, 17, 18, 19, 20, 21, 22, 23, 24, 25, 26, 27, 28, 29, 30, 31, 32, 33, 34, 35, 36, 37, 38, 39, 40, 41, 42, 43, 44, 45, 46, 47, 48, 49, 50, 51, 52, 53, 54, 55, 56, 57, 58, 59, 60, 61, 62, 63, 64, 65, 66, 67, 68, 69, 70, 71, 72, 73, 74, 75, 76, 77, 78, 79, 80, 81, 82, 83, 84, 85, 86, 87, 88, 89, 90, 91, 92, 93, 94, 95, 96, 97, 98, 99, 100, 101, 102, 103, 104, 105, 106, 107, 108, 109, 110, 111, 112, 113, 114, 115, 116, 117, 118, 119, 120, 121, 122, 123, 124, 125, 126, 127, 128, 129, 130, 131, 132, 133, 134, 135, 136, 137, 138, 139, 140, 141, 142, 143, 144, 145, 146, 147, 148, 149, 150, 151, 152, 153, 154, 155, 156, 157, 158, 159, 160, 161, 162, 163, 164, 165, 166, 167, 168, 169, 170, 171, 172, 173, 174, 175, 176, 177, 178, 179, 180, 181, 182, 183, 184, 185, 186, 187, 188, 189, 190, 191, 192, 193, 194, 195, 196, 197, 198, 199, 200, 201, 202, 203, 204, 205, 206, 207, 208, 209, 210, 211, 212, 213, 214, 215, 216, 217, 218, 219, 220, 221, 222, 223, 224, 225, 226, 227, 228, 229, 230, 231, 232, 233, 234, 235, 236, 237, 238, 239, 240, 241, 242, 243, 244, 245, 246, 247, 248, 249, 250, 251, 252, 253, 254, 255, 256, 257, 258, 259, 260, 261, 262, 263, 264, 265, 266, 267, 268, 269, 270, 271, 272, 273, 274, 275, 276, 277, 278, 279, 280, 281, 282, 283, 284, 285, 286, 287, 288, 289, 290, 291, 292, 293, 294, 295, 296, 297, 298, 299, 300, 301, 302, 303, 304, 305, 306, 307, 308, 309, 310, 311, 312, 313, 314, 315],
      "AcquisitionTime": ["163855.445000", "163856.935000", "163858.425000", "163859.915000", "163901.405000", "163902.895000", "163904.385000", "163905.875000", "163907.365000", "163908.855000", "163910.345000", "163911.835000", "163913.325000", "163914.815000", "163916.305000", "163917.795000", "163919.285000", "163920.775000", "163922.265000", "163923.755000", "163925.245000", "163926.735000", "163928.225000", "163929.715000", "163931.205000", "163932.695000", "163934.185000", "163935.675000", "163937.165000", "163938.655000", "163940.145000", "163941.635000", "163943.125000", "163944.615000", "163946.105000", "163947.595000", "163949.085000", "163950.575000", "163952.065000", "163953.555000", "163955.045000", "163956.535000", "163958.025000", "163959.515000", "164001.005000", "164002.495000", "164003.985000", "164005.475000", "164006.965000", "164008.455000", "164009.945000", "164011.435000", "164012.925000", "164014.415000", "164015.905000", "164017.395000", "164018.885000", "164020.375000", "164021.865000", "164023.355000", "164024.845000", "164026.335000", "164027.825000", "164029.315000", "164030.805000", "164032.295000", "164033.785000", "164035.275000", "164036.765000", "164038.255000", "164039.745000", "164041.235000", "164042.725000", "164044.215000", "164045.705000", "164047.195000", "164048.685000", "164050.175000", "164051.665000", "164053.155000", "164054.645000", "164056.135000", "164057.625000", "164059.115000", "164100.605000", "164102.095000", "164103.585000", "164105.075000", "164106.565000", "164108.055000", "164109.545000", "164111.035000", "164112.525000", "164114.015000", "164115.505000", "164116.995000", "164118.485000", "164119.975000", "164121.465000", "164122.955000", "164124.445000", "164125.935000", "164127.425000", "164128.915000", "164130.405000", "164131.895000", "164133.385000", "164134.875000", "164136.365000", "164137.855000", "164139.345000", "164140.835000", "164142.325000", "164143.815000", "164145.305000", "164146.795000", "164148.285000", "164149.775000", "164151.265000", "164152.755000", "164154.245000", "164155.735000", "164157.225000", "164158.715000", "164200.205000", "164201.695000", "164203.185000", "164204.675000", "164206.165000", "164207.655000", "164209.145000", "164210.635000", "164212.125000", "164213.615000", "164215.105000", "164216.595000", "164218.085000", "164219.575000", "164221.065000", "164222.555000", "164224.045000", "164225.535000", "164227.025000", "164228.515000", "164230.005000", "164231.495000", "164232.985000", "164234.475000", "164235.965000", "164237.455000", "164238.945000", "164240.435000", "164241.925000", "164243.415000", "164244.905000", "164246.395000", "164247.885000", "164249.375000", "164250.865000", "164252.355000", "164253.845000", "164255.335000", "164256.825000", "164258.315000", "164259.805000", "164301.295000", "164302.785000", "164304.275000", "164305.765000", "164307.255000", "164308.745000", "164310.235000", "164311.725000", "164313.215000", "164314.705000", "164316.195000", "164317.685000", "164319.175000", "164320.665000", "164322.155000", "164323.645000", "164325.135000", "164326.625000", "164328.115000", "164329.605000", "164331.095000", "164332.585000", "164334.075000", "164335.565000", "164337.055000", "164338.545000", "164340.035000", "164341.525000", "164343.015000", "164344.505000", "164345.995000", "164347.485000", "164348.975000", "164350.465000", "164351.955000", "164353.445000", "164354.935000", "164356.425000", "164357.915000", "164359.405000", "164400.895000", "164402.385000", "164403.875000", "164405.365000", "164406.855000", "164408.345000", "164409.835000", "164411.325000", "164412.815000", "164414.305000", "164415.795000", "164417.285000", "164418.775000", "164420.265000", "164421.755000", "164423.245000", "164424.735000", "164426.225000", "164427.715000", "164429.205000", "164430.695000", "164432.185000", "164433.675000", "164435.165000", "164436.655000", "164438.145000", "164439.635000", "164441.125000", "164442.615000", "164444.105000", "164445.595000", "164447.085000", "164448.575000", "164450.065000", "164451.555000", "164453.045000", "164454.535000", "164456.025000", "164457.515000", "164459.005000", "164500.495000", "164501.985000", "164503.475000", "164504.965000", "164506.455000", "164507.945000", "164509.435000", "164510.925000", "164512.415000", "164513.905000", "164515.395000", "164516.885000", "164518.375000", "164519.865000", "164521.355000", "164522.845000", "164524.335000", "164525.825000", "164527.315000", "164528.805000", "164530.295000", "164531.785000", "164533.275000", "164534.765000", "164536.255000", "164537.745000", "164539.235000", "164540.725000", "164542.215000", "164543.705000", "164545.195000", "164546.685000", "164548.175000", "164549.665000", "164551.155000", "164552.645000", "164554.135000", "164555.625000", "164557.115000", "164558.605000", "164600.095000", "164601.585000", "164603.075000", "164604.565000", "164606.055000", "164607.545000", "164609.035000", "164610.525000", "164612.015000", "164613.505000", "164614.995000", "164616.485000", "164617.975000", "164619.465000", "164620.955000", "164622.445000", "164623.935000", "164625.425000", "164626.915000", "164628.405000", "164629.895000", "164631.385000", "164632.875000", "164634.365000", "164635.855000", "164637.345000", "164638.835000", "164640.325000", "164641.815000", "164643.305000"],
      "ContentTime": ["164019.724000", "164019.727000", "164019.729000", "164019.732000", "164019.734000", "164019.737000", "164019.740000", "164019.742000", "164019.745000", "164019.747000", "164019.750000", "164019.752000", "164019.755000", "164019.758000", "164019.760000", "164019.763000", "164019.765000", "164019.768000", "164019.771000", "164019.773000", "164019.776000", "164019.778000", "164019.781000", "164019.783000", "164019.786000", "164019.789000", "164019.791000", "164019.794000", "164019.810000", "164019.812000", "164019.815000", "164019.818000", "164019.820000", "164019.823000", "164019.825000", "164039.580000", "164039.583000", "164039.585000", "164039.588000", "164039.591000", "164039.593000", "164039.596000", "164039.598000", "164039.601000", "164039.603000", "164039.606000", "164039.609000", "164039.611000", "164039.614000", "164039.616000", "164039.619000", "164039.621000", "164039.624000", "164039.626000", "164039.629000", "164059.580000", "164059.583000", "164059.586000", "164059.589000", "164059.591000", "164059.594000", "164059.596000", "164059.599000", "164059.601000", "164059.604000", "164059.607000", "164059.610000", "164059.613000", "164059.615000", "164059.618000", "164059.621000", "164059.623000", "164059.626000", "164059.628000", "164059.631000", "164119.590000", "164119.592000", "164119.595000", "164119.597000", "164119.600000", "164119.603000", "164119.605000", "164119.608000", "164119.610000", "164119.613000", "164119.615000", "164119.618000", "164119.621000", "164119.623000", "164119.626000", "164119.628000", "164119.631000", "164119.634000", "164119.636000", "164119.639000", "164200.139000", "164200.142000", "164200.145000", "164200.147000", "164200.150000", "164200.152000", "164200.155000", "164200.158000", "164200.160000", "164200.163000", "164200.165000", "164200.168000", "164200.170000", "164200.173000", "164200.175000", "164200.178000", "164200.181000", "164200.183000", "164200.186000", "164200.188000", "164200.191000", "164200.193000", "164200.196000", "164200.198000", "164200.211000", "164200.213000", "164200.216000", "164200.218000", "164239.605000", "164239.608000", "164239.610000", "164239.613000", "164239.615000", "164239.618000", "164239.620000", "164239.623000", "164239.625000", "164239.628000", "164239.630000", "164239.633000", "164239.635000", "164239.638000", "164239.640000", "164239.643000", "164239.646000", "164239.648000", "164239.651000", "164239.653000", "164239.656000", "164239.658000", "164239.661000", "164239.663000", "164239.666000", "164239.669000", "164319.607000", "164319.610000", "164319.614000", "164319.616000", "164319.627000", "164319.630000", "164319.632000", "164319.635000", "164319.637000", "164319.640000", "164319.642000", "164319.645000", "164319.647000", "164319.650000", "164319.653000", "164319.655000", "164319.658000", "164319.660000", "164319.663000", "164319.665000", "164319.668000", "164319.671000", "164319.673000", "164319.676000", "164319.678000", "164319.681000", "164319.684000", "164359.609000", "164359.612000", "164359.614000", "164359.617000", "164359.620000", "164359.622000", "164359.625000", "164359.627000", "164359.630000", "164359.632000", "164359.635000", "164359.637000", "164359.640000", "164359.642000", "164359.645000", "164359.647000", "164359.650000", "164359.653000", "164359.655000", "164359.658000", "164359.660000", "164359.663000", "164359.665000", "164359.668000", "164359.670000", "164359.673000", "164359.675000", "164439.640000", "164439.643000", "164439.646000", "164439.648000", "164439.651000", "164439.653000", "164439.656000", "164439.658000", "164439.661000", "164439.663000", "164439.666000", "164439.669000", "164439.671000", "164439.674000", "164439.676000", "164439.679000", "164439.681000", "164439.684000", "164439.686000", "164439.689000", "164439.691000", "164439.694000", "164439.696000", "164439.699000", "164439.702000", "164439.704000", "164439.707000", "164519.603000", "164519.606000", "164519.608000", "164519.611000", "164519.613000", "164519.616000", "164519.619000", "164519.621000", "164519.624000", "164519.626000", "164519.629000", "164519.631000", "164519.634000", "164519.636000", "164519.639000", "164519.641000", "164519.644000", "164519.647000", "164519.649000", "164519.652000", "164519.654000", "164519.657000", "164519.659000", "164519.662000", "164519.664000", "164519.667000", "164519.669000", "164559.622000", "164559.625000", "164559.627000", "164559.630000", "164559.641000", "164559.643000", "164559.646000", "164559.648000", "164559.651000", "164559.653000", "164559.656000", "164559.660000", "164559.662000", "164559.665000", "164559.667000", "164559.670000", "164559.672000", "164559.675000", "164559.677000", "164559.680000", "164559.682000", "164559.685000", "164559.687000", "164559.690000", "164559.693000", "164559.695000", "164559.698000", "164639.601000", "164639.604000", "164639.607000", "164639.609000", "164639.612000", "164639.614000", "164639.617000", "164639.620000", "164639.622000", "164639.625000", "164639.627000", "164639.630000", "164639.632000", "164639.635000", "164639.638000", "164639.640000", "164639.643000", "164639.645000", "164639.648000", "164639.650000", "164639.653000", "164639.655000", "164639.658000", "164639.660000", "164639.663000", "164639.666000", "164639.668000", "164645.499000", "164645.502000", "164645.505000", "164645.508000"],
      "InstanceCreationTime": ["164019.724000", "164019.727000", "164019.729000", "164019.732000", "164019.734000", "164019.737000", "164019.740000", "164019.742000", "164019.745000", "164019.747000", "164019.750000", "164019.752000", "164019.755000", "164019.758000", "164019.760000", "164019.763000", "164019.765000", "164019.768000", "164019.771000", "164019.773000", "164019.776000", "164019.778000", "164019.781000", "164019.783000", "164019.786000", "164019.789000", "164019.791000", "164019.794000", "164019.810000", "164019.812000", "164019.815000", "164019.818000", "164019.820000", "164019.823000", "164019.825000", "164039.580000", "164039.583000", "164039.585000", "164039.588000", "164039.591000", "164039.593000", "164039.596000", "164039.598000", "164039.601000", "164039.603000", "164039.606000", "164039.609000", "164039.611000", "164039.614000", "164039.616000", "164039.619000", "164039.621000", "164039.624000", "164039.626000", "164039.629000", "164059.580000", "164059.583000", "164059.586000", "164059.589000", "164059.591000", "164059.594000", "164059.596000", "164059.599000", "164059.601000", "164059.604000", "164059.607000", "164059.610000", "164059.613000", "164059.615000", "164059.618000", "164059.621000", "164059.623000", "164059.626000", "164059.628000", "164059.631000", "164119.590000", "164119.592000", "164119.595000", "164119.597000", "164119.600000", "164119.603000", "164119.605000", "164119.608000", "164119.610000", "164119.613000", "164119.615000", "164119.618000", "164119.621000", "164119.623000", "164119.626000", "164119.628000", "164119.631000", "164119.634000", "164119.636000", "164119.639000", "164200.139000", "164200.142000", "164200.145000", "164200.147000", "164200.150000", "164200.152000", "164200.155000", "164200.158000", "164200.160000", "164200.163000", "164200.165000", "164200.168000", "164200.170000", "164200.173000", "164200.175000", "164200.178000", "164200.181000", "164200.183000", "164200.186000", "164200.188000", "164200.191000", "164200.193000", "164200.196000", "164200.198000", "164200.211000", "164200.213000", "164200.216000", "164200.218000", "164239.605000", "164239.608000", "164239.610000", "164239.613000", "164239.615000", "164239.618000", "164239.620000", "164239.623000", "164239.625000", "164239.628000", "164239.630000", "164239.633000", "164239.635000", "164239.638000", "164239.640000", "164239.643000", "164239.646000", "164239.648000", "164239.651000", "164239.653000", "164239.656000", "164239.658000", "164239.661000", "164239.663000", "164239.666000", "164239.669000", "164319.607000", "164319.610000", "164319.614000", "164319.616000", "164319.627000", "164319.630000", "164319.632000", "164319.635000", "164319.637000", "164319.640000", "164319.642000", "164319.645000", "164319.647000", "164319.650000", "164319.653000", "164319.655000", "164319.658000", "164319.660000", "164319.663000", "164319.665000", "164319.668000", "164319.671000", "164319.673000", "164319.676000", "164319.678000", "164319.681000", "164319.684000", "164359.609000", "164359.612000", "164359.614000", "164359.617000", "164359.620000", "164359.622000", "164359.625000", "164359.627000", "164359.630000", "164359.632000", "164359.635000", "164359.637000", "164359.640000", "164359.642000", "164359.645000", "164359.647000", "164359.650000", "164359.653000", "164359.655000", "164359.658000", "164359.660000", "164359.663000", "164359.665000", "164359.668000", "164359.670000", "164359.673000", "164359.675000", "164439.640000", "164439.643000", "164439.646000", "164439.648000", "164439.651000", "164439.653000", "164439.656000", "164439.658000", "164439.661000", "164439.663000", "164439.666000", "164439.669000", "164439.671000", "164439.674000", "164439.676000", "164439.679000", "164439.681000", "164439.684000", "164439.686000", "164439.689000", "164439.691000", "164439.694000", "164439.696000", "164439.699000", "164439.702000", "164439.704000", "164439.707000", "164519.603000", "164519.606000", "164519.608000", "164519.611000", "164519.613000", "164519.616000", "164519.619000", "164519.621000", "164519.624000", "164519.626000", "164519.629000", "164519.631000", "164519.634000", "164519.636000", "164519.639000", "164519.641000", "164519.644000", "164519.647000", "164519.649000", "164519.652000", "164519.654000", "164519.657000", "164519.659000", "164519.662000", "164519.664000", "164519.667000", "164519.669000", "164559.622000", "164559.625000", "164559.627000", "164559.630000", "164559.641000", "164559.643000", "164559.646000", "164559.648000", "164559.651000", "164559.653000", "164559.656000", "164559.660000", "164559.662000", "164559.665000", "164559.667000", "164559.670000", "164559.672000", "164559.675000", "164559.677000", "164559.680000", "164559.682000", "164559.685000", "164559.687000", "164559.690000", "164559.693000", "164559.695000", "164559.698000", "164639.601000", "164639.604000", "164639.607000", "164639.609000", "164639.612000", "164639.614000", "164639.617000", "164639.620000", "164639.622000", "164639.625000", "164639.627000", "164639.630000", "164639.632000", "164639.635000", "164639.638000", "164639.640000", "164639.643000", "164639.645000", "164639.648000", "164639.650000", "164639.653000", "164639.655000", "164639.658000", "164639.660000", "164639.663000", "164639.666000", "164639.668000", "164645.499000", "164645.502000", "164645.505000", "164645.508000"],
      "InstanceNumber": [1, 2, 3, 4, 5, 6, 7, 8, 9, 10, 11, 12, 13, 14, 15, 16, 17, 18, 19, 20, 21, 22, 23, 24, 25, 26, 27, 28, 29, 30, 31, 32, 33, 34, 35, 36, 37, 38, 39, 40, 41, 42, 43, 44, 45, 46, 47, 48, 49, 50, 51, 52, 53, 54, 55, 56, 57, 58, 59, 60, 61, 62, 63, 64, 65, 66, 67, 68, 69, 70, 71, 72, 73, 74, 75, 76, 77, 78, 79, 80, 81, 82, 83, 84, 85, 86, 87, 88, 89, 90, 91, 92, 93, 94, 95, 96, 97, 98, 99, 100, 101, 102, 103, 104, 105, 106, 107, 108, 109, 110, 111, 112, 113, 114, 115, 116, 117, 118, 119, 120, 121, 122, 123, 124, 125, 126, 127, 128, 129, 130, 131, 132, 133, 134, 135, 136, 137, 138, 139, 140, 141, 142, 143, 144, 145, 146, 147, 148, 149, 150, 151, 152, 153, 154, 155, 156, 157, 158, 159, 160, 161, 162, 163, 164, 165, 166, 167, 168, 169, 170, 171, 172, 173, 174, 175, 176, 177, 178, 179, 180, 181, 182, 183, 184, 185, 186, 187, 188, 189, 190, 191, 192, 193, 194, 195, 196, 197, 198, 199, 200, 201, 202, 203, 204, 205, 206, 207, 208, 209, 210, 211, 212, 213, 214, 215, 216, 217, 218, 219, 220, 221, 222, 223, 224, 225, 226, 227, 228, 229, 230, 231, 232, 233, 234, 235, 236, 237, 238, 239, 240, 241, 242, 243, 244, 245, 246, 247, 248, 249, 250, 251, 252, 253, 254, 255, 256, 257, 258, 259, 260, 261, 262, 263, 264, 265, 266, 267, 268, 269, 270, 271, 272, 273, 274, 275, 276, 277, 278, 279, 280, 281, 282, 283, 284, 285, 286, 287, 288, 289, 290, 291, 292, 293, 294, 295, 296, 297, 298, 299, 300, 301, 302, 303, 304, 305, 306, 307, 308, 309, 310, 311, 312, 313, 314, 315],
      "WindowCenter": [4790.0, 4794.0, 4794.0, 4788.0, 4784.0, 4790.0, 4784.0, 4792.0, 4790.0, 4796.0, 4794.0, 4788.0, 4790.0, 4786.0, 4784.0, 4824.0, 4792.0, 4790.0, 4788.0, 4780.0, 4776.0, 4788.0, 4786.0, 4786.0, 4786.0, 4788.0, 4784.0, 4792.0, 4788.0, 4792.0, 4790.0, 4784.0, 4778.0, 4776.0, 4776.0, 4790.0, 4788.0, 4794.0, 4824.0, 4832.0, 4808.0, 4800.0, 4760.0, 4744.0, 4770.0, 4766.0, 4774.0, 4786.0, 4796.0, 4820.0, 4820.0, 4796.0, 4798.0, 4796.0, 4778.0, 4772.0, 4770.0, 4774.0, 4798.0, 4800.0, 4806.0, 4806.0, 4824.0, 4794.0, 4794.0, 4792.0, 4786.0, 4760.0, 4776.0, 4794.0, 4800.0, 4804.0, 4802.0, 4794.0, 4770.0, 4762.0, 4758.0, 4760.0, 4768.0, 4800.0, 4800.0, 4804.0, 4790.0, 4792.0, 4782.0, 4794.0, 4788.0, 4792.0, 4800.0, 4786.0, 4780.0, 4784.0, 4792.0, 4794.0, 4806.0, 4802.0, 4792.0, 4784.0, 4754.0, 4800.0, 4798.0, 4800.0, 4794.0, 4786.0, 4784.0, 4780.0, 4782.0, 4786.0, 4790.0, 4790.0, 4792.0, 4832.0, 4808.0, 4796.0, 4788.0, 4756.0, 4760.0, 4788.0, 4782.0, 4782.0, 4798.0, 4784.0, 4792.0, 4792.0, 4798.0, 4796.0, 4800.0, 4796.0, 4802.0, 4798.0, 4784.0, 4776.0, 4778.0, 4784.0, 4790.0, 4796.0, 4828.0, 4800.0, 4802.0, 4796.0, 4766.0, 4756.0, 4758.0, 4762.0, 4788.0, 4800.0, 4804.0, 4802.0, 4834.0, 4804.0, 4786.0, 4754.0, 4770.0, 4770.0, 4788.0, 4802.0, 4796.0, 4798.0, 4796.0, 4798.0, 4790.0, 4784.0, 4768.0, 4786.0, 4788.0, 4784.0, 4782.0, 4784.0, 4798.0, 4798.0, 4802.0, 4798.0, 4800.0, 4836.0, 4810.0, 4786.0, 4770.0, 4766.0, 4768.0, 4778.0, 4798.0, 4818.0, 4828.0, 4860.0, 4832.0, 4806.0, 4764.0, 4744.0, 4764.0, 4768.0, 4748.0, 4800.0, 4800.0, 4798.0, 4796.0, 4796.0, 4798.0, 4798.0, 4780.0, 4788.0, 4762.0, 4760.0, 4790.0, 4792.0, 4800.0, 4856.0, 4862.0, 4834.0, 4784.0, 4768.0, 4764.0, 4742.0, 4748.0, 4786.0, 4796.0, 4798.0, 4830.0, 4834.0, 4798.0, 4792.0, 4786.0, 4752.0, 4750.0, 4750.0, 4754.0, 4784.0, 4792.0, 4796.0, 4798.0, 4826.0, 4826.0, 4804.0, 4790.0, 4776.0, 4772.0, 4768.0, 4792.0, 4800.0, 4832.0, 4802.0, 4832.0, 4808.0, 4786.0, 4746.0, 4742.0, 4764.0, 4766.0, 4782.0, 4802.0, 4822.0, 4828.0, 4830.0, 4806.0, 4762.0, 4746.0, 4766.0, 4768.0, 4788.0, 4800.0, 4832.0, 4838.0, 4836.0, 4804.0, 4792.0, 4748.0, 4770.0, 4750.0, 4790.0, 4798.0, 4808.0, 4798.0, 4826.0, 4804.0, 4798.0, 4784.0, 4774.0, 4806.0, 4836.0, 4834.0, 4806.0, 4770.0, 4738.0, 4734.0, 4738.0, 4766.0, 4778.0, 4806.0, 4806.0, 4794.0, 4790.0, 4784.0, 4758.0, 4774.0, 4800.0, 4830.0, 4802.0, 4788.0, 4786.0, 4794.0, 4792.0, 4792.0, 4796.0, 4784.0, 4790.0, 4786.0, 4800.0, 4804.0, 4802.0, 4804.0, 4800.0, 4790.0, 4786.0, 4786.0, 4786.0, 4786.0],
