{
  "AcquisitionMatrixPE": 104,
  "AcquisitionNumber": 1,
  "AcquisitionTime": "11:42:55.272500",
  "BandwidthPerPixelPhaseEncode": 17.17,
  "BaseResolution": 104,
  "BodyPartExamined": "BRAIN",
  "CoilCombinationMethod": "Sum of Squares",
  "ConsistencyInfo": "N4_VE11C_LATEST_20160120",
  "ConversionSoftware": "dcm2niix",
  "ConversionSoftwareVersion": "v1.0.20220505",
  "DerivedVendorReportedEchoSpacing": 0.000560011,
  "DeviceSerialNumber": "167006",
  "DwellTime": 2.1e-06,
  "EchoTime": 0.037,
  "EchoTime1": 0.037,
  "EchoTime2": 0.001,
  "EchoTrainLength": 104,
  "EffectiveEchoSpacing": 0.000560011,
  "FlipAngle": 52,
  "HeudiconvVersion": "0.5.3.post811+g6206e14",
  "ImageComments": "Unaliased MB4/PE3/LB",
  "ImageOrientationPatientDICOM": [0.993334, 0.114646, 0.0119647, -0.100374, 0.911342, -0.399225],
  "ImageOrientationText": "Tra>Cor(-23.3)>Sag(3.2)",
  "ImageType": [
    "ORIGINAL",
    "PRIMARY",
    "P",
    "MB",
    "ND",
    "MOSAIC",
    "PHASE"
],
  "ImagingFrequency": 123.259,
  "InPlanePhaseEncodingDirectionDICOM": "COL",
  "InstitutionAddress": "Chemin Queen-Mary 4565,Montreal,District,CA,H3W 1W5",
  "InstitutionName": "IUGM",
  "InstitutionalDepartmentName": "Department",
  "MRAcquisitionType": "2D",
  "MagneticFieldStrength": 3,
  "Manufacturer": "Siemens",
  "ManufacturersModelName": "Prisma_fit",
  "MatrixCoilMode": "SENSE",
  "Modality": "MR",
  "MultibandAccelerationFactor": 4,
  "PartialFourier": 1,
  "PatientPosition": "HFS",
  "PercentPhaseFOV": 100,
  "PercentSampling": 100,
  "PhaseEncodingDirection": "j",
  "PhaseEncodingSteps": 104,
  "PhaseResolution": 1,
  "PixelBandwidth": 2290,
  "ProcedureStepDescription": "games^mario3",
  "ProtocolName": "func_task-mario3_run-01",
  "PulseSequenceDetails": "%CustomerSeq%\\cmrr_mbep2d_bold",
  "ReceiveCoilActiveElements": "HC1-7;NC1,2",
  "ReceiveCoilName": "HeadNeck_64",
  "ReconMatrixPE": 104,
  "RepetitionTime": 1.49,
  "SAR": 0.0647014,
  "ScanOptions": "FS",
  "ScanningSequence": "EP",
  "SequenceName": "epfid2d1_104",
  "SequenceVariant": "SK\\SS",
  "SeriesDescription": "func_task-mario3_run-01",
  "SeriesNumber": 11,
  "ShimSetting": [622, -7196, -8815, 629, 86, 26, -82, 9],
  "SliceThickness": 2,
  "SliceTiming": [0, 0.7825, 0.0975, 0.88, 0.195, 0.98, 0.2925, 1.0775, 0.39, 1.175, 0.49, 1.2725, 0.5875, 1.37, 0.685, 0, 0.7825, 0.0975, 0.88, 0.195, 0.98, 0.2925, 1.0775, 0.39, 1.175, 0.49, 1.2725, 0.5875, 1.37, 0.685, 0, 0.7825, 0.0975, 0.88, 0.195, 0.98, 0.2925, 1.0775, 0.39, 1.175, 0.49, 1.2725, 0.5875, 1.37, 0.685, 0, 0.7825, 0.0975, 0.88, 0.195, 0.98, 0.2925, 1.0775, 0.39, 1.175, 0.49, 1.2725, 0.5875, 1.37, 0.685],
  "SoftwareVersions": "syngo MR E11",
  "SpacingBetweenSlices": 2,
  "StationName": "MRC35049",
  "TaskName": "mario3",
  "TotalReadoutTime": 0.0576811,
  "TxRefAmp": 294.962,
  "WipMemBlock": "1c047bb1-5073-40dc-96af-0a796684c9f9||Sequence: R017 ve11c/master r/75a17815+; Jun 28 2022 16:32:11 by eja",
  "dcmmeta_affine": [
    [-1.9866688251495361, -0.2007475197315216, 0.11334671080112457, 111.6868896484375],
    [-0.2292911410331726, 1.8226839303970337, -0.7907267808914185, -44.587615966796875],
    [0.02392939291894436, 0.798450767993927, 1.8335494995117188, -66.63365936279297],
    [0.0, 0.0, 0.0, 1.0]
],
  "dcmmeta_reorient_transform": [
    [0.0, -1.0, 0.0, 103.0],
    [1.0, 0.0, 0.0, 0.0],
    [0.0, 0.0, 1.0, 0.0],
    [0.0, 0.0, 0.0, 1.0]
],
  "dcmmeta_shape": [104, 104, 60, 306],
  "dcmmeta_slice_dim": 2,
  "dcmmeta_version": 0.6,
  "global": {
    "const": {
      "AcquisitionMatrix": [104, 0, 0, 104],
      "AngioFlag": "N",
      "BitsAllocated": 16,
      "BitsStored": 16,
      "BodyPartExamined": "BRAIN",
      "Columns": 832,
      "EchoNumbers": 1,
      "EchoTime": 37.0,
      "EchoTrainLength": 104,
      "FlipAngle": 52.0,
      "HighBit": 15,
      "ImageOrientationPatient": [0.99333440444827, 0.11464557108336, 0.01196469683545, -0.1003737615898, 0.91134197699904, -0.3992253861465],
      "ImagePositionPatient": [-741.0852446854, -890.06776503507, 297.53255473113],
      "ImageType": [
        "ORIGINAL",
        "PRIMARY",
        "P",
        "MB",
        "ND",
        "MOSAIC"
],
      "ImagedNucleus": "1H",
      "ImagingFrequency": 123.258848,
      "InPlanePhaseEncodingDirection": "COL",
      "LargestImagePixelValue": 4095,
      "MRAcquisitionType": "2D",
      "MagneticFieldStrength": 3.0,
      "Manufacturer": "SIEMENS",
      "ManufacturerModelName": "Prisma_fit",
      "Modality": "MR",
      "NumberOfAverages": 1.0,
      "NumberOfPhaseEncodingSteps": 104,
      "PercentPhaseFieldOfView": 100.0,
      "PercentSampling": 100.0,
      "PerformedProcedureStepStartTime": "113856.692000",
      "PhotometricInterpretation": "MONOCHROME2",
      "PixelBandwidth": 2290.0,
      "PixelRepresentation": 0,
      "PixelSpacing": [2.0, 2.0],
      "ProtocolName": "func_task-mario3_run-01",
      "RepetitionTime": 1490.0,
      "RescaleIntercept": -4096.0,
      "RescaleSlope": 2.0,
      "RescaleType": "US",
      "Rows": 832,
      "SAR": 0.06470144297079,
      "SamplesPerPixel": 1,
      "ScanOptions": "FS",
      "ScanningSequence": "EP",
      "SequenceName": "epfid2d1_104",
      "SequenceVariant": [
        "SK",
        "SS"
],
      "SeriesDescription": "func_task-mario3_run-01",
      "SeriesNumber": 11,
      "SeriesTime": "114400.761000",
      "SliceLocation": -37.130072510268,
      "SliceThickness": 2.0,
      "SmallestImagePixelValue": 0,
      "SoftwareVersions": "syngo MR E11",
      "SpacingBetweenSlices": 2.0000000597431,
      "SpecificCharacterSet": "ISO_IR 100",
      "StudyID": "1",
      "StudyTime": "113856.630000",
      "TransmitCoilName": "Body",
      "VariableFlipAngleFlag": "N",
      "WindowCenterWidthExplanation": "Algo1",
      "dBdt": 0.0},
    "slices": {}
  },
  "time": {
    "samples": {
      "AcquisitionNumber": [1, 2, 3, 4, 5, 6, 7, 8, 9, 10, 11, 12, 13, 14, 15, 16, 17, 18, 19, 20, 21, 22, 23, 24, 25, 26, 27, 28, 29, 30, 31, 32, 33, 34, 35, 36, 37, 38, 39, 40, 41, 42, 43, 44, 45, 46, 47, 48, 49, 50, 51, 52, 53, 54, 55, 56, 57, 58, 59, 60, 61, 62, 63, 64, 65, 66, 67, 68, 69, 70, 71, 72, 73, 74, 75, 76, 77, 78, 79, 80, 81, 82, 83, 84, 85, 86, 87, 88, 89, 90, 91, 92, 93, 94, 95, 96, 97, 98, 99, 100, 101, 102, 103, 104, 105, 106, 107, 108, 109, 110, 111, 112, 113, 114, 115, 116, 117, 118, 119, 120, 121, 122, 123, 124, 125, 126, 127, 128, 129, 130, 131, 132, 133, 134, 135, 136, 137, 138, 139, 140, 141, 142, 143, 144, 145, 146, 147, 148, 149, 150, 151, 152, 153, 154, 155, 156, 157, 158, 159, 160, 161, 162, 163, 164, 165, 166, 167, 168, 169, 170, 171, 172, 173, 174, 175, 176, 177, 178, 179, 180, 181, 182, 183, 184, 185, 186, 187, 188, 189, 190, 191, 192, 193, 194, 195, 196, 197, 198, 199, 200, 201, 202, 203, 204, 205, 206, 207, 208, 209, 210, 211, 212, 213, 214, 215, 216, 217, 218, 219, 220, 221, 222, 223, 224, 225, 226, 227, 228, 229, 230, 231, 232, 233, 234, 235, 236, 237, 238, 239, 240, 241, 242, 243, 244, 245, 246, 247, 248, 249, 250, 251, 252, 253, 254, 255, 256, 257, 258, 259, 260, 261, 262, 263, 264, 265, 266, 267, 268, 269, 270, 271, 272, 273, 274, 275, 276, 277, 278, 279, 280, 281, 282, 283, 284, 285, 286, 287, 288, 289, 290, 291, 292, 293, 294, 295, 296, 297, 298, 299, 300, 301, 302, 303, 304, 305, 306],
      "AcquisitionTime": ["114255.272500", "114256.762500", "114258.252500", "114259.742500", "114301.232500", "114302.722500", "114304.212500", "114305.702500", "114307.192500", "114308.682500", "114310.172500", "114311.662500", "114313.152500", "114314.642500", "114316.132500", "114317.622500", "114319.112500", "114320.602500", "114322.092500", "114323.582500", "114325.072500", "114326.562500", "114328.052500", "114329.542500", "114331.032500", "114332.522500", "114334.012500", "114335.502500", "114336.992500", "114338.482500", "114339.972500", "114341.462500", "114342.952500", "114344.442500", "114345.932500", "114347.422500", "114348.912500", "114350.402500", "114351.892500", "114353.382500", "114354.872500", "114356.362500", "114357.852500", "114359.342500", "114400.832500", "114402.322500", "114403.812500", "114405.302500", "114406.792500", "114408.282500", "114409.772500", "114411.262500", "114412.752500", "114414.242500", "114415.732500", "114417.222500", "114418.712500", "114420.202500", "114421.692500", "114423.182500", "114424.672500", "114426.162500", "114427.652500", "114429.142500", "114430.632500", "114432.122500", "114433.612500", "114435.102500", "114436.592500", "114438.082500", "114439.572500", "114441.062500", "114442.552500", "114444.042500", "114445.532500", "114447.022500", "114448.512500", "114450.002500", "114451.492500", "114452.982500", "114454.472500", "114455.962500", "114457.452500", "114458.942500", "114500.432500", "114501.922500", "114503.412500", "114504.902500", "114506.392500", "114507.882500", "114509.372500", "114510.862500", "114512.352500", "114513.842500", "114515.332500", "114516.822500", "114518.312500", "114519.802500", "114521.292500", "114522.782500", "114524.272500", "114525.762500", "114527.252500", "114528.742500", "114530.232500", "114531.722500", "114533.212500", "114534.702500", "114536.192500", "114537.682500", "114539.172500", "114540.662500", "114542.152500", "114543.642500", "114545.132500", "114546.622500", "114548.112500", "114549.602500", "114551.092500", "114552.582500", "114554.072500", "114555.562500", "114557.052500", "114558.542500", "114600.032500", "114601.522500", "114603.012500", "114604.502500", "114605.992500", "114607.482500", "114608.972500", "114610.462500", "114611.952500", "114613.442500", "114614.932500", "114616.422500", "114617.912500", "114619.402500", "114620.892500", "114622.382500", "114623.872500", "114625.362500", "114626.852500", "114628.342500", "114629.832500", "114631.322500", "114632.812500", "114634.302500", "114635.792500", "114637.282500", "114638.772500", "114640.262500", "114641.752500", "114643.242500", "114644.732500", "114646.222500", "114647.712500", "114649.202500", "114650.692500", "114652.182500", "114653.672500", "114655.162500", "114656.652500", "114658.142500", "114659.632500", "114701.122500", "114702.612500", "114704.102500", "114705.592500", "114707.082500", "114708.572500", "114710.062500", "114711.552500", "114713.042500", "114714.532500", "114716.022500", "114717.512500", "114719.002500", "114720.492500", "114721.982500", "114723.472500", "114724.962500", "114726.452500", "114727.942500", "114729.432500", "114730.922500", "114732.412500", "114733.902500", "114735.392500", "114736.882500", "114738.372500", "114739.862500", "114741.352500", "114742.842500", "114744.332500", "114745.822500", "114747.312500", "114748.802500", "114750.292500", "114751.782500", "114753.272500", "114754.762500", "114756.252500", "114757.742500", "114759.232500", "114800.722500", "114802.212500", "114803.702500", "114805.192500", "114806.682500", "114808.172500", "114809.662500", "114811.152500", "114812.642500", "114814.132500", "114815.622500", "114817.112500", "114818.602500", "114820.092500", "114821.582500", "114823.072500", "114824.562500", "114826.052500", "114827.542500", "114829.032500", "114830.522500", "114832.012500", "114833.502500", "114834.992500", "114836.482500", "114837.972500", "114839.462500", "114840.952500", "114842.442500", "114843.932500", "114845.422500", "114846.912500", "114848.402500", "114849.892500", "114851.382500", "114852.872500", "114854.362500", "114855.852500", "114857.342500", "114858.832500", "114900.322500", "114901.812500", "114903.302500", "114904.792500", "114906.282500", "114907.772500", "114909.262500", "114910.752500", "114912.242500", "114913.732500", "114915.222500", "114916.712500", "114918.202500", "114919.692500", "114921.182500", "114922.672500", "114924.162500", "114925.652500", "114927.142500", "114928.632500", "114930.122500", "114931.612500", "114933.102500", "114934.592500", "114936.082500", "114937.572500", "114939.062500", "114940.552500", "114942.042500", "114943.532500", "114945.022500", "114946.512500", "114948.002500", "114949.492500", "114950.982500", "114952.472500", "114953.962500", "114955.452500", "114956.942500", "114958.432500", "114959.922500", "115001.412500", "115002.902500", "115004.392500", "115005.882500", "115007.372500", "115008.862500", "115010.352500", "115011.842500", "115013.332500", "115014.822500", "115016.312500", "115017.802500", "115019.292500", "115020.782500", "115022.272500", "115023.762500", "115025.252500", "115026.742500", "115028.232500", "115029.722500"],
      "ContentTime": ["114400.763000", "114400.769000", "114400.772000", "114400.774000", "114400.777000", "114400.779000", "114400.782000", "114400.784000", "114400.787000", "114400.789000", "114400.795000", "114400.797000", "114400.800000", "114400.802000", "114400.804000", "114400.807000", "114420.761000", "114420.763000", "114420.766000", "114420.768000", "114420.781000", "114420.783000", "114420.786000", "114420.788000", "114420.802000", "114420.804000", "114420.807000", "114420.810000", "114420.812000", "114420.815000", "114420.817000", "114420.820000", "114420.822000", "114420.825000", "114420.827000", "114420.830000", "114420.832000", "114440.748000", "114440.751000", "114440.754000", "114440.756000", "114440.759000", "114440.761000", "114440.775000", "114440.778000", "114440.780000", "114440.783000", "114440.785000", "114440.787000", "114440.790000", "114440.792000", "114440.795000", "114440.797000", "114440.800000", "114440.802000", "114440.805000", "114440.807000", "114501.318000", "114501.321000", "114501.323000", "114501.326000", "114501.328000", "114501.331000", "114501.333000", "114501.335000", "114501.338000", "114501.340000", "114501.343000", "114501.345000", "114501.348000", "114501.350000", "114501.353000", "114501.355000", "114501.358000", "114501.360000", "114501.363000", "114501.365000", "114520.758000", "114520.761000", "114520.763000", "114520.766000", "114520.792000", "114520.795000", "114520.798000", "114520.800000", "114520.803000", "114520.805000", "114520.808000", "114520.810000", "114520.813000", "114520.815000", "114520.818000", "114520.820000", "114520.823000", "114520.825000", "114520.828000", "114520.830000", "114600.767000", "114600.794000", "114600.803000", "114600.806000", "114600.808000", "114600.811000", "114600.813000", "114600.816000", "114600.818000", "114600.821000", "114600.823000", "114600.826000", "114600.828000", "114600.831000", "114600.833000", "114600.836000", "114600.838000", "114600.841000", "114600.843000", "114600.845000", "114600.848000", "114600.850000", "114600.853000", "114600.855000", "114600.858000", "114600.860000", "114640.769000", "114640.842000", "114640.844000", "114640.847000", "114640.849000", "114640.852000", "114640.854000", "114640.857000", "114640.859000", "114640.862000", "114640.864000", "114640.867000", "114640.870000", "114640.872000", "114640.875000", "114640.877000", "114640.880000", "114640.883000", "114640.885000", "114640.888000", "114640.890000", "114640.892000", "114640.895000", "114640.897000", "114640.900000", "114640.902000", "114640.911000", "114720.805000", "114720.807000", "114720.810000", "114720.812000", "114720.815000", "114720.817000", "114720.820000", "114720.822000", "114720.825000", "114720.827000", "114720.830000", "114720.832000", "114720.835000", "114720.838000", "114720.840000", "114720.843000", "114720.845000", "114720.848000", "114720.850000", "114720.853000", "114720.855000", "114720.858000", "114720.860000", "114720.863000", "114720.865000", "114720.868000", "114720.870000", "114800.772000", "114800.775000", "114800.777000", "114800.780000", "114800.782000", "114800.785000", "114800.787000", "114800.790000", "114800.792000", "114800.795000", "114800.797000", "114800.800000", "114800.808000", "114800.811000", "114800.813000", "114800.816000", "114800.818000", "114800.821000", "114800.823000", "114800.826000", "114800.828000", "114800.831000", "114800.833000", "114800.836000", "114800.838000", "114800.841000", "114800.843000", "114840.758000", "114840.760000", "114840.763000", "114840.765000", "114840.768000", "114840.770000", "114840.773000", "114840.775000", "114840.778000", "114840.780000", "114840.783000", "114840.785000", "114840.788000", "114840.790000", "114840.793000", "114840.803000", "114840.806000", "114840.808000", "114840.811000", "114840.813000", "114840.816000", "114840.818000", "114840.821000", "114840.823000", "114840.825000", "114840.828000", "114840.830000", "114920.765000", "114920.768000", "114920.771000", "114920.773000", "114920.776000", "114920.778000", "114920.781000", "114920.783000", "114920.786000", "114920.788000", "114920.791000", "114920.793000", "114920.796000", "114920.798000", "114920.801000", "114920.803000", "114920.806000", "114920.808000", "114920.811000", "114920.813000", "114920.816000", "114920.818000", "114920.821000", "114920.823000", "114920.826000", "114920.828000", "114920.831000", "115000.785000", "115000.787000", "115000.790000", "115000.792000", "115000.795000", "115000.797000", "115000.800000", "115000.802000", "115000.805000", "115000.807000", "115000.810000", "115000.812000", "115000.815000", "115000.817000", "115000.820000", "115000.822000", "115000.825000", "115000.827000", "115000.829000", "115000.832000", "115000.834000", "115000.837000", "115000.839000", "115000.842000", "115000.844000", "115000.847000", "115033.276000", "115033.279000", "115033.282000", "115033.284000", "115033.287000", "115033.289000", "115033.292000", "115033.295000", "115033.297000", "115033.300000", "115033.303000", "115033.305000", "115033.308000", "115033.310000", "115033.313000", "115033.315000", "115033.318000", "115033.321000", "115033.323000", "115033.326000", "115033.328000", "115033.331000"],
      "InstanceCreationTime": ["114400.763000", "114400.769000", "114400.772000", "114400.774000", "114400.777000", "114400.779000", "114400.782000", "114400.784000", "114400.787000", "114400.789000", "114400.795000", "114400.797000", "114400.800000", "114400.802000", "114400.804000", "114400.807000", "114420.761000", "114420.763000", "114420.766000", "114420.768000", "114420.781000", "114420.783000", "114420.786000", "114420.788000", "114420.802000", "114420.804000", "114420.807000", "114420.810000", "114420.812000", "114420.815000", "114420.817000", "114420.820000", "114420.822000", "114420.825000", "114420.827000", "114420.830000", "114420.832000", "114440.748000", "114440.751000", "114440.754000", "114440.756000", "114440.759000", "114440.761000", "114440.775000", "114440.778000", "114440.780000", "114440.783000", "114440.785000", "114440.787000", "114440.790000", "114440.792000", "114440.795000", "114440.797000", "114440.800000", "114440.802000", "114440.805000", "114440.807000", "114501.318000", "114501.321000", "114501.323000", "114501.326000", "114501.328000", "114501.331000", "114501.333000", "114501.335000", "114501.338000", "114501.340000", "114501.343000", "114501.345000", "114501.348000", "114501.350000", "114501.353000", "114501.355000", "114501.358000", "114501.360000", "114501.363000", "114501.365000", "114520.758000", "114520.761000", "114520.763000", "114520.766000", "114520.792000", "114520.795000", "114520.798000", "114520.800000", "114520.803000", "114520.805000", "114520.808000", "114520.810000", "114520.813000", "114520.815000", "114520.818000", "114520.820000", "114520.823000", "114520.825000", "114520.828000", "114520.830000", "114600.767000", "114600.794000", "114600.803000", "114600.806000", "114600.808000", "114600.811000", "114600.813000", "114600.816000", "114600.818000", "114600.821000", "114600.823000", "114600.826000", "114600.828000", "114600.831000", "114600.833000", "114600.836000", "114600.838000", "114600.841000", "114600.843000", "114600.845000", "114600.848000", "114600.850000", "114600.853000", "114600.855000", "114600.858000", "114600.860000", "114640.769000", "114640.842000", "114640.844000", "114640.847000", "114640.849000", "114640.852000", "114640.854000", "114640.857000", "114640.859000", "114640.862000", "114640.864000", "114640.867000", "114640.870000", "114640.872000", "114640.875000", "114640.877000", "114640.880000", "114640.883000", "114640.885000", "114640.888000", "114640.890000", "114640.892000", "114640.895000", "114640.897000", "114640.900000", "114640.902000", "114640.911000", "114720.805000", "114720.807000", "114720.810000", "114720.812000", "114720.815000", "114720.817000", "114720.820000", "114720.822000", "114720.825000", "114720.827000", "114720.830000", "114720.832000", "114720.835000", "114720.838000", "114720.840000", "114720.843000", "114720.845000", "114720.848000", "114720.850000", "114720.853000", "114720.855000", "114720.858000", "114720.860000", "114720.863000", "114720.865000", "114720.868000", "114720.870000", "114800.772000", "114800.775000", "114800.777000", "114800.780000", "114800.782000", "114800.785000", "114800.787000", "114800.790000", "114800.792000", "114800.795000", "114800.797000", "114800.800000", "114800.808000", "114800.811000", "114800.813000", "114800.816000", "114800.818000", "114800.821000", "114800.823000", "114800.826000", "114800.828000", "114800.831000", "114800.833000", "114800.836000", "114800.838000", "114800.841000", "114800.843000", "114840.758000", "114840.760000", "114840.763000", "114840.765000", "114840.768000", "114840.770000", "114840.773000", "114840.775000", "114840.778000", "114840.780000", "114840.783000", "114840.785000", "114840.788000", "114840.790000", "114840.793000", "114840.803000", "114840.806000", "114840.808000", "114840.811000", "114840.813000", "114840.816000", "114840.818000", "114840.821000", "114840.823000", "114840.825000", "114840.828000", "114840.830000", "114920.765000", "114920.768000", "114920.771000", "114920.773000", "114920.776000", "114920.778000", "114920.781000", "114920.783000", "114920.786000", "114920.788000", "114920.791000", "114920.793000", "114920.796000", "114920.798000", "114920.801000", "114920.803000", "114920.806000", "114920.808000", "114920.811000", "114920.813000", "114920.816000", "114920.818000", "114920.821000", "114920.823000", "114920.826000", "114920.828000", "114920.831000", "115000.785000", "115000.787000", "115000.790000", "115000.792000", "115000.795000", "115000.797000", "115000.800000", "115000.802000", "115000.805000", "115000.807000", "115000.810000", "115000.812000", "115000.815000", "115000.817000", "115000.820000", "115000.822000", "115000.825000", "115000.827000", "115000.829000", "115000.832000", "115000.834000", "115000.837000", "115000.839000", "115000.842000", "115000.844000", "115000.847000", "115033.276000", "115033.279000", "115033.282000", "115033.284000", "115033.287000", "115033.289000", "115033.292000", "115033.295000", "115033.297000", "115033.300000", "115033.303000", "115033.305000", "115033.308000", "115033.310000", "115033.313000", "115033.315000", "115033.318000", "115033.321000", "115033.323000", "115033.326000", "115033.328000", "115033.331000"],
      "InstanceNumber": [1, 2, 3, 4, 5, 6, 7, 8, 9, 10, 11, 12, 13, 14, 15, 16, 17, 18, 19, 20, 21, 22, 23, 24, 25, 26, 27, 28, 29, 30, 31, 32, 33, 34, 35, 36, 37, 38, 39, 40, 41, 42, 43, 44, 45, 46, 47, 48, 49, 50, 51, 52, 53, 54, 55, 56, 57, 58, 59, 60, 61, 62, 63, 64, 65, 66, 67, 68, 69, 70, 71, 72, 73, 74, 75, 76, 77, 78, 79, 80, 81, 82, 83, 84, 85, 86, 87, 88, 89, 90, 91, 92, 93, 94, 95, 96, 97, 98, 99, 100, 101, 102, 103, 104, 105, 106, 107, 108, 109, 110, 111, 112, 113, 114, 115, 116, 117, 118, 119, 120, 121, 122, 123, 124, 125, 126, 127, 128, 129, 130, 131, 132, 133, 134, 135, 136, 137, 138, 139, 140, 141, 142, 143, 144, 145, 146, 147, 148, 149, 150, 151, 152, 153, 154, 155, 156, 157, 158, 159, 160, 161, 162, 163, 164, 165, 166, 167, 168, 169, 170, 171, 172, 173, 174, 175, 176, 177, 178, 179, 180, 181, 182, 183, 184, 185, 186, 187, 188, 189, 190, 191, 192, 193, 194, 195, 196, 197, 198, 199, 200, 201, 202, 203, 204, 205, 206, 207, 208, 209, 210, 211, 212, 213, 214, 215, 216, 217, 218, 219, 220, 221, 222, 223, 224, 225, 226, 227, 228, 229, 230, 231, 232, 233, 234, 235, 236, 237, 238, 239, 240, 241, 242, 243, 244, 245, 246, 247, 248, 249, 250, 251, 252, 253, 254, 255, 256, 257, 258, 259, 260, 261, 262, 263, 264, 265, 266, 267, 268, 269, 270, 271, 272, 273, 274, 275, 276, 277, 278, 279, 280, 281, 282, 283, 284, 285, 286, 287, 288, 289, 290, 291, 292, 293, 294, 295, 296, 297, 298, 299, 300, 301, 302, 303, 304, 305, 306],
      "WindowCenter": [4772.0, 4772.0, 4774.0, 4774.0, 4772.0, 4770.0, 4770.0, 4774.0, 4774.0, 4774.0, 4774.0, 4776.0, 4780.0, 4776.0, 4776.0, 4774.0, 4774.0, 4778.0, 4774.0, 4778.0, 4776.0, 4778.0, 4776.0, 4776.0, 4778.0, 4778.0, 4776.0, 4778.0, 4776.0, 4778.0, 4776.0, 4774.0, 4778.0, 4778.0, 4776.0, 4776.0, 4780.0, 4774.0, 4776.0, 4780.0, 4778.0, 4778.0, 4782.0, 4776.0, 4778.0, 4778.0, 4774.0, 4778.0, 4778.0, 4774.0, 4776.0, 4776.0, 4780.0, 4776.0, 4778.0, 4776.0, 4778.0, 4780.0, 4778.0, 4778.0, 4778.0, 4778.0, 4778.0, 4774.0, 4778.0, 4774.0, 4778.0, 4778.0, 4780.0, 4776.0, 4778.0, 4774.0, 4776.0, 4776.0, 4776.0, 4776.0, 4776.0, 4778.0, 4776.0, 4782.0, 4778.0, 4776.0, 4776.0, 4776.0, 4776.0, 4776.0, 4782.0, 4778.0, 4782.0, 4780.0, 4776.0, 4778.0, 4778.0, 4778.0, 4778.0, 4780.0, 4778.0, 4776.0, 4784.0, 4778.0, 4782.0, 4776.0, 4778.0, 4776.0, 4774.0, 4780.0, 4780.0, 4782.0, 4778.0, 4780.0, 4780.0, 4776.0, 4780.0, 4780.0, 4780.0, 4776.0, 4774.0, 4778.0, 4780.0, 4778.0, 4778.0, 4782.0, 4780.0, 4782.0, 4780.0, 4778.0, 4778.0, 4782.0, 4778.0, 4778.0, 4782.0, 4782.0, 4780.0, 4780.0, 4780.0, 4778.0, 4782.0, 4786.0, 4780.0, 4780.0, 4776.0, 4780.0, 4780.0, 4780.0, 4778.0, 4778.0, 4782.0, 4782.0, 4780.0, 4778.0, 4780.0, 4780.0, 4780.0, 4782.0, 4778.0, 4782.0, 4778.0, 4778.0, 4780.0, 4776.0, 4782.0, 4780.0, 4778.0, 4782.0, 4778.0, 4780.0, 4784.0, 4778.0, 4780.0, 4778.0, 4778.0, 4782.0, 4776.0, 4778.0, 4778.0, 4778.0, 4780.0, 4778.0, 4784.0, 4780.0, 4778.0, 4782.0, 4778.0, 4780.0, 4778.0, 4780.0, 4782.0, 4778.0, 4784.0, 4780.0, 4784.0, 4782.0, 4778.0, 4780.0, 4776.0, 4780.0, 4782.0, 4780.0, 4780.0, 4782.0, 4782.0, 4780.0, 4780.0, 4778.0, 4778.0, 4778.0, 4782.0, 4780.0, 4784.0, 4778.0, 4778.0, 4782.0, 4782.0, 4782.0, 4778.0, 4778.0, 4778.0, 4778.0, 4780.0, 4780.0, 4780.0, 4778.0, 4778.0, 4784.0, 4778.0, 4784.0, 4780.0, 4778.0, 4784.0, 4782.0, 4780.0, 4782.0, 4780.0, 4776.0, 4784.0, 4778.0, 4782.0, 4780.0, 4778.0, 4780.0, 4778.0, 4780.0, 4778.0, 4778.0, 4782.0, 4776.0, 4780.0, 4780.0, 4780.0, 4782.0, 4780.0, 4784.0, 4778.0, 4778.0, 4778.0, 4782.0, 4780.0, 4778.0, 4776.0, 4780.0, 4782.0, 4782.0, 4776.0, 4778.0, 4780.0, 4780.0, 4778.0, 4778.0, 4782.0, 4780.0, 4782.0, 4780.0, 4782.0, 4784.0, 4778.0, 4782.0, 4782.0, 4782.0, 4782.0, 4782.0, 4782.0, 4780.0, 4780.0, 4778.0, 4776.0, 4780.0, 4780.0, 4780.0, 4784.0, 4784.0, 4786.0, 4782.0, 4778.0, 4776.0, 4780.0, 4780.0, 4780.0, 4776.0, 4780.0, 4780.0, 4778.0, 4780.0, 4782.0, 4778.0, 4776.0, 4774.0],
      "WindowWidth": [18570.0, 18576.0, 18578.0, 18576.0, 18574.0, 18570.0, 18578.0, 18580.0, 18576.0, 18576.0, 18574.0, 18580.0, 18580.0, 18580.0, 18582.0, 18578.0, 18580.0, 18582.0, 18580.0, 18582.0, 18578.0, 18580.0, 18578.0, 18580.0, 18580.0, 18582.0, 18578.0, 18582.0, 18580.0, 18578.0, 18582.0, 18576.0, 18580.0, 18582.0, 18580.0, 18578.0, 18580.0, 18572.0, 18576.0, 18578.0, 18582.0, 18584.0, 18584.0, 18574.0, 18580.0, 18576.0, 18576.0, 18582.0, 18580.0, 18574.0, 18576.0, 18578.0, 18580.0, 18578.0, 18582.0, 18580.0, 18580.0, 18584.0, 18578.0, 18584.0, 18582.0, 18578.0, 18578.0, 18578.0, 18576.0, 18576.0, 18580.0, 18582.0, 18580.0, 18580.0, 18580.0, 18576.0, 18578.0, 18574.0, 18578.0, 18578.0, 18576.0, 18580.0, 18578.0, 18584.0, 18580.0, 18582.0, 18576.0, 18576.0, 18580.0, 18580.0, 18580.0, 18578.0, 18578.0, 18576.0, 18576.0, 18580.0, 18578.0, 18578.0, 18578.0, 18584.0, 18582.0, 18578.0, 18586.0, 18580.0, 18580.0, 18578.0, 18582.0, 18580.0, 18576.0, 18582.0, 18580.0, 18584.0, 18578.0, 18582.0, 18580.0, 18574.0, 18584.0, 18580.0, 18582.0, 18572.0, 18576.0, 18576.0, 18582.0, 18578.0, 18576.0, 18580.0, 18580.0, 18582.0, 18582.0, 18578.0, 18582.0, 18584.0, 18578.0, 18576.0, 18580.0, 18582.0, 18580.0, 18584.0, 18582.0, 18580.0, 18582.0, 18584.0, 18582.0, 18580.0, 18580.0, 18580.0, 18580.0, 18580.0, 18578.0, 18578.0, 18578.0, 18586.0, 18576.0, 18574.0, 18578.0, 18578.0, 18582.0, 18582.0, 18578.0, 18582.0, 18574.0, 18578.0, 18576.0, 18574.0, 18578.0, 18578.0, 18576.0, 18584.0, 18576.0, 18578.0, 18584.0, 18578.0, 18580.0, 18574.0, 18580.0, 18582.0, 18574.0, 18582.0, 18574.0, 18576.0, 18578.0, 18578.0, 18576.0, 18582.0, 18578.0, 18578.0, 18580.0, 18580.0, 18574.0, 18584.0, 18582.0, 18576.0, 18582.0, 18580.0, 18580.0, 18580.0, 18572.0, 18580.0, 18576.0, 18578.0, 18584.0, 18580.0, 18578.0, 18580.0, 18578.0, 18578.0, 18574.0, 18580.0, 18574.0, 18576.0, 18576.0, 18576.0, 18574.0, 18578.0, 18572.0, 18578.0, 18586.0, 18574.0, 18582.0, 18578.0, 18578.0, 18576.0, 18578.0, 18576.0, 18576.0, 18576.0, 18578.0, 18578.0, 18578.0, 18582.0, 18578.0, 18578.0, 18580.0, 18580.0, 18580.0, 18580.0, 18580.0, 18574.0, 18578.0, 18576.0, 18578.0, 18580.0, 18574.0, 18582.0, 18576.0, 18572.0, 18574.0, 18580.0, 18576.0, 18578.0, 18580.0, 18576.0, 18574.0, 18576.0, 18578.0, 18584.0, 18580.0, 18578.0, 18580.0, 18584.0, 18580.0, 18580.0, 18574.0, 18578.0, 18576.0, 18584.0, 18574.0, 18578.0, 18580.0, 18580.0, 18578.0, 18576.0, 18580.0, 18576.0, 18580.0, 18578.0, 18578.0, 18580.0, 18578.0, 18580.0, 18580.0, 18572.0, 18580.0, 18578.0, 18578.0, 18578.0, 18574.0, 18576.0, 18574.0, 18576.0, 18576.0, 18576.0, 18580.0, 18580.0, 18574.0, 18576.0, 18580.0, 18578.0, 18582.0, 18580.0, 18586.0, 18578.0, 18574.0, 18580.0, 18578.0, 18580.0, 18578.0, 18574.0, 18576.0, 18572.0]
    },
    "slices": {}
  }
}