{
  "AcquisitionMatrixPE": 104,
  "AcquisitionNumber": 1,
  "AcquisitionTime": "11:51:59.967500",
  "BandwidthPerPixelPhaseEncode": 17.17,
  "BaseResolution": 104,
  "BodyPartExamined": "BRAIN",
  "CoilCombinationMethod": "Sum of Squares",
  "ConsistencyInfo": "N4_VE11C_LATEST_20160120",
  "ConversionSoftware": "dcm2niix",
  "ConversionSoftwareVersion": "v1.0.20220505",
  "DerivedVendorReportedEchoSpacing": 0.000560011,
  "DeviceSerialNumber": "167006",
  "DwellTime": 2.1e-06,
  "EchoTime": 0.037,
  "EchoTime1": 0.037,
  "EchoTime2": 0.001,
  "EchoTrainLength": 104,
  "EffectiveEchoSpacing": 0.000560011,
  "FlipAngle": 52,
  "HeudiconvVersion": "0.5.3.post811+g6206e14",
  "ImageComments": "Unaliased MB4/PE3/LB",
  "ImageOrientationPatientDICOM": [0.993334, 0.114646, 0.0119647, -0.100374, 0.911342, -0.399225],
  "ImageOrientationText": "Tra>Cor(-23.3)>Sag(3.2)",
  "ImageType": [
    "ORIGINAL",
    "PRIMARY",
    "P",
    "MB",
    "ND",
    "MOSAIC",
    "PHASE"
],
  "ImagingFrequency": 123.259,
  "InPlanePhaseEncodingDirectionDICOM": "COL",
  "InstitutionAddress": "Chemin Queen-Mary 4565,Montreal,District,CA,H3W 1W5",
  "InstitutionName": "IUGM",
  "InstitutionalDepartmentName": "Department",
  "MRAcquisitionType": "2D",
  "MagneticFieldStrength": 3,
  "Manufacturer": "Siemens",
  "ManufacturersModelName": "Prisma_fit",
  "MatrixCoilMode": "SENSE",
  "Modality": "MR",
  "MultibandAccelerationFactor": 4,
  "PartialFourier": 1,
  "PatientPosition": "HFS",
  "PercentPhaseFOV": 100,
  "PercentSampling": 100,
  "PhaseEncodingDirection": "j",
  "PhaseEncodingSteps": 104,
  "PhaseResolution": 1,
  "PixelBandwidth": 2290,
  "ProcedureStepDescription": "games^mario3",
  "ProtocolName": "func_task-mario3_run-02",
  "PulseSequenceDetails": "%CustomerSeq%\\cmrr_mbep2d_bold",
  "ReceiveCoilActiveElements": "HC1-7;NC1,2",
  "ReceiveCoilName": "HeadNeck_64",
  "ReconMatrixPE": 104,
  "RepetitionTime": 1.49,
  "SAR": 0.0647014,
  "ScanOptions": "FS",
  "ScanningSequence": "EP",
  "SequenceName": "epfid2d1_104",
  "SequenceVariant": "SK\\SS",
  "SeriesDescription": "func_task-mario3_run-02",
  "SeriesNumber": 14,
  "ShimSetting": [622, -7196, -8815, 629, 86, 26, -82, 9],
  "SliceThickness": 2,
  "SliceTiming": [0, 0.785, 0.0975, 0.8825, 0.195, 0.98, 0.295, 1.0775, 0.3925, 1.175, 0.49, 1.275, 0.5875, 1.3725, 0.685, 0, 0.785, 0.0975, 0.8825, 0.195, 0.98, 0.295, 1.0775, 0.3925, 1.175, 0.49, 1.275, 0.5875, 1.3725, 0.685, 0, 0.785, 0.0975, 0.8825, 0.195, 0.98, 0.295, 1.0775, 0.3925, 1.175, 0.49, 1.275, 0.5875, 1.3725, 0.685, 0, 0.785, 0.0975, 0.8825, 0.195, 0.98, 0.295, 1.0775, 0.3925, 1.175, 0.49, 1.275, 0.5875, 1.3725, 0.685],
  "SoftwareVersions": "syngo MR E11",
  "SpacingBetweenSlices": 2,
  "StationName": "MRC35049",
  "TaskName": "mario3",
  "TotalReadoutTime": 0.0576811,
  "TxRefAmp": 294.962,
  "WipMemBlock": "c9df3d6f-93f1-4d38-b22f-6676d9684027||Sequence: R017 ve11c/master r/75a17815+; Jun 28 2022 16:32:11 by eja",
  "dcmmeta_affine": [
    [-1.9866688251495361, -0.2007475197315216, 0.11334671080112457, 111.6868896484375],
    [-0.2292911410331726, 1.8226839303970337, -0.7907267808914185, -44.587615966796875],
    [0.02392939291894436, 0.798450767993927, 1.8335494995117188, -66.63365936279297],
    [0.0, 0.0, 0.0, 1.0]
],
  "dcmmeta_reorient_transform": [
    [0.0, -1.0, 0.0, 103.0],
    [1.0, 0.0, 0.0, 0.0],
    [0.0, 0.0, 1.0, 0.0],
    [0.0, 0.0, 0.0, 1.0]
],
  "dcmmeta_shape": [104, 104, 60, 329],
  "dcmmeta_slice_dim": 2,
  "dcmmeta_version": 0.6,
  "global": {
    "const": {
      "AcquisitionMatrix": [104, 0, 0, 104],
      "AngioFlag": "N",
      "BitsAllocated": 16,
      "BitsStored": 16,
      "BodyPartExamined": "BRAIN",
      "Columns": 832,
      "EchoNumbers": 1,
      "EchoTime": 37.0,
      "EchoTrainLength": 104,
      "FlipAngle": 52.0,
      "HighBit": 15,
      "ImageOrientationPatient": [0.99333440444827, 0.11464557108336, 0.01196469683545, -0.1003737615898, 0.91134197699904, -0.3992253861465],
      "ImagePositionPatient": [-741.0852446854, -890.06776503507, 297.53255473113],
      "ImageType": [
        "ORIGINAL",
        "PRIMARY",
        "P",
        "MB",
        "ND",
        "MOSAIC"
],
      "ImagedNucleus": "1H",
      "ImagingFrequency": 123.258853,
      "InPlanePhaseEncodingDirection": "COL",
      "LargestImagePixelValue": 4095,
      "MRAcquisitionType": "2D",
      "MagneticFieldStrength": 3.0,
      "Manufacturer": "SIEMENS",
      "ManufacturerModelName": "Prisma_fit",
      "Modality": "MR",
      "NumberOfAverages": 1.0,
      "NumberOfPhaseEncodingSteps": 104,
      "PercentPhaseFieldOfView": 100.0,
      "PercentSampling": 100.0,
      "PerformedProcedureStepStartTime": "113856.692000",
      "PhotometricInterpretation": "MONOCHROME2",
      "PixelBandwidth": 2290.0,
      "PixelRepresentation": 0,
      "PixelSpacing": [2.0, 2.0],
      "ProtocolName": "func_task-mario3_run-02",
      "RepetitionTime": 1490.0,
      "RescaleIntercept": -4096.0,
      "RescaleSlope": 2.0,
      "RescaleType": "US",
      "Rows": 832,
      "SAR": 0.06470144297079,
      "SamplesPerPixel": 1,
      "ScanOptions": "FS",
      "ScanningSequence": "EP",
      "SequenceName": "epfid2d1_104",
      "SequenceVariant": [
        "SK",
        "SS"
],
      "SeriesDescription": "func_task-mario3_run-02",
      "SeriesNumber": 14,
      "SeriesTime": "115308.593000",
      "SliceLocation": -37.130072510268,
      "SliceThickness": 2.0,
      "SmallestImagePixelValue": 0,
      "SoftwareVersions": "syngo MR E11",
      "SpacingBetweenSlices": 2.0000000597431,
      "SpecificCharacterSet": "ISO_IR 100",
      "StudyID": "1",
      "StudyTime": "113856.630000",
      "TransmitCoilName": "Body",
      "VariableFlipAngleFlag": "N",
      "WindowCenterWidthExplanation": "Algo1",
      "dBdt": 0.0},
    "slices": {}
  },
  "time": {
    "samples": {
      "AcquisitionNumber": [1, 2, 3, 4, 5, 6, 7, 8, 9, 10, 11, 12, 13, 14, 15, 16, 17, 18, 19, 20, 21, 22, 23, 24, 25, 26, 27, 28, 29, 30, 31, 32, 33, 34, 35, 36, 37, 38, 39, 40, 41, 42, 43, 44, 45, 46, 47, 48, 49, 50, 51, 52, 53, 54, 55, 56, 57, 58, 59, 60, 61, 62, 63, 64, 65, 66, 67, 68, 69, 70, 71, 72, 73, 74, 75, 76, 77, 78, 79, 80, 81, 82, 83, 84, 85, 86, 87, 88, 89, 90, 91, 92, 93, 94, 95, 96, 97, 98, 99, 100, 101, 102, 103, 104, 105, 106, 107, 108, 109, 110, 111, 112, 113, 114, 115, 116, 117, 118, 119, 120, 121, 122, 123, 124, 125, 126, 127, 128, 129, 130, 131, 132, 133, 134, 135, 136, 137, 138, 139, 140, 141, 142, 143, 144, 145, 146, 147, 148, 149, 150, 151, 152, 153, 154, 155, 156, 157, 158, 159, 160, 161, 162, 163, 164, 165, 166, 167, 168, 169, 170, 171, 172, 173, 174, 175, 176, 177, 178, 179, 180, 181, 182, 183, 184, 185, 186, 187, 188, 189, 190, 191, 192, 193, 194, 195, 196, 197, 198, 199, 200, 201, 202, 203, 204, 205, 206, 207, 208, 209, 210, 211, 212, 213, 214, 215, 216, 217, 218, 219, 220, 221, 222, 223, 224, 225, 226, 227, 228, 229, 230, 231, 232, 233, 234, 235, 236, 237, 238, 239, 240, 241, 242, 243, 244, 245, 246, 247, 248, 249, 250, 251, 252, 253, 254, 255, 256, 257, 258, 259, 260, 261, 262, 263, 264, 265, 266, 267, 268, 269, 270, 271, 272, 273, 274, 275, 276, 277, 278, 279, 280, 281, 282, 283, 284, 285, 286, 287, 288, 289, 290, 291, 292, 293, 294, 295, 296, 297, 298, 299, 300, 301, 302, 303, 304, 305, 306, 307, 308, 309, 310, 311, 312, 313, 314, 315, 316, 317, 318, 319, 320, 321, 322, 323, 324, 325, 326, 327, 328, 329],
      "AcquisitionTime": ["115159.967500", "115201.457500", "115202.947500", "115204.437500", "115205.927500", "115207.417500", "115208.907500", "115210.397500", "115211.887500", "115213.377500", "115214.867500", "115216.357500", "115217.847500", "115219.337500", "115220.827500", "115222.317500", "115223.807500", "115225.297500", "115226.787500", "115228.277500", "115229.767500", "115231.257500", "115232.747500", "115234.237500", "115235.727500", "115237.217500", "115238.707500", "115240.197500", "115241.687500", "115243.177500", "115244.667500", "115246.157500", "115247.647500", "115249.137500", "115250.627500", "115252.117500", "115253.607500", "115255.097500", "115256.587500", "115258.077500", "115259.567500", "115301.057500", "115302.547500", "115304.037500", "115305.527500", "115307.017500", "115308.507500", "115309.997500", "115311.487500", "115312.977500", "115314.467500", "115315.957500", "115317.447500", "115318.937500", "115320.427500", "115321.917500", "115323.407500", "115324.897500", "115326.387500", "115327.877500", "115329.367500", "115330.857500", "115332.347500", "115333.837500", "115335.327500", "115336.817500", "115338.307500", "115339.797500", "115341.287500", "115342.777500", "115344.267500", "115345.757500", "115347.247500", "115348.737500", "115350.227500", "115351.717500", "115353.207500", "115354.697500", "115356.187500", "115357.677500", "115359.167500", "115400.657500", "115402.147500", "115403.637500", "115405.127500", "115406.617500", "115408.107500", "115409.597500", "115411.087500", "115412.577500", "115414.067500", "115415.557500", "115417.047500", "115418.537500", "115420.027500", "115421.517500", "115423.007500", "115424.497500", "115425.987500", "115427.477500", "115428.967500", "115430.457500", "115431.947500", "115433.437500", "115434.927500", "115436.417500", "115437.907500", "115439.397500", "115440.887500", "115442.377500", "115443.867500", "115445.357500", "115446.847500", "115448.337500", "115449.827500", "115451.317500", "115452.807500", "115454.297500", "115455.787500", "115457.277500", "115458.767500", "115500.257500", "115501.747500", "115503.237500", "115504.727500", "115506.217500", "115507.707500", "115509.197500", "115510.687500", "115512.177500", "115513.667500", "115515.157500", "115516.647500", "115518.137500", "115519.627500", "115521.117500", "115522.607500", "115524.097500", "115525.587500", "115527.077500", "115528.567500", "115530.057500", "115531.547500", "115533.037500", "115534.527500", "115536.017500", "115537.507500", "115538.997500", "115540.487500", "115541.977500", "115543.467500", "115544.957500", "115546.447500", "115547.937500", "115549.427500", "115550.917500", "115552.407500", "115553.897500", "115555.387500", "115556.877500", "115558.367500", "115559.857500", "115601.347500", "115602.837500", "115604.327500", "115605.817500", "115607.307500", "115608.797500", "115610.287500", "115611.777500", "115613.267500", "115614.757500", "115616.247500", "115617.737500", "115619.227500", "115620.717500", "115622.207500", "115623.697500", "115625.187500", "115626.677500", "115628.167500", "115629.657500", "115631.147500", "115632.637500", "115634.127500", "115635.617500", "115637.107500", "115638.597500", "115640.087500", "115641.577500", "115643.067500", "115644.557500", "115646.047500", "115647.537500", "115649.027500", "115650.517500", "115652.007500", "115653.497500", "115654.987500", "115656.477500", "115657.967500", "115659.457500", "115700.947500", "115702.437500", "115703.927500", "115705.417500", "115706.907500", "115708.397500", "115709.887500", "115711.377500", "115712.867500", "115714.357500", "115715.847500", "115717.337500", "115718.827500", "115720.317500", "115721.807500", "115723.297500", "115724.787500", "115726.277500", "115727.767500", "115729.257500", "115730.747500", "115732.237500", "115733.727500", "115735.217500", "115736.707500", "115738.197500", "115739.687500", "115741.177500", "115742.667500", "115744.157500", "115745.647500", "115747.137500", "115748.627500", "115750.117500", "115751.607500", "115753.097500", "115754.587500", "115756.077500", "115757.567500", "115759.057500", "115800.547500", "115802.037500", "115803.527500", "115805.017500", "115806.507500", "115807.997500", "115809.487500", "115810.977500", "115812.467500", "115813.957500", "115815.447500", "115816.937500", "115818.427500", "115819.917500", "115821.407500", "115822.897500", "115824.387500", "115825.877500", "115827.367500", "115828.857500", "115830.347500", "115831.837500", "115833.327500", "115834.817500", "115836.307500", "115837.797500", "115839.287500", "115840.777500", "115842.267500", "115843.757500", "115845.247500", "115846.737500", "115848.227500", "115849.717500", "115851.207500", "115852.697500", "115854.187500", "115855.677500", "115857.167500", "115858.657500", "115900.147500", "115901.637500", "115903.127500", "115904.617500", "115906.107500", "115907.597500", "115909.087500", "115910.577500", "115912.067500", "115913.557500", "115915.047500", "115916.537500", "115918.027500", "115919.517500", "115921.007500", "115922.497500", "115923.987500", "115925.477500", "115926.967500", "115928.457500", "115929.947500", "115931.437500", "115932.927500", "115934.417500", "115935.907500", "115937.397500", "115938.887500", "115940.377500", "115941.867500", "115943.357500", "115944.847500", "115946.337500", "115947.827500", "115949.317500", "115950.807500", "115952.297500", "115953.787500", "115955.277500", "115956.767500", "115958.257500", "115959.747500", "120001.237500", "120002.727500", "120004.217500", "120005.707500", "120007.197500", "120008.687500"],
      "ContentTime": ["115308.595000", "115308.597000", "115308.600000", "115308.602000", "115308.605000", "115308.607000", "115308.615000", "115308.617000", "115308.620000", "115308.622000", "115308.624000", "115308.627000", "115308.629000", "115308.632000", "115308.634000", "115308.637000", "115308.639000", "115308.642000", "115308.644000", "115308.647000", "115328.615000", "115328.617000", "115328.620000", "115328.622000", "115328.625000", "115328.627000", "115328.630000", "115328.632000", "115328.635000", "115328.637000", "115328.640000", "115328.642000", "115328.645000", "115328.647000", "115328.650000", "115328.652000", "115328.654000", "115328.657000", "115328.659000", "115328.662000", "115348.597000", "115348.599000", "115348.602000", "115348.604000", "115348.606000", "115348.609000", "115348.612000", "115348.614000", "115348.616000", "115348.619000", "115348.621000", "115348.624000", "115348.626000", "115348.629000", "115348.631000", "115348.634000", "115348.636000", "115348.639000", "115348.641000", "115348.643000", "115408.618000", "115408.621000", "115408.624000", "115408.626000", "115408.628000", "115408.631000", "115408.633000", "115408.636000", "115408.638000", "115408.641000", "115408.643000", "115408.646000", "115408.648000", "115408.651000", "115408.653000", "115408.656000", "115408.658000", "115408.661000", "115408.663000", "115408.666000", "115448.668000", "115448.671000", "115448.673000", "115448.676000", "115448.678000", "115448.681000", "115448.683000", "115448.685000", "115448.688000", "115448.690000", "115448.693000", "115448.695000", "115448.698000", "115448.700000", "115448.703000", "115448.705000", "115448.708000", "115448.710000", "115448.713000", "115448.725000", "115448.727000", "115448.730000", "115448.732000", "115448.735000", "115448.737000", "115448.740000", "115448.742000", "115448.745000", "115448.747000", "115448.750000", "115448.752000", "115448.755000", "115528.624000", "115528.626000", "115528.629000", "115528.631000", "115528.642000", "115528.645000", "115528.647000", "115528.650000", "115528.652000", "115528.655000", "115528.657000", "115528.660000", "115528.662000", "115528.664000", "115528.667000", "115528.669000", "115528.672000", "115528.674000", "115528.677000", "115528.679000", "115528.682000", "115528.684000", "115528.687000", "115528.689000", "115528.692000", "115528.694000", "115528.697000", "115608.637000", "115608.640000", "115608.642000", "115608.644000", "115608.647000", "115608.649000", "115608.652000", "115608.654000", "115608.657000", "115608.659000", "115608.662000", "115608.664000", "115608.667000", "115608.669000", "115608.672000", "115608.674000", "115608.677000", "115608.679000", "115608.682000", "115608.684000", "115608.687000", "115608.689000", "115608.692000", "115608.694000", "115608.697000", "115608.699000", "115608.702000", "115648.640000", "115648.642000", "115648.645000", "115648.647000", "115648.650000", "115648.652000", "115648.655000", "115648.657000", "115648.660000", "115648.662000", "115648.665000", "115648.667000", "115648.670000", "115648.672000", "115648.675000", "115648.677000", "115648.680000", "115648.682000", "115648.685000", "115648.687000", "115648.690000", "115648.692000", "115648.694000", "115648.697000", "115648.699000", "115648.702000", "115728.630000", "115728.633000", "115728.636000", "115728.639000", "115728.641000", "115728.644000", "115728.646000", "115728.649000", "115728.652000", "115728.654000", "115728.656000", "115728.659000", "115728.661000", "115728.664000", "115728.666000", "115728.669000", "115728.671000", "115728.674000", "115728.676000", "115728.679000", "115728.681000", "115728.684000", "115728.686000", "115728.689000", "115728.692000", "115728.694000", "115728.696000", "115808.638000", "115808.640000", "115808.643000", "115808.645000", "115808.648000", "115808.650000", "115808.653000", "115808.655000", "115808.658000", "115808.660000", "115808.663000", "115808.665000", "115808.668000", "115808.670000", "115808.673000", "115808.675000", "115808.678000", "115808.680000", "115808.683000", "115808.685000", "115808.688000", "115808.690000", "115808.693000", "115808.695000", "115808.698000", "115808.700000", "115808.702000", "115848.641000", "115848.644000", "115848.646000", "115848.649000", "115848.651000", "115848.654000", "115848.656000", "115848.659000", "115848.661000", "115848.664000", "115848.666000", "115848.669000", "115848.671000", "115848.674000", "115848.676000", "115848.679000", "115848.681000", "115848.692000", "115848.694000", "115848.697000", "115848.699000", "115848.702000", "115848.704000", "115848.707000", "115848.709000", "115848.712000", "115848.714000", "115928.632000", "115928.634000", "115928.637000", "115928.639000", "115928.642000", "115928.644000", "115928.647000", "115928.649000", "115928.652000", "115928.654000", "115928.657000", "115928.659000", "115928.662000", "115928.664000", "115928.667000", "115928.669000", "115928.672000", "115928.674000", "115928.677000", "115928.679000", "115928.682000", "115928.684000", "115928.687000", "115928.689000", "115928.692000", "115928.694000", "115928.697000", "120008.626000", "120008.629000", "120008.638000", "120008.641000", "120008.643000", "120008.646000", "120008.648000", "120008.651000", "120008.653000", "120008.656000", "120008.658000", "120008.661000", "120008.663000", "120008.666000", "120008.668000", "120008.670000", "120008.673000", "120008.676000", "120008.678000", "120008.680000", "120008.683000", "120008.685000", "120008.688000", "120008.690000", "120008.693000", "120008.695000", "120008.698000", "120012.523000", "120012.525000"],
      "InstanceCreationTime": ["115308.595000", "115308.597000", "115308.600000", "115308.602000", "115308.605000", "115308.607000", "115308.615000", "115308.617000", "115308.620000", "115308.622000", "115308.624000", "115308.627000", "115308.629000", "115308.632000", "115308.634000", "115308.637000", "115308.639000", "115308.642000", "115308.644000", "115308.647000", "115328.615000", "115328.617000", "115328.620000", "115328.622000", "115328.625000", "115328.627000", "115328.630000", "115328.632000", "115328.635000", "115328.637000", "115328.640000", "115328.642000", "115328.645000", "115328.647000", "115328.650000", "115328.652000", "115328.654000", "115328.657000", "115328.659000", "115328.662000", "115348.597000", "115348.599000", "115348.602000", "115348.604000", "115348.606000", "115348.609000", "115348.612000", "115348.614000", "115348.616000", "115348.619000", "115348.621000", "115348.624000", "115348.626000", "115348.629000", "115348.631000", "115348.634000", "115348.636000", "115348.639000", "115348.641000", "115348.643000", "115408.618000", "115408.621000", "115408.624000", "115408.626000", "115408.628000", "115408.631000", "115408.633000", "115408.636000", "115408.638000", "115408.641000", "115408.643000", "115408.646000", "115408.648000", "115408.651000", "115408.653000", "115408.656000", "115408.658000", "115408.661000", "115408.663000", "115408.666000", "115448.668000", "115448.671000", "115448.673000", "115448.676000", "115448.678000", "115448.681000", "115448.683000", "115448.685000", "115448.688000", "115448.690000", "115448.693000", "115448.695000", "115448.698000", "115448.700000", "115448.703000", "115448.705000", "115448.708000", "115448.710000", "115448.713000", "115448.725000", "115448.727000", "115448.730000", "115448.732000", "115448.735000", "115448.737000", "115448.740000", "115448.742000", "115448.745000", "115448.747000", "115448.750000", "115448.752000", "115448.755000", "115528.624000", "115528.626000", "115528.629000", "115528.631000", "115528.642000", "115528.645000", "115528.647000", "115528.650000", "115528.652000", "115528.655000", "115528.657000", "115528.660000", "115528.662000", "115528.664000", "115528.667000", "115528.669000", "115528.672000", "115528.674000", "115528.677000", "115528.679000", "115528.682000", "115528.684000", "115528.687000", "115528.689000", "115528.692000", "115528.694000", "115528.697000", "115608.637000", "115608.640000", "115608.642000", "115608.644000", "115608.647000", "115608.649000", "115608.652000", "115608.654000", "115608.657000", "115608.659000", "115608.662000", "115608.664000", "115608.667000", "115608.669000", "115608.672000", "115608.674000", "115608.677000", "115608.679000", "115608.682000", "115608.684000", "115608.687000", "115608.689000", "115608.692000", "115608.694000", "115608.697000", "115608.699000", "115608.702000", "115648.640000", "115648.642000", "115648.645000", "115648.647000", "115648.650000", "115648.652000", "115648.655000", "115648.657000", "115648.660000", "115648.662000", "115648.665000", "115648.667000", "115648.670000", "115648.672000", "115648.675000", "115648.677000", "115648.680000", "115648.682000", "115648.685000", "115648.687000", "115648.690000", "115648.692000", "115648.694000", "115648.697000", "115648.699000", "115648.702000", "115728.630000", "115728.633000", "115728.636000", "115728.639000", "115728.641000", "115728.644000", "115728.646000", "115728.649000", "115728.652000", "115728.654000", "115728.656000", "115728.659000", "115728.661000", "115728.664000", "115728.666000", "115728.669000", "115728.671000", "115728.674000", "115728.676000", "115728.679000", "115728.681000", "115728.684000", "115728.686000", "115728.689000", "115728.692000", "115728.694000", "115728.696000", "115808.638000", "115808.640000", "115808.643000", "115808.645000", "115808.648000", "115808.650000", "115808.653000", "115808.655000", "115808.658000", "115808.660000", "115808.663000", "115808.665000", "115808.668000", "115808.670000", "115808.673000", "115808.675000", "115808.678000", "115808.680000", "115808.683000", "115808.685000", "115808.688000", "115808.690000", "115808.693000", "115808.695000", "115808.698000", "115808.700000", "115808.702000", "115848.641000", "115848.644000", "115848.646000", "115848.649000", "115848.651000", "115848.654000", "115848.656000", "115848.659000", "115848.661000", "115848.664000", "115848.666000", "115848.669000", "115848.671000", "115848.674000", "115848.676000", "115848.679000", "115848.681000", "115848.692000", "115848.694000", "115848.697000", "115848.699000", "115848.702000", "115848.704000", "115848.707000", "115848.709000", "115848.712000", "115848.714000", "115928.632000", "115928.634000", "115928.637000", "115928.639000", "115928.642000", "115928.644000", "115928.647000", "115928.649000", "115928.652000", "115928.654000", "115928.657000", "115928.659000", "115928.662000", "115928.664000", "115928.667000", "115928.669000", "115928.672000", "115928.674000", "115928.677000", "115928.679000", "115928.682000", "115928.684000", "115928.687000", "115928.689000", "115928.692000", "115928.694000", "115928.697000", "120008.626000", "120008.629000", "120008.638000", "120008.641000", "120008.643000", "120008.646000", "120008.648000", "120008.651000", "120008.653000", "120008.656000", "120008.658000", "120008.661000", "120008.663000", "120008.666000", "120008.668000", "120008.670000", "120008.673000", "120008.676000", "120008.678000", "120008.680000", "120008.683000", "120008.685000", "120008.688000", "120008.690000", "120008.693000", "120008.695000", "120008.698000", "120012.523000", "120012.525000"],
      "InstanceNumber": [1, 2, 3, 4, 5, 6, 7, 8, 9, 10, 11, 12, 13, 14, 15, 16, 17, 18, 19, 20, 21, 22, 23, 24, 25, 26, 27, 28, 29, 30, 31, 32, 33, 34, 35, 36, 37, 38, 39, 40, 41, 42, 43, 44, 45, 46, 47, 48, 49, 50, 51, 52, 53, 54, 55, 56, 57, 58, 59, 60, 61, 62, 63, 64, 65, 66, 67, 68, 69, 70, 71, 72, 73, 74, 75, 76, 77, 78, 79, 80, 81, 82, 83, 84, 85, 86, 87, 88, 89, 90, 91, 92, 93, 94, 95, 96, 97, 98, 99, 100, 101, 102, 103, 104, 105, 106, 107, 108, 109, 110, 111, 112, 113, 114, 115, 116, 117, 118, 119, 120, 121, 122, 123, 124, 125, 126, 127, 128, 129, 130, 131, 132, 133, 134, 135, 136, 137, 138, 139, 140, 141, 142, 143, 144, 145, 146, 147, 148, 149, 150, 151, 152, 153, 154, 155, 156, 157, 158, 159, 160, 161, 162, 163, 164, 165, 166, 167, 168, 169, 170, 171, 172, 173, 174, 175, 176, 177, 178, 179, 180, 181, 182, 183, 184, 185, 186, 187, 188, 189, 190, 191, 192, 193, 194, 195, 196, 197, 198, 199, 200, 201, 202, 203, 204, 205, 206, 207, 208, 209, 210, 211, 212, 213, 214, 215, 216, 217, 218, 219, 220, 221, 222, 223, 224, 225, 226, 227, 228, 229, 230, 231, 232, 233, 234, 235, 236, 237, 238, 239, 240, 241, 242, 243, 244, 245, 246, 247, 248, 249, 250, 251, 252, 253, 254, 255, 256, 257, 258, 259, 260, 261, 262, 263, 264, 265, 266, 267, 268, 269, 270, 271, 272, 273, 274, 275, 276, 277, 278, 279, 280, 281, 282, 283, 284, 285, 286, 287, 288, 289, 290, 291, 292, 293, 294, 295, 296, 297, 298, 299, 300, 301, 302, 303, 304, 305, 306, 307, 308, 309, 310, 311, 312, 313, 314, 315, 316, 317, 318, 319, 320, 321, 322, 323, 324, 325, 326, 327, 328, 329],
      "WindowCenter": [4776.0, 4774.0, 4770.0, 4776.0, 4772.0, 4774.0, 4748.0, 4774.0, 4774.0, 4774.0, 4778.0, 4776.0, 4774.0, 4774.0, 4774.0, 4774.0, 4776.0, 4778.0, 4774.0, 4776.0, 4776.0, 4774.0, 4774.0, 4776.0, 4780.0, 4774.0, 4776.0, 4776.0, 4776.0, 4752.0, 4778.0, 4774.0, 4778.0, 4776.0, 4776.0, 4776.0, 4778.0, 4776.0, 4778.0, 4774.0, 4776.0, 4774.0, 4776.0, 4776.0, 4776.0, 4776.0, 4774.0, 4778.0, 4776.0, 4776.0, 4776.0, 4780.0, 4778.0, 4780.0, 4776.0, 4752.0, 4774.0, 4774.0, 4778.0, 4774.0, 4774.0, 4776.0, 4774.0, 4776.0, 4778.0, 4772.0, 4778.0, 4776.0, 4780.0, 4774.0, 4772.0, 4776.0, 4774.0, 4778.0, 4778.0, 4774.0, 4776.0, 4776.0, 4776.0, 4774.0, 4772.0, 4778.0, 4754.0, 4776.0, 4780.0, 4776.0, 4780.0, 4776.0, 4776.0, 4784.0, 4778.0, 4776.0, 4776.0, 4778.0, 4774.0, 4774.0, 4776.0, 4752.0, 4778.0, 4780.0, 4778.0, 4776.0, 4776.0, 4778.0, 4776.0, 4778.0, 4776.0, 4778.0, 4778.0, 4778.0, 4776.0, 4776.0, 4776.0, 4780.0, 4782.0, 4782.0, 4776.0, 4776.0, 4776.0, 4776.0, 4776.0, 4778.0, 4778.0, 4774.0, 4772.0, 4776.0, 4780.0, 4778.0, 4778.0, 4752.0, 4776.0, 4774.0, 4778.0, 4778.0, 4778.0, 4778.0, 4778.0, 4778.0, 4776.0, 4776.0, 4774.0, 4778.0, 4778.0, 4776.0, 4776.0, 4780.0, 4780.0, 4778.0, 4782.0, 4774.0, 4772.0, 4776.0, 4776.0, 4778.0, 4778.0, 4778.0, 4778.0, 4780.0, 4780.0, 4782.0, 4776.0, 4776.0, 4774.0, 4778.0, 4778.0, 4776.0, 4780.0, 4778.0, 4780.0, 4782.0, 4776.0, 4778.0, 4778.0, 4776.0, 4778.0, 4776.0, 4778.0, 4778.0, 4780.0, 4776.0, 4778.0, 4778.0, 4774.0, 4776.0, 4778.0, 4780.0, 4776.0, 4778.0, 4778.0, 4776.0, 4774.0, 4778.0, 4780.0, 4776.0, 4780.0, 4780.0, 4780.0, 4780.0, 4782.0, 4780.0, 4780.0, 4784.0, 4776.0, 4776.0, 4776.0, 4776.0, 4756.0, 4780.0, 4778.0, 4776.0, 4782.0, 4780.0, 4778.0, 4776.0, 4780.0, 4778.0, 4778.0, 4776.0, 4780.0, 4778.0, 4782.0, 4782.0, 4778.0, 4778.0, 4780.0, 4778.0, 4778.0, 4778.0, 4780.0, 4780.0, 4780.0, 4782.0, 4780.0, 4780.0, 4778.0, 4778.0, 4778.0, 4784.0, 4778.0, 4786.0, 4778.0, 4778.0, 4778.0, 4778.0, 4780.0, 4780.0, 4776.0, 4782.0, 4780.0, 4780.0, 4778.0, 4780.0, 4780.0, 4780.0, 4782.0, 4782.0, 4780.0, 4782.0, 4780.0, 4782.0, 4782.0, 4782.0, 4780.0, 4778.0, 4782.0, 4780.0, 4778.0, 4778.0, 4778.0, 4782.0, 4782.0, 4778.0, 4780.0, 4782.0, 4776.0, 4778.0, 4782.0, 4782.0, 4780.0, 4776.0, 4784.0, 4778.0, 4778.0, 4778.0, 4780.0, 4786.0, 4778.0, 4782.0, 4778.0, 4780.0, 4782.0, 4780.0, 4780.0, 4782.0, 4782.0, 4780.0, 4778.0, 4780.0, 4780.0, 4778.0, 4782.0, 4780.0, 4780.0, 4776.0, 4776.0, 4776.0, 4778.0, 4778.0, 4778.0, 4782.0, 4784.0, 4776.0, 4778.0, 4778.0, 4780.0, 4778.0, 4778.0, 4782.0, 4778.0, 4778.0, 4782.0, 4758.0, 4778.0, 4776.0, 4778.0, 4778.0, 4780.0, 4778.0, 4780.0],
