{
  "AcquisitionMatrixPE": 104,
  "AcquisitionNumber": 1,
  "AcquisitionTime": "11:51:59.967500",
  "BandwidthPerPixelPhaseEncode": 17.17,
  "BaseResolution": 104,
  "BodyPartExamined": "BRAIN",
  "CoilCombinationMethod": "Sum of Squares",
  "ConsistencyInfo": "N4_VE11C_LATEST_20160120",
  "ConversionSoftware": "dcm2niix",
  "ConversionSoftwareVersion": "v1.0.20220505",
  "DerivedVendorReportedEchoSpacing": 0.000560011,
  "DeviceSerialNumber": "167006",
  "DwellTime": 2.1e-06,
  "EchoTime": 0.037,
  "EchoTrainLength": 104,
  "EffectiveEchoSpacing": 0.000560011,
  "FlipAngle": 52,
  "HeudiconvVersion": "0.5.3.post811+g6206e14",
  "ImageComments": "Unaliased MB4/PE3/LB",
  "ImageOrientationPatientDICOM": [0.993334, 0.114646, 0.0119647, -0.100374, 0.911342, -0.399225],
  "ImageOrientationText": "Tra>Cor(-23.3)>Sag(3.2)",
  "ImageType": [
    "ORIGINAL",
    "PRIMARY",
    "M",
    "MB",
    "ND",
    "MOSAIC"
],
  "ImagingFrequency": 123.259,
  "InPlanePhaseEncodingDirectionDICOM": "COL",
  "InstitutionAddress": "Chemin Queen-Mary 4565,Montreal,District,CA,H3W 1W5",
  "InstitutionName": "IUGM",
  "InstitutionalDepartmentName": "Department",
  "MRAcquisitionType": "2D",
  "MagneticFieldStrength": 3,
  "Manufacturer": "Siemens",
  "ManufacturersModelName": "Prisma_fit",
  "MatrixCoilMode": "SENSE",
  "Modality": "MR",
  "MultibandAccelerationFactor": 4,
  "PartialFourier": 1,
  "PatientPosition": "HFS",
  "PercentPhaseFOV": 100,
  "PercentSampling": 100,
  "PhaseEncodingDirection": "j",
  "PhaseEncodingSteps": 104,
  "PhaseResolution": 1,
  "PixelBandwidth": 2290,
  "ProcedureStepDescription": "games^mario3",
  "ProtocolName": "func_task-mario3_run-02",
  "PulseSequenceDetails": "%CustomerSeq%\\cmrr_mbep2d_bold",
  "ReceiveCoilActiveElements": "HC1-7;NC1,2",
  "ReceiveCoilName": "HeadNeck_64",
  "ReconMatrixPE": 104,
  "RepetitionTime": 1.49,
  "SAR": 0.0647014,
  "ScanOptions": "FS",
  "ScanningSequence": "EP",
  "SequenceName": "epfid2d1_104",
  "SequenceVariant": "SK\\SS",
  "SeriesDescription": "func_task-mario3_run-02",
  "SeriesNumber": 13,
  "ShimSetting": [622, -7196, -8815, 629, 86, 26, -82, 9],
  "SliceThickness": 2,
  "SliceTiming": [0, 0.785, 0.0975, 0.8825, 0.195, 0.98, 0.295, 1.0775, 0.3925, 1.175, 0.49, 1.275, 0.5875, 1.3725, 0.685, 0, 0.785, 0.0975, 0.8825, 0.195, 0.98, 0.295, 1.0775, 0.3925, 1.175, 0.49, 1.275, 0.5875, 1.3725, 0.685, 0, 0.785, 0.0975, 0.8825, 0.195, 0.98, 0.295, 1.0775, 0.3925, 1.175, 0.49, 1.275, 0.5875, 1.3725, 0.685, 0, 0.785, 0.0975, 0.8825, 0.195, 0.98, 0.295, 1.0775, 0.3925, 1.175, 0.49, 1.275, 0.5875, 1.3725, 0.685],
  "SoftwareVersions": "syngo MR E11",
  "SpacingBetweenSlices": 2,
  "StationName": "MRC35049",
  "TaskName": "mario3",
  "TotalReadoutTime": 0.0576811,
  "TxRefAmp": 294.962,
  "WipMemBlock": "c9df3d6f-93f1-4d38-b22f-6676d9684027||Sequence: R017 ve11c/master r/75a17815+; Jun 28 2022 16:32:11 by eja",
  "dcmmeta_affine": [
    [-1.9866688251495361, -0.2007475197315216, 0.11334671080112457, 111.6868896484375],
    [-0.2292911410331726, 1.8226839303970337, -0.7907267808914185, -44.587615966796875],
    [0.02392939291894436, 0.798450767993927, 1.8335494995117188, -66.63365936279297],
    [0.0, 0.0, 0.0, 1.0]
],
  "dcmmeta_reorient_transform": [
    [0.0, -1.0, 0.0, 103.0],
    [1.0, 0.0, 0.0, 0.0],
    [0.0, 0.0, 1.0, 0.0],
    [0.0, 0.0, 0.0, 1.0]
],
  "dcmmeta_shape": [104, 104, 60, 329],
  "dcmmeta_slice_dim": 2,
  "dcmmeta_version": 0.6,
  "global": {
    "const": {
      "AcquisitionMatrix": [104, 0, 0, 104],
      "AngioFlag": "N",
      "BitsAllocated": 16,
      "BitsStored": 16,
      "BodyPartExamined": "BRAIN",
      "Columns": 832,
      "EchoNumbers": 1,
      "EchoTime": 37.0,
      "EchoTrainLength": 104,
      "FlipAngle": 52.0,
      "HighBit": 15,
      "ImageOrientationPatient": [0.99333440444827, 0.11464557108336, 0.01196469683545, -0.1003737615898, 0.91134197699904, -0.3992253861465],
      "ImagePositionPatient": [-741.0852446854, -890.06776503507, 297.53255473113],
      "ImageType": [
        "ORIGINAL",
        "PRIMARY",
        "M",
        "MB",
        "ND",
        "MOSAIC"
],
      "ImagedNucleus": "1H",
      "ImagingFrequency": 123.258853,
      "InPlanePhaseEncodingDirection": "COL",
      "MRAcquisitionType": "2D",
      "MagneticFieldStrength": 3.0,
      "Manufacturer": "SIEMENS",
      "ManufacturerModelName": "Prisma_fit",
      "Modality": "MR",
      "NumberOfAverages": 1.0,
      "NumberOfPhaseEncodingSteps": 104,
      "PercentPhaseFieldOfView": 100.0,
      "PercentSampling": 100.0,
      "PerformedProcedureStepStartTime": "113856.692000",
      "PhotometricInterpretation": "MONOCHROME2",
      "PixelBandwidth": 2290.0,
      "PixelRepresentation": 0,
      "PixelSpacing": [2.0, 2.0],
      "ProtocolName": "func_task-mario3_run-02",
      "RepetitionTime": 1490.0,
      "Rows": 832,
      "SAR": 0.06470144297079,
      "SamplesPerPixel": 1,
      "ScanOptions": "FS",
      "ScanningSequence": "EP",
      "SequenceName": "epfid2d1_104",
      "SequenceVariant": [
        "SK",
        "SS"
],
      "SeriesDescription": "func_task-mario3_run-02",
      "SeriesNumber": 13,
      "SeriesTime": "115308.485000",
      "SliceLocation": -37.130072510268,
      "SliceThickness": 2.0,
      "SmallestImagePixelValue": 0,
      "SoftwareVersions": "syngo MR E11",
      "SpacingBetweenSlices": 2.0000000597431,
      "SpecificCharacterSet": "ISO_IR 100",
      "StudyID": "1",
      "StudyTime": "113856.630000",
      "TransmitCoilName": "Body",
      "VariableFlipAngleFlag": "N",
      "WindowCenterWidthExplanation": "Algo1",
      "dBdt": 0.0},
    "slices": {}
  },
  "time": {
    "samples": {
      "AcquisitionNumber": [1, 2, 3, 4, 5, 6, 7, 8, 9, 10, 11, 12, 13, 14, 15, 16, 17, 18, 19, 20, 21, 22, 23, 24, 25, 26, 27, 28, 29, 30, 31, 32, 33, 34, 35, 36, 37, 38, 39, 40, 41, 42, 43, 44, 45, 46, 47, 48, 49, 50, 51, 52, 53, 54, 55, 56, 57, 58, 59, 60, 61, 62, 63, 64, 65, 66, 67, 68, 69, 70, 71, 72, 73, 74, 75, 76, 77, 78, 79, 80, 81, 82, 83, 84, 85, 86, 87, 88, 89, 90, 91, 92, 93, 94, 95, 96, 97, 98, 99, 100, 101, 102, 103, 104, 105, 106, 107, 108, 109, 110, 111, 112, 113, 114, 115, 116, 117, 118, 119, 120, 121, 122, 123, 124, 125, 126, 127, 128, 129, 130, 131, 132, 133, 134, 135, 136, 137, 138, 139, 140, 141, 142, 143, 144, 145, 146, 147, 148, 149, 150, 151, 152, 153, 154, 155, 156, 157, 158, 159, 160, 161, 162, 163, 164, 165, 166, 167, 168, 169, 170, 171, 172, 173, 174, 175, 176, 177, 178, 179, 180, 181, 182, 183, 184, 185, 186, 187, 188, 189, 190, 191, 192, 193, 194, 195, 196, 197, 198, 199, 200, 201, 202, 203, 204, 205, 206, 207, 208, 209, 210, 211, 212, 213, 214, 215, 216, 217, 218, 219, 220, 221, 222, 223, 224, 225, 226, 227, 228, 229, 230, 231, 232, 233, 234, 235, 236, 237, 238, 239, 240, 241, 242, 243, 244, 245, 246, 247, 248, 249, 250, 251, 252, 253, 254, 255, 256, 257, 258, 259, 260, 261, 262, 263, 264, 265, 266, 267, 268, 269, 270, 271, 272, 273, 274, 275, 276, 277, 278, 279, 280, 281, 282, 283, 284, 285, 286, 287, 288, 289, 290, 291, 292, 293, 294, 295, 296, 297, 298, 299, 300, 301, 302, 303, 304, 305, 306, 307, 308, 309, 310, 311, 312, 313, 314, 315, 316, 317, 318, 319, 320, 321, 322, 323, 324, 325, 326, 327, 328, 329],
      "AcquisitionTime": ["115159.967500", "115201.457500", "115202.947500", "115204.437500", "115205.927500", "115207.417500", "115208.907500", "115210.397500", "115211.887500", "115213.377500", "115214.867500", "115216.357500", "115217.847500", "115219.337500", "115220.827500", "115222.317500", "115223.807500", "115225.297500", "115226.787500", "115228.277500", "115229.767500", "115231.257500", "115232.747500", "115234.237500", "115235.727500", "115237.217500", "115238.707500", "115240.197500", "115241.687500", "115243.177500", "115244.667500", "115246.157500", "115247.647500", "115249.137500", "115250.627500", "115252.117500", "115253.607500", "115255.097500", "115256.587500", "115258.077500", "115259.567500", "115301.057500", "115302.547500", "115304.037500", "115305.527500", "115307.017500", "115308.507500", "115309.997500", "115311.487500", "115312.977500", "115314.467500", "115315.957500", "115317.447500", "115318.937500", "115320.427500", "115321.917500", "115323.407500", "115324.897500", "115326.387500", "115327.877500", "115329.367500", "115330.857500", "115332.347500", "115333.837500", "115335.327500", "115336.817500", "115338.307500", "115339.797500", "115341.287500", "115342.777500", "115344.267500", "115345.757500", "115347.247500", "115348.737500", "115350.227500", "115351.717500", "115353.207500", "115354.697500", "115356.187500", "115357.677500", "115359.167500", "115400.657500", "115402.147500", "115403.637500", "115405.127500", "115406.617500", "115408.107500", "115409.597500", "115411.087500", "115412.577500", "115414.067500", "115415.557500", "115417.047500", "115418.537500", "115420.027500", "115421.517500", "115423.007500", "115424.497500", "115425.987500", "115427.477500", "115428.967500", "115430.457500", "115431.947500", "115433.437500", "115434.927500", "115436.417500", "115437.907500", "115439.397500", "115440.887500", "115442.377500", "115443.867500", "115445.357500", "115446.847500", "115448.337500", "115449.827500", "115451.317500", "115452.807500", "115454.297500", "115455.787500", "115457.277500", "115458.767500", "115500.257500", "115501.747500", "115503.237500", "115504.727500", "115506.217500", "115507.707500", "115509.197500", "115510.687500", "115512.177500", "115513.667500", "115515.157500", "115516.647500", "115518.137500", "115519.627500", "115521.117500", "115522.607500", "115524.097500", "115525.587500", "115527.077500", "115528.567500", "115530.057500", "115531.547500", "115533.037500", "115534.527500", "115536.017500", "115537.507500", "115538.997500", "115540.487500", "115541.977500", "115543.467500", "115544.957500", "115546.447500", "115547.937500", "115549.427500", "115550.917500", "115552.407500", "115553.897500", "115555.387500", "115556.877500", "115558.367500", "115559.857500", "115601.347500", "115602.837500", "115604.327500", "115605.817500", "115607.307500", "115608.797500", "115610.287500", "115611.777500", "115613.267500", "115614.757500", "115616.247500", "115617.737500", "115619.227500", "115620.717500", "115622.207500", "115623.697500", "115625.187500", "115626.677500", "115628.167500", "115629.657500", "115631.147500", "115632.637500", "115634.127500", "115635.617500", "115637.107500", "115638.597500", "115640.087500", "115641.577500", "115643.067500", "115644.557500", "115646.047500", "115647.537500", "115649.027500", "115650.517500", "115652.007500", "115653.497500", "115654.987500", "115656.477500", "115657.967500", "115659.457500", "115700.947500", "115702.437500", "115703.927500", "115705.417500", "115706.907500", "115708.397500", "115709.887500", "115711.377500", "115712.867500", "115714.357500", "115715.847500", "115717.337500", "115718.827500", "115720.317500", "115721.807500", "115723.297500", "115724.787500", "115726.277500", "115727.767500", "115729.257500", "115730.747500", "115732.237500", "115733.727500", "115735.217500", "115736.707500", "115738.197500", "115739.687500", "115741.177500", "115742.667500", "115744.157500", "115745.647500", "115747.137500", "115748.627500", "115750.117500", "115751.607500", "115753.097500", "115754.587500", "115756.077500", "115757.567500", "115759.057500", "115800.547500", "115802.037500", "115803.527500", "115805.017500", "115806.507500", "115807.997500", "115809.487500", "115810.977500", "115812.467500", "115813.957500", "115815.447500", "115816.937500", "115818.427500", "115819.917500", "115821.407500", "115822.897500", "115824.387500", "115825.877500", "115827.367500", "115828.857500", "115830.347500", "115831.837500", "115833.327500", "115834.817500", "115836.307500", "115837.797500", "115839.287500", "115840.777500", "115842.267500", "115843.757500", "115845.247500", "115846.737500", "115848.227500", "115849.717500", "115851.207500", "115852.697500", "115854.187500", "115855.677500", "115857.167500", "115858.657500", "115900.147500", "115901.637500", "115903.127500", "115904.617500", "115906.107500", "115907.597500", "115909.087500", "115910.577500", "115912.067500", "115913.557500", "115915.047500", "115916.537500", "115918.027500", "115919.517500", "115921.007500", "115922.497500", "115923.987500", "115925.477500", "115926.967500", "115928.457500", "115929.947500", "115931.437500", "115932.927500", "115934.417500", "115935.907500", "115937.397500", "115938.887500", "115940.377500", "115941.867500", "115943.357500", "115944.847500", "115946.337500", "115947.827500", "115949.317500", "115950.807500", "115952.297500", "115953.787500", "115955.277500", "115956.767500", "115958.257500", "115959.747500", "120001.237500", "120002.727500", "120004.217500", "120005.707500", "120007.197500", "120008.687500"],
      "ContentTime": ["115308.488000", "115308.492000", "115308.495000", "115308.498000", "115308.501000", "115308.505000", "115308.508000", "115308.511000", "115308.515000", "115308.518000", "115308.521000", "115308.525000", "115308.528000", "115308.531000", "115308.534000", "115308.538000", "115308.541000", "115308.544000", "115308.547000", "115308.551000", "115328.486000", "115328.490000", "115328.493000", "115328.496000", "115328.500000", "115328.503000", "115328.506000", "115328.509000", "115328.513000", "115328.516000", "115328.519000", "115328.522000", "115328.526000", "115328.529000", "115328.532000", "115328.536000", "115328.539000", "115328.542000", "115328.545000", "115328.549000", "115348.486000", "115348.490000", "115348.493000", "115348.496000", "115348.499000", "115348.503000", "115348.506000", "115348.509000", "115348.512000", "115348.516000", "115348.519000", "115348.522000", "115348.526000", "115348.529000", "115348.532000", "115348.535000", "115348.539000", "115348.549000", "115348.552000", "115348.556000", "115408.485000", "115408.489000", "115408.492000", "115408.495000", "115408.521000", "115408.524000", "115408.528000", "115408.531000", "115408.534000", "115408.538000", "115408.541000", "115408.545000", "115408.548000", "115408.551000", "115408.554000", "115408.558000", "115408.561000", "115408.573000", "115408.577000", "115408.580000", "115448.486000", "115448.490000", "115448.493000", "115448.496000", "115448.500000", "115448.503000", "115448.506000", "115448.509000", "115448.513000", "115448.516000", "115448.519000", "115448.523000", "115448.526000", "115448.529000", "115448.532000", "115448.536000", "115448.539000", "115448.542000", "115448.546000", "115448.549000", "115448.552000", "115448.556000", "115448.559000", "115448.562000", "115448.565000", "115448.569000", "115448.572000", "115448.575000", "115448.579000", "115448.587000", "115448.591000", "115448.594000", "115528.486000", "115528.490000", "115528.493000", "115528.496000", "115528.500000", "115528.503000", "115528.506000", "115528.510000", "115528.513000", "115528.516000", "115528.519000", "115528.523000", "115528.526000", "115528.529000", "115528.533000", "115528.536000", "115528.539000", "115528.542000", "115528.546000", "115528.549000", "115528.552000", "115528.556000", "115528.559000", "115528.562000", "115528.566000", "115528.569000", "115528.572000", "115608.486000", "115608.490000", "115608.493000", "115608.497000", "115608.500000", "115608.503000", "115608.506000", "115608.510000", "115608.513000", "115608.516000", "115608.520000", "115608.523000", "115608.526000", "115608.530000", "115608.533000", "115608.536000", "115608.539000", "115608.543000", "115608.556000", "115608.559000", "115608.562000", "115608.566000", "115608.569000", "115608.572000", "115608.576000", "115608.584000", "115608.587000", "115648.486000", "115648.490000", "115648.493000", "115648.497000", "115648.500000", "115648.503000", "115648.506000", "115648.510000", "115648.513000", "115648.516000", "115648.520000", "115648.524000", "115648.528000", "115648.532000", "115648.536000", "115648.540000", "115648.543000", "115648.547000", "115648.551000", "115648.555000", "115648.558000", "115648.562000", "115648.582000", "115648.585000", "115648.589000", "115648.592000", "115728.486000", "115728.490000", "115728.493000", "115728.497000", "115728.500000", "115728.503000", "115728.507000", "115728.510000", "115728.513000", "115728.517000", "115728.520000", "115728.523000", "115728.527000", "115728.530000", "115728.533000", "115728.536000", "115728.540000", "115728.543000", "115728.546000", "115728.550000", "115728.553000", "115728.556000", "115728.560000", "115728.563000", "115728.566000", "115728.570000", "115728.573000", "115808.486000", "115808.490000", "115808.504000", "115808.507000", "115808.510000", "115808.513000", "115808.517000", "115808.520000", "115808.523000", "115808.527000", "115808.530000", "115808.533000", "115808.536000", "115808.540000", "115808.543000", "115808.546000", "115808.550000", "115808.553000", "115808.556000", "115808.559000", "115808.563000", "115808.566000", "115808.569000", "115808.573000", "115808.576000", "115808.579000", "115808.583000", "115848.486000", "115848.490000", "115848.493000", "115848.497000", "115848.500000", "115848.503000", "115848.507000", "115848.525000", "115848.529000", "115848.532000", "115848.535000", "115848.538000", "115848.542000", "115848.545000", "115848.548000", "115848.552000", "115848.555000", "115848.558000", "115848.562000", "115848.565000", "115848.568000", "115848.572000", "115848.575000", "115848.578000", "115848.582000", "115848.585000", "115848.588000", "115928.486000", "115928.490000", "115928.493000", "115928.497000", "115928.500000", "115928.503000", "115928.507000", "115928.510000", "115928.513000", "115928.517000", "115928.520000", "115928.523000", "115928.526000", "115928.530000", "115928.533000", "115928.536000", "115928.540000", "115928.543000", "115928.546000", "115928.550000", "115928.553000", "115928.556000", "115928.560000", "115928.563000", "115928.566000", "115928.569000", "115928.573000", "120008.486000", "120008.490000", "120008.493000", "120008.497000", "120008.500000", "120008.503000", "120008.507000", "120008.510000", "120008.513000", "120008.516000", "120008.520000", "120008.523000", "120008.526000", "120008.530000", "120008.533000", "120008.536000", "120008.539000", "120008.543000", "120008.546000", "120008.549000", "120008.553000", "120008.556000", "120008.559000", "120008.563000", "120008.566000", "120008.569000", "120008.573000", "120012.483000", "120012.487000"],
      "InstanceCreationTime": ["115308.488000", "115308.492000", "115308.495000", "115308.498000", "115308.501000", "115308.505000", "115308.508000", "115308.511000", "115308.515000", "115308.518000", "115308.521000", "115308.525000", "115308.528000", "115308.531000", "115308.534000", "115308.538000", "115308.541000", "115308.544000", "115308.547000", "115308.551000", "115328.486000", "115328.490000", "115328.493000", "115328.496000", "115328.500000", "115328.503000", "115328.506000", "115328.509000", "115328.513000", "115328.516000", "115328.519000", "115328.522000", "115328.526000", "115328.529000", "115328.532000", "115328.536000", "115328.539000", "115328.542000", "115328.545000", "115328.549000", "115348.486000", "115348.490000", "115348.493000", "115348.496000", "115348.499000", "115348.503000", "115348.506000", "115348.509000", "115348.512000", "115348.516000", "115348.519000", "115348.522000", "115348.526000", "115348.529000", "115348.532000", "115348.535000", "115348.539000", "115348.549000", "115348.552000", "115348.556000", "115408.485000", "115408.489000", "115408.492000", "115408.495000", "115408.521000", "115408.524000", "115408.528000", "115408.531000", "115408.534000", "115408.538000", "115408.541000", "115408.545000", "115408.548000", "115408.551000", "115408.554000", "115408.558000", "115408.561000", "115408.573000", "115408.577000", "115408.580000", "115448.486000", "115448.490000", "115448.493000", "115448.496000", "115448.500000", "115448.503000", "115448.506000", "115448.509000", "115448.513000", "115448.516000", "115448.519000", "115448.523000", "115448.526000", "115448.529000", "115448.532000", "115448.536000", "115448.539000", "115448.542000", "115448.546000", "115448.549000", "115448.552000", "115448.556000", "115448.559000", "115448.562000", "115448.565000", "115448.569000", "115448.572000", "115448.575000", "115448.579000", "115448.587000", "115448.591000", "115448.594000", "115528.486000", "115528.490000", "115528.493000", "115528.496000", "115528.500000", "115528.503000", "115528.506000", "115528.510000", "115528.513000", "115528.516000", "115528.519000", "115528.523000", "115528.526000", "115528.529000", "115528.533000", "115528.536000", "115528.539000", "115528.542000", "115528.546000", "115528.549000", "115528.552000", "115528.556000", "115528.559000", "115528.562000", "115528.566000", "115528.569000", "115528.572000", "115608.486000", "115608.490000", "115608.493000", "115608.497000", "115608.500000", "115608.503000", "115608.506000", "115608.510000", "115608.513000", "115608.516000", "115608.520000", "115608.523000", "115608.526000", "115608.530000", "115608.533000", "115608.536000", "115608.539000", "115608.543000", "115608.556000", "115608.559000", "115608.562000", "115608.566000", "115608.569000", "115608.572000", "115608.576000", "115608.584000", "115608.587000", "115648.486000", "115648.490000", "115648.493000", "115648.497000", "115648.500000", "115648.503000", "115648.506000", "115648.510000", "115648.513000", "115648.516000", "115648.520000", "115648.524000", "115648.528000", "115648.532000", "115648.536000", "115648.540000", "115648.543000", "115648.547000", "115648.551000", "115648.555000", "115648.558000", "115648.562000", "115648.582000", "115648.585000", "115648.589000", "115648.592000", "115728.486000", "115728.490000", "115728.493000", "115728.497000", "115728.500000", "115728.503000", "115728.507000", "115728.510000", "115728.513000", "115728.517000", "115728.520000", "115728.523000", "115728.527000", "115728.530000", "115728.533000", "115728.536000", "115728.540000", "115728.543000", "115728.546000", "115728.550000", "115728.553000", "115728.556000", "115728.560000", "115728.563000", "115728.566000", "115728.570000", "115728.573000", "115808.486000", "115808.490000", "115808.504000", "115808.507000", "115808.510000", "115808.513000", "115808.517000", "115808.520000", "115808.523000", "115808.527000", "115808.530000", "115808.533000", "115808.536000", "115808.540000", "115808.543000", "115808.546000", "115808.550000", "115808.553000", "115808.556000", "115808.559000", "115808.563000", "115808.566000", "115808.569000", "115808.573000", "115808.576000", "115808.579000", "115808.583000", "115848.486000", "115848.490000", "115848.493000", "115848.497000", "115848.500000", "115848.503000", "115848.507000", "115848.525000", "115848.529000", "115848.532000", "115848.535000", "115848.538000", "115848.542000", "115848.545000", "115848.548000", "115848.552000", "115848.555000", "115848.558000", "115848.562000", "115848.565000", "115848.568000", "115848.572000", "115848.575000", "115848.578000", "115848.582000", "115848.585000", "115848.588000", "115928.486000", "115928.490000", "115928.493000", "115928.497000", "115928.500000", "115928.503000", "115928.507000", "115928.510000", "115928.513000", "115928.517000", "115928.520000", "115928.523000", "115928.526000", "115928.530000", "115928.533000", "115928.536000", "115928.540000", "115928.543000", "115928.546000", "115928.550000", "115928.553000", "115928.556000", "115928.560000", "115928.563000", "115928.566000", "115928.569000", "115928.573000", "120008.486000", "120008.490000", "120008.493000", "120008.497000", "120008.500000", "120008.503000", "120008.507000", "120008.510000", "120008.513000", "120008.516000", "120008.520000", "120008.523000", "120008.526000", "120008.530000", "120008.533000", "120008.536000", "120008.539000", "120008.543000", "120008.546000", "120008.549000", "120008.553000", "120008.556000", "120008.559000", "120008.563000", "120008.566000", "120008.569000", "120008.573000", "120012.483000", "120012.487000"],
      "InstanceNumber": [1, 2, 3, 4, 5, 6, 7, 8, 9, 10, 11, 12, 13, 14, 15, 16, 17, 18, 19, 20, 21, 22, 23, 24, 25, 26, 27, 28, 29, 30, 31, 32, 33, 34, 35, 36, 37, 38, 39, 40, 41, 42, 43, 44, 45, 46, 47, 48, 49, 50, 51, 52, 53, 54, 55, 56, 57, 58, 59, 60, 61, 62, 63, 64, 65, 66, 67, 68, 69, 70, 71, 72, 73, 74, 75, 76, 77, 78, 79, 80, 81, 82, 83, 84, 85, 86, 87, 88, 89, 90, 91, 92, 93, 94, 95, 96, 97, 98, 99, 100, 101, 102, 103, 104, 105, 106, 107, 108, 109, 110, 111, 112, 113, 114, 115, 116, 117, 118, 119, 120, 121, 122, 123, 124, 125, 126, 127, 128, 129, 130, 131, 132, 133, 134, 135, 136, 137, 138, 139, 140, 141, 142, 143, 144, 145, 146, 147, 148, 149, 150, 151, 152, 153, 154, 155, 156, 157, 158, 159, 160, 161, 162, 163, 164, 165, 166, 167, 168, 169, 170, 171, 172, 173, 174, 175, 176, 177, 178, 179, 180, 181, 182, 183, 184, 185, 186, 187, 188, 189, 190, 191, 192, 193, 194, 195, 196, 197, 198, 199, 200, 201, 202, 203, 204, 205, 206, 207, 208, 209, 210, 211, 212, 213, 214, 215, 216, 217, 218, 219, 220, 221, 222, 223, 224, 225, 226, 227, 228, 229, 230, 231, 232, 233, 234, 235, 236, 237, 238, 239, 240, 241, 242, 243, 244, 245, 246, 247, 248, 249, 250, 251, 252, 253, 254, 255, 256, 257, 258, 259, 260, 261, 262, 263, 264, 265, 266, 267, 268, 269, 270, 271, 272, 273, 274, 275, 276, 277, 278, 279, 280, 281, 282, 283, 284, 285, 286, 287, 288, 289, 290, 291, 292, 293, 294, 295, 296, 297, 298, 299, 300, 301, 302, 303, 304, 305, 306, 307, 308, 309, 310, 311, 312, 313, 314, 315, 316, 317, 318, 319, 320, 321, 322, 323, 324, 325, 326, 327, 328, 329],
      "LargestImagePixelValue": [44201, 43446, 42322, 40576, 41884, 42066, 40970, 42108, 41554, 40901, 41461, 40359, 40919, 40292, 39304, 39436, 39156, 39382, 39872, 39279, 39450, 38689, 39772, 39956, 38695, 39326, 38833, 38815, 38477, 39716, 39260, 39596, 39281, 41444, 40702, 40376, 40796, 39744, 40824, 39780, 40168, 40651, 38789, 41158, 41255, 40575, 41477, 40359, 40472, 41704, 41371, 41183, 41769, 40709, 40991, 40235, 40575, 41528, 39802, 41637, 40876, 40819, 42016, 40694, 41437, 41670, 40689, 41418, 40917, 41406, 41945, 39815, 41562, 41487, 40434, 41119, 40191, 40591, 40178, 40579, 40965, 39813, 41085, 41073, 40444, 41212, 40725, 39944, 40413, 39530, 39529, 40372, 38791, 40152, 39321, 38396, 39888, 38870, 39785, 39246, 39563, 39800, 38339, 39535, 38303, 38713, 38330, 38605, 38403, 38447, 38509, 37705, 38443, 38031, 37730, 38453, 39006, 38301, 38442, 38341, 38335, 38150, 38142, 38509, 38134, 38406, 39087, 39222, 39990, 38975, 39600, 39382, 38410, 39309, 41171, 39395, 39580, 38747, 39552, 40002, 38667, 40846, 40735, 39970, 40569, 39486, 44968, 38270, 38389, 40551, 40310, 38947, 40210, 40343, 39819, 40627, 39458, 40308, 40038, 39986, 41138, 40544, 41016, 40310, 40767, 40973, 39720, 40274, 39270, 40067, 40725, 39408, 40629, 39669, 40221, 39372, 40340, 41063, 40805, 41227, 38971, 39520, 40335, 38115, 39515, 38783, 39381, 38634, 39397, 38171, 39891, 39443, 40047, 39973, 39222, 39355, 39023, 39972, 39672, 40218, 39042, 38900, 39912, 39733, 37891, 38820, 39042, 42524, 38279, 38502, 38101, 39212, 39938, 39040, 40503, 39699, 39086, 39595, 39101, 39655, 39529, 39856, 40178, 41028, 41131, 40096, 40098, 39429, 39445, 39763, 40870, 40465, 40545, 40517, 39506, 39708, 39696, 39960, 40870, 40410, 40304, 39455, 39948, 41937, 40428, 40987, 41241, 39899, 41506, 40434, 41563, 41849, 41031, 41462, 40466, 41150, 40551, 40554, 40151, 40233, 40293, 40782, 41370, 40064, 40189, 39440, 39961, 39491, 41047, 41635, 40172, 41129, 41733, 40600, 40518, 43888, 40025, 39874, 40899, 39824, 39632, 40391, 39553, 40088, 39410, 40814, 41200, 39571, 40820, 40374, 39592, 41809, 41410, 41474, 38922, 39640, 40042, 39730, 39489, 38382, 39571, 40201, 40854, 39852, 39841, 40115, 39470, 40928, 40516, 39397, 40164, 39921, 41263, 40153, 40276, 40725, 39377, 40042, 39393, 39414, 40293, 40716, 40093, 39996, 40004, 40377, 39849, 39204, 39710],
