{
  "AcquisitionMatrixPE": 104,
  "AcquisitionNumber": 1,
  "AcquisitionTime": "11:42:55.272500",
  "BandwidthPerPixelPhaseEncode": 17.17,
  "BaseResolution": 104,
  "BodyPartExamined": "BRAIN",
  "CoilCombinationMethod": "Sum of Squares",
  "ConsistencyInfo": "N4_VE11C_LATEST_20160120",
  "ConversionSoftware": "dcm2niix",
  "ConversionSoftwareVersion": "v1.0.20220505",
  "DerivedVendorReportedEchoSpacing": 0.000560011,
  "DeviceSerialNumber": "167006",
  "DwellTime": 2.1e-06,
  "EchoTime": 0.037,
  "EchoTrainLength": 104,
  "EffectiveEchoSpacing": 0.000560011,
  "FlipAngle": 52,
  "HeudiconvVersion": "0.5.3.post811+g6206e14",
  "ImageComments": "Unaliased MB4/PE3/LB",
  "ImageOrientationPatientDICOM": [0.993334, 0.114646, 0.0119647, -0.100374, 0.911342, -0.399225],
  "ImageOrientationText": "Tra>Cor(-23.3)>Sag(3.2)",
  "ImageType": [
    "ORIGINAL",
    "PRIMARY",
    "M",
    "MB",
    "ND",
    "MOSAIC"
],
  "ImagingFrequency": 123.259,
  "InPlanePhaseEncodingDirectionDICOM": "COL",
  "InstitutionAddress": "Chemin Queen-Mary 4565,Montreal,District,CA,H3W 1W5",
  "InstitutionName": "IUGM",
  "InstitutionalDepartmentName": "Department",
  "MRAcquisitionType": "2D",
  "MagneticFieldStrength": 3,
  "Manufacturer": "Siemens",
  "ManufacturersModelName": "Prisma_fit",
  "MatrixCoilMode": "SENSE",
  "Modality": "MR",
  "MultibandAccelerationFactor": 4,
  "PartialFourier": 1,
  "PatientPosition": "HFS",
  "PercentPhaseFOV": 100,
  "PercentSampling": 100,
  "PhaseEncodingDirection": "j",
  "PhaseEncodingSteps": 104,
  "PhaseResolution": 1,
  "PixelBandwidth": 2290,
  "ProcedureStepDescription": "games^mario3",
  "ProtocolName": "func_task-mario3_run-01",
  "PulseSequenceDetails": "%CustomerSeq%\\cmrr_mbep2d_bold",
  "ReceiveCoilActiveElements": "HC1-7;NC1,2",
  "ReceiveCoilName": "HeadNeck_64",
  "ReconMatrixPE": 104,
  "RepetitionTime": 1.49,
  "SAR": 0.0647014,
  "ScanOptions": "FS",
  "ScanningSequence": "EP",
  "SequenceName": "epfid2d1_104",
  "SequenceVariant": "SK\\SS",
  "SeriesDescription": "func_task-mario3_run-01",
  "SeriesNumber": 10,
  "ShimSetting": [622, -7196, -8815, 629, 86, 26, -82, 9],
  "SliceThickness": 2,
  "SliceTiming": [0, 0.7825, 0.0975, 0.88, 0.195, 0.98, 0.2925, 1.0775, 0.39, 1.175, 0.49, 1.2725, 0.5875, 1.37, 0.685, 0, 0.7825, 0.0975, 0.88, 0.195, 0.98, 0.2925, 1.0775, 0.39, 1.175, 0.49, 1.2725, 0.5875, 1.37, 0.685, 0, 0.7825, 0.0975, 0.88, 0.195, 0.98, 0.2925, 1.0775, 0.39, 1.175, 0.49, 1.2725, 0.5875, 1.37, 0.685, 0, 0.7825, 0.0975, 0.88, 0.195, 0.98, 0.2925, 1.0775, 0.39, 1.175, 0.49, 1.2725, 0.5875, 1.37, 0.685],
  "SoftwareVersions": "syngo MR E11",
  "SpacingBetweenSlices": 2,
  "StationName": "MRC35049",
  "TaskName": "mario3",
  "TotalReadoutTime": 0.0576811,
  "TxRefAmp": 294.962,
  "WipMemBlock": "1c047bb1-5073-40dc-96af-0a796684c9f9||Sequence: R017 ve11c/master r/75a17815+; Jun 28 2022 16:32:11 by eja",
  "dcmmeta_affine": [
    [-1.9866688251495361, -0.2007475197315216, 0.11334671080112457, 111.6868896484375],
    [-0.2292911410331726, 1.8226839303970337, -0.7907267808914185, -44.587615966796875],
    [0.02392939291894436, 0.798450767993927, 1.8335494995117188, -66.63365936279297],
    [0.0, 0.0, 0.0, 1.0]
],
  "dcmmeta_reorient_transform": [
    [0.0, -1.0, 0.0, 103.0],
    [1.0, 0.0, 0.0, 0.0],
    [0.0, 0.0, 1.0, 0.0],
    [0.0, 0.0, 0.0, 1.0]
],
  "dcmmeta_shape": [104, 104, 60, 306],
  "dcmmeta_slice_dim": 2,
  "dcmmeta_version": 0.6,
  "global": {
    "const": {
      "AcquisitionMatrix": [104, 0, 0, 104],
      "AngioFlag": "N",
      "BitsAllocated": 16,
      "BitsStored": 16,
      "BodyPartExamined": "BRAIN",
      "Columns": 832,
      "EchoNumbers": 1,
      "EchoTime": 37.0,
      "EchoTrainLength": 104,
      "FlipAngle": 52.0,
      "HighBit": 15,
      "ImageOrientationPatient": [0.99333440444827, 0.11464557108336, 0.01196469683545, -0.1003737615898, 0.91134197699904, -0.3992253861465],
      "ImagePositionPatient": [-741.0852446854, -890.06776503507, 297.53255473113],
      "ImageType": [
        "ORIGINAL",
        "PRIMARY",
        "M",
        "MB",
        "ND",
        "MOSAIC"
],
      "ImagedNucleus": "1H",
      "ImagingFrequency": 123.258848,
      "InPlanePhaseEncodingDirection": "COL",
      "MRAcquisitionType": "2D",
      "MagneticFieldStrength": 3.0,
      "Manufacturer": "SIEMENS",
      "ManufacturerModelName": "Prisma_fit",
      "Modality": "MR",
      "NumberOfAverages": 1.0,
      "NumberOfPhaseEncodingSteps": 104,
      "PercentPhaseFieldOfView": 100.0,
      "PercentSampling": 100.0,
      "PerformedProcedureStepStartTime": "113856.692000",
      "PhotometricInterpretation": "MONOCHROME2",
      "PixelBandwidth": 2290.0,
      "PixelRepresentation": 0,
      "PixelSpacing": [2.0, 2.0],
      "ProtocolName": "func_task-mario3_run-01",
      "RepetitionTime": 1490.0,
      "Rows": 832,
      "SAR": 0.06470144297079,
      "SamplesPerPixel": 1,
      "ScanOptions": "FS",
      "ScanningSequence": "EP",
      "SequenceName": "epfid2d1_104",
      "SequenceVariant": [
        "SK",
        "SS"
],
      "SeriesDescription": "func_task-mario3_run-01",
      "SeriesNumber": 10,
      "SeriesTime": "114400.668000",
      "SliceLocation": -37.130072510268,
      "SliceThickness": 2.0,
      "SmallestImagePixelValue": 0,
      "SoftwareVersions": "syngo MR E11",
      "SpacingBetweenSlices": 2.0000000597431,
      "SpecificCharacterSet": "ISO_IR 100",
      "StudyID": "1",
      "StudyTime": "113856.630000",
      "TransmitCoilName": "Body",
      "VariableFlipAngleFlag": "N",
      "WindowCenterWidthExplanation": "Algo1",
      "dBdt": 0.0},
    "slices": {}
  },
  "time": {
    "samples": {
      "AcquisitionNumber": [1, 2, 3, 4, 5, 6, 7, 8, 9, 10, 11, 12, 13, 14, 15, 16, 17, 18, 19, 20, 21, 22, 23, 24, 25, 26, 27, 28, 29, 30, 31, 32, 33, 34, 35, 36, 37, 38, 39, 40, 41, 42, 43, 44, 45, 46, 47, 48, 49, 50, 51, 52, 53, 54, 55, 56, 57, 58, 59, 60, 61, 62, 63, 64, 65, 66, 67, 68, 69, 70, 71, 72, 73, 74, 75, 76, 77, 78, 79, 80, 81, 82, 83, 84, 85, 86, 87, 88, 89, 90, 91, 92, 93, 94, 95, 96, 97, 98, 99, 100, 101, 102, 103, 104, 105, 106, 107, 108, 109, 110, 111, 112, 113, 114, 115, 116, 117, 118, 119, 120, 121, 122, 123, 124, 125, 126, 127, 128, 129, 130, 131, 132, 133, 134, 135, 136, 137, 138, 139, 140, 141, 142, 143, 144, 145, 146, 147, 148, 149, 150, 151, 152, 153, 154, 155, 156, 157, 158, 159, 160, 161, 162, 163, 164, 165, 166, 167, 168, 169, 170, 171, 172, 173, 174, 175, 176, 177, 178, 179, 180, 181, 182, 183, 184, 185, 186, 187, 188, 189, 190, 191, 192, 193, 194, 195, 196, 197, 198, 199, 200, 201, 202, 203, 204, 205, 206, 207, 208, 209, 210, 211, 212, 213, 214, 215, 216, 217, 218, 219, 220, 221, 222, 223, 224, 225, 226, 227, 228, 229, 230, 231, 232, 233, 234, 235, 236, 237, 238, 239, 240, 241, 242, 243, 244, 245, 246, 247, 248, 249, 250, 251, 252, 253, 254, 255, 256, 257, 258, 259, 260, 261, 262, 263, 264, 265, 266, 267, 268, 269, 270, 271, 272, 273, 274, 275, 276, 277, 278, 279, 280, 281, 282, 283, 284, 285, 286, 287, 288, 289, 290, 291, 292, 293, 294, 295, 296, 297, 298, 299, 300, 301, 302, 303, 304, 305, 306],
      "AcquisitionTime": ["114255.272500", "114256.762500", "114258.252500", "114259.742500", "114301.232500", "114302.722500", "114304.212500", "114305.702500", "114307.192500", "114308.682500", "114310.172500", "114311.662500", "114313.152500", "114314.642500", "114316.132500", "114317.622500", "114319.112500", "114320.602500", "114322.092500", "114323.582500", "114325.072500", "114326.562500", "114328.052500", "114329.542500", "114331.032500", "114332.522500", "114334.012500", "114335.502500", "114336.992500", "114338.482500", "114339.972500", "114341.462500", "114342.952500", "114344.442500", "114345.932500", "114347.422500", "114348.912500", "114350.402500", "114351.892500", "114353.382500", "114354.872500", "114356.362500", "114357.852500", "114359.342500", "114400.832500", "114402.322500", "114403.812500", "114405.302500", "114406.792500", "114408.282500", "114409.772500", "114411.262500", "114412.752500", "114414.242500", "114415.732500", "114417.222500", "114418.712500", "114420.202500", "114421.692500", "114423.182500", "114424.672500", "114426.162500", "114427.652500", "114429.142500", "114430.632500", "114432.122500", "114433.612500", "114435.102500", "114436.592500", "114438.082500", "114439.572500", "114441.062500", "114442.552500", "114444.042500", "114445.532500", "114447.022500", "114448.512500", "114450.002500", "114451.492500", "114452.982500", "114454.472500", "114455.962500", "114457.452500", "114458.942500", "114500.432500", "114501.922500", "114503.412500", "114504.902500", "114506.392500", "114507.882500", "114509.372500", "114510.862500", "114512.352500", "114513.842500", "114515.332500", "114516.822500", "114518.312500", "114519.802500", "114521.292500", "114522.782500", "114524.272500", "114525.762500", "114527.252500", "114528.742500", "114530.232500", "114531.722500", "114533.212500", "114534.702500", "114536.192500", "114537.682500", "114539.172500", "114540.662500", "114542.152500", "114543.642500", "114545.132500", "114546.622500", "114548.112500", "114549.602500", "114551.092500", "114552.582500", "114554.072500", "114555.562500", "114557.052500", "114558.542500", "114600.032500", "114601.522500", "114603.012500", "114604.502500", "114605.992500", "114607.482500", "114608.972500", "114610.462500", "114611.952500", "114613.442500", "114614.932500", "114616.422500", "114617.912500", "114619.402500", "114620.892500", "114622.382500", "114623.872500", "114625.362500", "114626.852500", "114628.342500", "114629.832500", "114631.322500", "114632.812500", "114634.302500", "114635.792500", "114637.282500", "114638.772500", "114640.262500", "114641.752500", "114643.242500", "114644.732500", "114646.222500", "114647.712500", "114649.202500", "114650.692500", "114652.182500", "114653.672500", "114655.162500", "114656.652500", "114658.142500", "114659.632500", "114701.122500", "114702.612500", "114704.102500", "114705.592500", "114707.082500", "114708.572500", "114710.062500", "114711.552500", "114713.042500", "114714.532500", "114716.022500", "114717.512500", "114719.002500", "114720.492500", "114721.982500", "114723.472500", "114724.962500", "114726.452500", "114727.942500", "114729.432500", "114730.922500", "114732.412500", "114733.902500", "114735.392500", "114736.882500", "114738.372500", "114739.862500", "114741.352500", "114742.842500", "114744.332500", "114745.822500", "114747.312500", "114748.802500", "114750.292500", "114751.782500", "114753.272500", "114754.762500", "114756.252500", "114757.742500", "114759.232500", "114800.722500", "114802.212500", "114803.702500", "114805.192500", "114806.682500", "114808.172500", "114809.662500", "114811.152500", "114812.642500", "114814.132500", "114815.622500", "114817.112500", "114818.602500", "114820.092500", "114821.582500", "114823.072500", "114824.562500", "114826.052500", "114827.542500", "114829.032500", "114830.522500", "114832.012500", "114833.502500", "114834.992500", "114836.482500", "114837.972500", "114839.462500", "114840.952500", "114842.442500", "114843.932500", "114845.422500", "114846.912500", "114848.402500", "114849.892500", "114851.382500", "114852.872500", "114854.362500", "114855.852500", "114857.342500", "114858.832500", "114900.322500", "114901.812500", "114903.302500", "114904.792500", "114906.282500", "114907.772500", "114909.262500", "114910.752500", "114912.242500", "114913.732500", "114915.222500", "114916.712500", "114918.202500", "114919.692500", "114921.182500", "114922.672500", "114924.162500", "114925.652500", "114927.142500", "114928.632500", "114930.122500", "114931.612500", "114933.102500", "114934.592500", "114936.082500", "114937.572500", "114939.062500", "114940.552500", "114942.042500", "114943.532500", "114945.022500", "114946.512500", "114948.002500", "114949.492500", "114950.982500", "114952.472500", "114953.962500", "114955.452500", "114956.942500", "114958.432500", "114959.922500", "115001.412500", "115002.902500", "115004.392500", "115005.882500", "115007.372500", "115008.862500", "115010.352500", "115011.842500", "115013.332500", "115014.822500", "115016.312500", "115017.802500", "115019.292500", "115020.782500", "115022.272500", "115023.762500", "115025.252500", "115026.742500", "115028.232500", "115029.722500"],
      "ContentTime": ["114400.671000", "114400.675000", "114400.679000", "114400.690000", "114400.694000", "114400.697000", "114400.700000", "114400.704000", "114400.707000", "114400.710000", "114400.721000", "114400.724000", "114400.727000", "114400.730000", "114400.734000", "114400.737000", "114420.629000", "114420.633000", "114420.636000", "114420.639000", "114420.643000", "114420.646000", "114420.649000", "114420.652000", "114420.656000", "114420.659000", "114420.662000", "114420.666000", "114420.669000", "114420.672000", "114420.675000", "114420.679000", "114420.682000", "114420.685000", "114420.688000", "114420.692000", "114420.695000", "114440.628000", "114440.632000", "114440.635000", "114440.638000", "114440.642000", "114440.645000", "114440.648000", "114440.652000", "114440.655000", "114440.658000", "114440.662000", "114440.665000", "114440.668000", "114440.671000", "114440.675000", "114440.678000", "114440.681000", "114440.685000", "114440.688000", "114440.696000", "114500.628000", "114500.632000", "114500.635000", "114500.638000", "114500.642000", "114500.645000", "114500.648000", "114500.652000", "114500.655000", "114500.658000", "114500.667000", "114500.670000", "114500.673000", "114500.676000", "114500.680000", "114500.683000", "114500.686000", "114500.690000", "114500.693000", "114500.696000", "114520.628000", "114520.632000", "114520.635000", "114520.638000", "114520.649000", "114520.652000", "114520.656000", "114520.659000", "114520.662000", "114520.665000", "114520.669000", "114520.672000", "114520.675000", "114520.679000", "114520.695000", "114520.698000", "114520.701000", "114520.705000", "114520.708000", "114520.711000", "114600.629000", "114600.633000", "114600.636000", "114600.640000", "114600.643000", "114600.647000", "114600.650000", "114600.654000", "114600.657000", "114600.660000", "114600.663000", "114600.667000", "114600.670000", "114600.673000", "114600.677000", "114600.680000", "114600.683000", "114600.686000", "114600.690000", "114600.693000", "114600.697000", "114600.701000", "114600.704000", "114600.707000", "114600.711000", "114600.714000", "114640.629000", "114640.633000", "114640.636000", "114640.640000", "114640.643000", "114640.646000", "114640.649000", "114640.653000", "114640.656000", "114640.659000", "114640.663000", "114640.666000", "114640.669000", "114640.672000", "114640.676000", "114640.679000", "114640.682000", "114640.686000", "114640.689000", "114640.692000", "114640.696000", "114640.699000", "114640.702000", "114640.706000", "114640.709000", "114640.712000", "114640.715000", "114720.628000", "114720.632000", "114720.635000", "114720.639000", "114720.642000", "114720.645000", "114720.649000", "114720.652000", "114720.655000", "114720.658000", "114720.662000", "114720.666000", "114720.669000", "114720.672000", "114720.676000", "114720.679000", "114720.682000", "114720.686000", "114720.689000", "114720.692000", "114720.696000", "114720.699000", "114720.702000", "114720.705000", "114720.709000", "114720.712000", "114720.715000", "114800.628000", "114800.632000", "114800.635000", "114800.638000", "114800.656000", "114800.659000", "114800.663000", "114800.666000", "114800.669000", "114800.673000", "114800.676000", "114800.679000", "114800.682000", "114800.686000", "114800.689000", "114800.692000", "114800.696000", "114800.699000", "114800.702000", "114800.706000", "114800.709000", "114800.712000", "114800.715000", "114800.719000", "114800.722000", "114800.725000", "114800.728000", "114840.629000", "114840.633000", "114840.636000", "114840.640000", "114840.643000", "114840.646000", "114840.649000", "114840.653000", "114840.656000", "114840.659000", "114840.663000", "114840.666000", "114840.669000", "114840.673000", "114840.676000", "114840.679000", "114840.683000", "114840.686000", "114840.689000", "114840.692000", "114840.696000", "114840.699000", "114840.702000", "114840.706000", "114840.709000", "114840.712000", "114840.716000", "114920.628000", "114920.632000", "114920.635000", "114920.639000", "114920.642000", "114920.645000", "114920.649000", "114920.652000", "114920.655000", "114920.659000", "114920.662000", "114920.665000", "114920.668000", "114920.672000", "114920.675000", "114920.678000", "114920.682000", "114920.685000", "114920.688000", "114920.692000", "114920.695000", "114920.698000", "114920.702000", "114920.705000", "114920.708000", "114920.712000", "114920.715000", "115000.628000", "115000.632000", "115000.635000", "115000.639000", "115000.642000", "115000.645000", "115000.649000", "115000.652000", "115000.656000", "115000.659000", "115000.664000", "115000.668000", "115000.671000", "115000.675000", "115000.679000", "115000.682000", "115000.686000", "115000.689000", "115000.693000", "115000.696000", "115000.700000", "115000.703000", "115000.706000", "115000.720000", "115000.723000", "115000.727000", "115033.158000", "115033.162000", "115033.165000", "115033.169000", "115033.172000", "115033.175000", "115033.179000", "115033.182000", "115033.186000", "115033.189000", "115033.192000", "115033.196000", "115033.199000", "115033.202000", "115033.206000", "115033.209000", "115033.213000", "115033.216000", "115033.220000", "115033.223000", "115033.226000", "115033.230000"],
      "InstanceCreationTime": ["114400.671000", "114400.675000", "114400.679000", "114400.690000", "114400.694000", "114400.697000", "114400.700000", "114400.704000", "114400.707000", "114400.710000", "114400.721000", "114400.724000", "114400.727000", "114400.730000", "114400.734000", "114400.737000", "114420.629000", "114420.633000", "114420.636000", "114420.639000", "114420.643000", "114420.646000", "114420.649000", "114420.652000", "114420.656000", "114420.659000", "114420.662000", "114420.666000", "114420.669000", "114420.672000", "114420.675000", "114420.679000", "114420.682000", "114420.685000", "114420.688000", "114420.692000", "114420.695000", "114440.628000", "114440.632000", "114440.635000", "114440.638000", "114440.642000", "114440.645000", "114440.648000", "114440.652000", "114440.655000", "114440.658000", "114440.662000", "114440.665000", "114440.668000", "114440.671000", "114440.675000", "114440.678000", "114440.681000", "114440.685000", "114440.688000", "114440.696000", "114500.628000", "114500.632000", "114500.635000", "114500.638000", "114500.642000", "114500.645000", "114500.648000", "114500.652000", "114500.655000", "114500.658000", "114500.667000", "114500.670000", "114500.673000", "114500.676000", "114500.680000", "114500.683000", "114500.686000", "114500.690000", "114500.693000", "114500.696000", "114520.628000", "114520.632000", "114520.635000", "114520.638000", "114520.649000", "114520.652000", "114520.656000", "114520.659000", "114520.662000", "114520.665000", "114520.669000", "114520.672000", "114520.675000", "114520.679000", "114520.695000", "114520.698000", "114520.701000", "114520.705000", "114520.708000", "114520.711000", "114600.629000", "114600.633000", "114600.636000", "114600.640000", "114600.643000", "114600.647000", "114600.650000", "114600.654000", "114600.657000", "114600.660000", "114600.663000", "114600.667000", "114600.670000", "114600.673000", "114600.677000", "114600.680000", "114600.683000", "114600.686000", "114600.690000", "114600.693000", "114600.697000", "114600.701000", "114600.704000", "114600.707000", "114600.711000", "114600.714000", "114640.629000", "114640.633000", "114640.636000", "114640.640000", "114640.643000", "114640.646000", "114640.649000", "114640.653000", "114640.656000", "114640.659000", "114640.663000", "114640.666000", "114640.669000", "114640.672000", "114640.676000", "114640.679000", "114640.682000", "114640.686000", "114640.689000", "114640.692000", "114640.696000", "114640.699000", "114640.702000", "114640.706000", "114640.709000", "114640.712000", "114640.715000", "114720.628000", "114720.632000", "114720.635000", "114720.639000", "114720.642000", "114720.645000", "114720.649000", "114720.652000", "114720.655000", "114720.658000", "114720.662000", "114720.666000", "114720.669000", "114720.672000", "114720.676000", "114720.679000", "114720.682000", "114720.686000", "114720.689000", "114720.692000", "114720.696000", "114720.699000", "114720.702000", "114720.705000", "114720.709000", "114720.712000", "114720.715000", "114800.628000", "114800.632000", "114800.635000", "114800.638000", "114800.656000", "114800.659000", "114800.663000", "114800.666000", "114800.669000", "114800.673000", "114800.676000", "114800.679000", "114800.682000", "114800.686000", "114800.689000", "114800.692000", "114800.696000", "114800.699000", "114800.702000", "114800.706000", "114800.709000", "114800.712000", "114800.715000", "114800.719000", "114800.722000", "114800.725000", "114800.728000", "114840.629000", "114840.633000", "114840.636000", "114840.640000", "114840.643000", "114840.646000", "114840.649000", "114840.653000", "114840.656000", "114840.659000", "114840.663000", "114840.666000", "114840.669000", "114840.673000", "114840.676000", "114840.679000", "114840.683000", "114840.686000", "114840.689000", "114840.692000", "114840.696000", "114840.699000", "114840.702000", "114840.706000", "114840.709000", "114840.712000", "114840.716000", "114920.628000", "114920.632000", "114920.635000", "114920.639000", "114920.642000", "114920.645000", "114920.649000", "114920.652000", "114920.655000", "114920.659000", "114920.662000", "114920.665000", "114920.668000", "114920.672000", "114920.675000", "114920.678000", "114920.682000", "114920.685000", "114920.688000", "114920.692000", "114920.695000", "114920.698000", "114920.702000", "114920.705000", "114920.708000", "114920.712000", "114920.715000", "115000.628000", "115000.632000", "115000.635000", "115000.639000", "115000.642000", "115000.645000", "115000.649000", "115000.652000", "115000.656000", "115000.659000", "115000.664000", "115000.668000", "115000.671000", "115000.675000", "115000.679000", "115000.682000", "115000.686000", "115000.689000", "115000.693000", "115000.696000", "115000.700000", "115000.703000", "115000.706000", "115000.720000", "115000.723000", "115000.727000", "115033.158000", "115033.162000", "115033.165000", "115033.169000", "115033.172000", "115033.175000", "115033.179000", "115033.182000", "115033.186000", "115033.189000", "115033.192000", "115033.196000", "115033.199000", "115033.202000", "115033.206000", "115033.209000", "115033.213000", "115033.216000", "115033.220000", "115033.223000", "115033.226000", "115033.230000"],
      "InstanceNumber": [1, 2, 3, 4, 5, 6, 7, 8, 9, 10, 11, 12, 13, 14, 15, 16, 17, 18, 19, 20, 21, 22, 23, 24, 25, 26, 27, 28, 29, 30, 31, 32, 33, 34, 35, 36, 37, 38, 39, 40, 41, 42, 43, 44, 45, 46, 47, 48, 49, 50, 51, 52, 53, 54, 55, 56, 57, 58, 59, 60, 61, 62, 63, 64, 65, 66, 67, 68, 69, 70, 71, 72, 73, 74, 75, 76, 77, 78, 79, 80, 81, 82, 83, 84, 85, 86, 87, 88, 89, 90, 91, 92, 93, 94, 95, 96, 97, 98, 99, 100, 101, 102, 103, 104, 105, 106, 107, 108, 109, 110, 111, 112, 113, 114, 115, 116, 117, 118, 119, 120, 121, 122, 123, 124, 125, 126, 127, 128, 129, 130, 131, 132, 133, 134, 135, 136, 137, 138, 139, 140, 141, 142, 143, 144, 145, 146, 147, 148, 149, 150, 151, 152, 153, 154, 155, 156, 157, 158, 159, 160, 161, 162, 163, 164, 165, 166, 167, 168, 169, 170, 171, 172, 173, 174, 175, 176, 177, 178, 179, 180, 181, 182, 183, 184, 185, 186, 187, 188, 189, 190, 191, 192, 193, 194, 195, 196, 197, 198, 199, 200, 201, 202, 203, 204, 205, 206, 207, 208, 209, 210, 211, 212, 213, 214, 215, 216, 217, 218, 219, 220, 221, 222, 223, 224, 225, 226, 227, 228, 229, 230, 231, 232, 233, 234, 235, 236, 237, 238, 239, 240, 241, 242, 243, 244, 245, 246, 247, 248, 249, 250, 251, 252, 253, 254, 255, 256, 257, 258, 259, 260, 261, 262, 263, 264, 265, 266, 267, 268, 269, 270, 271, 272, 273, 274, 275, 276, 277, 278, 279, 280, 281, 282, 283, 284, 285, 286, 287, 288, 289, 290, 291, 292, 293, 294, 295, 296, 297, 298, 299, 300, 301, 302, 303, 304, 305, 306],
      "LargestImagePixelValue": [44545, 42993, 43878, 42109, 40921, 37614, 37452, 37808, 37364, 37597, 38449, 39451, 40298, 39898, 39894, 41424, 41128, 41982, 42229, 43004, 42585, 42798, 42503, 42730, 41684, 42682, 42651, 43097, 42709, 42425, 41625, 41343, 41338, 42734, 42636, 42662, 42150, 42911, 42749, 41413, 42671, 41626, 42496, 43525, 42506, 42743, 42248, 41835, 42607, 41477, 42023, 41957, 41166, 42371, 41800, 41960, 42282, 41839, 42462, 41331, 42303, 41803, 42308, 42336, 41549, 41670, 41099, 40818, 39098, 40046, 40620, 39682, 39366, 40760, 40203, 40561, 39353, 40660, 40156, 39479, 40422, 39976, 40783, 40628, 40249, 40337, 40220, 40373, 40247, 40466, 40400, 39962, 40075, 39977, 40536, 40490, 40693, 40067, 40370, 44802, 41219, 41071, 40451, 40046, 40854, 40015, 40044, 40499, 40227, 40490, 39952, 40412, 40473, 40286, 40500, 39732, 40711, 40134, 40339, 40286, 40319, 40735, 40138, 40320, 40693, 40247, 40704, 39811, 40175, 40201, 40256, 40828, 40020, 40640, 39881, 40989, 40423, 40848, 40195, 39859, 40719, 40537, 40474, 40549, 40280, 40667, 40424, 40890, 40079, 40456, 40538, 40035, 41292, 40057, 40752, 40665, 40016, 40426, 39599, 40479, 39861, 40183, 40063, 40283, 40021, 39681, 40235, 39658, 40248, 39925, 39278, 40132, 38891, 39993, 39755, 39654, 39429, 39547, 38731, 39657, 39052, 39159, 39502, 38811, 39835, 38671, 40066, 39482, 39000, 39778, 38893, 39769, 39375, 39407, 39532, 38979, 39779, 39517, 39319, 39893, 39655, 39551, 39692, 39233, 40106, 39289, 39643, 39653, 39250, 39928, 39535, 39321, 39859, 39110, 40013, 39510, 40070, 39868, 39637, 39987, 39742, 39775, 40674, 39359, 40146, 39327, 39807, 39809, 40247, 40450, 41540, 40398, 41158, 42461, 40756, 42008, 41044, 41714, 39879, 41149, 41460, 40845, 42002, 40957, 40180, 41461, 41119, 41443, 40826, 41696, 40052, 41201, 40390, 41144, 41954, 40265, 41710, 41103, 40608, 40844, 40018, 40450, 41366, 40699, 41221, 41351, 40745, 41829, 40245, 41095, 40759, 40868, 41231, 40814, 41261, 40597, 41164, 40071, 40139, 40159, 40315, 40391, 38967, 40641, 40173, 39788, 39695, 39196, 40208, 40906, 44577, 44013, 44557, 45109, 44648, 44321, 44592, 44385, 44098, 44352, 44628, 44450, 44029, 44060, 44547, 44614],
      "WindowCenter": [10528.0, 10454.0, 10431.0, 10418.0, 10408.0, 10371.0, 10373.0, 10378.0, 10389.0, 10398.0, 10409.0, 10413.0, 10421.0, 10417.0, 10424.0, 10452.0, 10450.0, 10449.0, 10438.0, 10439.0, 10439.0, 10449.0, 10462.0, 10480.0, 10461.0, 10445.0, 10428.0, 10419.0, 10420.0, 10440.0, 10439.0, 10460.0, 10451.0, 10457.0, 10434.0, 10427.0, 10425.0, 10438.0, 10449.0, 10435.0, 10434.0, 10414.0, 10412.0, 10422.0, 10419.0, 10427.0, 10425.0, 10416.0, 10423.0, 10427.0, 10433.0, 10438.0, 10430.0, 10426.0, 10425.0, 10416.0, 10423.0, 10427.0, 10447.0, 10439.0, 10435.0, 10436.0, 10440.0, 10451.0, 10454.0, 10455.0, 10453.0, 10431.0, 10411.0, 10416.0, 10427.0, 10417.0, 10395.0, 10402.0, 10393.0, 10390.0, 10389.0, 10407.0, 10415.0, 10401.0, 10396.0, 10395.0, 10398.0, 10407.0, 10417.0, 10418.0, 10420.0, 10428.0, 10428.0, 10412.0, 10411.0, 10402.0, 10409.0, 10417.0, 10427.0, 10437.0, 10420.0, 10405.0, 10401.0, 10452.0, 10419.0, 10425.0, 10441.0, 10409.0, 10401.0, 10396.0, 10395.0, 10399.0, 10399.0, 10397.0, 10391.0, 10389.0, 10411.0, 10428.0, 10447.0, 10435.0, 10419.0, 10395.0, 10384.0, 10380.0, 10408.0, 10426.0, 10433.0, 10424.0, 10420.0, 10396.0, 10392.0, 10386.0, 10399.0, 10411.0, 10403.0, 10413.0, 10389.0, 10390.0, 10395.0, 10407.0, 10410.0, 10422.0, 10416.0, 10414.0, 10406.0, 10407.0, 10403.0, 10417.0, 10421.0, 10418.0, 10419.0, 10416.0, 10413.0, 10409.0, 10412.0, 10421.0, 10424.0, 10422.0, 10420.0, 10428.0, 10406.0, 10411.0, 10409.0, 10415.0, 10434.0, 10434.0, 10425.0, 10406.0, 10396.0, 10398.0, 10401.0, 10416.0, 10414.0, 10414.0, 10403.0, 10405.0, 10404.0, 10415.0, 10419.0, 10409.0, 10404.0, 10409.0, 10400.0, 10411.0, 10416.0, 10404.0, 10385.0, 10379.0, 10396.0, 10406.0, 10425.0, 10423.0, 10408.0, 10402.0, 10399.0, 10410.0, 10421.0, 10405.0, 10392.0, 10379.0, 10374.0, 10385.0, 10386.0, 10399.0, 10400.0, 10389.0, 10382.0, 10382.0, 10405.0, 10411.0, 10409.0, 10412.0, 10406.0, 10407.0, 10410.0, 10405.0, 10418.0, 10415.0, 10428.0, 10423.0, 10421.0, 10420.0, 10403.0, 10400.0, 10393.0, 10393.0, 10420.0, 10404.0, 10424.0, 10416.0, 10406.0, 10402.0, 10407.0, 10407.0, 10444.0, 10421.0, 10405.0, 10410.0, 10385.0, 10402.0, 10421.0, 10450.0, 10428.0, 10412.0, 10399.0, 10383.0, 10393.0, 10409.0, 10413.0, 10429.0, 10445.0, 10453.0, 10424.0, 10410.0, 10374.0, 10364.0, 10376.0, 10413.0, 10446.0, 10433.0, 10435.0, 10431.0, 10405.0, 10400.0, 10398.0, 10412.0, 10436.0, 10424.0, 10407.0, 10398.0, 10393.0, 10411.0, 10404.0, 10405.0, 10404.0, 10410.0, 10434.0, 10429.0, 10427.0, 10414.0, 10423.0, 10425.0, 10425.0, 10443.0, 10426.0, 10416.0, 10386.0, 10399.0, 10404.0, 10400.0, 10399.0, 10395.0, 10397.0, 10408.0, 10461.0, 10472.0, 10484.0, 10481.0, 10451.0, 10424.0, 10419.0, 10416.0, 10403.0, 10407.0, 10434.0, 10430.0, 10413.0, 10403.0, 10428.0, 10428.0],
