{
  "AcquisitionMatrixPE": 104,
  "AcquisitionNumber": 1,
  "AcquisitionTime": "17:38:31.930000",
  "BandwidthPerPixelPhaseEncode": 17.17,
  "BaseResolution": 104,
  "BodyPartExamined": "BRAIN",
  "CoilCombinationMethod": "Sum of Squares",
  "ConsistencyInfo": "N4_VE11C_LATEST_20160120",
  "ConversionSoftware": "dcm2niix",
  "ConversionSoftwareVersion": "v1.0.20220505",
  "DerivedVendorReportedEchoSpacing": 0.000560011,
  "DeviceSerialNumber": "167006",
  "DwellTime": 2.1e-06,
  "EchoTime": 0.037,
  "EchoTrainLength": 104,
  "EffectiveEchoSpacing": 0.000560011,
  "FlipAngle": 52,
  "HeudiconvVersion": "0.5.3.post811+g6206e14",
  "ImageComments": "Unaliased MB4/PE3/LB",
  "ImageOrientationPatientDICOM": [0.994341, 0.105607, 0.0115233, -0.0950436, 0.93281, -0.34761],
  "ImageOrientationText": "Tra>Cor(-20.2)>Sag(2.7)",
  "ImageType": [
    "ORIGINAL",
    "PRIMARY",
    "M",
    "MB",
    "ND",
    "MOSAIC"
],
  "ImagingFrequency": 123.26,
  "InPlanePhaseEncodingDirectionDICOM": "COL",
  "InstitutionAddress": "Chemin Queen-Mary 4565,Montreal,District,CA,H3W 1W5",
  "InstitutionName": "IUGM",
  "InstitutionalDepartmentName": "Department",
  "MRAcquisitionType": "2D",
  "MagneticFieldStrength": 3,
  "Manufacturer": "Siemens",
  "ManufacturersModelName": "Prisma_fit",
  "MatrixCoilMode": "SENSE",
  "Modality": "MR",
  "MultibandAccelerationFactor": 4,
  "PartialFourier": 1,
  "PatientPosition": "HFS",
  "PercentPhaseFOV": 100,
  "PercentSampling": 100,
  "PhaseEncodingDirection": "j",
  "PhaseEncodingSteps": 104,
  "PhaseResolution": 1,
  "PixelBandwidth": 2290,
  "ProcedureStepDescription": "games^mario3",
  "ProtocolName": "func_task-mario3_run-03",
  "PulseSequenceDetails": "%CustomerSeq%\\cmrr_mbep2d_bold",
  "ReceiveCoilActiveElements": "HC1-7;NC1,2",
  "ReceiveCoilName": "HeadNeck_64",
  "ReconMatrixPE": 104,
  "RepetitionTime": 1.49,
  "SAR": 0.0664354,
  "ScanOptions": "FS",
  "ScanningSequence": "EP",
  "SequenceName": "epfid2d1_104",
  "SequenceVariant": "SK\\SS",
  "SeriesDescription": "func_task-mario3_run-03",
  "SeriesNumber": 16,
  "ShimSetting": [610, -7197, -8817, 657, 89, -51, -48, 12],
  "SliceThickness": 2,
  "SliceTiming": [0, 0.785, 0.0975, 0.8825, 0.195, 0.98, 0.295, 1.0775, 0.3925, 1.175, 0.49, 1.2725, 0.5875, 1.3725, 0.685, 0, 0.785, 0.0975, 0.8825, 0.195, 0.98, 0.295, 1.0775, 0.3925, 1.175, 0.49, 1.2725, 0.5875, 1.3725, 0.685, 0, 0.785, 0.0975, 0.8825, 0.195, 0.98, 0.295, 1.0775, 0.3925, 1.175, 0.49, 1.2725, 0.5875, 1.3725, 0.685, 0, 0.785, 0.0975, 0.8825, 0.195, 0.98, 0.295, 1.0775, 0.3925, 1.175, 0.49, 1.2725, 0.5875, 1.3725, 0.685],
  "SoftwareVersions": "syngo MR E11",
  "SpacingBetweenSlices": 2,
  "StationName": "MRC35049",
  "TaskName": "mario3",
  "TotalReadoutTime": 0.0576811,
  "TxRefAmp": 275.805,
  "WipMemBlock": "a2b3aea1-681e-4780-8379-269e93a1eb71||Sequence: R017 ve11c/master r/75a17815+; Jun 28 2022 16:32:11 by eja",
  "dcmmeta_affine": [
    [-1.9886822700500488, -0.190087229013443, 0.09491832554340363, 112.41594696044922],
    [-0.2112143337726593, 1.8656196594238281, -0.6890947818756104, -56.83516311645508],
    [0.023046694695949554, 0.6952193379402161, 1.8751370906829834, -63.97115707397461],
    [0.0, 0.0, 0.0, 1.0]
],
  "dcmmeta_reorient_transform": [
    [0.0, -1.0, 0.0, 103.0],
    [1.0, 0.0, 0.0, 0.0],
    [0.0, 0.0, 1.0, 0.0],
    [0.0, 0.0, 0.0, 1.0]
],
  "dcmmeta_shape": [104, 104, 60, 348],
  "dcmmeta_slice_dim": 2,
  "dcmmeta_version": 0.6,
  "global": {
    "const": {
      "AcquisitionMatrix": [104, 0, 0, 104],
      "AngioFlag": "N",
      "BitsAllocated": 16,
      "BitsStored": 16,
      "BodyPartExamined": "BRAIN",
      "Columns": 832,
      "EchoNumbers": 1,
      "EchoTime": 37.0,
      "EchoTrainLength": 104,
      "FlipAngle": 52.0,
      "HighBit": 15,
      "ImageOrientationPatient": [0.9943411583543, 0.10560716488677, 0.01152334704914, -0.0950436137908, 0.93280985341998, -0.3476096788644],
      "ImagePositionPatient": [-747.52557150354, -891.29125589259, 252.30728639851],
      "ImageType": [
        "ORIGINAL",
        "PRIMARY",
        "M",
        "MB",
        "ND",
        "MOSAIC"
],
      "ImagedNucleus": "1H",
      "ImagingFrequency": 123.260393,
      "InPlanePhaseEncodingDirection": "COL",
      "MRAcquisitionType": "2D",
      "MagneticFieldStrength": 3.0,
      "Manufacturer": "SIEMENS",
      "ManufacturerModelName": "Prisma_fit",
      "Modality": "MR",
      "NumberOfAverages": 1.0,
      "NumberOfPhaseEncodingSteps": 104,
      "PercentPhaseFieldOfView": 100.0,
      "PercentSampling": 100.0,
      "PerformedProcedureStepStartTime": "171158.986000",
      "PhotometricInterpretation": "MONOCHROME2",
      "PixelBandwidth": 2290.0,
      "PixelRepresentation": 0,
      "PixelSpacing": [2.0, 2.0],
      "ProtocolName": "func_task-mario3_run-03",
      "RepetitionTime": 1490.0,
      "Rows": 832,
      "SAR": 0.06643536401248,
      "SamplesPerPixel": 1,
      "ScanOptions": "FS",
      "ScanningSequence": "EP",
      "SequenceName": "epfid2d1_104",
      "SequenceVariant": [
        "SK",
        "SS"
],
      "SeriesDescription": "func_task-mario3_run-03",
      "SeriesNumber": 16,
      "SeriesTime": "173948.611000",
      "SliceLocation": -35.059768890139,
      "SliceThickness": 2.0,
      "SmallestImagePixelValue": 0,
      "SoftwareVersions": "syngo MR E11",
      "SpacingBetweenSlices": 2.0000000110439,
      "SpecificCharacterSet": "ISO_IR 100",
      "StudyID": "1",
      "StudyTime": "171158.867000",
      "TransmitCoilName": "Body",
      "VariableFlipAngleFlag": "N",
      "WindowCenterWidthExplanation": "Algo1",
      "dBdt": 0.0},
    "slices": {}
  },
  "time": {
    "samples": {
      "AcquisitionNumber": [1, 2, 3, 4, 5, 6, 7, 8, 9, 10, 11, 12, 13, 14, 15, 16, 17, 18, 19, 20, 21, 22, 23, 24, 25, 26, 27, 28, 29, 30, 31, 32, 33, 34, 35, 36, 37, 38, 39, 40, 41, 42, 43, 44, 45, 46, 47, 48, 49, 50, 51, 52, 53, 54, 55, 56, 57, 58, 59, 60, 61, 62, 63, 64, 65, 66, 67, 68, 69, 70, 71, 72, 73, 74, 75, 76, 77, 78, 79, 80, 81, 82, 83, 84, 85, 86, 87, 88, 89, 90, 91, 92, 93, 94, 95, 96, 97, 98, 99, 100, 101, 102, 103, 104, 105, 106, 107, 108, 109, 110, 111, 112, 113, 114, 115, 116, 117, 118, 119, 120, 121, 122, 123, 124, 125, 126, 127, 128, 129, 130, 131, 132, 133, 134, 135, 136, 137, 138, 139, 140, 141, 142, 143, 144, 145, 146, 147, 148, 149, 150, 151, 152, 153, 154, 155, 156, 157, 158, 159, 160, 161, 162, 163, 164, 165, 166, 167, 168, 169, 170, 171, 172, 173, 174, 175, 176, 177, 178, 179, 180, 181, 182, 183, 184, 185, 186, 187, 188, 189, 190, 191, 192, 193, 194, 195, 196, 197, 198, 199, 200, 201, 202, 203, 204, 205, 206, 207, 208, 209, 210, 211, 212, 213, 214, 215, 216, 217, 218, 219, 220, 221, 222, 223, 224, 225, 226, 227, 228, 229, 230, 231, 232, 233, 234, 235, 236, 237, 238, 239, 240, 241, 242, 243, 244, 245, 246, 247, 248, 249, 250, 251, 252, 253, 254, 255, 256, 257, 258, 259, 260, 261, 262, 263, 264, 265, 266, 267, 268, 269, 270, 271, 272, 273, 274, 275, 276, 277, 278, 279, 280, 281, 282, 283, 284, 285, 286, 287, 288, 289, 290, 291, 292, 293, 294, 295, 296, 297, 298, 299, 300, 301, 302, 303, 304, 305, 306, 307, 308, 309, 310, 311, 312, 313, 314, 315, 316, 317, 318, 319, 320, 321, 322, 323, 324, 325, 326, 327, 328, 329, 330, 331, 332, 333, 334, 335, 336, 337, 338, 339, 340, 341, 342, 343, 344, 345, 346, 347, 348],
      "AcquisitionTime": ["173831.930000", "173833.420000", "173834.910000", "173836.400000", "173837.890000", "173839.380000", "173840.870000", "173842.360000", "173843.850000", "173845.340000", "173846.830000", "173848.320000", "173849.810000", "173851.300000", "173852.790000", "173854.280000", "173855.770000", "173857.260000", "173858.750000", "173900.240000", "173901.730000", "173903.220000", "173904.710000", "173906.200000", "173907.690000", "173909.180000", "173910.670000", "173912.160000", "173913.650000", "173915.140000", "173916.630000", "173918.120000", "173919.610000", "173921.100000", "173922.590000", "173924.080000", "173925.570000", "173927.060000", "173928.550000", "173930.040000", "173931.530000", "173933.020000", "173934.510000", "173936.000000", "173937.490000", "173938.980000", "173940.470000", "173941.960000", "173943.450000", "173944.940000", "173946.430000", "173947.920000", "173949.410000", "173950.900000", "173952.390000", "173953.880000", "173955.370000", "173956.860000", "173958.350000", "173959.840000", "174001.330000", "174002.820000", "174004.310000", "174005.800000", "174007.290000", "174008.780000", "174010.270000", "174011.760000", "174013.250000", "174014.740000", "174016.230000", "174017.720000", "174019.210000", "174020.700000", "174022.190000", "174023.680000", "174025.170000", "174026.660000", "174028.150000", "174029.640000", "174031.130000", "174032.620000", "174034.110000", "174035.600000", "174037.090000", "174038.580000", "174040.070000", "174041.560000", "174043.050000", "174044.540000", "174046.030000", "174047.520000", "174049.010000", "174050.500000", "174051.990000", "174053.480000", "174054.970000", "174056.460000", "174057.950000", "174059.440000", "174100.930000", "174102.420000", "174103.910000", "174105.400000", "174106.890000", "174108.380000", "174109.870000", "174111.360000", "174112.850000", "174114.340000", "174115.830000", "174117.320000", "174118.810000", "174120.300000", "174121.790000", "174123.280000", "174124.770000", "174126.260000", "174127.750000", "174129.240000", "174130.730000", "174132.220000", "174133.710000", "174135.200000", "174136.690000", "174138.180000", "174139.670000", "174141.160000", "174142.650000", "174144.140000", "174145.630000", "174147.120000", "174148.610000", "174150.100000", "174151.590000", "174153.080000", "174154.570000", "174156.060000", "174157.550000", "174159.040000", "174200.530000", "174202.020000", "174203.510000", "174205.000000", "174206.490000", "174207.980000", "174209.470000", "174210.960000", "174212.450000", "174213.940000", "174215.430000", "174216.920000", "174218.410000", "174219.900000", "174221.390000", "174222.880000", "174224.370000", "174225.860000", "174227.350000", "174228.840000", "174230.330000", "174231.820000", "174233.310000", "174234.800000", "174236.290000", "174237.780000", "174239.270000", "174240.760000", "174242.250000", "174243.740000", "174245.230000", "174246.720000", "174248.210000", "174249.700000", "174251.190000", "174252.680000", "174254.170000", "174255.660000", "174257.150000", "174258.640000", "174300.130000", "174301.620000", "174303.110000", "174304.600000", "174306.090000", "174307.580000", "174309.070000", "174310.560000", "174312.050000", "174313.540000", "174315.030000", "174316.520000", "174318.010000", "174319.500000", "174320.990000", "174322.480000", "174323.970000", "174325.460000", "174326.950000", "174328.440000", "174329.930000", "174331.420000", "174332.910000", "174334.400000", "174335.890000", "174337.380000", "174338.870000", "174340.360000", "174341.850000", "174343.340000", "174344.830000", "174346.320000", "174347.810000", "174349.300000", "174350.790000", "174352.280000", "174353.770000", "174355.260000", "174356.750000", "174358.240000", "174359.730000", "174401.220000", "174402.710000", "174404.200000", "174405.690000", "174407.180000", "174408.670000", "174410.160000", "174411.650000", "174413.140000", "174414.630000", "174416.120000", "174417.610000", "174419.100000", "174420.590000", "174422.080000", "174423.570000", "174425.060000", "174426.550000", "174428.040000", "174429.530000", "174431.020000", "174432.510000", "174434.000000", "174435.490000", "174436.980000", "174438.470000", "174439.960000", "174441.450000", "174442.940000", "174444.430000", "174445.920000", "174447.410000", "174448.900000", "174450.390000", "174451.880000", "174453.370000", "174454.860000", "174456.350000", "174457.840000", "174459.330000", "174500.820000", "174502.310000", "174503.800000", "174505.290000", "174506.780000", "174508.270000", "174509.760000", "174511.250000", "174512.740000", "174514.230000", "174515.720000", "174517.210000", "174518.700000", "174520.190000", "174521.680000", "174523.170000", "174524.660000", "174526.150000", "174527.640000", "174529.130000", "174530.620000", "174532.110000", "174533.600000", "174535.090000", "174536.580000", "174538.070000", "174539.560000", "174541.050000", "174542.540000", "174544.030000", "174545.520000", "174547.010000", "174548.500000", "174549.990000", "174551.480000", "174552.970000", "174554.460000", "174555.950000", "174557.440000", "174558.930000", "174600.420000", "174601.910000", "174603.400000", "174604.890000", "174606.380000", "174607.870000", "174609.360000", "174610.850000", "174612.340000", "174613.830000", "174615.320000", "174616.810000", "174618.300000", "174619.790000", "174621.280000", "174622.770000", "174624.260000", "174625.750000", "174627.240000", "174628.730000", "174630.220000", "174631.710000", "174633.200000", "174634.690000", "174636.180000", "174637.670000", "174639.160000", "174640.650000", "174642.140000", "174643.630000", "174645.120000", "174646.610000", "174648.100000", "174649.590000", "174651.080000", "174652.570000", "174654.060000", "174655.550000", "174657.040000", "174658.530000", "174700.020000", "174701.510000", "174703.000000", "174704.490000", "174705.980000", "174707.470000", "174708.960000"],
      "ContentTime": ["173948.614000", "173948.618000", "173948.621000", "173948.624000", "173948.628000", "173948.631000", "173948.634000", "173948.638000", "173948.641000", "173948.644000", "173948.648000", "173948.651000", "173948.654000", "173948.657000", "173948.661000", "173948.664000", "173948.667000", "173948.671000", "173948.674000", "173948.677000", "173948.681000", "173948.684000", "173948.687000", "173948.691000", "173948.697000", "173948.700000", "173948.704000", "173948.707000", "174008.571000", "174008.575000", "174008.578000", "174008.581000", "174008.585000", "174008.588000", "174008.591000", "174008.595000", "174008.598000", "174008.601000", "174008.604000", "174008.620000", "174008.623000", "174008.626000", "174008.629000", "174008.633000", "174008.636000", "174008.639000", "174008.643000", "174008.646000", "174028.572000", "174028.576000", "174028.580000", "174028.584000", "174028.588000", "174028.591000", "174028.594000", "174028.598000", "174028.601000", "174028.604000", "174028.608000", "174028.611000", "174028.614000", "174028.617000", "174028.621000", "174028.624000", "174028.627000", "174028.631000", "174028.634000", "174028.637000", "174048.572000", "174048.576000", "174048.579000", "174048.583000", "174048.586000", "174048.589000", "174048.592000", "174048.596000", "174048.599000", "174048.602000", "174048.614000", "174048.617000", "174048.620000", "174048.623000", "174048.627000", "174048.630000", "174048.633000", "174048.637000", "174048.640000", "174048.643000", "174048.647000", "174128.571000", "174128.575000", "174128.578000", "174128.581000", "174128.585000", "174128.588000", "174128.591000", "174128.594000", "174128.598000", "174128.601000", "174128.604000", "174128.608000", "174128.611000", "174128.614000", "174128.628000", "174128.631000", "174128.635000", "174128.638000", "174128.641000", "174128.645000", "174128.648000", "174128.651000", "174128.654000", "174128.658000", "174128.661000", "174128.664000", "174128.668000", "174128.671000", "174128.674000", "174208.571000", "174208.575000", "174208.578000", "174208.582000", "174208.585000", "174208.588000", "174208.592000", "174208.595000", "174208.598000", "174208.602000", "174208.605000", "174208.608000", "174208.612000", "174208.615000", "174208.618000", "174208.622000", "174208.625000", "174208.628000", "174208.631000", "174208.635000", "174208.650000", "174208.653000", "174208.656000", "174208.660000", "174208.663000", "174208.666000", "174208.670000", "174248.571000", "174248.575000", "174248.578000", "174248.582000", "174248.585000", "174248.596000", "174248.599000", "174248.602000", "174248.606000", "174248.609000", "174248.612000", "174248.616000", "174248.619000", "174248.622000", "174248.626000", "174248.629000", "174248.632000", "174248.636000", "174248.639000", "174248.642000", "174248.645000", "174248.649000", "174248.652000", "174248.655000", "174248.659000", "174248.662000", "174248.665000", "174328.573000", "174328.577000", "174328.580000", "174328.584000", "174328.587000", "174328.590000", "174328.594000", "174328.597000", "174328.600000", "174328.604000", "174328.607000", "174328.610000", "174328.614000", "174328.617000", "174328.620000", "174328.623000", "174328.627000", "174328.630000", "174328.633000", "174328.637000", "174328.640000", "174328.643000", "174328.647000", "174328.650000", "174328.653000", "174328.657000", "174328.660000", "174408.572000", "174408.575000", "174408.579000", "174408.582000", "174408.586000", "174408.589000", "174408.592000", "174408.596000", "174408.599000", "174408.603000", "174408.606000", "174408.609000", "174408.613000", "174408.616000", "174408.620000", "174408.623000", "174408.627000", "174408.630000", "174408.633000", "174408.637000", "174408.640000", "174408.643000", "174408.647000", "174408.650000", "174408.654000", "174408.658000", "174448.571000", "174448.584000", "174448.587000", "174448.590000", "174448.594000", "174448.597000", "174448.600000", "174448.603000", "174448.607000", "174448.617000", "174448.621000", "174448.624000", "174448.627000", "174448.631000", "174448.634000", "174448.637000", "174448.641000", "174448.644000", "174448.647000", "174448.651000", "174448.654000", "174448.657000", "174448.660000", "174448.664000", "174448.667000", "174448.670000", "174448.674000", "174528.572000", "174528.576000", "174528.579000", "174528.583000", "174528.586000", "174528.589000", "174528.593000", "174528.596000", "174528.599000", "174528.603000", "174528.606000", "174528.609000", "174528.613000", "174528.616000", "174528.619000", "174528.623000", "174528.626000", "174528.629000", "174528.632000", "174528.636000", "174528.639000", "174528.642000", "174528.646000", "174528.649000", "174528.652000", "174528.656000", "174528.659000", "174608.571000", "174608.575000", "174608.578000", "174608.582000", "174608.585000", "174608.588000", "174608.592000", "174608.595000", "174608.598000", "174608.602000", "174608.605000", "174608.608000", "174608.611000", "174608.615000", "174608.618000", "174608.621000", "174608.625000", "174608.628000", "174608.631000", "174608.635000", "174608.638000", "174608.641000", "174608.645000", "174608.648000", "174608.651000", "174608.655000", "174608.658000", "174648.571000", "174648.575000", "174648.578000", "174648.582000", "174648.585000", "174648.588000", "174648.592000", "174648.595000", "174648.598000", "174648.602000", "174648.605000", "174648.608000", "174648.612000", "174648.624000", "174648.628000", "174648.631000", "174648.634000", "174648.638000", "174648.646000", "174648.649000", "174648.652000", "174648.656000", "174648.659000", "174648.662000", "174648.666000", "174648.669000", "174648.672000", "174711.379000", "174711.383000", "174711.386000", "174711.390000", "174711.393000", "174711.396000", "174711.400000", "174711.403000", "174711.407000", "174711.410000", "174711.414000", "174711.417000", "174711.421000", "174711.424000", "174711.428000"],
      "InstanceCreationTime": ["173948.614000", "173948.618000", "173948.621000", "173948.624000", "173948.628000", "173948.631000", "173948.634000", "173948.638000", "173948.641000", "173948.644000", "173948.648000", "173948.651000", "173948.654000", "173948.657000", "173948.661000", "173948.664000", "173948.667000", "173948.671000", "173948.674000", "173948.677000", "173948.681000", "173948.684000", "173948.687000", "173948.691000", "173948.697000", "173948.700000", "173948.704000", "173948.707000", "174008.571000", "174008.575000", "174008.578000", "174008.581000", "174008.585000", "174008.588000", "174008.591000", "174008.595000", "174008.598000", "174008.601000", "174008.604000", "174008.620000", "174008.623000", "174008.626000", "174008.629000", "174008.633000", "174008.636000", "174008.639000", "174008.643000", "174008.646000", "174028.572000", "174028.576000", "174028.580000", "174028.584000", "174028.588000", "174028.591000", "174028.594000", "174028.598000", "174028.601000", "174028.604000", "174028.608000", "174028.611000", "174028.614000", "174028.617000", "174028.621000", "174028.624000", "174028.627000", "174028.631000", "174028.634000", "174028.637000", "174048.572000", "174048.576000", "174048.579000", "174048.583000", "174048.586000", "174048.589000", "174048.592000", "174048.596000", "174048.599000", "174048.602000", "174048.614000", "174048.617000", "174048.620000", "174048.623000", "174048.627000", "174048.630000", "174048.633000", "174048.637000", "174048.640000", "174048.643000", "174048.647000", "174128.571000", "174128.575000", "174128.578000", "174128.581000", "174128.585000", "174128.588000", "174128.591000", "174128.594000", "174128.598000", "174128.601000", "174128.604000", "174128.608000", "174128.611000", "174128.614000", "174128.628000", "174128.631000", "174128.635000", "174128.638000", "174128.641000", "174128.645000", "174128.648000", "174128.651000", "174128.654000", "174128.658000", "174128.661000", "174128.664000", "174128.668000", "174128.671000", "174128.674000", "174208.571000", "174208.575000", "174208.578000", "174208.582000", "174208.585000", "174208.588000", "174208.592000", "174208.595000", "174208.598000", "174208.602000", "174208.605000", "174208.608000", "174208.612000", "174208.615000", "174208.618000", "174208.622000", "174208.625000", "174208.628000", "174208.631000", "174208.635000", "174208.650000", "174208.653000", "174208.656000", "174208.660000", "174208.663000", "174208.666000", "174208.670000", "174248.571000", "174248.575000", "174248.578000", "174248.582000", "174248.585000", "174248.596000", "174248.599000", "174248.602000", "174248.606000", "174248.609000", "174248.612000", "174248.616000", "174248.619000", "174248.622000", "174248.626000", "174248.629000", "174248.632000", "174248.636000", "174248.639000", "174248.642000", "174248.645000", "174248.649000", "174248.652000", "174248.655000", "174248.659000", "174248.662000", "174248.665000", "174328.573000", "174328.577000", "174328.580000", "174328.584000", "174328.587000", "174328.590000", "174328.594000", "174328.597000", "174328.600000", "174328.604000", "174328.607000", "174328.610000", "174328.614000", "174328.617000", "174328.620000", "174328.623000", "174328.627000", "174328.630000", "174328.633000", "174328.637000", "174328.640000", "174328.643000", "174328.647000", "174328.650000", "174328.653000", "174328.657000", "174328.660000", "174408.572000", "174408.575000", "174408.579000", "174408.582000", "174408.586000", "174408.589000", "174408.592000", "174408.596000", "174408.599000", "174408.603000", "174408.606000", "174408.609000", "174408.613000", "174408.616000", "174408.620000", "174408.623000", "174408.627000", "174408.630000", "174408.633000", "174408.637000", "174408.640000", "174408.643000", "174408.647000", "174408.650000", "174408.654000", "174408.658000", "174448.571000", "174448.584000", "174448.587000", "174448.590000", "174448.594000", "174448.597000", "174448.600000", "174448.603000", "174448.607000", "174448.617000", "174448.621000", "174448.624000", "174448.627000", "174448.631000", "174448.634000", "174448.637000", "174448.641000", "174448.644000", "174448.647000", "174448.651000", "174448.654000", "174448.657000", "174448.660000", "174448.664000", "174448.667000", "174448.670000", "174448.674000", "174528.572000", "174528.576000", "174528.579000", "174528.583000", "174528.586000", "174528.589000", "174528.593000", "174528.596000", "174528.599000", "174528.603000", "174528.606000", "174528.609000", "174528.613000", "174528.616000", "174528.619000", "174528.623000", "174528.626000", "174528.629000", "174528.632000", "174528.636000", "174528.639000", "174528.642000", "174528.646000", "174528.649000", "174528.652000", "174528.656000", "174528.659000", "174608.571000", "174608.575000", "174608.578000", "174608.582000", "174608.585000", "174608.588000", "174608.592000", "174608.595000", "174608.598000", "174608.602000", "174608.605000", "174608.608000", "174608.611000", "174608.615000", "174608.618000", "174608.621000", "174608.625000", "174608.628000", "174608.631000", "174608.635000", "174608.638000", "174608.641000", "174608.645000", "174608.648000", "174608.651000", "174608.655000", "174608.658000", "174648.571000", "174648.575000", "174648.578000", "174648.582000", "174648.585000", "174648.588000", "174648.592000", "174648.595000", "174648.598000", "174648.602000", "174648.605000", "174648.608000", "174648.612000", "174648.624000", "174648.628000", "174648.631000", "174648.634000", "174648.638000", "174648.646000", "174648.649000", "174648.652000", "174648.656000", "174648.659000", "174648.662000", "174648.666000", "174648.669000", "174648.672000", "174711.379000", "174711.383000", "174711.386000", "174711.390000", "174711.393000", "174711.396000", "174711.400000", "174711.403000", "174711.407000", "174711.410000", "174711.414000", "174711.417000", "174711.421000", "174711.424000", "174711.428000"],
      "InstanceNumber": [1, 2, 3, 4, 5, 6, 7, 8, 9, 10, 11, 12, 13, 14, 15, 16, 17, 18, 19, 20, 21, 22, 23, 24, 25, 26, 27, 28, 29, 30, 31, 32, 33, 34, 35, 36, 37, 38, 39, 40, 41, 42, 43, 44, 45, 46, 47, 48, 49, 50, 51, 52, 53, 54, 55, 56, 57, 58, 59, 60, 61, 62, 63, 64, 65, 66, 67, 68, 69, 70, 71, 72, 73, 74, 75, 76, 77, 78, 79, 80, 81, 82, 83, 84, 85, 86, 87, 88, 89, 90, 91, 92, 93, 94, 95, 96, 97, 98, 99, 100, 101, 102, 103, 104, 105, 106, 107, 108, 109, 110, 111, 112, 113, 114, 115, 116, 117, 118, 119, 120, 121, 122, 123, 124, 125, 126, 127, 128, 129, 130, 131, 132, 133, 134, 135, 136, 137, 138, 139, 140, 141, 142, 143, 144, 145, 146, 147, 148, 149, 150, 151, 152, 153, 154, 155, 156, 157, 158, 159, 160, 161, 162, 163, 164, 165, 166, 167, 168, 169, 170, 171, 172, 173, 174, 175, 176, 177, 178, 179, 180, 181, 182, 183, 184, 185, 186, 187, 188, 189, 190, 191, 192, 193, 194, 195, 196, 197, 198, 199, 200, 201, 202, 203, 204, 205, 206, 207, 208, 209, 210, 211, 212, 213, 214, 215, 216, 217, 218, 219, 220, 221, 222, 223, 224, 225, 226, 227, 228, 229, 230, 231, 232, 233, 234, 235, 236, 237, 238, 239, 240, 241, 242, 243, 244, 245, 246, 247, 248, 249, 250, 251, 252, 253, 254, 255, 256, 257, 258, 259, 260, 261, 262, 263, 264, 265, 266, 267, 268, 269, 270, 271, 272, 273, 274, 275, 276, 277, 278, 279, 280, 281, 282, 283, 284, 285, 286, 287, 288, 289, 290, 291, 292, 293, 294, 295, 296, 297, 298, 299, 300, 301, 302, 303, 304, 305, 306, 307, 308, 309, 310, 311, 312, 313, 314, 315, 316, 317, 318, 319, 320, 321, 322, 323, 324, 325, 326, 327, 328, 329, 330, 331, 332, 333, 334, 335, 336, 337, 338, 339, 340, 341, 342, 343, 344, 345, 346, 347, 348],
      "LargestImagePixelValue": [47083, 46555, 45572, 44171, 44976, 45018, 45481, 45601, 46408, 44797, 44825, 44763, 45917, 45530, 45614, 46502, 46452, 46868, 45740, 46342, 46438, 46081, 46669, 45351, 46004, 46182, 45301, 47103, 46492, 47046, 47026, 45556, 46808, 45988, 47477, 46575, 45638, 46227, 44724, 45899, 46457, 46347, 46192, 46561, 47093, 47665, 46603, 47267, 46956, 45612, 46510, 43877, 45788, 45155, 45310, 45779, 45824, 47906, 45578, 46146, 46824, 46348, 47552, 45622, 48284, 48102, 46571, 48219, 47614, 46931, 47711, 46560, 46615, 46649, 47159, 46248, 47985, 46538, 47118, 46568, 47530, 46792, 47839, 46192, 46355, 44419, 46205, 45402, 46043, 45600, 46172, 45167, 44152, 44985, 44332, 44649, 44545, 42497, 46191, 44048, 43555, 46518, 46392, 45655, 45232, 46690, 44174, 47117, 44677, 45382, 43503, 44568, 45235, 45160, 45590, 45696, 45795, 45614, 46384, 44787, 46425, 46226, 45355, 44704, 44824, 45191, 43886, 47164, 46581, 45277, 44663, 48255, 48537, 46920, 48049, 47879, 46661, 47350, 46386, 47716, 47413, 47526, 49021, 47024, 47639, 48244, 46746, 47572, 46884, 46581, 46657, 45138, 46432, 47165, 47876, 47008, 47525, 46446, 46972, 46302, 46250, 47190, 45532, 47087, 48003, 47307, 47483, 46231, 46426, 46032, 45658, 45364, 46890, 45715, 46978, 46135, 43951, 44481, 45638, 46212, 45979, 46313, 47212, 44955, 48201, 47879, 46090, 46330, 46454, 45601, 46893, 45605, 46409, 45674, 46343, 46398, 45465, 47068, 45371, 45407, 42970, 44510, 44195, 44758, 43996, 44067, 43972, 44447, 44179, 42926, 44138, 42919, 44022, 43832, 42651, 43361, 42574, 43258, 42229, 43813, 42349, 42800, 43355, 42674, 41897, 42227, 42311, 42664, 42196, 42911, 42949, 44655, 43286, 44536, 43950, 44138, 42959, 42249, 43529, 43879, 44546, 44965, 44000, 46021, 47082, 46120, 45091, 48183, 48424, 45815, 44600, 45910, 48031, 45867, 46434, 47141, 45374, 46087, 46602, 45747, 45700, 44507, 45203, 43754, 43782, 43070, 43453, 43741, 43913, 43899, 44287, 44833, 44967, 43545, 44563, 44996, 42473, 44111, 44812, 44367, 45737, 45540, 45097, 45444, 44229, 45478, 45316, 45386, 46320, 45440, 45985, 45247, 44775, 44355, 43325, 46918, 48054, 42387, 44156, 42662, 41732, 43068, 42587, 43446, 42936, 42503, 42542, 42370, 42397, 42970, 41747, 43920, 43963, 42469, 41900, 42633, 42528, 41889, 41981, 43620, 43544, 41729, 43379, 43681, 42748, 41902, 42252, 42927, 41682, 42178, 43707, 43007, 42319, 44668, 44937, 43241, 42025, 42927, 44246, 42851, 42055, 42599, 44855, 44765, 44063, 42750, 43651, 43027],
