{
  "AcquisitionMatrixPE": 104,
  "AcquisitionNumber": 1,
  "AcquisitionTime": "17:38:31.930000",
  "BandwidthPerPixelPhaseEncode": 17.17,
  "BaseResolution": 104,
  "BodyPartExamined": "BRAIN",
  "CoilCombinationMethod": "Sum of Squares",
  "ConsistencyInfo": "N4_VE11C_LATEST_20160120",
  "ConversionSoftware": "dcm2niix",
  "ConversionSoftwareVersion": "v1.0.20220505",
  "DerivedVendorReportedEchoSpacing": 0.000560011,
  "DeviceSerialNumber": "167006",
  "DwellTime": 2.1e-06,
  "EchoTime": 0.037,
  "EchoTime1": 0.037,
  "EchoTime2": 0.001,
  "EchoTrainLength": 104,
  "EffectiveEchoSpacing": 0.000560011,
  "FlipAngle": 52,
  "HeudiconvVersion": "0.5.3.post811+g6206e14",
  "ImageComments": "Unaliased MB4/PE3/LB",
  "ImageOrientationPatientDICOM": [0.994341, 0.105607, 0.0115233, -0.0950436, 0.93281, -0.34761],
  "ImageOrientationText": "Tra>Cor(-20.2)>Sag(2.7)",
  "ImageType": [
    "ORIGINAL",
    "PRIMARY",
    "P",
    "MB",
    "ND",
    "MOSAIC",
    "PHASE"
],
  "ImagingFrequency": 123.26,
  "InPlanePhaseEncodingDirectionDICOM": "COL",
  "InstitutionAddress": "Chemin Queen-Mary 4565,Montreal,District,CA,H3W 1W5",
  "InstitutionName": "IUGM",
  "InstitutionalDepartmentName": "Department",
  "MRAcquisitionType": "2D",
  "MagneticFieldStrength": 3,
  "Manufacturer": "Siemens",
  "ManufacturersModelName": "Prisma_fit",
  "MatrixCoilMode": "SENSE",
  "Modality": "MR",
  "MultibandAccelerationFactor": 4,
  "PartialFourier": 1,
  "PatientPosition": "HFS",
  "PercentPhaseFOV": 100,
  "PercentSampling": 100,
  "PhaseEncodingDirection": "j",
  "PhaseEncodingSteps": 104,
  "PhaseResolution": 1,
  "PixelBandwidth": 2290,
  "ProcedureStepDescription": "games^mario3",
  "ProtocolName": "func_task-mario3_run-03",
  "PulseSequenceDetails": "%CustomerSeq%\\cmrr_mbep2d_bold",
  "ReceiveCoilActiveElements": "HC1-7;NC1,2",
  "ReceiveCoilName": "HeadNeck_64",
  "ReconMatrixPE": 104,
  "RepetitionTime": 1.49,
  "SAR": 0.0664354,
  "ScanOptions": "FS",
  "ScanningSequence": "EP",
  "SequenceName": "epfid2d1_104",
  "SequenceVariant": "SK\\SS",
  "SeriesDescription": "func_task-mario3_run-03",
  "SeriesNumber": 17,
  "ShimSetting": [610, -7197, -8817, 657, 89, -51, -48, 12],
  "SliceThickness": 2,
  "SliceTiming": [0, 0.785, 0.0975, 0.8825, 0.195, 0.98, 0.295, 1.0775, 0.3925, 1.175, 0.49, 1.2725, 0.5875, 1.3725, 0.685, 0, 0.785, 0.0975, 0.8825, 0.195, 0.98, 0.295, 1.0775, 0.3925, 1.175, 0.49, 1.2725, 0.5875, 1.3725, 0.685, 0, 0.785, 0.0975, 0.8825, 0.195, 0.98, 0.295, 1.0775, 0.3925, 1.175, 0.49, 1.2725, 0.5875, 1.3725, 0.685, 0, 0.785, 0.0975, 0.8825, 0.195, 0.98, 0.295, 1.0775, 0.3925, 1.175, 0.49, 1.2725, 0.5875, 1.3725, 0.685],
  "SoftwareVersions": "syngo MR E11",
  "SpacingBetweenSlices": 2,
  "StationName": "MRC35049",
  "TaskName": "mario3",
  "TotalReadoutTime": 0.0576811,
  "TxRefAmp": 275.805,
  "WipMemBlock": "a2b3aea1-681e-4780-8379-269e93a1eb71||Sequence: R017 ve11c/master r/75a17815+; Jun 28 2022 16:32:11 by eja",
  "dcmmeta_affine": [
    [-1.9886822700500488, -0.190087229013443, 0.09491832554340363, 112.41594696044922],
    [-0.2112143337726593, 1.8656196594238281, -0.6890947818756104, -56.83516311645508],
    [0.023046694695949554, 0.6952193379402161, 1.8751370906829834, -63.97115707397461],
    [0.0, 0.0, 0.0, 1.0]
],
  "dcmmeta_reorient_transform": [
    [0.0, -1.0, 0.0, 103.0],
    [1.0, 0.0, 0.0, 0.0],
    [0.0, 0.0, 1.0, 0.0],
    [0.0, 0.0, 0.0, 1.0]
],
  "dcmmeta_shape": [104, 104, 60, 348],
  "dcmmeta_slice_dim": 2,
  "dcmmeta_version": 0.6,
  "global": {
    "const": {
      "AcquisitionMatrix": [104, 0, 0, 104],
      "AngioFlag": "N",
      "BitsAllocated": 16,
      "BitsStored": 16,
      "BodyPartExamined": "BRAIN",
      "Columns": 832,
      "EchoNumbers": 1,
      "EchoTime": 37.0,
      "EchoTrainLength": 104,
      "FlipAngle": 52.0,
      "HighBit": 15,
      "ImageOrientationPatient": [0.9943411583543, 0.10560716488677, 0.01152334704914, -0.0950436137908, 0.93280985341998, -0.3476096788644],
      "ImagePositionPatient": [-747.52557150354, -891.29125589259, 252.30728639851],
      "ImageType": [
        "ORIGINAL",
        "PRIMARY",
        "P",
        "MB",
        "ND",
        "MOSAIC"
],
      "ImagedNucleus": "1H",
      "ImagingFrequency": 123.260393,
      "InPlanePhaseEncodingDirection": "COL",
      "LargestImagePixelValue": 4095,
      "MRAcquisitionType": "2D",
      "MagneticFieldStrength": 3.0,
      "Manufacturer": "SIEMENS",
      "ManufacturerModelName": "Prisma_fit",
      "Modality": "MR",
      "NumberOfAverages": 1.0,
      "NumberOfPhaseEncodingSteps": 104,
      "PercentPhaseFieldOfView": 100.0,
      "PercentSampling": 100.0,
      "PerformedProcedureStepStartTime": "171158.986000",
      "PhotometricInterpretation": "MONOCHROME2",
      "PixelBandwidth": 2290.0,
      "PixelRepresentation": 0,
      "PixelSpacing": [2.0, 2.0],
      "ProtocolName": "func_task-mario3_run-03",
      "RepetitionTime": 1490.0,
      "RescaleIntercept": -4096.0,
      "RescaleSlope": 2.0,
      "RescaleType": "US",
      "Rows": 832,
      "SAR": 0.06643536401248,
      "SamplesPerPixel": 1,
      "ScanOptions": "FS",
      "ScanningSequence": "EP",
      "SequenceName": "epfid2d1_104",
      "SequenceVariant": [
        "SK",
        "SS"
],
      "SeriesDescription": "func_task-mario3_run-03",
      "SeriesNumber": 17,
      "SeriesTime": "173948.757000",
      "SliceLocation": -35.059768890139,
      "SliceThickness": 2.0,
      "SmallestImagePixelValue": 0,
      "SoftwareVersions": "syngo MR E11",
      "SpacingBetweenSlices": 2.0000000110439,
      "SpecificCharacterSet": "ISO_IR 100",
      "StudyID": "1",
      "StudyTime": "171158.867000",
      "TransmitCoilName": "Body",
      "VariableFlipAngleFlag": "N",
      "WindowCenterWidthExplanation": "Algo1",
      "dBdt": 0.0},
    "slices": {}
  },
  "time": {
    "samples": {
      "AcquisitionNumber": [1, 2, 3, 4, 5, 6, 7, 8, 9, 10, 11, 12, 13, 14, 15, 16, 17, 18, 19, 20, 21, 22, 23, 24, 25, 26, 27, 28, 29, 30, 31, 32, 33, 34, 35, 36, 37, 38, 39, 40, 41, 42, 43, 44, 45, 46, 47, 48, 49, 50, 51, 52, 53, 54, 55, 56, 57, 58, 59, 60, 61, 62, 63, 64, 65, 66, 67, 68, 69, 70, 71, 72, 73, 74, 75, 76, 77, 78, 79, 80, 81, 82, 83, 84, 85, 86, 87, 88, 89, 90, 91, 92, 93, 94, 95, 96, 97, 98, 99, 100, 101, 102, 103, 104, 105, 106, 107, 108, 109, 110, 111, 112, 113, 114, 115, 116, 117, 118, 119, 120, 121, 122, 123, 124, 125, 126, 127, 128, 129, 130, 131, 132, 133, 134, 135, 136, 137, 138, 139, 140, 141, 142, 143, 144, 145, 146, 147, 148, 149, 150, 151, 152, 153, 154, 155, 156, 157, 158, 159, 160, 161, 162, 163, 164, 165, 166, 167, 168, 169, 170, 171, 172, 173, 174, 175, 176, 177, 178, 179, 180, 181, 182, 183, 184, 185, 186, 187, 188, 189, 190, 191, 192, 193, 194, 195, 196, 197, 198, 199, 200, 201, 202, 203, 204, 205, 206, 207, 208, 209, 210, 211, 212, 213, 214, 215, 216, 217, 218, 219, 220, 221, 222, 223, 224, 225, 226, 227, 228, 229, 230, 231, 232, 233, 234, 235, 236, 237, 238, 239, 240, 241, 242, 243, 244, 245, 246, 247, 248, 249, 250, 251, 252, 253, 254, 255, 256, 257, 258, 259, 260, 261, 262, 263, 264, 265, 266, 267, 268, 269, 270, 271, 272, 273, 274, 275, 276, 277, 278, 279, 280, 281, 282, 283, 284, 285, 286, 287, 288, 289, 290, 291, 292, 293, 294, 295, 296, 297, 298, 299, 300, 301, 302, 303, 304, 305, 306, 307, 308, 309, 310, 311, 312, 313, 314, 315, 316, 317, 318, 319, 320, 321, 322, 323, 324, 325, 326, 327, 328, 329, 330, 331, 332, 333, 334, 335, 336, 337, 338, 339, 340, 341, 342, 343, 344, 345, 346, 347, 348],
      "AcquisitionTime": ["173831.930000", "173833.420000", "173834.910000", "173836.400000", "173837.890000", "173839.380000", "173840.870000", "173842.360000", "173843.850000", "173845.340000", "173846.830000", "173848.320000", "173849.810000", "173851.300000", "173852.790000", "173854.280000", "173855.770000", "173857.260000", "173858.750000", "173900.240000", "173901.730000", "173903.220000", "173904.710000", "173906.200000", "173907.690000", "173909.180000", "173910.670000", "173912.160000", "173913.650000", "173915.140000", "173916.630000", "173918.120000", "173919.610000", "173921.100000", "173922.590000", "173924.080000", "173925.570000", "173927.060000", "173928.550000", "173930.040000", "173931.530000", "173933.020000", "173934.510000", "173936.000000", "173937.490000", "173938.980000", "173940.470000", "173941.960000", "173943.450000", "173944.940000", "173946.430000", "173947.920000", "173949.410000", "173950.900000", "173952.390000", "173953.880000", "173955.370000", "173956.860000", "173958.350000", "173959.840000", "174001.330000", "174002.820000", "174004.310000", "174005.800000", "174007.290000", "174008.780000", "174010.270000", "174011.760000", "174013.250000", "174014.740000", "174016.230000", "174017.720000", "174019.210000", "174020.700000", "174022.190000", "174023.680000", "174025.170000", "174026.660000", "174028.150000", "174029.640000", "174031.130000", "174032.620000", "174034.110000", "174035.600000", "174037.090000", "174038.580000", "174040.070000", "174041.560000", "174043.050000", "174044.540000", "174046.030000", "174047.520000", "174049.010000", "174050.500000", "174051.990000", "174053.480000", "174054.970000", "174056.460000", "174057.950000", "174059.440000", "174100.930000", "174102.420000", "174103.910000", "174105.400000", "174106.890000", "174108.380000", "174109.870000", "174111.360000", "174112.850000", "174114.340000", "174115.830000", "174117.320000", "174118.810000", "174120.300000", "174121.790000", "174123.280000", "174124.770000", "174126.260000", "174127.750000", "174129.240000", "174130.730000", "174132.220000", "174133.710000", "174135.200000", "174136.690000", "174138.180000", "174139.670000", "174141.160000", "174142.650000", "174144.140000", "174145.630000", "174147.120000", "174148.610000", "174150.100000", "174151.590000", "174153.080000", "174154.570000", "174156.060000", "174157.550000", "174159.040000", "174200.530000", "174202.020000", "174203.510000", "174205.000000", "174206.490000", "174207.980000", "174209.470000", "174210.960000", "174212.450000", "174213.940000", "174215.430000", "174216.920000", "174218.410000", "174219.900000", "174221.390000", "174222.880000", "174224.370000", "174225.860000", "174227.350000", "174228.840000", "174230.330000", "174231.820000", "174233.310000", "174234.800000", "174236.290000", "174237.780000", "174239.270000", "174240.760000", "174242.250000", "174243.740000", "174245.230000", "174246.720000", "174248.210000", "174249.700000", "174251.190000", "174252.680000", "174254.170000", "174255.660000", "174257.150000", "174258.640000", "174300.130000", "174301.620000", "174303.110000", "174304.600000", "174306.090000", "174307.580000", "174309.070000", "174310.560000", "174312.050000", "174313.540000", "174315.030000", "174316.520000", "174318.010000", "174319.500000", "174320.990000", "174322.480000", "174323.970000", "174325.460000", "174326.950000", "174328.440000", "174329.930000", "174331.420000", "174332.910000", "174334.400000", "174335.890000", "174337.380000", "174338.870000", "174340.360000", "174341.850000", "174343.340000", "174344.830000", "174346.320000", "174347.810000", "174349.300000", "174350.790000", "174352.280000", "174353.770000", "174355.260000", "174356.750000", "174358.240000", "174359.730000", "174401.220000", "174402.710000", "174404.200000", "174405.690000", "174407.180000", "174408.670000", "174410.160000", "174411.650000", "174413.140000", "174414.630000", "174416.120000", "174417.610000", "174419.100000", "174420.590000", "174422.080000", "174423.570000", "174425.060000", "174426.550000", "174428.040000", "174429.530000", "174431.020000", "174432.510000", "174434.000000", "174435.490000", "174436.980000", "174438.470000", "174439.960000", "174441.450000", "174442.940000", "174444.430000", "174445.920000", "174447.410000", "174448.900000", "174450.390000", "174451.880000", "174453.370000", "174454.860000", "174456.350000", "174457.840000", "174459.330000", "174500.820000", "174502.310000", "174503.800000", "174505.290000", "174506.780000", "174508.270000", "174509.760000", "174511.250000", "174512.740000", "174514.230000", "174515.720000", "174517.210000", "174518.700000", "174520.190000", "174521.680000", "174523.170000", "174524.660000", "174526.150000", "174527.640000", "174529.130000", "174530.620000", "174532.110000", "174533.600000", "174535.090000", "174536.580000", "174538.070000", "174539.560000", "174541.050000", "174542.540000", "174544.030000", "174545.520000", "174547.010000", "174548.500000", "174549.990000", "174551.480000", "174552.970000", "174554.460000", "174555.950000", "174557.440000", "174558.930000", "174600.420000", "174601.910000", "174603.400000", "174604.890000", "174606.380000", "174607.870000", "174609.360000", "174610.850000", "174612.340000", "174613.830000", "174615.320000", "174616.810000", "174618.300000", "174619.790000", "174621.280000", "174622.770000", "174624.260000", "174625.750000", "174627.240000", "174628.730000", "174630.220000", "174631.710000", "174633.200000", "174634.690000", "174636.180000", "174637.670000", "174639.160000", "174640.650000", "174642.140000", "174643.630000", "174645.120000", "174646.610000", "174648.100000", "174649.590000", "174651.080000", "174652.570000", "174654.060000", "174655.550000", "174657.040000", "174658.530000", "174700.020000", "174701.510000", "174703.000000", "174704.490000", "174705.980000", "174707.470000", "174708.960000"],
      "ContentTime": ["173948.759000", "173948.762000", "173948.765000", "173948.767000", "173948.770000", "173948.772000", "173948.775000", "173948.777000", "173948.780000", "173948.782000", "173948.785000", "173948.787000", "173948.790000", "173948.792000", "173948.794000", "173948.797000", "173948.800000", "173948.802000", "173948.805000", "173948.807000", "173948.809000", "173948.812000", "173948.814000", "173948.819000", "173948.821000", "173948.824000", "173948.826000", "173948.829000", "174008.699000", "174008.702000", "174008.709000", "174008.711000", "174008.714000", "174008.716000", "174008.719000", "174008.721000", "174008.724000", "174008.726000", "174008.729000", "174008.731000", "174008.734000", "174008.736000", "174008.738000", "174008.741000", "174008.743000", "174008.746000", "174008.748000", "174008.751000", "174028.698000", "174028.701000", "174028.704000", "174028.706000", "174028.709000", "174028.711000", "174028.714000", "174028.716000", "174028.719000", "174028.721000", "174028.723000", "174028.726000", "174028.728000", "174028.731000", "174028.733000", "174028.736000", "174028.738000", "174028.741000", "174028.743000", "174028.746000", "174049.121000", "174049.124000", "174049.126000", "174049.128000", "174049.131000", "174049.134000", "174049.136000", "174049.139000", "174049.141000", "174049.143000", "174049.146000", "174049.148000", "174049.151000", "174049.153000", "174049.156000", "174049.207000", "174049.209000", "174049.212000", "174049.214000", "174049.217000", "174049.219000", "174128.724000", "174128.726000", "174128.729000", "174128.731000", "174128.734000", "174128.736000", "174128.739000", "174128.741000", "174128.744000", "174128.746000", "174128.749000", "174128.751000", "174128.754000", "174128.756000", "174128.759000", "174128.761000", "174128.764000", "174128.766000", "174128.769000", "174128.771000", "174128.774000", "174128.776000", "174128.779000", "174128.781000", "174128.784000", "174128.786000", "174128.789000", "174128.791000", "174128.794000", "174208.720000", "174208.722000", "174208.725000", "174208.727000", "174208.730000", "174208.732000", "174208.735000", "174208.737000", "174208.740000", "174208.742000", "174208.745000", "174208.747000", "174208.750000", "174208.752000", "174208.755000", "174208.757000", "174208.760000", "174208.762000", "174208.765000", "174208.767000", "174208.770000", "174208.772000", "174208.775000", "174208.777000", "174208.780000", "174208.782000", "174208.785000", "174248.716000", "174248.718000", "174248.721000", "174248.723000", "174248.726000", "174248.728000", "174248.731000", "174248.733000", "174248.736000", "174248.738000", "174248.741000", "174248.743000", "174248.746000", "174248.748000", "174248.751000", "174248.753000", "174248.756000", "174248.758000", "174248.761000", "174248.763000", "174248.766000", "174248.768000", "174248.771000", "174248.773000", "174248.776000", "174248.778000", "174248.781000", "174328.724000", "174328.727000", "174328.730000", "174328.732000", "174328.735000", "174328.737000", "174328.739000", "174328.742000", "174328.744000", "174328.747000", "174328.749000", "174328.752000", "174328.754000", "174328.757000", "174328.759000", "174328.762000", "174328.764000", "174328.767000", "174328.769000", "174328.772000", "174328.774000", "174328.777000", "174328.779000", "174328.782000", "174328.784000", "174328.787000", "174408.744000", "174408.747000", "174408.750000", "174408.753000", "174408.756000", "174408.758000", "174408.761000", "174408.764000", "174408.766000", "174408.769000", "174408.772000", "174408.775000", "174408.778000", "174408.781000", "174408.784000", "174408.787000", "174408.789000", "174408.792000", "174408.794000", "174408.797000", "174408.799000", "174408.802000", "174408.805000", "174408.807000", "174408.810000", "174408.812000", "174408.815000", "174448.727000", "174448.730000", "174448.732000", "174448.735000", "174448.737000", "174448.740000", "174448.742000", "174448.745000", "174448.747000", "174448.750000", "174448.752000", "174448.755000", "174448.757000", "174448.760000", "174448.762000", "174448.765000", "174448.767000", "174448.770000", "174448.772000", "174448.774000", "174448.777000", "174448.780000", "174448.782000", "174448.785000", "174448.787000", "174448.790000", "174448.792000", "174528.713000", "174528.716000", "174528.718000", "174528.721000", "174528.723000", "174528.726000", "174528.728000", "174528.731000", "174528.733000", "174528.736000", "174528.738000", "174528.741000", "174528.743000", "174528.746000", "174528.748000", "174528.751000", "174528.753000", "174528.756000", "174528.758000", "174528.760000", "174528.763000", "174528.765000", "174528.768000", "174528.770000", "174528.773000", "174528.776000", "174528.778000", "174608.710000", "174608.712000", "174608.715000", "174608.717000", "174608.720000", "174608.722000", "174608.725000", "174608.727000", "174608.730000", "174608.732000", "174608.735000", "174608.737000", "174608.740000", "174608.742000", "174608.745000", "174608.748000", "174608.750000", "174608.753000", "174608.755000", "174608.758000", "174608.760000", "174608.763000", "174608.765000", "174608.768000", "174608.770000", "174608.773000", "174608.775000", "174648.740000", "174648.743000", "174648.746000", "174648.748000", "174648.751000", "174648.753000", "174648.756000", "174648.758000", "174648.761000", "174648.763000", "174648.766000", "174648.768000", "174648.771000", "174648.773000", "174648.776000", "174648.778000", "174648.781000", "174648.783000", "174648.786000", "174648.789000", "174648.791000", "174648.793000", "174648.796000", "174648.798000", "174648.801000", "174648.803000", "174648.806000", "174711.478000", "174711.481000", "174711.483000", "174711.486000", "174711.488000", "174711.491000", "174711.493000", "174711.496000", "174711.498000", "174711.501000", "174711.504000", "174711.506000", "174711.509000", "174711.511000", "174711.514000"],
      "InstanceCreationTime": ["173948.759000", "173948.762000", "173948.765000", "173948.767000", "173948.770000", "173948.772000", "173948.775000", "173948.777000", "173948.780000", "173948.782000", "173948.785000", "173948.787000", "173948.790000", "173948.792000", "173948.794000", "173948.797000", "173948.800000", "173948.802000", "173948.805000", "173948.807000", "173948.809000", "173948.812000", "173948.814000", "173948.819000", "173948.821000", "173948.824000", "173948.826000", "173948.829000", "174008.699000", "174008.702000", "174008.709000", "174008.711000", "174008.714000", "174008.716000", "174008.719000", "174008.721000", "174008.724000", "174008.726000", "174008.729000", "174008.731000", "174008.734000", "174008.736000", "174008.738000", "174008.741000", "174008.743000", "174008.746000", "174008.748000", "174008.751000", "174028.698000", "174028.701000", "174028.704000", "174028.706000", "174028.709000", "174028.711000", "174028.714000", "174028.716000", "174028.719000", "174028.721000", "174028.723000", "174028.726000", "174028.728000", "174028.731000", "174028.733000", "174028.736000", "174028.738000", "174028.741000", "174028.743000", "174028.746000", "174049.121000", "174049.124000", "174049.126000", "174049.128000", "174049.131000", "174049.134000", "174049.136000", "174049.139000", "174049.141000", "174049.143000", "174049.146000", "174049.148000", "174049.151000", "174049.153000", "174049.156000", "174049.207000", "174049.209000", "174049.212000", "174049.214000", "174049.217000", "174049.219000", "174128.724000", "174128.726000", "174128.729000", "174128.731000", "174128.734000", "174128.736000", "174128.739000", "174128.741000", "174128.744000", "174128.746000", "174128.749000", "174128.751000", "174128.754000", "174128.756000", "174128.759000", "174128.761000", "174128.764000", "174128.766000", "174128.769000", "174128.771000", "174128.774000", "174128.776000", "174128.779000", "174128.781000", "174128.784000", "174128.786000", "174128.789000", "174128.791000", "174128.794000", "174208.720000", "174208.722000", "174208.725000", "174208.727000", "174208.730000", "174208.732000", "174208.735000", "174208.737000", "174208.740000", "174208.742000", "174208.745000", "174208.747000", "174208.750000", "174208.752000", "174208.755000", "174208.757000", "174208.760000", "174208.762000", "174208.765000", "174208.767000", "174208.770000", "174208.772000", "174208.775000", "174208.777000", "174208.780000", "174208.782000", "174208.785000", "174248.716000", "174248.718000", "174248.721000", "174248.723000", "174248.726000", "174248.728000", "174248.731000", "174248.733000", "174248.736000", "174248.738000", "174248.741000", "174248.743000", "174248.746000", "174248.748000", "174248.751000", "174248.753000", "174248.756000", "174248.758000", "174248.761000", "174248.763000", "174248.766000", "174248.768000", "174248.771000", "174248.773000", "174248.776000", "174248.778000", "174248.781000", "174328.724000", "174328.727000", "174328.730000", "174328.732000", "174328.735000", "174328.737000", "174328.739000", "174328.742000", "174328.744000", "174328.747000", "174328.749000", "174328.752000", "174328.754000", "174328.757000", "174328.759000", "174328.762000", "174328.764000", "174328.767000", "174328.769000", "174328.772000", "174328.774000", "174328.777000", "174328.779000", "174328.782000", "174328.784000", "174328.787000", "174408.744000", "174408.747000", "174408.750000", "174408.753000", "174408.756000", "174408.758000", "174408.761000", "174408.764000", "174408.766000", "174408.769000", "174408.772000", "174408.775000", "174408.778000", "174408.781000", "174408.784000", "174408.787000", "174408.789000", "174408.792000", "174408.794000", "174408.797000", "174408.799000", "174408.802000", "174408.805000", "174408.807000", "174408.810000", "174408.812000", "174408.815000", "174448.727000", "174448.730000", "174448.732000", "174448.735000", "174448.737000", "174448.740000", "174448.742000", "174448.745000", "174448.747000", "174448.750000", "174448.752000", "174448.755000", "174448.757000", "174448.760000", "174448.762000", "174448.765000", "174448.767000", "174448.770000", "174448.772000", "174448.774000", "174448.777000", "174448.780000", "174448.782000", "174448.785000", "174448.787000", "174448.790000", "174448.792000", "174528.713000", "174528.716000", "174528.718000", "174528.721000", "174528.723000", "174528.726000", "174528.728000", "174528.731000", "174528.733000", "174528.736000", "174528.738000", "174528.741000", "174528.743000", "174528.746000", "174528.748000", "174528.751000", "174528.753000", "174528.756000", "174528.758000", "174528.760000", "174528.763000", "174528.765000", "174528.768000", "174528.770000", "174528.773000", "174528.776000", "174528.778000", "174608.710000", "174608.712000", "174608.715000", "174608.717000", "174608.720000", "174608.722000", "174608.725000", "174608.727000", "174608.730000", "174608.732000", "174608.735000", "174608.737000", "174608.740000", "174608.742000", "174608.745000", "174608.748000", "174608.750000", "174608.753000", "174608.755000", "174608.758000", "174608.760000", "174608.763000", "174608.765000", "174608.768000", "174608.770000", "174608.773000", "174608.775000", "174648.740000", "174648.743000", "174648.746000", "174648.748000", "174648.751000", "174648.753000", "174648.756000", "174648.758000", "174648.761000", "174648.763000", "174648.766000", "174648.768000", "174648.771000", "174648.773000", "174648.776000", "174648.778000", "174648.781000", "174648.783000", "174648.786000", "174648.789000", "174648.791000", "174648.793000", "174648.796000", "174648.798000", "174648.801000", "174648.803000", "174648.806000", "174711.478000", "174711.481000", "174711.483000", "174711.486000", "174711.488000", "174711.491000", "174711.493000", "174711.496000", "174711.498000", "174711.501000", "174711.504000", "174711.506000", "174711.509000", "174711.511000", "174711.514000"],
      "InstanceNumber": [1, 2, 3, 4, 5, 6, 7, 8, 9, 10, 11, 12, 13, 14, 15, 16, 17, 18, 19, 20, 21, 22, 23, 24, 25, 26, 27, 28, 29, 30, 31, 32, 33, 34, 35, 36, 37, 38, 39, 40, 41, 42, 43, 44, 45, 46, 47, 48, 49, 50, 51, 52, 53, 54, 55, 56, 57, 58, 59, 60, 61, 62, 63, 64, 65, 66, 67, 68, 69, 70, 71, 72, 73, 74, 75, 76, 77, 78, 79, 80, 81, 82, 83, 84, 85, 86, 87, 88, 89, 90, 91, 92, 93, 94, 95, 96, 97, 98, 99, 100, 101, 102, 103, 104, 105, 106, 107, 108, 109, 110, 111, 112, 113, 114, 115, 116, 117, 118, 119, 120, 121, 122, 123, 124, 125, 126, 127, 128, 129, 130, 131, 132, 133, 134, 135, 136, 137, 138, 139, 140, 141, 142, 143, 144, 145, 146, 147, 148, 149, 150, 151, 152, 153, 154, 155, 156, 157, 158, 159, 160, 161, 162, 163, 164, 165, 166, 167, 168, 169, 170, 171, 172, 173, 174, 175, 176, 177, 178, 179, 180, 181, 182, 183, 184, 185, 186, 187, 188, 189, 190, 191, 192, 193, 194, 195, 196, 197, 198, 199, 200, 201, 202, 203, 204, 205, 206, 207, 208, 209, 210, 211, 212, 213, 214, 215, 216, 217, 218, 219, 220, 221, 222, 223, 224, 225, 226, 227, 228, 229, 230, 231, 232, 233, 234, 235, 236, 237, 238, 239, 240, 241, 242, 243, 244, 245, 246, 247, 248, 249, 250, 251, 252, 253, 254, 255, 256, 257, 258, 259, 260, 261, 262, 263, 264, 265, 266, 267, 268, 269, 270, 271, 272, 273, 274, 275, 276, 277, 278, 279, 280, 281, 282, 283, 284, 285, 286, 287, 288, 289, 290, 291, 292, 293, 294, 295, 296, 297, 298, 299, 300, 301, 302, 303, 304, 305, 306, 307, 308, 309, 310, 311, 312, 313, 314, 315, 316, 317, 318, 319, 320, 321, 322, 323, 324, 325, 326, 327, 328, 329, 330, 331, 332, 333, 334, 335, 336, 337, 338, 339, 340, 341, 342, 343, 344, 345, 346, 347, 348],
      "WindowCenter": [4844.0, 4846.0, 4822.0, 4848.0, 4844.0, 4842.0, 4846.0, 4846.0, 4846.0, 4846.0, 4844.0, 4844.0, 4846.0, 4846.0, 4844.0, 4822.0, 4842.0, 4846.0, 4846.0, 4844.0, 4848.0, 4844.0, 4842.0, 4844.0, 4844.0, 4848.0, 4846.0, 4842.0, 4842.0, 4842.0, 4846.0, 4842.0, 4842.0, 4844.0, 4842.0, 4844.0, 4844.0, 4842.0, 4844.0, 4820.0, 4844.0, 4842.0, 4844.0, 4820.0, 4846.0, 4844.0, 4838.0, 4820.0, 4822.0, 4840.0, 4842.0, 4844.0, 4844.0, 4844.0, 4844.0, 4840.0, 4842.0, 4816.0, 4842.0, 4844.0, 4820.0, 4840.0, 4844.0, 4844.0, 4840.0, 4844.0, 4842.0, 4840.0, 4820.0, 4818.0, 4822.0, 4840.0, 4820.0, 4842.0, 4842.0, 4844.0, 4840.0, 4842.0, 4844.0, 4842.0, 4842.0, 4842.0, 4840.0, 4840.0, 4842.0, 4846.0, 4844.0, 4842.0, 4842.0, 4840.0, 4840.0, 4818.0, 4842.0, 4842.0, 4844.0, 4840.0, 4840.0, 4820.0, 4792.0, 4820.0, 4840.0, 4844.0, 4848.0, 4844.0, 4844.0, 4820.0, 4820.0, 4820.0, 4844.0, 4818.0, 4844.0, 4846.0, 4842.0, 4820.0, 4820.0, 4840.0, 4820.0, 4820.0, 4820.0, 4842.0, 4816.0, 4842.0, 4816.0, 4842.0, 4842.0, 4820.0, 4820.0, 4818.0, 4820.0, 4842.0, 4846.0, 4842.0, 4820.0, 4844.0, 4818.0, 4818.0, 4818.0, 4820.0, 4842.0, 4844.0, 4842.0, 4844.0, 4842.0, 4842.0, 4842.0, 4818.0, 4820.0, 4842.0, 4840.0, 4818.0, 4840.0, 4844.0, 4844.0, 4842.0, 4848.0, 4818.0, 4820.0, 4818.0, 4844.0, 4818.0, 4840.0, 4844.0, 4842.0, 4842.0, 4844.0, 4842.0, 4840.0, 4820.0, 4818.0, 4842.0, 4842.0, 4842.0, 4818.0, 4818.0, 4842.0, 4820.0, 4840.0, 4844.0, 4816.0, 4818.0, 4844.0, 4844.0, 4820.0, 4840.0, 4818.0, 4820.0, 4818.0, 4846.0, 4840.0, 4842.0, 4842.0, 4840.0, 4844.0, 4844.0, 4840.0, 4844.0, 4840.0, 4844.0, 4842.0, 4842.0, 4838.0, 4840.0, 4840.0, 4818.0, 4840.0, 4842.0, 4842.0, 4840.0, 4818.0, 4842.0, 4840.0, 4844.0, 4818.0, 4840.0, 4818.0, 4842.0, 4842.0, 4818.0, 4840.0, 4842.0, 4840.0, 4816.0, 4820.0, 4840.0, 4840.0, 4840.0, 4842.0, 4818.0, 4840.0, 4840.0, 4840.0, 4840.0, 4842.0, 4842.0, 4838.0, 4840.0, 4840.0, 4838.0, 4840.0, 4838.0, 4844.0, 4820.0, 4840.0, 4842.0, 4844.0, 4844.0, 4842.0, 4842.0, 4846.0, 4818.0, 4846.0, 4842.0, 4844.0, 4840.0, 4840.0, 4818.0, 4842.0, 4840.0, 4840.0, 4842.0, 4818.0, 4844.0, 4844.0, 4840.0, 4842.0, 4840.0, 4844.0, 4842.0, 4842.0, 4816.0, 4842.0, 4842.0, 4822.0, 4842.0, 4840.0, 4842.0, 4840.0, 4820.0, 4842.0, 4842.0, 4842.0, 4842.0, 4840.0, 4840.0, 4838.0, 4842.0, 4840.0, 4842.0, 4844.0, 4844.0, 4840.0, 4842.0, 4842.0, 4840.0, 4814.0, 4824.0, 4850.0, 4846.0, 4848.0, 4824.0, 4848.0, 4826.0, 4822.0, 4846.0, 4844.0, 4846.0, 4846.0, 4850.0, 4848.0, 4824.0, 4850.0, 4848.0, 4850.0, 4824.0, 4848.0, 4824.0, 4824.0, 4848.0, 4844.0, 4850.0, 4850.0, 4848.0, 4846.0, 4846.0, 4822.0, 4846.0, 4846.0, 4848.0, 4846.0, 4846.0, 4846.0, 4848.0, 4848.0, 4848.0, 4824.0, 4824.0, 4846.0, 4844.0, 4844.0, 4848.0, 4846.0, 4840.0, 4846.0, 4844.0, 4820.0, 4846.0, 4822.0, 4846.0],
