{
  "AcquisitionMatrixPE": 104,
  "AcquisitionNumber": 1,
  "AcquisitionTime": "17:27:48.327500",
  "BandwidthPerPixelPhaseEncode": 17.17,
  "BaseResolution": 104,
  "BodyPartExamined": "BRAIN",
  "CoilCombinationMethod": "Sum of Squares",
  "ConsistencyInfo": "N4_VE11C_LATEST_20160120",
  "ConversionSoftware": "dcm2niix",
  "ConversionSoftwareVersion": "v1.0.20220505",
  "DerivedVendorReportedEchoSpacing": 0.000560011,
  "DeviceSerialNumber": "167006",
  "DwellTime": 2.1e-06,
  "EchoTime": 0.037,
  "EchoTime1": 0.037,
  "EchoTime2": 0.001,
  "EchoTrainLength": 104,
  "EffectiveEchoSpacing": 0.000560011,
  "FlipAngle": 52,
  "HeudiconvVersion": "0.5.3.post811+g6206e14",
  "ImageComments": "Unaliased MB4/PE3/LB",
  "ImageOrientationPatientDICOM": [0.994341, 0.105607, 0.0115233, -0.0950436, 0.93281, -0.34761],
  "ImageOrientationText": "Tra>Cor(-20.2)>Sag(2.7)",
  "ImageType": [
    "ORIGINAL",
    "PRIMARY",
    "P",
    "MB",
    "ND",
    "MOSAIC",
    "PHASE"
],
  "ImagingFrequency": 123.26,
  "InPlanePhaseEncodingDirectionDICOM": "COL",
  "InstitutionAddress": "Chemin Queen-Mary 4565,Montreal,District,CA,H3W 1W5",
  "InstitutionName": "IUGM",
  "InstitutionalDepartmentName": "Department",
  "MRAcquisitionType": "2D",
  "MagneticFieldStrength": 3,
  "Manufacturer": "Siemens",
  "ManufacturersModelName": "Prisma_fit",
  "MatrixCoilMode": "SENSE",
  "Modality": "MR",
  "MultibandAccelerationFactor": 4,
  "PartialFourier": 1,
  "PatientPosition": "HFS",
  "PercentPhaseFOV": 100,
  "PercentSampling": 100,
  "PhaseEncodingDirection": "j",
  "PhaseEncodingSteps": 104,
  "PhaseResolution": 1,
  "PixelBandwidth": 2290,
  "ProcedureStepDescription": "games^mario3",
  "ProtocolName": "func_task-mario3_run-02",
  "PulseSequenceDetails": "%CustomerSeq%\\cmrr_mbep2d_bold",
  "ReceiveCoilActiveElements": "HC1-7;NC1,2",
  "ReceiveCoilName": "HeadNeck_64",
  "ReconMatrixPE": 104,
  "RepetitionTime": 1.49,
  "SAR": 0.0664354,
  "ScanOptions": "FS",
  "ScanningSequence": "EP",
  "SequenceName": "epfid2d1_104",
  "SequenceVariant": "SK\\SS",
  "SeriesDescription": "func_task-mario3_run-02",
  "SeriesNumber": 14,
  "ShimSetting": [610, -7197, -8817, 657, 89, -51, -48, 12],
  "SliceThickness": 2,
  "SliceTiming": [0, 0.7825, 0.0975, 0.8825, 0.195, 0.98, 0.2925, 1.0775, 0.3925, 1.175, 0.49, 1.2725, 0.5875, 1.3725, 0.685, 0, 0.7825, 0.0975, 0.8825, 0.195, 0.98, 0.2925, 1.0775, 0.3925, 1.175, 0.49, 1.2725, 0.5875, 1.3725, 0.685, 0, 0.7825, 0.0975, 0.8825, 0.195, 0.98, 0.2925, 1.0775, 0.3925, 1.175, 0.49, 1.2725, 0.5875, 1.3725, 0.685, 0, 0.7825, 0.0975, 0.8825, 0.195, 0.98, 0.2925, 1.0775, 0.3925, 1.175, 0.49, 1.2725, 0.5875, 1.3725, 0.685],
  "SoftwareVersions": "syngo MR E11",
  "SpacingBetweenSlices": 2,
  "StationName": "MRC35049",
  "TaskName": "mario3",
  "TotalReadoutTime": 0.0576811,
  "TxRefAmp": 275.805,
  "WipMemBlock": "9c0817d9-c03a-4207-b95f-1c60ae9032b1||Sequence: R017 ve11c/master r/75a17815+; Jun 28 2022 16:32:11 by eja",
  "dcmmeta_affine": [
    [-1.9886822700500488, -0.190087229013443, 0.09491832554340363, 112.41594696044922],
    [-0.2112143337726593, 1.8656196594238281, -0.6890947818756104, -56.83516311645508],
    [0.023046694695949554, 0.6952193379402161, 1.8751370906829834, -63.97115707397461],
    [0.0, 0.0, 0.0, 1.0]
],
  "dcmmeta_reorient_transform": [
    [0.0, -1.0, 0.0, 103.0],
    [1.0, 0.0, 0.0, 0.0],
    [0.0, 0.0, 1.0, 0.0],
    [0.0, 0.0, 0.0, 1.0]
],
  "dcmmeta_shape": [104, 104, 60, 391],
  "dcmmeta_slice_dim": 2,
  "dcmmeta_version": 0.6,
  "global": {
    "const": {
      "AcquisitionMatrix": [104, 0, 0, 104],
      "AngioFlag": "N",
      "BitsAllocated": 16,
      "BitsStored": 16,
      "BodyPartExamined": "BRAIN",
      "Columns": 832,
      "EchoNumbers": 1,
      "EchoTime": 37.0,
      "EchoTrainLength": 104,
      "FlipAngle": 52.0,
      "HighBit": 15,
      "ImageOrientationPatient": [0.9943411583543, 0.10560716488677, 0.01152334704914, -0.0950436137908, 0.93280985341998, -0.3476096788644],
      "ImagePositionPatient": [-747.52557150354, -891.29125589259, 252.30728639851],
      "ImageType": [
        "ORIGINAL",
        "PRIMARY",
        "P",
        "MB",
        "ND",
        "MOSAIC"
],
      "ImagedNucleus": "1H",
      "ImagingFrequency": 123.260392,
      "InPlanePhaseEncodingDirection": "COL",
      "LargestImagePixelValue": 4095,
      "MRAcquisitionType": "2D",
      "MagneticFieldStrength": 3.0,
      "Manufacturer": "SIEMENS",
      "ManufacturerModelName": "Prisma_fit",
      "Modality": "MR",
      "NumberOfAverages": 1.0,
      "NumberOfPhaseEncodingSteps": 104,
      "PercentPhaseFieldOfView": 100.0,
      "PercentSampling": 100.0,
      "PerformedProcedureStepStartTime": "171158.986000",
      "PhotometricInterpretation": "MONOCHROME2",
      "PixelBandwidth": 2290.0,
      "PixelRepresentation": 0,
      "PixelSpacing": [2.0, 2.0],
      "ProtocolName": "func_task-mario3_run-02",
      "RepetitionTime": 1490.0,
      "RescaleIntercept": -4096.0,
      "RescaleSlope": 2.0,
      "RescaleType": "US",
      "Rows": 832,
      "SAR": 0.06643536401248,
      "SamplesPerPixel": 1,
      "ScanOptions": "FS",
      "ScanningSequence": "EP",
      "SequenceName": "epfid2d1_104",
      "SequenceVariant": [
        "SK",
        "SS"
],
      "SeriesDescription": "func_task-mario3_run-02",
      "SeriesNumber": 14,
      "SeriesTime": "172910.230000",
      "SliceLocation": -35.059768890139,
      "SliceThickness": 2.0,
      "SmallestImagePixelValue": 0,
      "SoftwareVersions": "syngo MR E11",
      "SpacingBetweenSlices": 2.0000000110439,
      "SpecificCharacterSet": "ISO_IR 100",
      "StudyID": "1",
      "StudyTime": "171158.867000",
      "TransmitCoilName": "Body",
      "VariableFlipAngleFlag": "N",
      "WindowCenterWidthExplanation": "Algo1",
      "dBdt": 0.0},
    "slices": {}
  },
  "time": {
    "samples": {
      "AcquisitionNumber": [1, 2, 3, 4, 5, 6, 7, 8, 9, 10, 11, 12, 13, 14, 15, 16, 17, 18, 19, 20, 21, 22, 23, 24, 25, 26, 27, 28, 29, 30, 31, 32, 33, 34, 35, 36, 37, 38, 39, 40, 41, 42, 43, 44, 45, 46, 47, 48, 49, 50, 51, 52, 53, 54, 55, 56, 57, 58, 59, 60, 61, 62, 63, 64, 65, 66, 67, 68, 69, 70, 71, 72, 73, 74, 75, 76, 77, 78, 79, 80, 81, 82, 83, 84, 85, 86, 87, 88, 89, 90, 91, 92, 93, 94, 95, 96, 97, 98, 99, 100, 101, 102, 103, 104, 105, 106, 107, 108, 109, 110, 111, 112, 113, 114, 115, 116, 117, 118, 119, 120, 121, 122, 123, 124, 125, 126, 127, 128, 129, 130, 131, 132, 133, 134, 135, 136, 137, 138, 139, 140, 141, 142, 143, 144, 145, 146, 147, 148, 149, 150, 151, 152, 153, 154, 155, 156, 157, 158, 159, 160, 161, 162, 163, 164, 165, 166, 167, 168, 169, 170, 171, 172, 173, 174, 175, 176, 177, 178, 179, 180, 181, 182, 183, 184, 185, 186, 187, 188, 189, 190, 191, 192, 193, 194, 195, 196, 197, 198, 199, 200, 201, 202, 203, 204, 205, 206, 207, 208, 209, 210, 211, 212, 213, 214, 215, 216, 217, 218, 219, 220, 221, 222, 223, 224, 225, 226, 227, 228, 229, 230, 231, 232, 233, 234, 235, 236, 237, 238, 239, 240, 241, 242, 243, 244, 245, 246, 247, 248, 249, 250, 251, 252, 253, 254, 255, 256, 257, 258, 259, 260, 261, 262, 263, 264, 265, 266, 267, 268, 269, 270, 271, 272, 273, 274, 275, 276, 277, 278, 279, 280, 281, 282, 283, 284, 285, 286, 287, 288, 289, 290, 291, 292, 293, 294, 295, 296, 297, 298, 299, 300, 301, 302, 303, 304, 305, 306, 307, 308, 309, 310, 311, 312, 313, 314, 315, 316, 317, 318, 319, 320, 321, 322, 323, 324, 325, 326, 327, 328, 329, 330, 331, 332, 333, 334, 335, 336, 337, 338, 339, 340, 341, 342, 343, 344, 345, 346, 347, 348, 349, 350, 351, 352, 353, 354, 355, 356, 357, 358, 359, 360, 361, 362, 363, 364, 365, 366, 367, 368, 369, 370, 371, 372, 373, 374, 375, 376, 377, 378, 379, 380, 381, 382, 383, 384, 385, 386, 387, 388, 389, 390, 391],
      "AcquisitionTime": ["172748.327500", "172749.817500", "172751.307500", "172752.797500", "172754.287500", "172755.777500", "172757.267500", "172758.757500", "172800.247500", "172801.737500", "172803.227500", "172804.717500", "172806.207500", "172807.697500", "172809.187500", "172810.677500", "172812.167500", "172813.657500", "172815.147500", "172816.637500", "172818.127500", "172819.617500", "172821.107500", "172822.597500", "172824.087500", "172825.577500", "172827.067500", "172828.557500", "172830.047500", "172831.537500", "172833.027500", "172834.517500", "172836.007500", "172837.497500", "172838.987500", "172840.477500", "172841.967500", "172843.457500", "172844.947500", "172846.437500", "172847.927500", "172849.417500", "172850.907500", "172852.397500", "172853.887500", "172855.377500", "172856.867500", "172858.357500", "172859.847500", "172901.337500", "172902.827500", "172904.317500", "172905.807500", "172907.297500", "172908.787500", "172910.277500", "172911.767500", "172913.257500", "172914.747500", "172916.237500", "172917.727500", "172919.217500", "172920.707500", "172922.197500", "172923.687500", "172925.177500", "172926.667500", "172928.157500", "172929.647500", "172931.137500", "172932.627500", "172934.117500", "172935.607500", "172937.097500", "172938.587500", "172940.077500", "172941.567500", "172943.057500", "172944.547500", "172946.037500", "172947.527500", "172949.017500", "172950.507500", "172951.997500", "172953.487500", "172954.977500", "172956.467500", "172957.957500", "172959.447500", "173000.937500", "173002.427500", "173003.917500", "173005.407500", "173006.897500", "173008.387500", "173009.877500", "173011.367500", "173012.857500", "173014.347500", "173015.837500", "173017.327500", "173018.817500", "173020.307500", "173021.797500", "173023.287500", "173024.777500", "173026.267500", "173027.757500", "173029.247500", "173030.737500", "173032.227500", "173033.717500", "173035.207500", "173036.697500", "173038.187500", "173039.677500", "173041.167500", "173042.657500", "173044.147500", "173045.637500", "173047.127500", "173048.617500", "173050.107500", "173051.597500", "173053.087500", "173054.577500", "173056.067500", "173057.557500", "173059.047500", "173100.537500", "173102.027500", "173103.517500", "173105.007500", "173106.497500", "173107.987500", "173109.477500", "173110.967500", "173112.457500", "173113.947500", "173115.437500", "173116.927500", "173118.417500", "173119.907500", "173121.397500", "173122.887500", "173124.377500", "173125.867500", "173127.357500", "173128.847500", "173130.337500", "173131.827500", "173133.317500", "173134.807500", "173136.297500", "173137.787500", "173139.277500", "173140.767500", "173142.257500", "173143.747500", "173145.237500", "173146.727500", "173148.217500", "173149.707500", "173151.197500", "173152.687500", "173154.177500", "173155.667500", "173157.157500", "173158.647500", "173200.137500", "173201.627500", "173203.117500", "173204.607500", "173206.097500", "173207.587500", "173209.077500", "173210.567500", "173212.057500", "173213.547500", "173215.037500", "173216.527500", "173218.017500", "173219.507500", "173220.997500", "173222.487500", "173223.977500", "173225.467500", "173226.957500", "173228.447500", "173229.937500", "173231.427500", "173232.917500", "173234.407500", "173235.897500", "173237.387500", "173238.877500", "173240.367500", "173241.857500", "173243.347500", "173244.837500", "173246.327500", "173247.817500", "173249.307500", "173250.797500", "173252.287500", "173253.777500", "173255.267500", "173256.757500", "173258.247500", "173259.737500", "173301.227500", "173302.717500", "173304.207500", "173305.697500", "173307.187500", "173308.677500", "173310.167500", "173311.657500", "173313.147500", "173314.637500", "173316.127500", "173317.617500", "173319.107500", "173320.597500", "173322.087500", "173323.577500", "173325.067500", "173326.557500", "173328.047500", "173329.537500", "173331.027500", "173332.517500", "173334.007500", "173335.497500", "173336.987500", "173338.477500", "173339.967500", "173341.457500", "173342.947500", "173344.437500", "173345.927500", "173347.417500", "173348.907500", "173350.397500", "173351.887500", "173353.377500", "173354.867500", "173356.357500", "173357.847500", "173359.337500", "173400.827500", "173402.317500", "173403.807500", "173405.297500", "173406.787500", "173408.277500", "173409.767500", "173411.257500", "173412.747500", "173414.237500", "173415.727500", "173417.217500", "173418.707500", "173420.197500", "173421.687500", "173423.177500", "173424.667500", "173426.157500", "173427.647500", "173429.137500", "173430.627500", "173432.117500", "173433.607500", "173435.097500", "173436.587500", "173438.077500", "173439.567500", "173441.057500", "173442.547500", "173444.037500", "173445.527500", "173447.017500", "173448.507500", "173449.997500", "173451.487500", "173452.977500", "173454.467500", "173455.957500", "173457.447500", "173458.937500", "173500.427500", "173501.917500", "173503.407500", "173504.897500", "173506.387500", "173507.877500", "173509.367500", "173510.857500", "173512.347500", "173513.837500", "173515.327500", "173516.817500", "173518.307500", "173519.797500", "173521.287500", "173522.777500", "173524.267500", "173525.757500", "173527.247500", "173528.737500", "173530.227500", "173531.717500", "173533.207500", "173534.697500", "173536.187500", "173537.677500", "173539.167500", "173540.657500", "173542.147500", "173543.637500", "173545.127500", "173546.617500", "173548.107500", "173549.597500", "173551.087500", "173552.577500", "173554.067500", "173555.557500", "173557.047500", "173558.537500", "173600.027500", "173601.517500", "173603.007500", "173604.497500", "173605.987500", "173607.477500", "173608.967500", "173610.457500", "173611.947500", "173613.437500", "173614.927500", "173616.417500", "173617.907500", "173619.397500", "173620.887500", "173622.377500", "173623.867500", "173625.357500", "173626.847500", "173628.337500", "173629.827500", "173631.317500", "173632.807500", "173634.297500", "173635.787500", "173637.277500", "173638.767500", "173640.257500", "173641.747500", "173643.237500", "173644.727500", "173646.217500", "173647.707500", "173649.197500", "173650.687500", "173652.177500", "173653.667500", "173655.157500", "173656.647500", "173658.137500", "173659.627500", "173701.117500", "173702.607500", "173704.097500", "173705.587500", "173707.077500", "173708.567500", "173710.057500", "173711.547500", "173713.037500", "173714.527500", "173716.017500", "173717.507500", "173718.997500", "173720.487500", "173721.977500", "173723.467500", "173724.957500", "173726.447500", "173727.937500", "173729.427500"],
      "ContentTime": ["172910.232000", "172910.235000", "172910.238000", "172910.240000", "172910.243000", "172910.245000", "172910.248000", "172910.257000", "172910.260000", "172910.262000", "172910.265000", "172910.267000", "172910.270000", "172910.272000", "172910.275000", "172910.277000", "172910.279000", "172910.282000", "172910.284000", "172910.287000", "172910.289000", "172910.292000", "172910.294000", "172910.297000", "172910.299000", "172910.304000", "172910.306000", "172910.309000", "172910.311000", "172910.314000", "172910.316000", "172910.319000", "172910.321000", "172910.324000", "172930.537000", "172930.540000", "172930.543000", "172930.545000", "172930.548000", "172930.550000", "172930.553000", "172930.555000", "172930.558000", "172930.560000", "172930.563000", "172930.565000", "172930.567000", "172930.570000", "172930.578000", "172930.581000", "172930.583000", "172930.586000", "172930.588000", "172930.591000", "172950.154000", "172950.157000", "172950.159000", "172950.162000", "172950.164000", "172950.167000", "172950.169000", "172950.172000", "172950.174000", "172950.177000", "172950.179000", "172950.182000", "172950.184000", "172950.187000", "172950.189000", "172950.191000", "172950.194000", "172950.196000", "172950.199000", "172950.201000", "173010.153000", "173010.156000", "173010.158000", "173010.161000", "173010.163000", "173010.166000", "173010.168000", "173010.171000", "173010.173000", "173010.176000", "173010.178000", "173010.181000", "173010.183000", "173010.186000", "173010.188000", "173010.191000", "173010.193000", "173010.196000", "173010.198000", "173010.200000", "173050.189000", "173050.192000", "173050.195000", "173050.197000", "173050.200000", "173050.202000", "173050.205000", "173050.207000", "173050.210000", "173050.212000", "173050.215000", "173050.217000", "173050.220000", "173050.222000", "173050.225000", "173050.227000", "173050.229000", "173050.232000", "173050.234000", "173050.237000", "173050.239000", "173050.242000", "173050.245000", "173050.247000", "173050.250000", "173050.252000", "173050.255000", "173130.180000", "173130.183000", "173130.186000", "173130.188000", "173130.191000", "173130.193000", "173130.196000", "173130.198000", "173130.201000", "173130.203000", "173130.206000", "173130.208000", "173130.211000", "173130.213000", "173130.216000", "173130.218000", "173130.221000", "173130.223000", "173130.226000", "173130.228000", "173130.231000", "173130.233000", "173130.236000", "173130.239000", "173130.241000", "173130.244000", "173130.246000", "173210.200000", "173210.202000", "173210.205000", "173210.207000", "173210.210000", "173210.212000", "173210.215000", "173210.217000", "173210.220000", "173210.222000", "173210.225000", "173210.227000", "173210.230000", "173210.232000", "173210.235000", "173210.237000", "173210.239000", "173210.242000", "173210.244000", "173210.247000", "173210.249000", "173210.252000", "173210.254000", "173210.257000", "173210.259000", "173210.262000", "173210.264000", "173250.172000", "173250.174000", "173250.177000", "173250.179000", "173250.182000", "173250.184000", "173250.187000", "173250.189000", "173250.192000", "173250.194000", "173250.197000", "173250.199000", "173250.202000", "173250.204000", "173250.207000", "173250.209000", "173250.212000", "173250.214000", "173250.217000", "173250.220000", "173250.222000", "173250.225000", "173250.227000", "173250.230000", "173250.232000", "173250.235000", "173250.237000", "173330.180000", "173330.183000", "173330.186000", "173330.188000", "173330.190000", "173330.193000", "173330.195000", "173330.198000", "173330.200000", "173330.203000", "173330.205000", "173330.208000", "173330.210000", "173330.213000", "173330.215000", "173330.218000", "173330.220000", "173330.223000", "173330.225000", "173330.228000", "173330.230000", "173330.233000", "173330.235000", "173330.238000", "173330.240000", "173330.243000", "173330.246000", "173410.171000", "173410.174000", "173410.176000", "173410.179000", "173410.181000", "173410.184000", "173410.186000", "173410.189000", "173410.201000", "173410.204000", "173410.206000", "173410.209000", "173410.211000", "173410.214000", "173410.216000", "173410.219000", "173410.221000", "173410.224000", "173410.226000", "173410.229000", "173410.233000", "173410.237000", "173410.239000", "173410.242000", "173410.244000", "173410.247000", "173450.178000", "173450.181000", "173450.184000", "173450.186000", "173450.189000", "173450.191000", "173450.194000", "173450.196000", "173450.199000", "173450.201000", "173450.204000", "173450.206000", "173450.209000", "173450.211000", "173450.214000", "173450.216000", "173450.219000", "173450.221000", "173450.224000", "173450.226000", "173450.229000", "173450.231000", "173450.234000", "173450.236000", "173450.239000", "173450.241000", "173450.244000", "173530.175000", "173530.178000", "173530.180000", "173530.183000", "173530.185000", "173530.188000", "173530.190000", "173530.193000", "173530.195000", "173530.198000", "173530.200000", "173530.203000", "173530.205000", "173530.208000", "173530.210000", "173530.213000", "173530.215000", "173530.218000", "173530.220000", "173530.223000", "173530.225000", "173530.228000", "173530.230000", "173530.233000", "173530.235000", "173530.238000", "173530.240000", "173610.185000", "173610.188000", "173610.190000", "173610.193000", "173610.195000", "173610.198000", "173610.200000", "173610.203000", "173610.205000", "173610.208000", "173610.210000", "173610.213000", "173610.215000", "173610.218000", "173610.220000", "173610.223000", "173610.225000", "173610.228000", "173610.230000", "173610.233000", "173610.235000", "173610.238000", "173610.240000", "173610.243000", "173610.245000", "173610.248000", "173610.250000", "173650.186000", "173650.189000", "173650.192000", "173650.194000", "173650.197000", "173650.199000", "173650.202000", "173650.204000", "173650.207000", "173650.209000", "173650.212000", "173650.214000", "173650.217000", "173650.219000", "173650.222000", "173650.224000", "173650.227000", "173650.229000", "173650.232000", "173650.234000", "173650.237000", "173650.239000", "173650.242000", "173650.244000", "173650.247000", "173650.249000", "173650.252000", "173730.194000", "173730.197000", "173730.200000", "173730.202000", "173730.205000", "173730.208000", "173730.210000", "173730.213000", "173730.215000", "173730.218000", "173730.220000", "173730.223000", "173730.225000", "173730.228000", "173730.230000", "173730.233000", "173730.235000", "173730.238000", "173730.240000", "173730.243000", "173730.245000", "173730.248000", "173730.250000", "173730.253000", "173730.255000", "173730.258000", "173730.260000", "173732.528000"],
      "InstanceCreationTime": ["172910.232000", "172910.235000", "172910.238000", "172910.240000", "172910.243000", "172910.245000", "172910.248000", "172910.257000", "172910.260000", "172910.262000", "172910.265000", "172910.267000", "172910.270000", "172910.272000", "172910.275000", "172910.277000", "172910.279000", "172910.282000", "172910.284000", "172910.287000", "172910.289000", "172910.292000", "172910.294000", "172910.297000", "172910.299000", "172910.304000", "172910.306000", "172910.309000", "172910.311000", "172910.314000", "172910.316000", "172910.319000", "172910.321000", "172910.324000", "172930.537000", "172930.540000", "172930.543000", "172930.545000", "172930.548000", "172930.550000", "172930.553000", "172930.555000", "172930.558000", "172930.560000", "172930.563000", "172930.565000", "172930.567000", "172930.570000", "172930.578000", "172930.581000", "172930.583000", "172930.586000", "172930.588000", "172930.591000", "172950.154000", "172950.157000", "172950.159000", "172950.162000", "172950.164000", "172950.167000", "172950.169000", "172950.172000", "172950.174000", "172950.177000", "172950.179000", "172950.182000", "172950.184000", "172950.187000", "172950.189000", "172950.191000", "172950.194000", "172950.196000", "172950.199000", "172950.201000", "173010.153000", "173010.156000", "173010.158000", "173010.161000", "173010.163000", "173010.166000", "173010.168000", "173010.171000", "173010.173000", "173010.176000", "173010.178000", "173010.181000", "173010.183000", "173010.186000", "173010.188000", "173010.191000", "173010.193000", "173010.196000", "173010.198000", "173010.200000", "173050.189000", "173050.192000", "173050.195000", "173050.197000", "173050.200000", "173050.202000", "173050.205000", "173050.207000", "173050.210000", "173050.212000", "173050.215000", "173050.217000", "173050.220000", "173050.222000", "173050.225000", "173050.227000", "173050.229000", "173050.232000", "173050.234000", "173050.237000", "173050.239000", "173050.242000", "173050.245000", "173050.247000", "173050.250000", "173050.252000", "173050.255000", "173130.180000", "173130.183000", "173130.186000", "173130.188000", "173130.191000", "173130.193000", "173130.196000", "173130.198000", "173130.201000", "173130.203000", "173130.206000", "173130.208000", "173130.211000", "173130.213000", "173130.216000", "173130.218000", "173130.221000", "173130.223000", "173130.226000", "173130.228000", "173130.231000", "173130.233000", "173130.236000", "173130.239000", "173130.241000", "173130.244000", "173130.246000", "173210.200000", "173210.202000", "173210.205000", "173210.207000", "173210.210000", "173210.212000", "173210.215000", "173210.217000", "173210.220000", "173210.222000", "173210.225000", "173210.227000", "173210.230000", "173210.232000", "173210.235000", "173210.237000", "173210.239000", "173210.242000", "173210.244000", "173210.247000", "173210.249000", "173210.252000", "173210.254000", "173210.257000", "173210.259000", "173210.262000", "173210.264000", "173250.172000", "173250.174000", "173250.177000", "173250.179000", "173250.182000", "173250.184000", "173250.187000", "173250.189000", "173250.192000", "173250.194000", "173250.197000", "173250.199000", "173250.202000", "173250.204000", "173250.207000", "173250.209000", "173250.212000", "173250.214000", "173250.217000", "173250.220000", "173250.222000", "173250.225000", "173250.227000", "173250.230000", "173250.232000", "173250.235000", "173250.237000", "173330.180000", "173330.183000", "173330.186000", "173330.188000", "173330.190000", "173330.193000", "173330.195000", "173330.198000", "173330.200000", "173330.203000", "173330.205000", "173330.208000", "173330.210000", "173330.213000", "173330.215000", "173330.218000", "173330.220000", "173330.223000", "173330.225000", "173330.228000", "173330.230000", "173330.233000", "173330.235000", "173330.238000", "173330.240000", "173330.243000", "173330.246000", "173410.171000", "173410.174000", "173410.176000", "173410.179000", "173410.181000", "173410.184000", "173410.186000", "173410.189000", "173410.201000", "173410.204000", "173410.206000", "173410.209000", "173410.211000", "173410.214000", "173410.216000", "173410.219000", "173410.221000", "173410.224000", "173410.226000", "173410.229000", "173410.233000", "173410.237000", "173410.239000", "173410.242000", "173410.244000", "173410.247000", "173450.178000", "173450.181000", "173450.184000", "173450.186000", "173450.189000", "173450.191000", "173450.194000", "173450.196000", "173450.199000", "173450.201000", "173450.204000", "173450.206000", "173450.209000", "173450.211000", "173450.214000", "173450.216000", "173450.219000", "173450.221000", "173450.224000", "173450.226000", "173450.229000", "173450.231000", "173450.234000", "173450.236000", "173450.239000", "173450.241000", "173450.244000", "173530.175000", "173530.178000", "173530.180000", "173530.183000", "173530.185000", "173530.188000", "173530.190000", "173530.193000", "173530.195000", "173530.198000", "173530.200000", "173530.203000", "173530.205000", "173530.208000", "173530.210000", "173530.213000", "173530.215000", "173530.218000", "173530.220000", "173530.223000", "173530.225000", "173530.228000", "173530.230000", "173530.233000", "173530.235000", "173530.238000", "173530.240000", "173610.185000", "173610.188000", "173610.190000", "173610.193000", "173610.195000", "173610.198000", "173610.200000", "173610.203000", "173610.205000", "173610.208000", "173610.210000", "173610.213000", "173610.215000", "173610.218000", "173610.220000", "173610.223000", "173610.225000", "173610.228000", "173610.230000", "173610.233000", "173610.235000", "173610.238000", "173610.240000", "173610.243000", "173610.245000", "173610.248000", "173610.250000", "173650.186000", "173650.189000", "173650.192000", "173650.194000", "173650.197000", "173650.199000", "173650.202000", "173650.204000", "173650.207000", "173650.209000", "173650.212000", "173650.214000", "173650.217000", "173650.219000", "173650.222000", "173650.224000", "173650.227000", "173650.229000", "173650.232000", "173650.234000", "173650.237000", "173650.239000", "173650.242000", "173650.244000", "173650.247000", "173650.249000", "173650.252000", "173730.194000", "173730.197000", "173730.200000", "173730.202000", "173730.205000", "173730.208000", "173730.210000", "173730.213000", "173730.215000", "173730.218000", "173730.220000", "173730.223000", "173730.225000", "173730.228000", "173730.230000", "173730.233000", "173730.235000", "173730.238000", "173730.240000", "173730.243000", "173730.245000", "173730.248000", "173730.250000", "173730.253000", "173730.255000", "173730.258000", "173730.260000", "173732.528000"],
      "InstanceNumber": [1, 2, 3, 4, 5, 6, 7, 8, 9, 10, 11, 12, 13, 14, 15, 16, 17, 18, 19, 20, 21, 22, 23, 24, 25, 26, 27, 28, 29, 30, 31, 32, 33, 34, 35, 36, 37, 38, 39, 40, 41, 42, 43, 44, 45, 46, 47, 48, 49, 50, 51, 52, 53, 54, 55, 56, 57, 58, 59, 60, 61, 62, 63, 64, 65, 66, 67, 68, 69, 70, 71, 72, 73, 74, 75, 76, 77, 78, 79, 80, 81, 82, 83, 84, 85, 86, 87, 88, 89, 90, 91, 92, 93, 94, 95, 96, 97, 98, 99, 100, 101, 102, 103, 104, 105, 106, 107, 108, 109, 110, 111, 112, 113, 114, 115, 116, 117, 118, 119, 120, 121, 122, 123, 124, 125, 126, 127, 128, 129, 130, 131, 132, 133, 134, 135, 136, 137, 138, 139, 140, 141, 142, 143, 144, 145, 146, 147, 148, 149, 150, 151, 152, 153, 154, 155, 156, 157, 158, 159, 160, 161, 162, 163, 164, 165, 166, 167, 168, 169, 170, 171, 172, 173, 174, 175, 176, 177, 178, 179, 180, 181, 182, 183, 184, 185, 186, 187, 188, 189, 190, 191, 192, 193, 194, 195, 196, 197, 198, 199, 200, 201, 202, 203, 204, 205, 206, 207, 208, 209, 210, 211, 212, 213, 214, 215, 216, 217, 218, 219, 220, 221, 222, 223, 224, 225, 226, 227, 228, 229, 230, 231, 232, 233, 234, 235, 236, 237, 238, 239, 240, 241, 242, 243, 244, 245, 246, 247, 248, 249, 250, 251, 252, 253, 254, 255, 256, 257, 258, 259, 260, 261, 262, 263, 264, 265, 266, 267, 268, 269, 270, 271, 272, 273, 274, 275, 276, 277, 278, 279, 280, 281, 282, 283, 284, 285, 286, 287, 288, 289, 290, 291, 292, 293, 294, 295, 296, 297, 298, 299, 300, 301, 302, 303, 304, 305, 306, 307, 308, 309, 310, 311, 312, 313, 314, 315, 316, 317, 318, 319, 320, 321, 322, 323, 324, 325, 326, 327, 328, 329, 330, 331, 332, 333, 334, 335, 336, 337, 338, 339, 340, 341, 342, 343, 344, 345, 346, 347, 348, 349, 350, 351, 352, 353, 354, 355, 356, 357, 358, 359, 360, 361, 362, 363, 364, 365, 366, 367, 368, 369, 370, 371, 372, 373, 374, 375, 376, 377, 378, 379, 380, 381, 382, 383, 384, 385, 386, 387, 388, 389, 390, 391],
