{
  "AcquisitionMatrixPE": 104,
  "AcquisitionNumber": 1,
  "AcquisitionTime": "17:27:48.327500",
  "BandwidthPerPixelPhaseEncode": 17.17,
  "BaseResolution": 104,
  "BodyPartExamined": "BRAIN",
  "CoilCombinationMethod": "Sum of Squares",
  "ConsistencyInfo": "N4_VE11C_LATEST_20160120",
  "ConversionSoftware": "dcm2niix",
  "ConversionSoftwareVersion": "v1.0.20220505",
  "DerivedVendorReportedEchoSpacing": 0.000560011,
  "DeviceSerialNumber": "167006",
  "DwellTime": 2.1e-06,
  "EchoTime": 0.037,
  "EchoTrainLength": 104,
  "EffectiveEchoSpacing": 0.000560011,
  "FlipAngle": 52,
  "HeudiconvVersion": "0.5.3.post811+g6206e14",
  "ImageComments": "Unaliased MB4/PE3/LB",
  "ImageOrientationPatientDICOM": [0.994341, 0.105607, 0.0115233, -0.0950436, 0.93281, -0.34761],
  "ImageOrientationText": "Tra>Cor(-20.2)>Sag(2.7)",
  "ImageType": [
    "ORIGINAL",
    "PRIMARY",
    "M",
    "MB",
    "ND",
    "MOSAIC"
],
  "ImagingFrequency": 123.26,
  "InPlanePhaseEncodingDirectionDICOM": "COL",
  "InstitutionAddress": "Chemin Queen-Mary 4565,Montreal,District,CA,H3W 1W5",
  "InstitutionName": "IUGM",
  "InstitutionalDepartmentName": "Department",
  "MRAcquisitionType": "2D",
  "MagneticFieldStrength": 3,
  "Manufacturer": "Siemens",
  "ManufacturersModelName": "Prisma_fit",
  "MatrixCoilMode": "SENSE",
  "Modality": "MR",
  "MultibandAccelerationFactor": 4,
  "PartialFourier": 1,
  "PatientPosition": "HFS",
  "PercentPhaseFOV": 100,
  "PercentSampling": 100,
  "PhaseEncodingDirection": "j",
  "PhaseEncodingSteps": 104,
  "PhaseResolution": 1,
  "PixelBandwidth": 2290,
  "ProcedureStepDescription": "games^mario3",
  "ProtocolName": "func_task-mario3_run-02",
  "PulseSequenceDetails": "%CustomerSeq%\\cmrr_mbep2d_bold",
  "ReceiveCoilActiveElements": "HC1-7;NC1,2",
  "ReceiveCoilName": "HeadNeck_64",
  "ReconMatrixPE": 104,
  "RepetitionTime": 1.49,
  "SAR": 0.0664354,
  "ScanOptions": "FS",
  "ScanningSequence": "EP",
  "SequenceName": "epfid2d1_104",
  "SequenceVariant": "SK\\SS",
  "SeriesDescription": "func_task-mario3_run-02",
  "SeriesNumber": 13,
  "ShimSetting": [610, -7197, -8817, 657, 89, -51, -48, 12],
  "SliceThickness": 2,
  "SliceTiming": [0, 0.7825, 0.0975, 0.8825, 0.195, 0.98, 0.2925, 1.0775, 0.3925, 1.175, 0.49, 1.2725, 0.5875, 1.3725, 0.685, 0, 0.7825, 0.0975, 0.8825, 0.195, 0.98, 0.2925, 1.0775, 0.3925, 1.175, 0.49, 1.2725, 0.5875, 1.3725, 0.685, 0, 0.7825, 0.0975, 0.8825, 0.195, 0.98, 0.2925, 1.0775, 0.3925, 1.175, 0.49, 1.2725, 0.5875, 1.3725, 0.685, 0, 0.7825, 0.0975, 0.8825, 0.195, 0.98, 0.2925, 1.0775, 0.3925, 1.175, 0.49, 1.2725, 0.5875, 1.3725, 0.685],
  "SoftwareVersions": "syngo MR E11",
  "SpacingBetweenSlices": 2,
  "StationName": "MRC35049",
  "TaskName": "mario3",
  "TotalReadoutTime": 0.0576811,
  "TxRefAmp": 275.805,
  "WipMemBlock": "9c0817d9-c03a-4207-b95f-1c60ae9032b1||Sequence: R017 ve11c/master r/75a17815+; Jun 28 2022 16:32:11 by eja",
  "dcmmeta_affine": [
    [-1.9886822700500488, -0.190087229013443, 0.09491832554340363, 112.41594696044922],
    [-0.2112143337726593, 1.8656196594238281, -0.6890947818756104, -56.83516311645508],
    [0.023046694695949554, 0.6952193379402161, 1.8751370906829834, -63.97115707397461],
    [0.0, 0.0, 0.0, 1.0]
],
  "dcmmeta_reorient_transform": [
    [0.0, -1.0, 0.0, 103.0],
    [1.0, 0.0, 0.0, 0.0],
    [0.0, 0.0, 1.0, 0.0],
    [0.0, 0.0, 0.0, 1.0]
],
  "dcmmeta_shape": [104, 104, 60, 391],
  "dcmmeta_slice_dim": 2,
  "dcmmeta_version": 0.6,
  "global": {
    "const": {
      "AcquisitionMatrix": [104, 0, 0, 104],
      "AngioFlag": "N",
      "BitsAllocated": 16,
      "BitsStored": 16,
      "BodyPartExamined": "BRAIN",
      "Columns": 832,
      "EchoNumbers": 1,
      "EchoTime": 37.0,
      "EchoTrainLength": 104,
      "FlipAngle": 52.0,
      "HighBit": 15,
      "ImageOrientationPatient": [0.9943411583543, 0.10560716488677, 0.01152334704914, -0.0950436137908, 0.93280985341998, -0.3476096788644],
      "ImagePositionPatient": [-747.52557150354, -891.29125589259, 252.30728639851],
      "ImageType": [
        "ORIGINAL",
        "PRIMARY",
        "M",
        "MB",
        "ND",
        "MOSAIC"
],
      "ImagedNucleus": "1H",
      "ImagingFrequency": 123.260392,
      "InPlanePhaseEncodingDirection": "COL",
      "MRAcquisitionType": "2D",
      "MagneticFieldStrength": 3.0,
      "Manufacturer": "SIEMENS",
      "ManufacturerModelName": "Prisma_fit",
      "Modality": "MR",
      "NumberOfAverages": 1.0,
      "NumberOfPhaseEncodingSteps": 104,
      "PercentPhaseFieldOfView": 100.0,
      "PercentSampling": 100.0,
      "PerformedProcedureStepStartTime": "171158.986000",
      "PhotometricInterpretation": "MONOCHROME2",
      "PixelBandwidth": 2290.0,
      "PixelRepresentation": 0,
      "PixelSpacing": [2.0, 2.0],
      "ProtocolName": "func_task-mario3_run-02",
      "RepetitionTime": 1490.0,
      "Rows": 832,
      "SAR": 0.06643536401248,
      "SamplesPerPixel": 1,
      "ScanOptions": "FS",
      "ScanningSequence": "EP",
      "SequenceName": "epfid2d1_104",
      "SequenceVariant": [
        "SK",
        "SS"
],
      "SeriesDescription": "func_task-mario3_run-02",
      "SeriesNumber": 13,
      "SeriesTime": "172910.073000",
      "SliceLocation": -35.059768890139,
      "SliceThickness": 2.0,
      "SmallestImagePixelValue": 0,
      "SoftwareVersions": "syngo MR E11",
      "SpacingBetweenSlices": 2.0000000110439,
      "SpecificCharacterSet": "ISO_IR 100",
      "StudyID": "1",
      "StudyTime": "171158.867000",
      "TransmitCoilName": "Body",
      "VariableFlipAngleFlag": "N",
      "WindowCenterWidthExplanation": "Algo1",
      "dBdt": 0.0},
    "slices": {}
  },
  "time": {
    "samples": {
      "AcquisitionNumber": [1, 2, 3, 4, 5, 6, 7, 8, 9, 10, 11, 12, 13, 14, 15, 16, 17, 18, 19, 20, 21, 22, 23, 24, 25, 26, 27, 28, 29, 30, 31, 32, 33, 34, 35, 36, 37, 38, 39, 40, 41, 42, 43, 44, 45, 46, 47, 48, 49, 50, 51, 52, 53, 54, 55, 56, 57, 58, 59, 60, 61, 62, 63, 64, 65, 66, 67, 68, 69, 70, 71, 72, 73, 74, 75, 76, 77, 78, 79, 80, 81, 82, 83, 84, 85, 86, 87, 88, 89, 90, 91, 92, 93, 94, 95, 96, 97, 98, 99, 100, 101, 102, 103, 104, 105, 106, 107, 108, 109, 110, 111, 112, 113, 114, 115, 116, 117, 118, 119, 120, 121, 122, 123, 124, 125, 126, 127, 128, 129, 130, 131, 132, 133, 134, 135, 136, 137, 138, 139, 140, 141, 142, 143, 144, 145, 146, 147, 148, 149, 150, 151, 152, 153, 154, 155, 156, 157, 158, 159, 160, 161, 162, 163, 164, 165, 166, 167, 168, 169, 170, 171, 172, 173, 174, 175, 176, 177, 178, 179, 180, 181, 182, 183, 184, 185, 186, 187, 188, 189, 190, 191, 192, 193, 194, 195, 196, 197, 198, 199, 200, 201, 202, 203, 204, 205, 206, 207, 208, 209, 210, 211, 212, 213, 214, 215, 216, 217, 218, 219, 220, 221, 222, 223, 224, 225, 226, 227, 228, 229, 230, 231, 232, 233, 234, 235, 236, 237, 238, 239, 240, 241, 242, 243, 244, 245, 246, 247, 248, 249, 250, 251, 252, 253, 254, 255, 256, 257, 258, 259, 260, 261, 262, 263, 264, 265, 266, 267, 268, 269, 270, 271, 272, 273, 274, 275, 276, 277, 278, 279, 280, 281, 282, 283, 284, 285, 286, 287, 288, 289, 290, 291, 292, 293, 294, 295, 296, 297, 298, 299, 300, 301, 302, 303, 304, 305, 306, 307, 308, 309, 310, 311, 312, 313, 314, 315, 316, 317, 318, 319, 320, 321, 322, 323, 324, 325, 326, 327, 328, 329, 330, 331, 332, 333, 334, 335, 336, 337, 338, 339, 340, 341, 342, 343, 344, 345, 346, 347, 348, 349, 350, 351, 352, 353, 354, 355, 356, 357, 358, 359, 360, 361, 362, 363, 364, 365, 366, 367, 368, 369, 370, 371, 372, 373, 374, 375, 376, 377, 378, 379, 380, 381, 382, 383, 384, 385, 386, 387, 388, 389, 390, 391],
      "AcquisitionTime": ["172748.327500", "172749.817500", "172751.307500", "172752.797500", "172754.287500", "172755.777500", "172757.267500", "172758.757500", "172800.247500", "172801.737500", "172803.227500", "172804.717500", "172806.207500", "172807.697500", "172809.187500", "172810.677500", "172812.167500", "172813.657500", "172815.147500", "172816.637500", "172818.127500", "172819.617500", "172821.107500", "172822.597500", "172824.087500", "172825.577500", "172827.067500", "172828.557500", "172830.047500", "172831.537500", "172833.027500", "172834.517500", "172836.007500", "172837.497500", "172838.987500", "172840.477500", "172841.967500", "172843.457500", "172844.947500", "172846.437500", "172847.927500", "172849.417500", "172850.907500", "172852.397500", "172853.887500", "172855.377500", "172856.867500", "172858.357500", "172859.847500", "172901.337500", "172902.827500", "172904.317500", "172905.807500", "172907.297500", "172908.787500", "172910.277500", "172911.767500", "172913.257500", "172914.747500", "172916.237500", "172917.727500", "172919.217500", "172920.707500", "172922.197500", "172923.687500", "172925.177500", "172926.667500", "172928.157500", "172929.647500", "172931.137500", "172932.627500", "172934.117500", "172935.607500", "172937.097500", "172938.587500", "172940.077500", "172941.567500", "172943.057500", "172944.547500", "172946.037500", "172947.527500", "172949.017500", "172950.507500", "172951.997500", "172953.487500", "172954.977500", "172956.467500", "172957.957500", "172959.447500", "173000.937500", "173002.427500", "173003.917500", "173005.407500", "173006.897500", "173008.387500", "173009.877500", "173011.367500", "173012.857500", "173014.347500", "173015.837500", "173017.327500", "173018.817500", "173020.307500", "173021.797500", "173023.287500", "173024.777500", "173026.267500", "173027.757500", "173029.247500", "173030.737500", "173032.227500", "173033.717500", "173035.207500", "173036.697500", "173038.187500", "173039.677500", "173041.167500", "173042.657500", "173044.147500", "173045.637500", "173047.127500", "173048.617500", "173050.107500", "173051.597500", "173053.087500", "173054.577500", "173056.067500", "173057.557500", "173059.047500", "173100.537500", "173102.027500", "173103.517500", "173105.007500", "173106.497500", "173107.987500", "173109.477500", "173110.967500", "173112.457500", "173113.947500", "173115.437500", "173116.927500", "173118.417500", "173119.907500", "173121.397500", "173122.887500", "173124.377500", "173125.867500", "173127.357500", "173128.847500", "173130.337500", "173131.827500", "173133.317500", "173134.807500", "173136.297500", "173137.787500", "173139.277500", "173140.767500", "173142.257500", "173143.747500", "173145.237500", "173146.727500", "173148.217500", "173149.707500", "173151.197500", "173152.687500", "173154.177500", "173155.667500", "173157.157500", "173158.647500", "173200.137500", "173201.627500", "173203.117500", "173204.607500", "173206.097500", "173207.587500", "173209.077500", "173210.567500", "173212.057500", "173213.547500", "173215.037500", "173216.527500", "173218.017500", "173219.507500", "173220.997500", "173222.487500", "173223.977500", "173225.467500", "173226.957500", "173228.447500", "173229.937500", "173231.427500", "173232.917500", "173234.407500", "173235.897500", "173237.387500", "173238.877500", "173240.367500", "173241.857500", "173243.347500", "173244.837500", "173246.327500", "173247.817500", "173249.307500", "173250.797500", "173252.287500", "173253.777500", "173255.267500", "173256.757500", "173258.247500", "173259.737500", "173301.227500", "173302.717500", "173304.207500", "173305.697500", "173307.187500", "173308.677500", "173310.167500", "173311.657500", "173313.147500", "173314.637500", "173316.127500", "173317.617500", "173319.107500", "173320.597500", "173322.087500", "173323.577500", "173325.067500", "173326.557500", "173328.047500", "173329.537500", "173331.027500", "173332.517500", "173334.007500", "173335.497500", "173336.987500", "173338.477500", "173339.967500", "173341.457500", "173342.947500", "173344.437500", "173345.927500", "173347.417500", "173348.907500", "173350.397500", "173351.887500", "173353.377500", "173354.867500", "173356.357500", "173357.847500", "173359.337500", "173400.827500", "173402.317500", "173403.807500", "173405.297500", "173406.787500", "173408.277500", "173409.767500", "173411.257500", "173412.747500", "173414.237500", "173415.727500", "173417.217500", "173418.707500", "173420.197500", "173421.687500", "173423.177500", "173424.667500", "173426.157500", "173427.647500", "173429.137500", "173430.627500", "173432.117500", "173433.607500", "173435.097500", "173436.587500", "173438.077500", "173439.567500", "173441.057500", "173442.547500", "173444.037500", "173445.527500", "173447.017500", "173448.507500", "173449.997500", "173451.487500", "173452.977500", "173454.467500", "173455.957500", "173457.447500", "173458.937500", "173500.427500", "173501.917500", "173503.407500", "173504.897500", "173506.387500", "173507.877500", "173509.367500", "173510.857500", "173512.347500", "173513.837500", "173515.327500", "173516.817500", "173518.307500", "173519.797500", "173521.287500", "173522.777500", "173524.267500", "173525.757500", "173527.247500", "173528.737500", "173530.227500", "173531.717500", "173533.207500", "173534.697500", "173536.187500", "173537.677500", "173539.167500", "173540.657500", "173542.147500", "173543.637500", "173545.127500", "173546.617500", "173548.107500", "173549.597500", "173551.087500", "173552.577500", "173554.067500", "173555.557500", "173557.047500", "173558.537500", "173600.027500", "173601.517500", "173603.007500", "173604.497500", "173605.987500", "173607.477500", "173608.967500", "173610.457500", "173611.947500", "173613.437500", "173614.927500", "173616.417500", "173617.907500", "173619.397500", "173620.887500", "173622.377500", "173623.867500", "173625.357500", "173626.847500", "173628.337500", "173629.827500", "173631.317500", "173632.807500", "173634.297500", "173635.787500", "173637.277500", "173638.767500", "173640.257500", "173641.747500", "173643.237500", "173644.727500", "173646.217500", "173647.707500", "173649.197500", "173650.687500", "173652.177500", "173653.667500", "173655.157500", "173656.647500", "173658.137500", "173659.627500", "173701.117500", "173702.607500", "173704.097500", "173705.587500", "173707.077500", "173708.567500", "173710.057500", "173711.547500", "173713.037500", "173714.527500", "173716.017500", "173717.507500", "173718.997500", "173720.487500", "173721.977500", "173723.467500", "173724.957500", "173726.447500", "173727.937500", "173729.427500"],
      "ContentTime": ["172910.076000", "172910.080000", "172910.083000", "172910.086000", "172910.090000", "172910.093000", "172910.096000", "172910.100000", "172910.103000", "172910.106000", "172910.109000", "172910.113000", "172910.116000", "172910.119000", "172910.123000", "172910.126000", "172910.129000", "172910.132000", "172910.136000", "172910.139000", "172910.142000", "172910.146000", "172910.149000", "172910.152000", "172910.155000", "172910.159000", "172910.162000", "172910.165000", "172910.168000", "172910.172000", "172910.175000", "172910.178000", "172910.182000", "172910.185000", "172930.037000", "172930.041000", "172930.045000", "172930.048000", "172930.051000", "172930.054000", "172930.058000", "172930.061000", "172930.064000", "172930.068000", "172930.071000", "172930.074000", "172930.077000", "172930.081000", "172930.084000", "172930.087000", "172930.090000", "172930.094000", "172930.097000", "172930.100000", "172950.037000", "172950.041000", "172950.044000", "172950.056000", "172950.060000", "172950.063000", "172950.066000", "172950.070000", "172950.073000", "172950.076000", "172950.080000", "172950.083000", "172950.086000", "172950.090000", "172950.093000", "172950.096000", "172950.099000", "172950.103000", "172950.106000", "172950.109000", "173010.037000", "173010.041000", "173010.044000", "173010.047000", "173010.051000", "173010.054000", "173010.057000", "173010.061000", "173010.064000", "173010.067000", "173010.071000", "173010.074000", "173010.077000", "173010.081000", "173010.084000", "173010.100000", "173010.103000", "173010.107000", "173010.110000", "173010.113000", "173050.036000", "173050.040000", "173050.043000", "173050.046000", "173050.050000", "173050.053000", "173050.056000", "173050.060000", "173050.063000", "173050.066000", "173050.070000", "173050.073000", "173050.076000", "173050.080000", "173050.083000", "173050.086000", "173050.089000", "173050.093000", "173050.096000", "173050.099000", "173050.103000", "173050.106000", "173050.109000", "173050.112000", "173050.116000", "173050.119000", "173050.122000", "173130.037000", "173130.041000", "173130.044000", "173130.047000", "173130.051000", "173130.054000", "173130.057000", "173130.061000", "173130.064000", "173130.067000", "173130.071000", "173130.074000", "173130.077000", "173130.081000", "173130.084000", "173130.087000", "173130.091000", "173130.094000", "173130.097000", "173130.100000", "173130.104000", "173130.107000", "173130.110000", "173130.114000", "173130.117000", "173130.120000", "173130.124000", "173210.037000", "173210.041000", "173210.044000", "173210.047000", "173210.051000", "173210.054000", "173210.057000", "173210.061000", "173210.072000", "173210.078000", "173210.082000", "173210.085000", "173210.088000", "173210.092000", "173210.095000", "173210.098000", "173210.102000", "173210.105000", "173210.108000", "173210.111000", "173210.115000", "173210.118000", "173210.122000", "173210.125000", "173210.128000", "173210.132000", "173210.135000", "173250.036000", "173250.040000", "173250.043000", "173250.047000", "173250.050000", "173250.053000", "173250.057000", "173250.060000", "173250.063000", "173250.067000", "173250.070000", "173250.073000", "173250.076000", "173250.080000", "173250.083000", "173250.086000", "173250.090000", "173250.093000", "173250.096000", "173250.099000", "173250.103000", "173250.106000", "173250.109000", "173250.113000", "173250.116000", "173250.119000", "173250.122000", "173330.037000", "173330.041000", "173330.044000", "173330.047000", "173330.051000", "173330.054000", "173330.057000", "173330.061000", "173330.064000", "173330.067000", "173330.071000", "173330.074000", "173330.077000", "173330.081000", "173330.084000", "173330.087000", "173330.090000", "173330.094000", "173330.097000", "173330.100000", "173330.104000", "173330.107000", "173330.110000", "173330.114000", "173330.117000", "173330.120000", "173330.123000", "173410.037000", "173410.041000", "173410.044000", "173410.048000", "173410.051000", "173410.054000", "173410.062000", "173410.065000", "173410.069000", "173410.072000", "173410.075000", "173410.079000", "173410.082000", "173410.085000", "173410.089000", "173410.092000", "173410.095000", "173410.099000", "173410.103000", "173410.106000", "173410.110000", "173410.113000", "173410.116000", "173410.120000", "173410.123000", "173410.126000", "173450.037000", "173450.041000", "173450.044000", "173450.047000", "173450.051000", "173450.054000", "173450.057000", "173450.061000", "173450.064000", "173450.067000", "173450.071000", "173450.074000", "173450.077000", "173450.081000", "173450.084000", "173450.087000", "173450.091000", "173450.094000", "173450.097000", "173450.101000", "173450.104000", "173450.107000", "173450.111000", "173450.114000", "173450.117000", "173450.121000", "173450.124000", "173530.036000", "173530.040000", "173530.043000", "173530.047000", "173530.050000", "173530.053000", "173530.057000", "173530.060000", "173530.063000", "173530.067000", "173530.070000", "173530.073000", "173530.077000", "173530.080000", "173530.083000", "173530.087000", "173530.090000", "173530.093000", "173530.097000", "173530.100000", "173530.103000", "173530.106000", "173530.110000", "173530.113000", "173530.116000", "173530.120000", "173530.123000", "173610.037000", "173610.041000", "173610.044000", "173610.048000", "173610.051000", "173610.054000", "173610.058000", "173610.061000", "173610.064000", "173610.068000", "173610.071000", "173610.074000", "173610.078000", "173610.081000", "173610.084000", "173610.088000", "173610.091000", "173610.094000", "173610.098000", "173610.101000", "173610.104000", "173610.112000", "173610.115000", "173610.119000", "173610.122000", "173610.125000", "173610.128000", "173650.037000", "173650.041000", "173650.044000", "173650.048000", "173650.051000", "173650.054000", "173650.058000", "173650.061000", "173650.064000", "173650.082000", "173650.086000", "173650.089000", "173650.092000", "173650.096000", "173650.099000", "173650.102000", "173650.105000", "173650.109000", "173650.112000", "173650.115000", "173650.119000", "173650.122000", "173650.125000", "173650.129000", "173650.132000", "173650.135000", "173650.139000", "173730.036000", "173730.040000", "173730.043000", "173730.047000", "173730.050000", "173730.053000", "173730.058000", "173730.061000", "173730.065000", "173730.068000", "173730.072000", "173730.075000", "173730.078000", "173730.082000", "173730.085000", "173730.088000", "173730.091000", "173730.095000", "173730.098000", "173730.101000", "173730.105000", "173730.108000", "173730.111000", "173730.115000", "173730.118000", "173730.121000", "173730.125000", "173732.504000"],
      "InstanceCreationTime": ["172910.076000", "172910.080000", "172910.083000", "172910.086000", "172910.090000", "172910.093000", "172910.096000", "172910.100000", "172910.103000", "172910.106000", "172910.109000", "172910.113000", "172910.116000", "172910.119000", "172910.123000", "172910.126000", "172910.129000", "172910.132000", "172910.136000", "172910.139000", "172910.142000", "172910.146000", "172910.149000", "172910.152000", "172910.155000", "172910.159000", "172910.162000", "172910.165000", "172910.168000", "172910.172000", "172910.175000", "172910.178000", "172910.182000", "172910.185000", "172930.037000", "172930.041000", "172930.045000", "172930.048000", "172930.051000", "172930.054000", "172930.058000", "172930.061000", "172930.064000", "172930.068000", "172930.071000", "172930.074000", "172930.077000", "172930.081000", "172930.084000", "172930.087000", "172930.090000", "172930.094000", "172930.097000", "172930.100000", "172950.037000", "172950.041000", "172950.044000", "172950.056000", "172950.060000", "172950.063000", "172950.066000", "172950.070000", "172950.073000", "172950.076000", "172950.080000", "172950.083000", "172950.086000", "172950.090000", "172950.093000", "172950.096000", "172950.099000", "172950.103000", "172950.106000", "172950.109000", "173010.037000", "173010.041000", "173010.044000", "173010.047000", "173010.051000", "173010.054000", "173010.057000", "173010.061000", "173010.064000", "173010.067000", "173010.071000", "173010.074000", "173010.077000", "173010.081000", "173010.084000", "173010.100000", "173010.103000", "173010.107000", "173010.110000", "173010.113000", "173050.036000", "173050.040000", "173050.043000", "173050.046000", "173050.050000", "173050.053000", "173050.056000", "173050.060000", "173050.063000", "173050.066000", "173050.070000", "173050.073000", "173050.076000", "173050.080000", "173050.083000", "173050.086000", "173050.089000", "173050.093000", "173050.096000", "173050.099000", "173050.103000", "173050.106000", "173050.109000", "173050.112000", "173050.116000", "173050.119000", "173050.122000", "173130.037000", "173130.041000", "173130.044000", "173130.047000", "173130.051000", "173130.054000", "173130.057000", "173130.061000", "173130.064000", "173130.067000", "173130.071000", "173130.074000", "173130.077000", "173130.081000", "173130.084000", "173130.087000", "173130.091000", "173130.094000", "173130.097000", "173130.100000", "173130.104000", "173130.107000", "173130.110000", "173130.114000", "173130.117000", "173130.120000", "173130.124000", "173210.037000", "173210.041000", "173210.044000", "173210.047000", "173210.051000", "173210.054000", "173210.057000", "173210.061000", "173210.072000", "173210.078000", "173210.082000", "173210.085000", "173210.088000", "173210.092000", "173210.095000", "173210.098000", "173210.102000", "173210.105000", "173210.108000", "173210.111000", "173210.115000", "173210.118000", "173210.122000", "173210.125000", "173210.128000", "173210.132000", "173210.135000", "173250.036000", "173250.040000", "173250.043000", "173250.047000", "173250.050000", "173250.053000", "173250.057000", "173250.060000", "173250.063000", "173250.067000", "173250.070000", "173250.073000", "173250.076000", "173250.080000", "173250.083000", "173250.086000", "173250.090000", "173250.093000", "173250.096000", "173250.099000", "173250.103000", "173250.106000", "173250.109000", "173250.113000", "173250.116000", "173250.119000", "173250.122000", "173330.037000", "173330.041000", "173330.044000", "173330.047000", "173330.051000", "173330.054000", "173330.057000", "173330.061000", "173330.064000", "173330.067000", "173330.071000", "173330.074000", "173330.077000", "173330.081000", "173330.084000", "173330.087000", "173330.090000", "173330.094000", "173330.097000", "173330.100000", "173330.104000", "173330.107000", "173330.110000", "173330.114000", "173330.117000", "173330.120000", "173330.123000", "173410.037000", "173410.041000", "173410.044000", "173410.048000", "173410.051000", "173410.054000", "173410.062000", "173410.065000", "173410.069000", "173410.072000", "173410.075000", "173410.079000", "173410.082000", "173410.085000", "173410.089000", "173410.092000", "173410.095000", "173410.099000", "173410.103000", "173410.106000", "173410.110000", "173410.113000", "173410.116000", "173410.120000", "173410.123000", "173410.126000", "173450.037000", "173450.041000", "173450.044000", "173450.047000", "173450.051000", "173450.054000", "173450.057000", "173450.061000", "173450.064000", "173450.067000", "173450.071000", "173450.074000", "173450.077000", "173450.081000", "173450.084000", "173450.087000", "173450.091000", "173450.094000", "173450.097000", "173450.101000", "173450.104000", "173450.107000", "173450.111000", "173450.114000", "173450.117000", "173450.121000", "173450.124000", "173530.036000", "173530.040000", "173530.043000", "173530.047000", "173530.050000", "173530.053000", "173530.057000", "173530.060000", "173530.063000", "173530.067000", "173530.070000", "173530.073000", "173530.077000", "173530.080000", "173530.083000", "173530.087000", "173530.090000", "173530.093000", "173530.097000", "173530.100000", "173530.103000", "173530.106000", "173530.110000", "173530.113000", "173530.116000", "173530.120000", "173530.123000", "173610.037000", "173610.041000", "173610.044000", "173610.048000", "173610.051000", "173610.054000", "173610.058000", "173610.061000", "173610.064000", "173610.068000", "173610.071000", "173610.074000", "173610.078000", "173610.081000", "173610.084000", "173610.088000", "173610.091000", "173610.094000", "173610.098000", "173610.101000", "173610.104000", "173610.112000", "173610.115000", "173610.119000", "173610.122000", "173610.125000", "173610.128000", "173650.037000", "173650.041000", "173650.044000", "173650.048000", "173650.051000", "173650.054000", "173650.058000", "173650.061000", "173650.064000", "173650.082000", "173650.086000", "173650.089000", "173650.092000", "173650.096000", "173650.099000", "173650.102000", "173650.105000", "173650.109000", "173650.112000", "173650.115000", "173650.119000", "173650.122000", "173650.125000", "173650.129000", "173650.132000", "173650.135000", "173650.139000", "173730.036000", "173730.040000", "173730.043000", "173730.047000", "173730.050000", "173730.053000", "173730.058000", "173730.061000", "173730.065000", "173730.068000", "173730.072000", "173730.075000", "173730.078000", "173730.082000", "173730.085000", "173730.088000", "173730.091000", "173730.095000", "173730.098000", "173730.101000", "173730.105000", "173730.108000", "173730.111000", "173730.115000", "173730.118000", "173730.121000", "173730.125000", "173732.504000"],
      "InstanceNumber": [1, 2, 3, 4, 5, 6, 7, 8, 9, 10, 11, 12, 13, 14, 15, 16, 17, 18, 19, 20, 21, 22, 23, 24, 25, 26, 27, 28, 29, 30, 31, 32, 33, 34, 35, 36, 37, 38, 39, 40, 41, 42, 43, 44, 45, 46, 47, 48, 49, 50, 51, 52, 53, 54, 55, 56, 57, 58, 59, 60, 61, 62, 63, 64, 65, 66, 67, 68, 69, 70, 71, 72, 73, 74, 75, 76, 77, 78, 79, 80, 81, 82, 83, 84, 85, 86, 87, 88, 89, 90, 91, 92, 93, 94, 95, 96, 97, 98, 99, 100, 101, 102, 103, 104, 105, 106, 107, 108, 109, 110, 111, 112, 113, 114, 115, 116, 117, 118, 119, 120, 121, 122, 123, 124, 125, 126, 127, 128, 129, 130, 131, 132, 133, 134, 135, 136, 137, 138, 139, 140, 141, 142, 143, 144, 145, 146, 147, 148, 149, 150, 151, 152, 153, 154, 155, 156, 157, 158, 159, 160, 161, 162, 163, 164, 165, 166, 167, 168, 169, 170, 171, 172, 173, 174, 175, 176, 177, 178, 179, 180, 181, 182, 183, 184, 185, 186, 187, 188, 189, 190, 191, 192, 193, 194, 195, 196, 197, 198, 199, 200, 201, 202, 203, 204, 205, 206, 207, 208, 209, 210, 211, 212, 213, 214, 215, 216, 217, 218, 219, 220, 221, 222, 223, 224, 225, 226, 227, 228, 229, 230, 231, 232, 233, 234, 235, 236, 237, 238, 239, 240, 241, 242, 243, 244, 245, 246, 247, 248, 249, 250, 251, 252, 253, 254, 255, 256, 257, 258, 259, 260, 261, 262, 263, 264, 265, 266, 267, 268, 269, 270, 271, 272, 273, 274, 275, 276, 277, 278, 279, 280, 281, 282, 283, 284, 285, 286, 287, 288, 289, 290, 291, 292, 293, 294, 295, 296, 297, 298, 299, 300, 301, 302, 303, 304, 305, 306, 307, 308, 309, 310, 311, 312, 313, 314, 315, 316, 317, 318, 319, 320, 321, 322, 323, 324, 325, 326, 327, 328, 329, 330, 331, 332, 333, 334, 335, 336, 337, 338, 339, 340, 341, 342, 343, 344, 345, 346, 347, 348, 349, 350, 351, 352, 353, 354, 355, 356, 357, 358, 359, 360, 361, 362, 363, 364, 365, 366, 367, 368, 369, 370, 371, 372, 373, 374, 375, 376, 377, 378, 379, 380, 381, 382, 383, 384, 385, 386, 387, 388, 389, 390, 391],
