{
  "AcquisitionMatrixPE": 104,
  "AcquisitionNumber": 1,
  "AcquisitionTime": "17:15:39.317500",
  "BandwidthPerPixelPhaseEncode": 17.17,
  "BaseResolution": 104,
  "BodyPartExamined": "BRAIN",
  "CoilCombinationMethod": "Sum of Squares",
  "ConsistencyInfo": "N4_VE11C_LATEST_20160120",
  "ConversionSoftware": "dcm2niix",
  "ConversionSoftwareVersion": "v1.0.20220505",
  "DerivedVendorReportedEchoSpacing": 0.000560011,
  "DeviceSerialNumber": "167006",
  "DwellTime": 2.1e-06,
  "EchoTime": 0.037,
  "EchoTrainLength": 104,
  "EffectiveEchoSpacing": 0.000560011,
  "FlipAngle": 52,
  "HeudiconvVersion": "0.5.3.post811+g6206e14",
  "ImageComments": "Unaliased MB4/PE3/LB",
  "ImageOrientationPatientDICOM": [0.994341, 0.105607, 0.0115233, -0.0950436, 0.93281, -0.34761],
  "ImageOrientationText": "Tra>Cor(-20.2)>Sag(2.7)",
  "ImageType": [
    "ORIGINAL",
    "PRIMARY",
    "M",
    "MB",
    "ND",
    "MOSAIC"
],
  "ImagingFrequency": 123.26,
  "InPlanePhaseEncodingDirectionDICOM": "COL",
  "InstitutionAddress": "Chemin Queen-Mary 4565,Montreal,District,CA,H3W 1W5",
  "InstitutionName": "IUGM",
  "InstitutionalDepartmentName": "Department",
  "MRAcquisitionType": "2D",
  "MagneticFieldStrength": 3,
  "Manufacturer": "Siemens",
  "ManufacturersModelName": "Prisma_fit",
  "MatrixCoilMode": "SENSE",
  "Modality": "MR",
  "MultibandAccelerationFactor": 4,
  "PartialFourier": 1,
  "PatientPosition": "HFS",
  "PercentPhaseFOV": 100,
  "PercentSampling": 100,
  "PhaseEncodingDirection": "j",
  "PhaseEncodingSteps": 104,
  "PhaseResolution": 1,
  "PixelBandwidth": 2290,
  "ProcedureStepDescription": "games^mario3",
  "ProtocolName": "func_task-mario3_run-01",
  "PulseSequenceDetails": "%CustomerSeq%\\cmrr_mbep2d_bold",
  "ReceiveCoilActiveElements": "HC1-7;NC1,2",
  "ReceiveCoilName": "HeadNeck_64",
  "ReconMatrixPE": 104,
  "RepetitionTime": 1.49,
  "SAR": 0.0664354,
  "ScanOptions": "FS",
  "ScanningSequence": "EP",
  "SequenceName": "epfid2d1_104",
  "SequenceVariant": "SK\\SS",
  "SeriesDescription": "func_task-mario3_run-01",
  "SeriesNumber": 10,
  "ShimSetting": [610, -7197, -8817, 657, 89, -51, -48, 12],
  "SliceThickness": 2,
  "SliceTiming": [0, 0.7825, 0.0975, 0.88, 0.195, 0.98, 0.2925, 1.0775, 0.39, 1.175, 0.49, 1.2725, 0.5875, 1.37, 0.685, 0, 0.7825, 0.0975, 0.88, 0.195, 0.98, 0.2925, 1.0775, 0.39, 1.175, 0.49, 1.2725, 0.5875, 1.37, 0.685, 0, 0.7825, 0.0975, 0.88, 0.195, 0.98, 0.2925, 1.0775, 0.39, 1.175, 0.49, 1.2725, 0.5875, 1.37, 0.685, 0, 0.7825, 0.0975, 0.88, 0.195, 0.98, 0.2925, 1.0775, 0.39, 1.175, 0.49, 1.2725, 0.5875, 1.37, 0.685],
  "SoftwareVersions": "syngo MR E11",
  "SpacingBetweenSlices": 2,
  "StationName": "MRC35049",
  "TaskName": "mario3",
  "TotalReadoutTime": 0.0576811,
  "TxRefAmp": 275.805,
  "WipMemBlock": "b4495d90-dd50-46f3-aae7-b5cd0b889ae0||Sequence: R017 ve11c/master r/75a17815+; Jun 28 2022 16:32:11 by eja",
  "dcmmeta_affine": [
    [-1.9886822700500488, -0.190087229013443, 0.09491832554340363, 112.41594696044922],
    [-0.2112143337726593, 1.8656196594238281, -0.6890947818756104, -56.83516311645508],
    [0.023046694695949554, 0.6952193379402161, 1.8751370906829834, -63.97115707397461],
    [0.0, 0.0, 0.0, 1.0]
],
  "dcmmeta_reorient_transform": [
    [0.0, -1.0, 0.0, 103.0],
    [1.0, 0.0, 0.0, 0.0],
    [0.0, 0.0, 1.0, 0.0],
    [0.0, 0.0, 0.0, 1.0]
],
  "dcmmeta_shape": [104, 104, 60, 437],
  "dcmmeta_slice_dim": 2,
  "dcmmeta_version": 0.6,
  "global": {
    "const": {
      "AcquisitionMatrix": [104, 0, 0, 104],
      "AngioFlag": "N",
      "BitsAllocated": 16,
      "BitsStored": 16,
      "BodyPartExamined": "BRAIN",
      "Columns": 832,
      "EchoNumbers": 1,
      "EchoTime": 37.0,
      "EchoTrainLength": 104,
      "FlipAngle": 52.0,
      "HighBit": 15,
      "ImageOrientationPatient": [0.9943411583543, 0.10560716488677, 0.01152334704914, -0.0950436137908, 0.93280985341998, -0.3476096788644],
      "ImagePositionPatient": [-747.52557150354, -891.29125589259, 252.30728639851],
      "ImageType": [
        "ORIGINAL",
        "PRIMARY",
        "M",
        "MB",
        "ND",
        "MOSAIC"
],
      "ImagedNucleus": "1H",
      "ImagingFrequency": 123.260381,
      "InPlanePhaseEncodingDirection": "COL",
      "MRAcquisitionType": "2D",
      "MagneticFieldStrength": 3.0,
      "Manufacturer": "SIEMENS",
      "ManufacturerModelName": "Prisma_fit",
      "Modality": "MR",
      "NumberOfAverages": 1.0,
      "NumberOfPhaseEncodingSteps": 104,
      "PercentPhaseFieldOfView": 100.0,
      "PercentSampling": 100.0,
      "PerformedProcedureStepStartTime": "171158.986000",
      "PhotometricInterpretation": "MONOCHROME2",
      "PixelBandwidth": 2290.0,
      "PixelRepresentation": 0,
      "PixelSpacing": [2.0, 2.0],
      "ProtocolName": "func_task-mario3_run-01",
      "RepetitionTime": 1490.0,
      "Rows": 832,
      "SAR": 0.06643536401248,
      "SamplesPerPixel": 1,
      "ScanOptions": "FS",
      "ScanningSequence": "EP",
      "SequenceName": "epfid2d1_104",
      "SequenceVariant": [
        "SK",
        "SS"
],
      "SeriesDescription": "func_task-mario3_run-01",
      "SeriesNumber": 10,
      "SeriesTime": "171708.822000",
      "SliceLocation": -35.059768890139,
      "SliceThickness": 2.0,
      "SmallestImagePixelValue": 0,
      "SoftwareVersions": "syngo MR E11",
      "SpacingBetweenSlices": 2.0000000110439,
      "SpecificCharacterSet": "ISO_IR 100",
      "StudyID": "1",
      "StudyTime": "171158.867000",
      "TransmitCoilName": "Body",
      "VariableFlipAngleFlag": "N",
      "WindowCenterWidthExplanation": "Algo1",
      "dBdt": 0.0},
    "slices": {}
  },
  "time": {
    "samples": {
      "AcquisitionNumber": [1, 2, 3, 4, 5, 6, 7, 8, 9, 10, 11, 12, 13, 14, 15, 16, 17, 18, 19, 20, 21, 22, 23, 24, 25, 26, 27, 28, 29, 30, 31, 32, 33, 34, 35, 36, 37, 38, 39, 40, 41, 42, 43, 44, 45, 46, 47, 48, 49, 50, 51, 52, 53, 54, 55, 56, 57, 58, 59, 60, 61, 62, 63, 64, 65, 66, 67, 68, 69, 70, 71, 72, 73, 74, 75, 76, 77, 78, 79, 80, 81, 82, 83, 84, 85, 86, 87, 88, 89, 90, 91, 92, 93, 94, 95, 96, 97, 98, 99, 100, 101, 102, 103, 104, 105, 106, 107, 108, 109, 110, 111, 112, 113, 114, 115, 116, 117, 118, 119, 120, 121, 122, 123, 124, 125, 126, 127, 128, 129, 130, 131, 132, 133, 134, 135, 136, 137, 138, 139, 140, 141, 142, 143, 144, 145, 146, 147, 148, 149, 150, 151, 152, 153, 154, 155, 156, 157, 158, 159, 160, 161, 162, 163, 164, 165, 166, 167, 168, 169, 170, 171, 172, 173, 174, 175, 176, 177, 178, 179, 180, 181, 182, 183, 184, 185, 186, 187, 188, 189, 190, 191, 192, 193, 194, 195, 196, 197, 198, 199, 200, 201, 202, 203, 204, 205, 206, 207, 208, 209, 210, 211, 212, 213, 214, 215, 216, 217, 218, 219, 220, 221, 222, 223, 224, 225, 226, 227, 228, 229, 230, 231, 232, 233, 234, 235, 236, 237, 238, 239, 240, 241, 242, 243, 244, 245, 246, 247, 248, 249, 250, 251, 252, 253, 254, 255, 256, 257, 258, 259, 260, 261, 262, 263, 264, 265, 266, 267, 268, 269, 270, 271, 272, 273, 274, 275, 276, 277, 278, 279, 280, 281, 282, 283, 284, 285, 286, 287, 288, 289, 290, 291, 292, 293, 294, 295, 296, 297, 298, 299, 300, 301, 302, 303, 304, 305, 306, 307, 308, 309, 310, 311, 312, 313, 314, 315, 316, 317, 318, 319, 320, 321, 322, 323, 324, 325, 326, 327, 328, 329, 330, 331, 332, 333, 334, 335, 336, 337, 338, 339, 340, 341, 342, 343, 344, 345, 346, 347, 348, 349, 350, 351, 352, 353, 354, 355, 356, 357, 358, 359, 360, 361, 362, 363, 364, 365, 366, 367, 368, 369, 370, 371, 372, 373, 374, 375, 376, 377, 378, 379, 380, 381, 382, 383, 384, 385, 386, 387, 388, 389, 390, 391, 392, 393, 394, 395, 396, 397, 398, 399, 400, 401, 402, 403, 404, 405, 406, 407, 408, 409, 410, 411, 412, 413, 414, 415, 416, 417, 418, 419, 420, 421, 422, 423, 424, 425, 426, 427, 428, 429, 430, 431, 432, 433, 434, 435, 436, 437],
      "AcquisitionTime": ["171539.317500", "171540.807500", "171542.297500", "171543.787500", "171545.277500", "171546.767500", "171548.257500", "171549.747500", "171551.237500", "171552.727500", "171554.217500", "171555.707500", "171557.197500", "171558.687500", "171600.177500", "171601.667500", "171603.157500", "171604.647500", "171606.137500", "171607.627500", "171609.117500", "171610.607500", "171612.097500", "171613.587500", "171615.077500", "171616.567500", "171618.057500", "171619.547500", "171621.037500", "171622.527500", "171624.017500", "171625.507500", "171626.997500", "171628.487500", "171629.977500", "171631.467500", "171632.957500", "171634.447500", "171635.937500", "171637.427500", "171638.917500", "171640.407500", "171641.897500", "171643.387500", "171644.877500", "171646.367500", "171647.857500", "171649.347500", "171650.837500", "171652.327500", "171653.817500", "171655.307500", "171656.797500", "171658.287500", "171659.777500", "171701.267500", "171702.757500", "171704.247500", "171705.737500", "171707.227500", "171708.717500", "171710.207500", "171711.697500", "171713.187500", "171714.677500", "171716.167500", "171717.657500", "171719.147500", "171720.637500", "171722.127500", "171723.617500", "171725.107500", "171726.597500", "171728.087500", "171729.577500", "171731.067500", "171732.557500", "171734.047500", "171735.537500", "171737.027500", "171738.517500", "171740.007500", "171741.497500", "171742.987500", "171744.477500", "171745.967500", "171747.457500", "171748.947500", "171750.437500", "171751.927500", "171753.417500", "171754.907500", "171756.397500", "171757.887500", "171759.377500", "171800.867500", "171802.357500", "171803.847500", "171805.337500", "171806.827500", "171808.317500", "171809.807500", "171811.297500", "171812.787500", "171814.277500", "171815.767500", "171817.257500", "171818.747500", "171820.237500", "171821.727500", "171823.217500", "171824.707500", "171826.197500", "171827.687500", "171829.177500", "171830.667500", "171832.157500", "171833.647500", "171835.137500", "171836.627500", "171838.117500", "171839.607500", "171841.097500", "171842.587500", "171844.077500", "171845.567500", "171847.057500", "171848.547500", "171850.037500", "171851.527500", "171853.017500", "171854.507500", "171855.997500", "171857.487500", "171858.977500", "171900.467500", "171901.957500", "171903.447500", "171904.937500", "171906.427500", "171907.917500", "171909.407500", "171910.897500", "171912.387500", "171913.877500", "171915.367500", "171916.857500", "171918.347500", "171919.837500", "171921.327500", "171922.817500", "171924.307500", "171925.797500", "171927.287500", "171928.777500", "171930.267500", "171931.757500", "171933.247500", "171934.737500", "171936.227500", "171937.717500", "171939.207500", "171940.697500", "171942.187500", "171943.677500", "171945.167500", "171946.657500", "171948.147500", "171949.637500", "171951.127500", "171952.617500", "171954.107500", "171955.597500", "171957.087500", "171958.577500", "172000.067500", "172001.557500", "172003.047500", "172004.537500", "172006.027500", "172007.517500", "172009.007500", "172010.497500", "172011.987500", "172013.477500", "172014.967500", "172016.457500", "172017.947500", "172019.437500", "172020.927500", "172022.417500", "172023.907500", "172025.397500", "172026.887500", "172028.377500", "172029.867500", "172031.357500", "172032.847500", "172034.337500", "172035.827500", "172037.317500", "172038.807500", "172040.297500", "172041.787500", "172043.277500", "172044.767500", "172046.257500", "172047.747500", "172049.237500", "172050.727500", "172052.217500", "172053.707500", "172055.197500", "172056.687500", "172058.177500", "172059.667500", "172101.157500", "172102.647500", "172104.137500", "172105.627500", "172107.117500", "172108.607500", "172110.097500", "172111.587500", "172113.077500", "172114.567500", "172116.057500", "172117.547500", "172119.037500", "172120.527500", "172122.017500", "172123.507500", "172124.997500", "172126.487500", "172127.977500", "172129.467500", "172130.957500", "172132.447500", "172133.937500", "172135.427500", "172136.917500", "172138.407500", "172139.897500", "172141.387500", "172142.877500", "172144.367500", "172145.857500", "172147.347500", "172148.837500", "172150.327500", "172151.817500", "172153.307500", "172154.797500", "172156.287500", "172157.777500", "172159.267500", "172200.757500", "172202.247500", "172203.737500", "172205.227500", "172206.717500", "172208.207500", "172209.697500", "172211.187500", "172212.677500", "172214.167500", "172215.657500", "172217.147500", "172218.637500", "172220.127500", "172221.617500", "172223.107500", "172224.597500", "172226.087500", "172227.577500", "172229.067500", "172230.557500", "172232.047500", "172233.537500", "172235.027500", "172236.517500", "172238.007500", "172239.497500", "172240.987500", "172242.477500", "172243.967500", "172245.457500", "172246.947500", "172248.437500", "172249.927500", "172251.417500", "172252.907500", "172254.397500", "172255.887500", "172257.377500", "172258.867500", "172300.357500", "172301.847500", "172303.337500", "172304.827500", "172306.317500", "172307.807500", "172309.297500", "172310.787500", "172312.277500", "172313.767500", "172315.257500", "172316.747500", "172318.237500", "172319.727500", "172321.217500", "172322.707500", "172324.197500", "172325.687500", "172327.177500", "172328.667500", "172330.157500", "172331.647500", "172333.137500", "172334.627500", "172336.117500", "172337.607500", "172339.097500", "172340.587500", "172342.077500", "172343.567500", "172345.057500", "172346.547500", "172348.037500", "172349.527500", "172351.017500", "172352.507500", "172353.997500", "172355.487500", "172356.977500", "172358.467500", "172359.957500", "172401.447500", "172402.937500", "172404.427500", "172405.917500", "172407.407500", "172408.897500", "172410.387500", "172411.877500", "172413.367500", "172414.857500", "172416.347500", "172417.837500", "172419.327500", "172420.817500", "172422.307500", "172423.797500", "172425.287500", "172426.777500", "172428.267500", "172429.757500", "172431.247500", "172432.737500", "172434.227500", "172435.717500", "172437.207500", "172438.697500", "172440.187500", "172441.677500", "172443.167500", "172444.657500", "172446.147500", "172447.637500", "172449.127500", "172450.617500", "172452.107500", "172453.597500", "172455.087500", "172456.577500", "172458.067500", "172459.557500", "172501.047500", "172502.537500", "172504.027500", "172505.517500", "172507.007500", "172508.497500", "172509.987500", "172511.477500", "172512.967500", "172514.457500", "172515.947500", "172517.437500", "172518.927500", "172520.417500", "172521.907500", "172523.397500", "172524.887500", "172526.377500", "172527.867500", "172529.357500", "172530.847500", "172532.337500", "172533.827500", "172535.317500", "172536.807500", "172538.297500", "172539.787500", "172541.277500", "172542.767500", "172544.257500", "172545.747500", "172547.237500", "172548.727500", "172550.217500", "172551.707500", "172553.197500", "172554.687500", "172556.177500", "172557.667500", "172559.157500", "172600.647500", "172602.137500", "172603.627500", "172605.117500", "172606.607500", "172608.097500", "172609.587500", "172611.077500", "172612.567500", "172614.057500", "172615.547500", "172617.037500", "172618.527500", "172620.017500", "172621.507500", "172622.997500", "172624.487500", "172625.977500", "172627.467500", "172628.957500"],
      "ContentTime": ["171708.825000", "171708.828000", "171708.832000", "171708.835000", "171708.838000", "171708.842000", "171708.845000", "171708.848000", "171708.852000", "171708.855000", "171708.858000", "171708.862000", "171708.865000", "171708.869000", "171708.872000", "171708.875000", "171708.879000", "171708.882000", "171708.885000", "171708.889000", "171708.898000", "171708.901000", "171708.905000", "171708.908000", "171708.911000", "171708.915000", "171708.918000", "171708.921000", "171708.924000", "171708.928000", "171708.936000", "171708.940000", "171708.943000", "171708.946000", "171708.949000", "171708.953000", "171708.956000", "171708.959000", "171708.963000", "171728.784000", "171728.788000", "171728.791000", "171728.794000", "171728.798000", "171728.801000", "171728.804000", "171728.808000", "171728.811000", "171728.814000", "171728.817000", "171728.821000", "171728.824000", "171728.827000", "171728.831000", "171728.834000", "171728.837000", "171728.845000", "171728.848000", "171728.852000", "171728.855000", "171748.783000", "171748.787000", "171748.790000", "171748.794000", "171748.797000", "171748.800000", "171748.804000", "171748.807000", "171748.810000", "171748.814000", "171748.817000", "171748.820000", "171748.823000", "171748.827000", "171748.830000", "171748.833000", "171748.837000", "171748.840000", "171748.844000", "171748.853000", "171808.783000", "171808.787000", "171808.790000", "171808.793000", "171808.797000", "171808.800000", "171808.803000", "171808.807000", "171808.810000", "171808.813000", "171808.816000", "171808.820000", "171808.823000", "171808.826000", "171808.830000", "171808.833000", "171808.836000", "171808.840000", "171808.843000", "171808.846000", "171848.783000", "171848.787000", "171848.790000", "171848.794000", "171848.797000", "171848.800000", "171848.804000", "171848.807000", "171848.811000", "171848.814000", "171848.817000", "171848.821000", "171848.824000", "171848.828000", "171848.832000", "171848.835000", "171848.838000", "171848.842000", "171848.845000", "171848.848000", "171848.852000", "171848.855000", "171848.858000", "171848.861000", "171848.865000", "171848.868000", "171928.783000", "171928.787000", "171928.790000", "171928.805000", "171928.809000", "171928.812000", "171928.815000", "171928.819000", "171928.822000", "171928.825000", "171928.829000", "171928.832000", "171928.835000", "171928.839000", "171928.842000", "171928.845000", "171928.849000", "171928.852000", "171928.855000", "171928.859000", "171928.862000", "171928.865000", "171928.868000", "171928.872000", "171928.875000", "171928.878000", "171928.882000", "172008.783000", "172008.787000", "172008.790000", "172008.794000", "172008.797000", "172008.800000", "172008.803000", "172008.807000", "172008.810000", "172008.814000", "172008.817000", "172008.820000", "172008.823000", "172008.827000", "172008.830000", "172008.834000", "172008.837000", "172008.840000", "172008.844000", "172008.847000", "172008.851000", "172008.854000", "172008.857000", "172008.861000", "172008.864000", "172008.867000", "172008.871000", "172048.783000", "172048.787000", "172048.790000", "172048.794000", "172048.797000", "172048.800000", "172048.804000", "172048.807000", "172048.810000", "172048.814000", "172048.817000", "172048.820000", "172048.824000", "172048.827000", "172048.831000", "172048.834000", "172048.837000", "172048.841000", "172048.844000", "172048.847000", "172048.851000", "172048.854000", "172048.857000", "172048.860000", "172048.864000", "172048.867000", "172048.870000", "172128.783000", "172128.787000", "172128.790000", "172128.794000", "172128.797000", "172128.800000", "172128.804000", "172128.807000", "172128.810000", "172128.814000", "172128.817000", "172128.820000", "172128.824000", "172128.827000", "172128.830000", "172128.834000", "172128.837000", "172128.840000", "172128.844000", "172128.847000", "172128.850000", "172128.854000", "172128.857000", "172128.860000", "172128.864000", "172128.867000", "172128.870000", "172208.784000", "172208.788000", "172208.791000", "172208.795000", "172208.798000", "172208.801000", "172208.805000", "172208.808000", "172208.811000", "172208.815000", "172208.818000", "172208.821000", "172208.824000", "172208.828000", "172208.831000", "172208.835000", "172208.838000", "172208.841000", "172208.845000", "172208.848000", "172208.851000", "172208.855000", "172208.858000", "172208.862000", "172208.865000", "172208.868000", "172208.871000", "172248.783000", "172248.787000", "172248.790000", "172248.794000", "172248.797000", "172248.801000", "172248.804000", "172248.807000", "172248.810000", "172248.814000", "172248.817000", "172248.820000", "172248.824000", "172248.827000", "172248.830000", "172248.834000", "172248.837000", "172248.841000", "172248.844000", "172248.848000", "172248.851000", "172248.854000", "172248.858000", "172248.861000", "172248.864000", "172248.868000", "172328.783000", "172328.787000", "172328.790000", "172328.794000", "172328.797000", "172328.800000", "172328.804000", "172328.807000", "172328.810000", "172328.814000", "172328.817000", "172328.820000", "172328.824000", "172328.827000", "172328.830000", "172328.834000", "172328.837000", "172328.840000", "172328.844000", "172328.847000", "172328.850000", "172328.854000", "172328.857000", "172328.860000", "172328.864000", "172328.867000", "172328.870000", "172408.783000", "172408.787000", "172408.790000", "172408.794000", "172408.809000", "172408.812000", "172408.815000", "172408.819000", "172408.822000", "172408.825000", "172408.829000", "172408.832000", "172408.835000", "172408.839000", "172408.842000", "172408.845000", "172408.849000", "172408.852000", "172408.855000", "172408.859000", "172408.862000", "172408.865000", "172408.869000", "172408.872000", "172408.875000", "172408.879000", "172408.882000", "172448.783000", "172448.787000", "172448.790000", "172448.794000", "172448.797000", "172448.800000", "172448.804000", "172448.807000", "172448.810000", "172448.814000", "172448.817000", "172448.820000", "172448.824000", "172448.827000", "172448.830000", "172448.834000", "172448.837000", "172448.840000", "172448.844000", "172448.847000", "172448.850000", "172448.854000", "172448.857000", "172448.860000", "172448.863000", "172448.867000", "172448.870000", "172528.783000", "172528.787000", "172528.790000", "172528.794000", "172528.797000", "172528.800000", "172528.804000", "172528.808000", "172528.812000", "172528.815000", "172528.819000", "172528.822000", "172528.825000", "172528.829000", "172528.832000", "172528.835000", "172528.838000", "172528.842000", "172528.845000", "172528.849000", "172528.852000", "172528.856000", "172528.859000", "172528.862000", "172528.865000", "172528.869000", "172528.872000", "172608.783000", "172608.787000", "172608.790000", "172608.794000", "172608.797000", "172608.800000", "172608.804000", "172608.807000", "172608.810000", "172608.814000", "172608.817000", "172608.820000", "172608.824000", "172608.827000", "172608.830000", "172608.834000", "172608.852000", "172608.855000", "172608.858000", "172608.861000", "172608.865000", "172608.868000", "172608.871000", "172608.875000", "172608.878000", "172608.881000", "172608.885000", "172631.566000", "172631.569000", "172631.573000", "172631.576000", "172631.579000", "172631.583000", "172631.586000", "172631.589000", "172631.593000", "172631.596000", "172631.599000", "172631.603000", "172631.606000", "172631.609000", "172631.613000"],
