{
  "AcquisitionMatrixPE": 104,
  "AcquisitionNumber": 1,
  "AcquisitionTime": "16:31:59.882500",
  "BandwidthPerPixelPhaseEncode": 17.17,
  "BaseResolution": 104,
  "BodyPartExamined": "BRAIN",
  "CoilCombinationMethod": "Sum of Squares",
  "ConsistencyInfo": "N4_VE11C_LATEST_20160120",
  "ConversionSoftware": "dcm2niix",
  "ConversionSoftwareVersion": "v1.0.20220505",
  "DerivedVendorReportedEchoSpacing": 0.000560011,
  "DeviceSerialNumber": "167006",
  "DwellTime": 2.1e-06,
  "EchoTime": 0.037,
  "EchoTime1": 0.037,
  "EchoTime2": 0.001,
  "EchoTrainLength": 104,
  "EffectiveEchoSpacing": 0.000560011,
  "FlipAngle": 52,
  "HeudiconvVersion": "0.5.3.post811+g6206e14",
  "ImageComments": "Unaliased MB4/PE3/LB",
  "ImageOrientationPatientDICOM": [0.998198, -0.0521176, 0.0297528, 0.0593039, 0.932604, -0.355996],
  "ImageOrientationText": "Tra>Cor(-20.9)>Sag(0.5)",
  "ImageType": [
    "ORIGINAL",
    "PRIMARY",
    "P",
    "MB",
    "ND",
    "MOSAIC",
    "PHASE"
],
  "ImagingFrequency": 123.259,
  "InPlanePhaseEncodingDirectionDICOM": "COL",
  "InstitutionAddress": "Chemin Queen-Mary 4565,Montreal,District,CA,H3W 1W5",
  "InstitutionName": "IUGM",
  "InstitutionalDepartmentName": "Department",
  "MRAcquisitionType": "2D",
  "MagneticFieldStrength": 3,
  "Manufacturer": "Siemens",
  "ManufacturersModelName": "Prisma_fit",
  "MatrixCoilMode": "SENSE",
  "Modality": "MR",
  "MultibandAccelerationFactor": 4,
  "PartialFourier": 1,
  "PatientPosition": "HFS",
  "PercentPhaseFOV": 100,
  "PercentSampling": 100,
  "PhaseEncodingDirection": "j",
  "PhaseEncodingSteps": 104,
  "PhaseResolution": 1,
  "PixelBandwidth": 2290,
  "ProcedureStepDescription": "games^mario3",
  "ProtocolName": "func_task-mario3_run-02",
  "PulseSequenceDetails": "%CustomerSeq%\\cmrr_mbep2d_bold",
  "ReceiveCoilActiveElements": "HC1-7;NC1,2",
  "ReceiveCoilName": "HeadNeck_64",
  "ReconMatrixPE": 104,
  "RepetitionTime": 1.49,
  "SAR": 0.0475837,
  "ScanOptions": "FS",
  "ScanningSequence": "EP",
  "SequenceName": "epfid2d1_104",
  "SequenceVariant": "SK\\SS",
  "SeriesDescription": "func_task-mario3_run-02",
  "SeriesNumber": 14,
  "ShimSetting": [628, -7249, -8828, 520, 14, -199, -111, 7],
  "SliceThickness": 2,
  "SliceTiming": [0, 0.785, 0.0975, 0.8825, 0.195, 0.98, 0.295, 1.0775, 0.3925, 1.175, 0.49, 1.275, 0.5875, 1.3725, 0.685, 0, 0.785, 0.0975, 0.8825, 0.195, 0.98, 0.295, 1.0775, 0.3925, 1.175, 0.49, 1.275, 0.5875, 1.3725, 0.685, 0, 0.785, 0.0975, 0.8825, 0.195, 0.98, 0.295, 1.0775, 0.3925, 1.175, 0.49, 1.275, 0.5875, 1.3725, 0.685, 0, 0.785, 0.0975, 0.8825, 0.195, 0.98, 0.295, 1.0775, 0.3925, 1.175, 0.49, 1.275, 0.5875, 1.3725, 0.685],
  "SoftwareVersions": "syngo MR E11",
  "SpacingBetweenSlices": 2,
  "StationName": "MRC35049",
  "TaskName": "mario3",
  "TotalReadoutTime": 0.0576811,
  "TxRefAmp": 240.65,
  "WipMemBlock": "5489ddba-66b1-4bda-83be-326a7c3e643c||Sequence: R017 ve11c/master r/75a17815+; Jun 28 2022 16:32:11 by eja",
  "dcmmeta_affine": [
    [-1.996395230293274, 0.11860775947570801, 0.01838778890669346, 100.01006317138672],
    [0.10423529148101807, 1.8652076721191406, -0.7142376899719238, -69.22409057617188],
    [0.059505585581064224, 0.7119920253753662, 1.8680273294448853, -70.4662857055664],
    [0.0, 0.0, 0.0, 1.0]
],
  "dcmmeta_reorient_transform": [
    [0.0, -1.0, 0.0, 103.0],
    [1.0, 0.0, 0.0, 0.0],
    [0.0, 0.0, 1.0, 0.0],
    [0.0, 0.0, 0.0, 1.0]
],
  "dcmmeta_shape": [104, 104, 60, 355],
  "dcmmeta_slice_dim": 2,
  "dcmmeta_version": 0.6,
  "global": {
    "const": {
      "AcquisitionMatrix": [104, 0, 0, 104],
      "AngioFlag": "N",
      "BitsAllocated": 16,
      "BitsStored": 16,
      "BodyPartExamined": "BRAIN",
      "Columns": 832,
      "EchoNumbers": 1,
      "EchoTime": 37.0,
      "EchoTrainLength": 104,
      "FlipAngle": 52.0,
      "HighBit": 15,
      "ImageOrientationPatient": [0.9981976369038, -0.0521176452685, 0.02975279367287, 0.05930387834001, 0.93260381708809, -0.3559960257736],
      "ImagePositionPatient": [-882.08776332071, -763.88623224335, 240.37396909861],
      "ImageType": [
        "ORIGINAL",
        "PRIMARY",
        "P",
        "MB",
        "ND",
        "MOSAIC"
],
      "ImagedNucleus": "1H",
      "ImagingFrequency": 123.25882,
      "InPlanePhaseEncodingDirection": "COL",
      "LargestImagePixelValue": 4095,
      "MRAcquisitionType": "2D",
      "MagneticFieldStrength": 3.0,
      "Manufacturer": "SIEMENS",
      "ManufacturerModelName": "Prisma_fit",
      "Modality": "MR",
      "NumberOfAverages": 1.0,
      "NumberOfPhaseEncodingSteps": 104,
      "PercentPhaseFieldOfView": 100.0,
      "PercentSampling": 100.0,
      "PerformedProcedureStepStartTime": "161855.310000",
      "PhotometricInterpretation": "MONOCHROME2",
      "PixelBandwidth": 2290.0,
      "PixelRepresentation": 0,
      "PixelSpacing": [2.0, 2.0],
      "ProtocolName": "func_task-mario3_run-02",
      "RepetitionTime": 1490.0,
      "RescaleIntercept": -4096.0,
      "RescaleSlope": 2.0,
      "RescaleType": "US",
      "Rows": 832,
      "SAR": 0.04758371850011,
      "SamplesPerPixel": 1,
      "ScanOptions": "FS",
      "ScanningSequence": "EP",
      "SequenceName": "epfid2d1_104",
      "SequenceVariant": [
        "SK",
        "SS"
],
      "SeriesDescription": "func_task-mario3_run-02",
      "SeriesNumber": 14,
      "SeriesTime": "163312.805000",
      "SliceLocation": -40.175767909368,
      "SliceThickness": 2.0,
      "SmallestImagePixelValue": 0,
      "SoftwareVersions": "syngo MR E11",
      "SpacingBetweenSlices": 1.9999999487222,
      "SpecificCharacterSet": "ISO_IR 100",
      "StudyID": "1",
      "StudyTime": "161855.233000",
      "TransmitCoilName": "Body",
      "VariableFlipAngleFlag": "N",
      "WindowCenterWidthExplanation": "Algo1",
      "dBdt": 0.0},
    "slices": {}
  },
  "time": {
    "samples": {
      "AcquisitionNumber": [1, 2, 3, 4, 5, 6, 7, 8, 9, 10, 11, 12, 13, 14, 15, 16, 17, 18, 19, 20, 21, 22, 23, 24, 25, 26, 27, 28, 29, 30, 31, 32, 33, 34, 35, 36, 37, 38, 39, 40, 41, 42, 43, 44, 45, 46, 47, 48, 49, 50, 51, 52, 53, 54, 55, 56, 57, 58, 59, 60, 61, 62, 63, 64, 65, 66, 67, 68, 69, 70, 71, 72, 73, 74, 75, 76, 77, 78, 79, 80, 81, 82, 83, 84, 85, 86, 87, 88, 89, 90, 91, 92, 93, 94, 95, 96, 97, 98, 99, 100, 101, 102, 103, 104, 105, 106, 107, 108, 109, 110, 111, 112, 113, 114, 115, 116, 117, 118, 119, 120, 121, 122, 123, 124, 125, 126, 127, 128, 129, 130, 131, 132, 133, 134, 135, 136, 137, 138, 139, 140, 141, 142, 143, 144, 145, 146, 147, 148, 149, 150, 151, 152, 153, 154, 155, 156, 157, 158, 159, 160, 161, 162, 163, 164, 165, 166, 167, 168, 169, 170, 171, 172, 173, 174, 175, 176, 177, 178, 179, 180, 181, 182, 183, 184, 185, 186, 187, 188, 189, 190, 191, 192, 193, 194, 195, 196, 197, 198, 199, 200, 201, 202, 203, 204, 205, 206, 207, 208, 209, 210, 211, 212, 213, 214, 215, 216, 217, 218, 219, 220, 221, 222, 223, 224, 225, 226, 227, 228, 229, 230, 231, 232, 233, 234, 235, 236, 237, 238, 239, 240, 241, 242, 243, 244, 245, 246, 247, 248, 249, 250, 251, 252, 253, 254, 255, 256, 257, 258, 259, 260, 261, 262, 263, 264, 265, 266, 267, 268, 269, 270, 271, 272, 273, 274, 275, 276, 277, 278, 279, 280, 281, 282, 283, 284, 285, 286, 287, 288, 289, 290, 291, 292, 293, 294, 295, 296, 297, 298, 299, 300, 301, 302, 303, 304, 305, 306, 307, 308, 309, 310, 311, 312, 313, 314, 315, 316, 317, 318, 319, 320, 321, 322, 323, 324, 325, 326, 327, 328, 329, 330, 331, 332, 333, 334, 335, 336, 337, 338, 339, 340, 341, 342, 343, 344, 345, 346, 347, 348, 349, 350, 351, 352, 353, 354, 355],
      "AcquisitionTime": ["163159.882500", "163201.372500", "163202.862500", "163204.352500", "163205.842500", "163207.332500", "163208.822500", "163210.312500", "163211.802500", "163213.292500", "163214.782500", "163216.272500", "163217.762500", "163219.252500", "163220.742500", "163222.232500", "163223.722500", "163225.212500", "163226.702500", "163228.192500", "163229.682500", "163231.172500", "163232.662500", "163234.152500", "163235.642500", "163237.132500", "163238.622500", "163240.112500", "163241.602500", "163243.092500", "163244.582500", "163246.072500", "163247.562500", "163249.052500", "163250.542500", "163252.032500", "163253.522500", "163255.012500", "163256.502500", "163257.992500", "163259.482500", "163300.972500", "163302.462500", "163303.952500", "163305.442500", "163306.932500", "163308.422500", "163309.912500", "163311.402500", "163312.892500", "163314.382500", "163315.872500", "163317.362500", "163318.852500", "163320.342500", "163321.832500", "163323.322500", "163324.812500", "163326.302500", "163327.792500", "163329.282500", "163330.772500", "163332.262500", "163333.752500", "163335.242500", "163336.732500", "163338.222500", "163339.712500", "163341.202500", "163342.692500", "163344.182500", "163345.672500", "163347.162500", "163348.652500", "163350.142500", "163351.632500", "163353.122500", "163354.612500", "163356.102500", "163357.592500", "163359.082500", "163400.572500", "163402.062500", "163403.552500", "163405.042500", "163406.532500", "163408.022500", "163409.512500", "163411.002500", "163412.492500", "163413.982500", "163415.472500", "163416.962500", "163418.452500", "163419.942500", "163421.432500", "163422.922500", "163424.412500", "163425.902500", "163427.392500", "163428.882500", "163430.372500", "163431.862500", "163433.352500", "163434.842500", "163436.332500", "163437.822500", "163439.312500", "163440.802500", "163442.292500", "163443.782500", "163445.272500", "163446.762500", "163448.252500", "163449.742500", "163451.232500", "163452.722500", "163454.212500", "163455.702500", "163457.192500", "163458.682500", "163500.172500", "163501.662500", "163503.152500", "163504.642500", "163506.132500", "163507.622500", "163509.112500", "163510.602500", "163512.092500", "163513.582500", "163515.072500", "163516.562500", "163518.052500", "163519.542500", "163521.032500", "163522.522500", "163524.012500", "163525.502500", "163526.992500", "163528.482500", "163529.972500", "163531.462500", "163532.952500", "163534.442500", "163535.932500", "163537.422500", "163538.912500", "163540.402500", "163541.892500", "163543.382500", "163544.872500", "163546.362500", "163547.852500", "163549.342500", "163550.832500", "163552.322500", "163553.812500", "163555.302500", "163556.792500", "163558.282500", "163559.772500", "163601.262500", "163602.752500", "163604.242500", "163605.732500", "163607.222500", "163608.712500", "163610.202500", "163611.692500", "163613.182500", "163614.672500", "163616.162500", "163617.652500", "163619.142500", "163620.632500", "163622.122500", "163623.612500", "163625.102500", "163626.592500", "163628.082500", "163629.572500", "163631.062500", "163632.552500", "163634.042500", "163635.532500", "163637.022500", "163638.512500", "163640.002500", "163641.492500", "163642.982500", "163644.472500", "163645.962500", "163647.452500", "163648.942500", "163650.432500", "163651.922500", "163653.412500", "163654.902500", "163656.392500", "163657.882500", "163659.372500", "163700.862500", "163702.352500", "163703.842500", "163705.332500", "163706.822500", "163708.312500", "163709.802500", "163711.292500", "163712.782500", "163714.272500", "163715.762500", "163717.252500", "163718.742500", "163720.232500", "163721.722500", "163723.212500", "163724.702500", "163726.192500", "163727.682500", "163729.172500", "163730.662500", "163732.152500", "163733.642500", "163735.132500", "163736.622500", "163738.112500", "163739.602500", "163741.092500", "163742.582500", "163744.072500", "163745.562500", "163747.052500", "163748.542500", "163750.032500", "163751.522500", "163753.012500", "163754.502500", "163755.992500", "163757.482500", "163758.972500", "163800.462500", "163801.952500", "163803.442500", "163804.932500", "163806.422500", "163807.912500", "163809.402500", "163810.892500", "163812.382500", "163813.872500", "163815.362500", "163816.852500", "163818.342500", "163819.832500", "163821.322500", "163822.812500", "163824.302500", "163825.792500", "163827.282500", "163828.772500", "163830.262500", "163831.752500", "163833.242500", "163834.732500", "163836.222500", "163837.712500", "163839.202500", "163840.692500", "163842.182500", "163843.672500", "163845.162500", "163846.652500", "163848.142500", "163849.632500", "163851.122500", "163852.612500", "163854.102500", "163855.592500", "163857.082500", "163858.572500", "163900.062500", "163901.552500", "163903.042500", "163904.532500", "163906.022500", "163907.512500", "163909.002500", "163910.492500", "163911.982500", "163913.472500", "163914.962500", "163916.452500", "163917.942500", "163919.432500", "163920.922500", "163922.412500", "163923.902500", "163925.392500", "163926.882500", "163928.372500", "163929.862500", "163931.352500", "163932.842500", "163934.332500", "163935.822500", "163937.312500", "163938.802500", "163940.292500", "163941.782500", "163943.272500", "163944.762500", "163946.252500", "163947.742500", "163949.232500", "163950.722500", "163952.212500", "163953.702500", "163955.192500", "163956.682500", "163958.172500", "163959.662500", "164001.152500", "164002.642500", "164004.132500", "164005.622500", "164007.112500", "164008.602500", "164010.092500", "164011.582500", "164013.072500", "164014.562500", "164016.052500", "164017.542500", "164019.032500", "164020.522500", "164022.012500", "164023.502500", "164024.992500", "164026.482500", "164027.972500", "164029.462500", "164030.952500", "164032.442500", "164033.932500", "164035.422500", "164036.912500", "164038.402500", "164039.892500", "164041.382500", "164042.872500", "164044.362500", "164045.852500", "164047.342500"],
      "ContentTime": ["163312.808000", "163312.810000", "163312.813000", "163312.815000", "163312.818000", "163312.820000", "163312.823000", "163312.825000", "163312.828000", "163312.830000", "163312.833000", "163312.835000", "163312.837000", "163312.840000", "163312.842000", "163312.845000", "163312.847000", "163312.850000", "163312.852000", "163312.855000", "163312.858000", "163312.860000", "163312.862000", "163312.865000", "163312.867000", "163332.736000", "163332.739000", "163332.741000", "163332.744000", "163332.746000", "163332.749000", "163332.751000", "163332.754000", "163332.756000", "163332.759000", "163332.761000", "163332.764000", "163332.766000", "163332.769000", "163332.771000", "163332.780000", "163332.783000", "163332.785000", "163332.787000", "163332.790000", "163352.735000", "163352.746000", "163352.749000", "163352.751000", "163352.754000", "163352.756000", "163352.759000", "163352.761000", "163352.764000", "163352.766000", "163352.769000", "163352.771000", "163352.774000", "163352.776000", "163352.779000", "163352.781000", "163352.784000", "163352.786000", "163352.789000", "163352.791000", "163412.729000", "163412.732000", "163412.734000", "163412.737000", "163412.739000", "163412.742000", "163412.745000", "163412.747000", "163412.750000", "163412.752000", "163412.754000", "163412.757000", "163412.760000", "163412.762000", "163412.765000", "163412.767000", "163412.770000", "163412.772000", "163412.775000", "163412.783000", "163412.785000", "163452.771000", "163452.774000", "163452.776000", "163452.779000", "163452.781000", "163452.784000", "163452.786000", "163452.788000", "163452.791000", "163452.793000", "163452.796000", "163452.798000", "163452.801000", "163452.803000", "163452.806000", "163452.809000", "163452.811000", "163452.814000", "163452.816000", "163452.818000", "163452.821000", "163452.823000", "163452.826000", "163452.828000", "163452.831000", "163452.833000", "163452.836000", "163452.838000", "163452.841000", "163532.761000", "163532.764000", "163532.766000", "163532.769000", "163532.771000", "163532.774000", "163532.776000", "163532.779000", "163532.781000", "163532.784000", "163532.786000", "163532.789000", "163532.791000", "163532.794000", "163532.796000", "163532.799000", "163532.801000", "163532.804000", "163532.806000", "163532.809000", "163532.811000", "163532.814000", "163532.816000", "163532.819000", "163532.821000", "163532.824000", "163532.826000", "163612.774000", "163612.777000", "163612.779000", "163612.782000", "163612.784000", "163612.787000", "163612.789000", "163612.792000", "163612.794000", "163612.797000", "163612.799000", "163612.812000", "163612.814000", "163612.817000", "163612.819000", "163612.822000", "163612.824000", "163612.827000", "163612.829000", "163612.832000", "163612.834000", "163612.837000", "163612.839000", "163612.842000", "163612.844000", "163612.847000", "163612.849000", "163652.765000", "163652.768000", "163652.771000", "163652.774000", "163652.777000", "163652.780000", "163652.782000", "163652.785000", "163652.788000", "163652.790000", "163652.793000", "163652.795000", "163652.798000", "163652.801000", "163652.803000", "163652.806000", "163652.808000", "163652.811000", "163652.813000", "163652.816000", "163652.818000", "163652.821000", "163652.823000", "163652.826000", "163652.828000", "163652.831000", "163732.761000", "163732.764000", "163732.766000", "163732.769000", "163732.771000", "163732.774000", "163732.776000", "163732.779000", "163732.781000", "163732.784000", "163732.786000", "163732.789000", "163732.791000", "163732.794000", "163732.796000", "163732.799000", "163732.801000", "163732.804000", "163732.806000", "163732.809000", "163732.811000", "163732.814000", "163732.816000", "163732.819000", "163732.821000", "163732.824000", "163732.826000", "163813.232000", "163813.235000", "163813.238000", "163813.241000", "163813.244000", "163813.246000", "163813.249000", "163813.252000", "163813.254000", "163813.257000", "163813.259000", "163813.262000", "163813.265000", "163813.267000", "163813.270000", "163813.272000", "163813.275000", "163813.277000", "163813.279000", "163813.282000", "163813.284000", "163813.287000", "163813.289000", "163813.292000", "163813.295000", "163813.297000", "163813.300000", "163852.760000", "163852.763000", "163852.765000", "163852.768000", "163852.770000", "163852.773000", "163852.775000", "163852.778000", "163852.780000", "163852.783000", "163852.785000", "163852.788000", "163852.790000", "163852.793000", "163852.795000", "163852.798000", "163852.800000", "163852.803000", "163852.805000", "163852.808000", "163852.810000", "163852.813000", "163852.815000", "163852.818000", "163852.820000", "163852.823000", "163852.825000", "163932.762000", "163932.765000", "163932.768000", "163932.770000", "163932.773000", "163932.775000", "163932.778000", "163932.780000", "163932.783000", "163932.785000", "163932.788000", "163932.790000", "163932.793000", "163932.795000", "163932.798000", "163932.800000", "163932.803000", "163932.805000", "163932.808000", "163932.810000", "163932.813000", "163932.815000", "163932.818000", "163932.820000", "163932.823000", "163932.825000", "163932.828000", "164012.760000", "164012.763000", "164012.765000", "164012.768000", "164012.770000", "164012.773000", "164012.775000", "164012.778000", "164012.780000", "164012.783000", "164012.785000", "164012.788000", "164012.790000", "164012.793000", "164012.795000", "164012.798000", "164012.800000", "164012.803000", "164012.805000", "164012.808000", "164012.810000", "164012.813000", "164012.815000", "164012.818000", "164012.820000", "164012.823000", "164012.825000", "164050.220000", "164050.223000", "164050.226000", "164050.228000", "164050.231000", "164050.234000", "164050.236000", "164050.239000", "164050.241000", "164050.244000", "164050.247000", "164050.249000", "164050.252000", "164050.255000", "164050.258000", "164050.260000", "164050.263000", "164050.266000", "164050.268000", "164050.271000", "164050.274000", "164050.276000", "164050.279000", "164050.282000", "164050.285000"],
      "InstanceCreationTime": ["163312.808000", "163312.810000", "163312.813000", "163312.815000", "163312.818000", "163312.820000", "163312.823000", "163312.825000", "163312.828000", "163312.830000", "163312.833000", "163312.835000", "163312.837000", "163312.840000", "163312.842000", "163312.845000", "163312.847000", "163312.850000", "163312.852000", "163312.855000", "163312.858000", "163312.860000", "163312.862000", "163312.865000", "163312.867000", "163332.736000", "163332.739000", "163332.741000", "163332.744000", "163332.746000", "163332.749000", "163332.751000", "163332.754000", "163332.756000", "163332.759000", "163332.761000", "163332.764000", "163332.766000", "163332.769000", "163332.771000", "163332.780000", "163332.783000", "163332.785000", "163332.787000", "163332.790000", "163352.735000", "163352.746000", "163352.749000", "163352.751000", "163352.754000", "163352.756000", "163352.759000", "163352.761000", "163352.764000", "163352.766000", "163352.769000", "163352.771000", "163352.774000", "163352.776000", "163352.779000", "163352.781000", "163352.784000", "163352.786000", "163352.789000", "163352.791000", "163412.729000", "163412.732000", "163412.734000", "163412.737000", "163412.739000", "163412.742000", "163412.745000", "163412.747000", "163412.750000", "163412.752000", "163412.754000", "163412.757000", "163412.760000", "163412.762000", "163412.765000", "163412.767000", "163412.770000", "163412.772000", "163412.775000", "163412.783000", "163412.785000", "163452.771000", "163452.774000", "163452.776000", "163452.779000", "163452.781000", "163452.784000", "163452.786000", "163452.788000", "163452.791000", "163452.793000", "163452.796000", "163452.798000", "163452.801000", "163452.803000", "163452.806000", "163452.809000", "163452.811000", "163452.814000", "163452.816000", "163452.818000", "163452.821000", "163452.823000", "163452.826000", "163452.828000", "163452.831000", "163452.833000", "163452.836000", "163452.838000", "163452.841000", "163532.761000", "163532.764000", "163532.766000", "163532.769000", "163532.771000", "163532.774000", "163532.776000", "163532.779000", "163532.781000", "163532.784000", "163532.786000", "163532.789000", "163532.791000", "163532.794000", "163532.796000", "163532.799000", "163532.801000", "163532.804000", "163532.806000", "163532.809000", "163532.811000", "163532.814000", "163532.816000", "163532.819000", "163532.821000", "163532.824000", "163532.826000", "163612.774000", "163612.777000", "163612.779000", "163612.782000", "163612.784000", "163612.787000", "163612.789000", "163612.792000", "163612.794000", "163612.797000", "163612.799000", "163612.812000", "163612.814000", "163612.817000", "163612.819000", "163612.822000", "163612.824000", "163612.827000", "163612.829000", "163612.832000", "163612.834000", "163612.837000", "163612.839000", "163612.842000", "163612.844000", "163612.847000", "163612.849000", "163652.765000", "163652.768000", "163652.771000", "163652.774000", "163652.777000", "163652.780000", "163652.782000", "163652.785000", "163652.788000", "163652.790000", "163652.793000", "163652.795000", "163652.798000", "163652.801000", "163652.803000", "163652.806000", "163652.808000", "163652.811000", "163652.813000", "163652.816000", "163652.818000", "163652.821000", "163652.823000", "163652.826000", "163652.828000", "163652.831000", "163732.761000", "163732.764000", "163732.766000", "163732.769000", "163732.771000", "163732.774000", "163732.776000", "163732.779000", "163732.781000", "163732.784000", "163732.786000", "163732.789000", "163732.791000", "163732.794000", "163732.796000", "163732.799000", "163732.801000", "163732.804000", "163732.806000", "163732.809000", "163732.811000", "163732.814000", "163732.816000", "163732.819000", "163732.821000", "163732.824000", "163732.826000", "163813.232000", "163813.235000", "163813.238000", "163813.241000", "163813.244000", "163813.246000", "163813.249000", "163813.252000", "163813.254000", "163813.257000", "163813.259000", "163813.262000", "163813.265000", "163813.267000", "163813.270000", "163813.272000", "163813.275000", "163813.277000", "163813.279000", "163813.282000", "163813.284000", "163813.287000", "163813.289000", "163813.292000", "163813.295000", "163813.297000", "163813.300000", "163852.760000", "163852.763000", "163852.765000", "163852.768000", "163852.770000", "163852.773000", "163852.775000", "163852.778000", "163852.780000", "163852.783000", "163852.785000", "163852.788000", "163852.790000", "163852.793000", "163852.795000", "163852.798000", "163852.800000", "163852.803000", "163852.805000", "163852.808000", "163852.810000", "163852.813000", "163852.815000", "163852.818000", "163852.820000", "163852.823000", "163852.825000", "163932.762000", "163932.765000", "163932.768000", "163932.770000", "163932.773000", "163932.775000", "163932.778000", "163932.780000", "163932.783000", "163932.785000", "163932.788000", "163932.790000", "163932.793000", "163932.795000", "163932.798000", "163932.800000", "163932.803000", "163932.805000", "163932.808000", "163932.810000", "163932.813000", "163932.815000", "163932.818000", "163932.820000", "163932.823000", "163932.825000", "163932.828000", "164012.760000", "164012.763000", "164012.765000", "164012.768000", "164012.770000", "164012.773000", "164012.775000", "164012.778000", "164012.780000", "164012.783000", "164012.785000", "164012.788000", "164012.790000", "164012.793000", "164012.795000", "164012.798000", "164012.800000", "164012.803000", "164012.805000", "164012.808000", "164012.810000", "164012.813000", "164012.815000", "164012.818000", "164012.820000", "164012.823000", "164012.825000", "164050.220000", "164050.223000", "164050.226000", "164050.228000", "164050.231000", "164050.234000", "164050.236000", "164050.239000", "164050.241000", "164050.244000", "164050.247000", "164050.249000", "164050.252000", "164050.255000", "164050.258000", "164050.260000", "164050.263000", "164050.266000", "164050.268000", "164050.271000", "164050.274000", "164050.276000", "164050.279000", "164050.282000", "164050.285000"],
      "InstanceNumber": [1, 2, 3, 4, 5, 6, 7, 8, 9, 10, 11, 12, 13, 14, 15, 16, 17, 18, 19, 20, 21, 22, 23, 24, 25, 26, 27, 28, 29, 30, 31, 32, 33, 34, 35, 36, 37, 38, 39, 40, 41, 42, 43, 44, 45, 46, 47, 48, 49, 50, 51, 52, 53, 54, 55, 56, 57, 58, 59, 60, 61, 62, 63, 64, 65, 66, 67, 68, 69, 70, 71, 72, 73, 74, 75, 76, 77, 78, 79, 80, 81, 82, 83, 84, 85, 86, 87, 88, 89, 90, 91, 92, 93, 94, 95, 96, 97, 98, 99, 100, 101, 102, 103, 104, 105, 106, 107, 108, 109, 110, 111, 112, 113, 114, 115, 116, 117, 118, 119, 120, 121, 122, 123, 124, 125, 126, 127, 128, 129, 130, 131, 132, 133, 134, 135, 136, 137, 138, 139, 140, 141, 142, 143, 144, 145, 146, 147, 148, 149, 150, 151, 152, 153, 154, 155, 156, 157, 158, 159, 160, 161, 162, 163, 164, 165, 166, 167, 168, 169, 170, 171, 172, 173, 174, 175, 176, 177, 178, 179, 180, 181, 182, 183, 184, 185, 186, 187, 188, 189, 190, 191, 192, 193, 194, 195, 196, 197, 198, 199, 200, 201, 202, 203, 204, 205, 206, 207, 208, 209, 210, 211, 212, 213, 214, 215, 216, 217, 218, 219, 220, 221, 222, 223, 224, 225, 226, 227, 228, 229, 230, 231, 232, 233, 234, 235, 236, 237, 238, 239, 240, 241, 242, 243, 244, 245, 246, 247, 248, 249, 250, 251, 252, 253, 254, 255, 256, 257, 258, 259, 260, 261, 262, 263, 264, 265, 266, 267, 268, 269, 270, 271, 272, 273, 274, 275, 276, 277, 278, 279, 280, 281, 282, 283, 284, 285, 286, 287, 288, 289, 290, 291, 292, 293, 294, 295, 296, 297, 298, 299, 300, 301, 302, 303, 304, 305, 306, 307, 308, 309, 310, 311, 312, 313, 314, 315, 316, 317, 318, 319, 320, 321, 322, 323, 324, 325, 326, 327, 328, 329, 330, 331, 332, 333, 334, 335, 336, 337, 338, 339, 340, 341, 342, 343, 344, 345, 346, 347, 348, 349, 350, 351, 352, 353, 354, 355],
