{
  "AcquisitionMatrixPE": 104,
  "AcquisitionNumber": 1,
  "AcquisitionTime": "16:41:48.377500",
  "BandwidthPerPixelPhaseEncode": 17.17,
  "BaseResolution": 104,
  "BodyPartExamined": "BRAIN",
  "CoilCombinationMethod": "Sum of Squares",
  "ConsistencyInfo": "N4_VE11C_LATEST_20160120",
  "ConversionSoftware": "dcm2niix",
  "ConversionSoftwareVersion": "v1.0.20220505",
  "DerivedVendorReportedEchoSpacing": 0.000560011,
  "DeviceSerialNumber": "167006",
  "DwellTime": 2.1e-06,
  "EchoTime": 0.037,
  "EchoTrainLength": 104,
  "EffectiveEchoSpacing": 0.000560011,
  "FlipAngle": 52,
  "HeudiconvVersion": "0.5.3.post811+g6206e14",
  "ImageComments": "Unaliased MB4/PE3/LB",
  "ImageOrientationPatientDICOM": [0.998198, -0.0521176, 0.0297528, 0.0593039, 0.932604, -0.355996],
  "ImageOrientationText": "Tra>Cor(-20.9)>Sag(0.5)",
  "ImageType": [
    "ORIGINAL",
    "PRIMARY",
    "M",
    "MB",
    "ND",
    "MOSAIC"
],
  "ImagingFrequency": 123.259,
  "InPlanePhaseEncodingDirectionDICOM": "COL",
  "InstitutionAddress": "Chemin Queen-Mary 4565,Montreal,District,CA,H3W 1W5",
  "InstitutionName": "IUGM",
  "InstitutionalDepartmentName": "Department",
  "MRAcquisitionType": "2D",
  "MagneticFieldStrength": 3,
  "Manufacturer": "Siemens",
  "ManufacturersModelName": "Prisma_fit",
  "MatrixCoilMode": "SENSE",
  "Modality": "MR",
  "MultibandAccelerationFactor": 4,
  "PartialFourier": 1,
  "PatientPosition": "HFS",
  "PercentPhaseFOV": 100,
  "PercentSampling": 100,
  "PhaseEncodingDirection": "j",
  "PhaseEncodingSteps": 104,
  "PhaseResolution": 1,
  "PixelBandwidth": 2290,
  "ProcedureStepDescription": "games^mario3",
  "ProtocolName": "func_task-mario3_run-03",
  "PulseSequenceDetails": "%CustomerSeq%\\cmrr_mbep2d_bold",
  "ReceiveCoilActiveElements": "HC1-7;NC1,2",
  "ReceiveCoilName": "HeadNeck_64",
  "ReconMatrixPE": 104,
  "RepetitionTime": 1.49,
  "SAR": 0.0475837,
  "ScanOptions": "FS",
  "ScanningSequence": "EP",
  "SequenceName": "epfid2d1_104",
  "SequenceVariant": "SK\\SS",
  "SeriesDescription": "func_task-mario3_run-03",
  "SeriesNumber": 16,
  "ShimSetting": [628, -7249, -8828, 520, 14, -199, -111, 7],
  "SliceThickness": 2,
  "SliceTiming": [0, 0.785, 0.1, 0.8825, 0.1975, 0.98, 0.295, 1.08, 0.3925, 1.1775, 0.49, 1.275, 0.59, 1.3725, 0.6875, 0, 0.785, 0.1, 0.8825, 0.1975, 0.98, 0.295, 1.08, 0.3925, 1.1775, 0.49, 1.275, 0.59, 1.3725, 0.6875, 0, 0.785, 0.1, 0.8825, 0.1975, 0.98, 0.295, 1.08, 0.3925, 1.1775, 0.49, 1.275, 0.59, 1.3725, 0.6875, 0, 0.785, 0.1, 0.8825, 0.1975, 0.98, 0.295, 1.08, 0.3925, 1.1775, 0.49, 1.275, 0.59, 1.3725, 0.6875],
  "SoftwareVersions": "syngo MR E11",
  "SpacingBetweenSlices": 2,
  "StationName": "MRC35049",
  "TaskName": "mario3",
  "TotalReadoutTime": 0.0576811,
  "TxRefAmp": 240.65,
  "WipMemBlock": "81c647b0-8cb0-4796-815f-f3272cd118e3||Sequence: R017 ve11c/master r/75a17815+; Jun 28 2022 16:32:11 by eja",
  "dcmmeta_affine": [
    [-1.996395230293274, 0.11860775947570801, 0.01838778890669346, 100.01006317138672],
    [0.10423529148101807, 1.8652076721191406, -0.7142376899719238, -69.22409057617188],
    [0.059505585581064224, 0.7119920253753662, 1.8680273294448853, -70.4662857055664],
    [0.0, 0.0, 0.0, 1.0]
],
  "dcmmeta_reorient_transform": [
    [0.0, -1.0, 0.0, 103.0],
    [1.0, 0.0, 0.0, 0.0],
    [0.0, 0.0, 1.0, 0.0],
    [0.0, 0.0, 0.0, 1.0]
],
  "dcmmeta_shape": [104, 104, 60, 372],
  "dcmmeta_slice_dim": 2,
  "dcmmeta_version": 0.6,
  "global": {
    "const": {
      "AcquisitionMatrix": [104, 0, 0, 104],
      "AngioFlag": "N",
      "BitsAllocated": 16,
      "BitsStored": 16,
      "BodyPartExamined": "BRAIN",
      "Columns": 832,
      "EchoNumbers": 1,
      "EchoTime": 37.0,
      "EchoTrainLength": 104,
      "FlipAngle": 52.0,
      "HighBit": 15,
      "ImageOrientationPatient": [0.9981976369038, -0.0521176452685, 0.02975279367287, 0.05930387834001, 0.93260381708809, -0.3559960257736],
      "ImagePositionPatient": [-882.08776332071, -763.88623224335, 240.37396909861],
      "ImageType": [
        "ORIGINAL",
        "PRIMARY",
        "M",
        "MB",
        "ND",
        "MOSAIC"
],
      "ImagedNucleus": "1H",
      "ImagingFrequency": 123.258823,
      "InPlanePhaseEncodingDirection": "COL",
      "MRAcquisitionType": "2D",
      "MagneticFieldStrength": 3.0,
      "Manufacturer": "SIEMENS",
      "ManufacturerModelName": "Prisma_fit",
      "Modality": "MR",
      "NumberOfAverages": 1.0,
      "NumberOfPhaseEncodingSteps": 104,
      "PercentPhaseFieldOfView": 100.0,
      "PercentSampling": 100.0,
      "PerformedProcedureStepStartTime": "161855.310000",
      "PhotometricInterpretation": "MONOCHROME2",
      "PixelBandwidth": 2290.0,
      "PixelRepresentation": 0,
      "PixelSpacing": [2.0, 2.0],
      "ProtocolName": "func_task-mario3_run-03",
      "RepetitionTime": 1490.0,
      "Rows": 832,
      "SAR": 0.04758371850011,
      "SamplesPerPixel": 1,
      "ScanOptions": "FS",
      "ScanningSequence": "EP",
      "SequenceName": "epfid2d1_104",
      "SequenceVariant": [
        "SK",
        "SS"
],
      "SeriesDescription": "func_task-mario3_run-03",
      "SeriesNumber": 16,
      "SeriesTime": "164306.803000",
      "SliceLocation": -40.175767909368,
      "SliceThickness": 2.0,
      "SmallestImagePixelValue": 0,
      "SoftwareVersions": "syngo MR E11",
      "SpacingBetweenSlices": 1.9999999487222,
      "SpecificCharacterSet": "ISO_IR 100",
      "StudyID": "1",
      "StudyTime": "161855.233000",
      "TransmitCoilName": "Body",
      "VariableFlipAngleFlag": "N",
      "WindowCenterWidthExplanation": "Algo1",
      "dBdt": 0.0},
    "slices": {}
  },
  "time": {
    "samples": {
      "AcquisitionNumber": [1, 2, 3, 4, 5, 6, 7, 8, 9, 10, 11, 12, 13, 14, 15, 16, 17, 18, 19, 20, 21, 22, 23, 24, 25, 26, 27, 28, 29, 30, 31, 32, 33, 34, 35, 36, 37, 38, 39, 40, 41, 42, 43, 44, 45, 46, 47, 48, 49, 50, 51, 52, 53, 54, 55, 56, 57, 58, 59, 60, 61, 62, 63, 64, 65, 66, 67, 68, 69, 70, 71, 72, 73, 74, 75, 76, 77, 78, 79, 80, 81, 82, 83, 84, 85, 86, 87, 88, 89, 90, 91, 92, 93, 94, 95, 96, 97, 98, 99, 100, 101, 102, 103, 104, 105, 106, 107, 108, 109, 110, 111, 112, 113, 114, 115, 116, 117, 118, 119, 120, 121, 122, 123, 124, 125, 126, 127, 128, 129, 130, 131, 132, 133, 134, 135, 136, 137, 138, 139, 140, 141, 142, 143, 144, 145, 146, 147, 148, 149, 150, 151, 152, 153, 154, 155, 156, 157, 158, 159, 160, 161, 162, 163, 164, 165, 166, 167, 168, 169, 170, 171, 172, 173, 174, 175, 176, 177, 178, 179, 180, 181, 182, 183, 184, 185, 186, 187, 188, 189, 190, 191, 192, 193, 194, 195, 196, 197, 198, 199, 200, 201, 202, 203, 204, 205, 206, 207, 208, 209, 210, 211, 212, 213, 214, 215, 216, 217, 218, 219, 220, 221, 222, 223, 224, 225, 226, 227, 228, 229, 230, 231, 232, 233, 234, 235, 236, 237, 238, 239, 240, 241, 242, 243, 244, 245, 246, 247, 248, 249, 250, 251, 252, 253, 254, 255, 256, 257, 258, 259, 260, 261, 262, 263, 264, 265, 266, 267, 268, 269, 270, 271, 272, 273, 274, 275, 276, 277, 278, 279, 280, 281, 282, 283, 284, 285, 286, 287, 288, 289, 290, 291, 292, 293, 294, 295, 296, 297, 298, 299, 300, 301, 302, 303, 304, 305, 306, 307, 308, 309, 310, 311, 312, 313, 314, 315, 316, 317, 318, 319, 320, 321, 322, 323, 324, 325, 326, 327, 328, 329, 330, 331, 332, 333, 334, 335, 336, 337, 338, 339, 340, 341, 342, 343, 344, 345, 346, 347, 348, 349, 350, 351, 352, 353, 354, 355, 356, 357, 358, 359, 360, 361, 362, 363, 364, 365, 366, 367, 368, 369, 370, 371, 372],
      "AcquisitionTime": ["164148.377500", "164149.867500", "164151.357500", "164152.847500", "164154.337500", "164155.827500", "164157.317500", "164158.807500", "164200.297500", "164201.787500", "164203.277500", "164204.767500", "164206.257500", "164207.747500", "164209.237500", "164210.727500", "164212.217500", "164213.707500", "164215.197500", "164216.687500", "164218.177500", "164219.667500", "164221.157500", "164222.647500", "164224.137500", "164225.627500", "164227.117500", "164228.607500", "164230.097500", "164231.587500", "164233.077500", "164234.567500", "164236.057500", "164237.547500", "164239.037500", "164240.527500", "164242.017500", "164243.507500", "164244.997500", "164246.487500", "164247.977500", "164249.467500", "164250.957500", "164252.447500", "164253.937500", "164255.427500", "164256.917500", "164258.407500", "164259.897500", "164301.387500", "164302.877500", "164304.367500", "164305.857500", "164307.347500", "164308.837500", "164310.327500", "164311.817500", "164313.307500", "164314.797500", "164316.287500", "164317.777500", "164319.267500", "164320.757500", "164322.247500", "164323.737500", "164325.227500", "164326.717500", "164328.207500", "164329.697500", "164331.187500", "164332.677500", "164334.167500", "164335.657500", "164337.147500", "164338.637500", "164340.127500", "164341.617500", "164343.107500", "164344.597500", "164346.087500", "164347.577500", "164349.067500", "164350.557500", "164352.047500", "164353.537500", "164355.027500", "164356.517500", "164358.007500", "164359.497500", "164400.987500", "164402.477500", "164403.967500", "164405.457500", "164406.947500", "164408.437500", "164409.927500", "164411.417500", "164412.907500", "164414.397500", "164415.887500", "164417.377500", "164418.867500", "164420.357500", "164421.847500", "164423.337500", "164424.827500", "164426.317500", "164427.807500", "164429.297500", "164430.787500", "164432.277500", "164433.767500", "164435.257500", "164436.747500", "164438.237500", "164439.727500", "164441.217500", "164442.707500", "164444.197500", "164445.687500", "164447.177500", "164448.667500", "164450.157500", "164451.647500", "164453.137500", "164454.627500", "164456.117500", "164457.607500", "164459.097500", "164500.587500", "164502.077500", "164503.567500", "164505.057500", "164506.547500", "164508.037500", "164509.527500", "164511.017500", "164512.507500", "164513.997500", "164515.487500", "164516.977500", "164518.467500", "164519.957500", "164521.447500", "164522.937500", "164524.427500", "164525.917500", "164527.407500", "164528.897500", "164530.387500", "164531.877500", "164533.367500", "164534.857500", "164536.347500", "164537.837500", "164539.327500", "164540.817500", "164542.307500", "164543.797500", "164545.287500", "164546.777500", "164548.267500", "164549.757500", "164551.247500", "164552.737500", "164554.227500", "164555.717500", "164557.207500", "164558.697500", "164600.187500", "164601.677500", "164603.167500", "164604.657500", "164606.147500", "164607.637500", "164609.127500", "164610.617500", "164612.107500", "164613.597500", "164615.087500", "164616.577500", "164618.067500", "164619.557500", "164621.047500", "164622.537500", "164624.027500", "164625.517500", "164627.007500", "164628.497500", "164629.987500", "164631.477500", "164632.967500", "164634.457500", "164635.947500", "164637.437500", "164638.927500", "164640.417500", "164641.907500", "164643.397500", "164644.887500", "164646.377500", "164647.867500", "164649.357500", "164650.847500", "164652.337500", "164653.827500", "164655.317500", "164656.807500", "164658.297500", "164659.787500", "164701.277500", "164702.767500", "164704.257500", "164705.747500", "164707.237500", "164708.727500", "164710.217500", "164711.707500", "164713.197500", "164714.687500", "164716.177500", "164717.667500", "164719.157500", "164720.647500", "164722.137500", "164723.627500", "164725.117500", "164726.607500", "164728.097500", "164729.587500", "164731.077500", "164732.567500", "164734.057500", "164735.547500", "164737.037500", "164738.527500", "164740.017500", "164741.507500", "164742.997500", "164744.487500", "164745.977500", "164747.467500", "164748.957500", "164750.447500", "164751.937500", "164753.427500", "164754.917500", "164756.407500", "164757.897500", "164759.387500", "164800.877500", "164802.367500", "164803.857500", "164805.347500", "164806.837500", "164808.327500", "164809.817500", "164811.307500", "164812.797500", "164814.287500", "164815.777500", "164817.267500", "164818.757500", "164820.247500", "164821.737500", "164823.227500", "164824.717500", "164826.207500", "164827.697500", "164829.187500", "164830.677500", "164832.167500", "164833.657500", "164835.147500", "164836.637500", "164838.127500", "164839.617500", "164841.107500", "164842.597500", "164844.087500", "164845.577500", "164847.067500", "164848.557500", "164850.047500", "164851.537500", "164853.027500", "164854.517500", "164856.007500", "164857.497500", "164858.987500", "164900.477500", "164901.967500", "164903.457500", "164904.947500", "164906.437500", "164907.927500", "164909.417500", "164910.907500", "164912.397500", "164913.887500", "164915.377500", "164916.867500", "164918.357500", "164919.847500", "164921.337500", "164922.827500", "164924.317500", "164925.807500", "164927.297500", "164928.787500", "164930.277500", "164931.767500", "164933.257500", "164934.747500", "164936.237500", "164937.727500", "164939.217500", "164940.707500", "164942.197500", "164943.687500", "164945.177500", "164946.667500", "164948.157500", "164949.647500", "164951.137500", "164952.627500", "164954.117500", "164955.607500", "164957.097500", "164958.587500", "165000.077500", "165001.567500", "165003.057500", "165004.547500", "165006.037500", "165007.527500", "165009.017500", "165010.507500", "165011.997500", "165013.487500", "165014.977500", "165016.467500", "165017.957500", "165019.447500", "165020.937500", "165022.427500", "165023.917500", "165025.407500", "165026.897500", "165028.387500", "165029.877500", "165031.367500", "165032.857500", "165034.347500", "165035.837500", "165037.327500", "165038.817500", "165040.307500", "165041.797500", "165043.287500", "165044.777500", "165046.267500", "165047.757500", "165049.247500", "165050.737500", "165052.227500", "165053.717500", "165055.207500", "165056.697500", "165058.187500", "165059.677500", "165101.167500"],
      "ContentTime": ["164306.806000", "164306.810000", "164306.814000", "164306.817000", "164306.820000", "164306.823000", "164306.827000", "164306.830000", "164306.833000", "164306.837000", "164306.840000", "164306.843000", "164306.847000", "164306.850000", "164306.853000", "164306.856000", "164306.860000", "164306.863000", "164306.866000", "164306.870000", "164306.873000", "164306.877000", "164306.887000", "164306.890000", "164306.893000", "164306.896000", "164306.900000", "164306.903000", "164306.906000", "164306.910000", "164326.766000", "164326.770000", "164326.773000", "164326.777000", "164326.780000", "164326.783000", "164326.786000", "164326.790000", "164326.793000", "164326.796000", "164326.800000", "164326.803000", "164326.806000", "164326.809000", "164326.813000", "164326.816000", "164326.819000", "164326.822000", "164326.826000", "164326.829000", "164346.766000", "164346.770000", "164346.773000", "164346.776000", "164346.780000", "164346.783000", "164346.786000", "164346.790000", "164346.793000", "164346.796000", "164346.800000", "164346.803000", "164346.806000", "164346.809000", "164346.813000", "164346.828000", "164346.831000", "164346.835000", "164346.838000", "164346.841000", "164346.845000", "164406.766000", "164406.770000", "164406.773000", "164406.776000", "164406.780000", "164406.783000", "164406.786000", "164406.790000", "164406.793000", "164406.796000", "164406.800000", "164406.803000", "164406.806000", "164406.809000", "164406.813000", "164406.816000", "164406.819000", "164406.823000", "164406.826000", "164406.829000", "164446.766000", "164446.770000", "164446.773000", "164446.777000", "164446.780000", "164446.783000", "164446.787000", "164446.790000", "164446.793000", "164446.796000", "164446.800000", "164446.803000", "164446.806000", "164446.810000", "164446.813000", "164446.816000", "164446.820000", "164446.823000", "164446.826000", "164446.830000", "164446.833000", "164446.836000", "164446.839000", "164446.843000", "164446.846000", "164446.849000", "164446.853000", "164446.856000", "164526.766000", "164526.770000", "164526.773000", "164526.776000", "164526.780000", "164526.783000", "164526.786000", "164526.790000", "164526.793000", "164526.796000", "164526.800000", "164526.803000", "164526.806000", "164526.810000", "164526.813000", "164526.816000", "164526.820000", "164526.823000", "164526.826000", "164526.830000", "164526.833000", "164526.836000", "164526.839000", "164526.843000", "164526.846000", "164526.849000", "164606.766000", "164606.775000", "164606.779000", "164606.782000", "164606.785000", "164606.789000", "164606.792000", "164606.795000", "164606.799000", "164606.802000", "164606.805000", "164606.808000", "164606.812000", "164606.815000", "164606.818000", "164606.822000", "164606.830000", "164606.833000", "164606.837000", "164606.852000", "164606.855000", "164606.858000", "164606.862000", "164606.865000", "164606.868000", "164606.871000", "164606.875000", "164626.766000", "164626.770000", "164626.773000", "164626.777000", "164626.780000", "164626.783000", "164626.787000", "164626.790000", "164626.793000", "164626.796000", "164626.800000", "164626.803000", "164626.806000", "164626.810000", "164706.766000", "164706.770000", "164706.773000", "164706.777000", "164706.780000", "164706.783000", "164706.787000", "164706.798000", "164706.801000", "164706.805000", "164706.808000", "164706.811000", "164706.815000", "164706.818000", "164706.821000", "164706.825000", "164706.828000", "164706.831000", "164706.835000", "164706.838000", "164706.841000", "164706.845000", "164706.848000", "164706.851000", "164706.854000", "164706.858000", "164706.861000", "164746.766000", "164746.770000", "164746.773000", "164746.777000", "164746.780000", "164746.783000", "164746.786000", "164746.790000", "164746.793000", "164746.796000", "164746.800000", "164746.803000", "164746.806000", "164746.811000", "164746.815000", "164746.818000", "164746.821000", "164746.825000", "164746.828000", "164746.831000", "164746.834000", "164746.838000", "164746.841000", "164746.844000", "164746.848000", "164746.851000", "164826.766000", "164826.770000", "164826.773000", "164826.777000", "164826.780000", "164826.783000", "164826.787000", "164826.790000", "164826.793000", "164826.797000", "164826.800000", "164826.803000", "164826.806000", "164826.810000", "164826.813000", "164826.825000", "164826.828000", "164826.831000", "164826.835000", "164826.838000", "164826.841000", "164826.845000", "164826.848000", "164826.851000", "164826.855000", "164826.858000", "164826.861000", "164906.766000", "164906.770000", "164906.773000", "164906.777000", "164906.780000", "164906.783000", "164906.786000", "164906.790000", "164906.793000", "164906.797000", "164906.800000", "164906.803000", "164906.806000", "164906.810000", "164906.813000", "164906.816000", "164906.820000", "164906.823000", "164906.826000", "164906.830000", "164906.833000", "164906.837000", "164906.840000", "164906.843000", "164906.847000", "164906.850000", "164906.853000", "164946.765000", "164946.769000", "164946.772000", "164946.776000", "164946.779000", "164946.782000", "164946.786000", "164946.789000", "164946.792000", "164946.796000", "164946.799000", "164946.802000", "164946.806000", "164946.809000", "164946.812000", "164946.816000", "164946.819000", "164946.822000", "164946.826000", "164946.829000", "164946.832000", "164946.835000", "164946.839000", "164946.842000", "164946.845000", "164946.849000", "164946.852000", "165026.766000", "165026.770000", "165026.773000", "165026.777000", "165026.780000", "165026.783000", "165026.787000", "165026.790000", "165026.793000", "165026.796000", "165026.800000", "165026.803000", "165026.806000", "165026.810000", "165026.813000", "165026.821000", "165026.826000", "165026.833000", "165026.836000", "165026.840000", "165026.843000", "165026.846000", "165026.850000", "165026.853000", "165026.856000", "165026.860000", "165026.863000", "165104.250000", "165104.254000", "165104.257000", "165104.261000", "165104.264000", "165104.268000", "165104.271000", "165104.275000", "165104.278000", "165104.281000", "165104.285000", "165104.288000", "165104.291000", "165104.295000", "165104.298000", "165104.301000", "165104.305000", "165104.308000", "165104.312000", "165104.315000", "165104.318000", "165104.321000", "165104.325000", "165104.328000", "165104.333000"],
      "InstanceCreationTime": ["164306.806000", "164306.810000", "164306.814000", "164306.817000", "164306.820000", "164306.823000", "164306.827000", "164306.830000", "164306.833000", "164306.837000", "164306.840000", "164306.843000", "164306.847000", "164306.850000", "164306.853000", "164306.856000", "164306.860000", "164306.863000", "164306.866000", "164306.870000", "164306.873000", "164306.877000", "164306.887000", "164306.890000", "164306.893000", "164306.896000", "164306.900000", "164306.903000", "164306.906000", "164306.910000", "164326.766000", "164326.770000", "164326.773000", "164326.777000", "164326.780000", "164326.783000", "164326.786000", "164326.790000", "164326.793000", "164326.796000", "164326.800000", "164326.803000", "164326.806000", "164326.809000", "164326.813000", "164326.816000", "164326.819000", "164326.822000", "164326.826000", "164326.829000", "164346.766000", "164346.770000", "164346.773000", "164346.776000", "164346.780000", "164346.783000", "164346.786000", "164346.790000", "164346.793000", "164346.796000", "164346.800000", "164346.803000", "164346.806000", "164346.809000", "164346.813000", "164346.828000", "164346.831000", "164346.835000", "164346.838000", "164346.841000", "164346.845000", "164406.766000", "164406.770000", "164406.773000", "164406.776000", "164406.780000", "164406.783000", "164406.786000", "164406.790000", "164406.793000", "164406.796000", "164406.800000", "164406.803000", "164406.806000", "164406.809000", "164406.813000", "164406.816000", "164406.819000", "164406.823000", "164406.826000", "164406.829000", "164446.766000", "164446.770000", "164446.773000", "164446.777000", "164446.780000", "164446.783000", "164446.787000", "164446.790000", "164446.793000", "164446.796000", "164446.800000", "164446.803000", "164446.806000", "164446.810000", "164446.813000", "164446.816000", "164446.820000", "164446.823000", "164446.826000", "164446.830000", "164446.833000", "164446.836000", "164446.839000", "164446.843000", "164446.846000", "164446.849000", "164446.853000", "164446.856000", "164526.766000", "164526.770000", "164526.773000", "164526.776000", "164526.780000", "164526.783000", "164526.786000", "164526.790000", "164526.793000", "164526.796000", "164526.800000", "164526.803000", "164526.806000", "164526.810000", "164526.813000", "164526.816000", "164526.820000", "164526.823000", "164526.826000", "164526.830000", "164526.833000", "164526.836000", "164526.839000", "164526.843000", "164526.846000", "164526.849000", "164606.766000", "164606.775000", "164606.779000", "164606.782000", "164606.785000", "164606.789000", "164606.792000", "164606.795000", "164606.799000", "164606.802000", "164606.805000", "164606.808000", "164606.812000", "164606.815000", "164606.818000", "164606.822000", "164606.830000", "164606.833000", "164606.837000", "164606.852000", "164606.855000", "164606.858000", "164606.862000", "164606.865000", "164606.868000", "164606.871000", "164606.875000", "164626.766000", "164626.770000", "164626.773000", "164626.777000", "164626.780000", "164626.783000", "164626.787000", "164626.790000", "164626.793000", "164626.796000", "164626.800000", "164626.803000", "164626.806000", "164626.810000", "164706.766000", "164706.770000", "164706.773000", "164706.777000", "164706.780000", "164706.783000", "164706.787000", "164706.798000", "164706.801000", "164706.805000", "164706.808000", "164706.811000", "164706.815000", "164706.818000", "164706.821000", "164706.825000", "164706.828000", "164706.831000", "164706.835000", "164706.838000", "164706.841000", "164706.845000", "164706.848000", "164706.851000", "164706.854000", "164706.858000", "164706.861000", "164746.766000", "164746.770000", "164746.773000", "164746.777000", "164746.780000", "164746.783000", "164746.786000", "164746.790000", "164746.793000", "164746.796000", "164746.800000", "164746.803000", "164746.806000", "164746.811000", "164746.815000", "164746.818000", "164746.821000", "164746.825000", "164746.828000", "164746.831000", "164746.834000", "164746.838000", "164746.841000", "164746.844000", "164746.848000", "164746.851000", "164826.766000", "164826.770000", "164826.773000", "164826.777000", "164826.780000", "164826.783000", "164826.787000", "164826.790000", "164826.793000", "164826.797000", "164826.800000", "164826.803000", "164826.806000", "164826.810000", "164826.813000", "164826.825000", "164826.828000", "164826.831000", "164826.835000", "164826.838000", "164826.841000", "164826.845000", "164826.848000", "164826.851000", "164826.855000", "164826.858000", "164826.861000", "164906.766000", "164906.770000", "164906.773000", "164906.777000", "164906.780000", "164906.783000", "164906.786000", "164906.790000", "164906.793000", "164906.797000", "164906.800000", "164906.803000", "164906.806000", "164906.810000", "164906.813000", "164906.816000", "164906.820000", "164906.823000", "164906.826000", "164906.830000", "164906.833000", "164906.837000", "164906.840000", "164906.843000", "164906.847000", "164906.850000", "164906.853000", "164946.765000", "164946.769000", "164946.772000", "164946.776000", "164946.779000", "164946.782000", "164946.786000", "164946.789000", "164946.792000", "164946.796000", "164946.799000", "164946.802000", "164946.806000", "164946.809000", "164946.812000", "164946.816000", "164946.819000", "164946.822000", "164946.826000", "164946.829000", "164946.832000", "164946.835000", "164946.839000", "164946.842000", "164946.845000", "164946.849000", "164946.852000", "165026.766000", "165026.770000", "165026.773000", "165026.777000", "165026.780000", "165026.783000", "165026.787000", "165026.790000", "165026.793000", "165026.796000", "165026.800000", "165026.803000", "165026.806000", "165026.810000", "165026.813000", "165026.821000", "165026.826000", "165026.833000", "165026.836000", "165026.840000", "165026.843000", "165026.846000", "165026.850000", "165026.853000", "165026.856000", "165026.860000", "165026.863000", "165104.250000", "165104.254000", "165104.257000", "165104.261000", "165104.264000", "165104.268000", "165104.271000", "165104.275000", "165104.278000", "165104.281000", "165104.285000", "165104.288000", "165104.291000", "165104.295000", "165104.298000", "165104.301000", "165104.305000", "165104.308000", "165104.312000", "165104.315000", "165104.318000", "165104.321000", "165104.325000", "165104.328000", "165104.333000"],
      "InstanceNumber": [1, 2, 3, 4, 5, 6, 7, 8, 9, 10, 11, 12, 13, 14, 15, 16, 17, 18, 19, 20, 21, 22, 23, 24, 25, 26, 27, 28, 29, 30, 31, 32, 33, 34, 35, 36, 37, 38, 39, 40, 41, 42, 43, 44, 45, 46, 47, 48, 49, 50, 51, 52, 53, 54, 55, 56, 57, 58, 59, 60, 61, 62, 63, 64, 65, 66, 67, 68, 69, 70, 71, 72, 73, 74, 75, 76, 77, 78, 79, 80, 81, 82, 83, 84, 85, 86, 87, 88, 89, 90, 91, 92, 93, 94, 95, 96, 97, 98, 99, 100, 101, 102, 103, 104, 105, 106, 107, 108, 109, 110, 111, 112, 113, 114, 115, 116, 117, 118, 119, 120, 121, 122, 123, 124, 125, 126, 127, 128, 129, 130, 131, 132, 133, 134, 135, 136, 137, 138, 139, 140, 141, 142, 143, 144, 145, 146, 147, 148, 149, 150, 151, 152, 153, 154, 155, 156, 157, 158, 159, 160, 161, 162, 163, 164, 165, 166, 167, 168, 169, 170, 171, 172, 173, 174, 175, 176, 177, 178, 179, 180, 181, 182, 183, 184, 185, 186, 187, 188, 189, 190, 191, 192, 193, 194, 195, 196, 197, 198, 199, 200, 201, 202, 203, 204, 205, 206, 207, 208, 209, 210, 211, 212, 213, 214, 215, 216, 217, 218, 219, 220, 221, 222, 223, 224, 225, 226, 227, 228, 229, 230, 231, 232, 233, 234, 235, 236, 237, 238, 239, 240, 241, 242, 243, 244, 245, 246, 247, 248, 249, 250, 251, 252, 253, 254, 255, 256, 257, 258, 259, 260, 261, 262, 263, 264, 265, 266, 267, 268, 269, 270, 271, 272, 273, 274, 275, 276, 277, 278, 279, 280, 281, 282, 283, 284, 285, 286, 287, 288, 289, 290, 291, 292, 293, 294, 295, 296, 297, 298, 299, 300, 301, 302, 303, 304, 305, 306, 307, 308, 309, 310, 311, 312, 313, 314, 315, 316, 317, 318, 319, 320, 321, 322, 323, 324, 325, 326, 327, 328, 329, 330, 331, 332, 333, 334, 335, 336, 337, 338, 339, 340, 341, 342, 343, 344, 345, 346, 347, 348, 349, 350, 351, 352, 353, 354, 355, 356, 357, 358, 359, 360, 361, 362, 363, 364, 365, 366, 367, 368, 369, 370, 371, 372],
