{
  "AcquisitionMatrixPE": 104,
  "AcquisitionNumber": 1,
  "AcquisitionTime": "16:41:48.377500",
  "BandwidthPerPixelPhaseEncode": 17.17,
  "BaseResolution": 104,
  "BodyPartExamined": "BRAIN",
  "CoilCombinationMethod": "Sum of Squares",
  "ConsistencyInfo": "N4_VE11C_LATEST_20160120",
  "ConversionSoftware": "dcm2niix",
  "ConversionSoftwareVersion": "v1.0.20220505",
  "DerivedVendorReportedEchoSpacing": 0.000560011,
  "DeviceSerialNumber": "167006",
  "DwellTime": 2.1e-06,
  "EchoTime": 0.037,
  "EchoTime1": 0.037,
  "EchoTime2": 0.001,
  "EchoTrainLength": 104,
  "EffectiveEchoSpacing": 0.000560011,
  "FlipAngle": 52,
  "HeudiconvVersion": "0.5.3.post811+g6206e14",
  "ImageComments": "Unaliased MB4/PE3/LB",
  "ImageOrientationPatientDICOM": [0.998198, -0.0521176, 0.0297528, 0.0593039, 0.932604, -0.355996],
  "ImageOrientationText": "Tra>Cor(-20.9)>Sag(0.5)",
  "ImageType": [
    "ORIGINAL",
    "PRIMARY",
    "P",
    "MB",
    "ND",
    "MOSAIC",
    "PHASE"
],
  "ImagingFrequency": 123.259,
  "InPlanePhaseEncodingDirectionDICOM": "COL",
  "InstitutionAddress": "Chemin Queen-Mary 4565,Montreal,District,CA,H3W 1W5",
  "InstitutionName": "IUGM",
  "InstitutionalDepartmentName": "Department",
  "MRAcquisitionType": "2D",
  "MagneticFieldStrength": 3,
  "Manufacturer": "Siemens",
  "ManufacturersModelName": "Prisma_fit",
  "MatrixCoilMode": "SENSE",
  "Modality": "MR",
  "MultibandAccelerationFactor": 4,
  "PartialFourier": 1,
  "PatientPosition": "HFS",
  "PercentPhaseFOV": 100,
  "PercentSampling": 100,
  "PhaseEncodingDirection": "j",
  "PhaseEncodingSteps": 104,
  "PhaseResolution": 1,
  "PixelBandwidth": 2290,
  "ProcedureStepDescription": "games^mario3",
  "ProtocolName": "func_task-mario3_run-03",
  "PulseSequenceDetails": "%CustomerSeq%\\cmrr_mbep2d_bold",
  "ReceiveCoilActiveElements": "HC1-7;NC1,2",
  "ReceiveCoilName": "HeadNeck_64",
  "ReconMatrixPE": 104,
  "RepetitionTime": 1.49,
  "SAR": 0.0475837,
  "ScanOptions": "FS",
  "ScanningSequence": "EP",
  "SequenceName": "epfid2d1_104",
  "SequenceVariant": "SK\\SS",
  "SeriesDescription": "func_task-mario3_run-03",
  "SeriesNumber": 17,
  "ShimSetting": [628, -7249, -8828, 520, 14, -199, -111, 7],
  "SliceThickness": 2,
  "SliceTiming": [0, 0.785, 0.1, 0.8825, 0.1975, 0.98, 0.295, 1.08, 0.3925, 1.1775, 0.49, 1.275, 0.59, 1.3725, 0.6875, 0, 0.785, 0.1, 0.8825, 0.1975, 0.98, 0.295, 1.08, 0.3925, 1.1775, 0.49, 1.275, 0.59, 1.3725, 0.6875, 0, 0.785, 0.1, 0.8825, 0.1975, 0.98, 0.295, 1.08, 0.3925, 1.1775, 0.49, 1.275, 0.59, 1.3725, 0.6875, 0, 0.785, 0.1, 0.8825, 0.1975, 0.98, 0.295, 1.08, 0.3925, 1.1775, 0.49, 1.275, 0.59, 1.3725, 0.6875],
  "SoftwareVersions": "syngo MR E11",
  "SpacingBetweenSlices": 2,
  "StationName": "MRC35049",
  "TaskName": "mario3",
  "TotalReadoutTime": 0.0576811,
  "TxRefAmp": 240.65,
  "WipMemBlock": "81c647b0-8cb0-4796-815f-f3272cd118e3||Sequence: R017 ve11c/master r/75a17815+; Jun 28 2022 16:32:11 by eja",
  "dcmmeta_affine": [
    [-1.996395230293274, 0.11860775947570801, 0.01838778890669346, 100.01006317138672],
    [0.10423529148101807, 1.8652076721191406, -0.7142376899719238, -69.22409057617188],
    [0.059505585581064224, 0.7119920253753662, 1.8680273294448853, -70.4662857055664],
    [0.0, 0.0, 0.0, 1.0]
],
  "dcmmeta_reorient_transform": [
    [0.0, -1.0, 0.0, 103.0],
    [1.0, 0.0, 0.0, 0.0],
    [0.0, 0.0, 1.0, 0.0],
    [0.0, 0.0, 0.0, 1.0]
],
  "dcmmeta_shape": [104, 104, 60, 372],
  "dcmmeta_slice_dim": 2,
  "dcmmeta_version": 0.6,
  "global": {
    "const": {
      "AcquisitionMatrix": [104, 0, 0, 104],
      "AngioFlag": "N",
      "BitsAllocated": 16,
      "BitsStored": 16,
      "BodyPartExamined": "BRAIN",
      "Columns": 832,
      "EchoNumbers": 1,
      "EchoTime": 37.0,
      "EchoTrainLength": 104,
      "FlipAngle": 52.0,
      "HighBit": 15,
      "ImageOrientationPatient": [0.9981976369038, -0.0521176452685, 0.02975279367287, 0.05930387834001, 0.93260381708809, -0.3559960257736],
      "ImagePositionPatient": [-882.08776332071, -763.88623224335, 240.37396909861],
      "ImageType": [
        "ORIGINAL",
        "PRIMARY",
        "P",
        "MB",
        "ND",
        "MOSAIC"
],
      "ImagedNucleus": "1H",
      "ImagingFrequency": 123.258823,
      "InPlanePhaseEncodingDirection": "COL",
      "LargestImagePixelValue": 4095,
      "MRAcquisitionType": "2D",
      "MagneticFieldStrength": 3.0,
      "Manufacturer": "SIEMENS",
      "ManufacturerModelName": "Prisma_fit",
      "Modality": "MR",
      "NumberOfAverages": 1.0,
      "NumberOfPhaseEncodingSteps": 104,
      "PercentPhaseFieldOfView": 100.0,
      "PercentSampling": 100.0,
      "PerformedProcedureStepStartTime": "161855.310000",
      "PhotometricInterpretation": "MONOCHROME2",
      "PixelBandwidth": 2290.0,
      "PixelRepresentation": 0,
      "PixelSpacing": [2.0, 2.0],
      "ProtocolName": "func_task-mario3_run-03",
      "RepetitionTime": 1490.0,
      "RescaleIntercept": -4096.0,
      "RescaleSlope": 2.0,
      "RescaleType": "US",
      "Rows": 832,
      "SAR": 0.04758371850011,
      "SamplesPerPixel": 1,
      "ScanOptions": "FS",
      "ScanningSequence": "EP",
      "SequenceName": "epfid2d1_104",
      "SequenceVariant": [
        "SK",
        "SS"
],
      "SeriesDescription": "func_task-mario3_run-03",
      "SeriesNumber": 17,
      "SeriesTime": "164306.956000",
      "SliceLocation": -40.175767909368,
      "SliceThickness": 2.0,
      "SmallestImagePixelValue": 0,
      "SoftwareVersions": "syngo MR E11",
      "SpacingBetweenSlices": 1.9999999487222,
      "SpecificCharacterSet": "ISO_IR 100",
      "StudyID": "1",
      "StudyTime": "161855.233000",
      "TransmitCoilName": "Body",
      "VariableFlipAngleFlag": "N",
      "WindowCenterWidthExplanation": "Algo1",
      "dBdt": 0.0},
    "slices": {}
  },
  "time": {
    "samples": {
      "AcquisitionNumber": [1, 2, 3, 4, 5, 6, 7, 8, 9, 10, 11, 12, 13, 14, 15, 16, 17, 18, 19, 20, 21, 22, 23, 24, 25, 26, 27, 28, 29, 30, 31, 32, 33, 34, 35, 36, 37, 38, 39, 40, 41, 42, 43, 44, 45, 46, 47, 48, 49, 50, 51, 52, 53, 54, 55, 56, 57, 58, 59, 60, 61, 62, 63, 64, 65, 66, 67, 68, 69, 70, 71, 72, 73, 74, 75, 76, 77, 78, 79, 80, 81, 82, 83, 84, 85, 86, 87, 88, 89, 90, 91, 92, 93, 94, 95, 96, 97, 98, 99, 100, 101, 102, 103, 104, 105, 106, 107, 108, 109, 110, 111, 112, 113, 114, 115, 116, 117, 118, 119, 120, 121, 122, 123, 124, 125, 126, 127, 128, 129, 130, 131, 132, 133, 134, 135, 136, 137, 138, 139, 140, 141, 142, 143, 144, 145, 146, 147, 148, 149, 150, 151, 152, 153, 154, 155, 156, 157, 158, 159, 160, 161, 162, 163, 164, 165, 166, 167, 168, 169, 170, 171, 172, 173, 174, 175, 176, 177, 178, 179, 180, 181, 182, 183, 184, 185, 186, 187, 188, 189, 190, 191, 192, 193, 194, 195, 196, 197, 198, 199, 200, 201, 202, 203, 204, 205, 206, 207, 208, 209, 210, 211, 212, 213, 214, 215, 216, 217, 218, 219, 220, 221, 222, 223, 224, 225, 226, 227, 228, 229, 230, 231, 232, 233, 234, 235, 236, 237, 238, 239, 240, 241, 242, 243, 244, 245, 246, 247, 248, 249, 250, 251, 252, 253, 254, 255, 256, 257, 258, 259, 260, 261, 262, 263, 264, 265, 266, 267, 268, 269, 270, 271, 272, 273, 274, 275, 276, 277, 278, 279, 280, 281, 282, 283, 284, 285, 286, 287, 288, 289, 290, 291, 292, 293, 294, 295, 296, 297, 298, 299, 300, 301, 302, 303, 304, 305, 306, 307, 308, 309, 310, 311, 312, 313, 314, 315, 316, 317, 318, 319, 320, 321, 322, 323, 324, 325, 326, 327, 328, 329, 330, 331, 332, 333, 334, 335, 336, 337, 338, 339, 340, 341, 342, 343, 344, 345, 346, 347, 348, 349, 350, 351, 352, 353, 354, 355, 356, 357, 358, 359, 360, 361, 362, 363, 364, 365, 366, 367, 368, 369, 370, 371, 372],
      "AcquisitionTime": ["164148.377500", "164149.867500", "164151.357500", "164152.847500", "164154.337500", "164155.827500", "164157.317500", "164158.807500", "164200.297500", "164201.787500", "164203.277500", "164204.767500", "164206.257500", "164207.747500", "164209.237500", "164210.727500", "164212.217500", "164213.707500", "164215.197500", "164216.687500", "164218.177500", "164219.667500", "164221.157500", "164222.647500", "164224.137500", "164225.627500", "164227.117500", "164228.607500", "164230.097500", "164231.587500", "164233.077500", "164234.567500", "164236.057500", "164237.547500", "164239.037500", "164240.527500", "164242.017500", "164243.507500", "164244.997500", "164246.487500", "164247.977500", "164249.467500", "164250.957500", "164252.447500", "164253.937500", "164255.427500", "164256.917500", "164258.407500", "164259.897500", "164301.387500", "164302.877500", "164304.367500", "164305.857500", "164307.347500", "164308.837500", "164310.327500", "164311.817500", "164313.307500", "164314.797500", "164316.287500", "164317.777500", "164319.267500", "164320.757500", "164322.247500", "164323.737500", "164325.227500", "164326.717500", "164328.207500", "164329.697500", "164331.187500", "164332.677500", "164334.167500", "164335.657500", "164337.147500", "164338.637500", "164340.127500", "164341.617500", "164343.107500", "164344.597500", "164346.087500", "164347.577500", "164349.067500", "164350.557500", "164352.047500", "164353.537500", "164355.027500", "164356.517500", "164358.007500", "164359.497500", "164400.987500", "164402.477500", "164403.967500", "164405.457500", "164406.947500", "164408.437500", "164409.927500", "164411.417500", "164412.907500", "164414.397500", "164415.887500", "164417.377500", "164418.867500", "164420.357500", "164421.847500", "164423.337500", "164424.827500", "164426.317500", "164427.807500", "164429.297500", "164430.787500", "164432.277500", "164433.767500", "164435.257500", "164436.747500", "164438.237500", "164439.727500", "164441.217500", "164442.707500", "164444.197500", "164445.687500", "164447.177500", "164448.667500", "164450.157500", "164451.647500", "164453.137500", "164454.627500", "164456.117500", "164457.607500", "164459.097500", "164500.587500", "164502.077500", "164503.567500", "164505.057500", "164506.547500", "164508.037500", "164509.527500", "164511.017500", "164512.507500", "164513.997500", "164515.487500", "164516.977500", "164518.467500", "164519.957500", "164521.447500", "164522.937500", "164524.427500", "164525.917500", "164527.407500", "164528.897500", "164530.387500", "164531.877500", "164533.367500", "164534.857500", "164536.347500", "164537.837500", "164539.327500", "164540.817500", "164542.307500", "164543.797500", "164545.287500", "164546.777500", "164548.267500", "164549.757500", "164551.247500", "164552.737500", "164554.227500", "164555.717500", "164557.207500", "164558.697500", "164600.187500", "164601.677500", "164603.167500", "164604.657500", "164606.147500", "164607.637500", "164609.127500", "164610.617500", "164612.107500", "164613.597500", "164615.087500", "164616.577500", "164618.067500", "164619.557500", "164621.047500", "164622.537500", "164624.027500", "164625.517500", "164627.007500", "164628.497500", "164629.987500", "164631.477500", "164632.967500", "164634.457500", "164635.947500", "164637.437500", "164638.927500", "164640.417500", "164641.907500", "164643.397500", "164644.887500", "164646.377500", "164647.867500", "164649.357500", "164650.847500", "164652.337500", "164653.827500", "164655.317500", "164656.807500", "164658.297500", "164659.787500", "164701.277500", "164702.767500", "164704.257500", "164705.747500", "164707.237500", "164708.727500", "164710.217500", "164711.707500", "164713.197500", "164714.687500", "164716.177500", "164717.667500", "164719.157500", "164720.647500", "164722.137500", "164723.627500", "164725.117500", "164726.607500", "164728.097500", "164729.587500", "164731.077500", "164732.567500", "164734.057500", "164735.547500", "164737.037500", "164738.527500", "164740.017500", "164741.507500", "164742.997500", "164744.487500", "164745.977500", "164747.467500", "164748.957500", "164750.447500", "164751.937500", "164753.427500", "164754.917500", "164756.407500", "164757.897500", "164759.387500", "164800.877500", "164802.367500", "164803.857500", "164805.347500", "164806.837500", "164808.327500", "164809.817500", "164811.307500", "164812.797500", "164814.287500", "164815.777500", "164817.267500", "164818.757500", "164820.247500", "164821.737500", "164823.227500", "164824.717500", "164826.207500", "164827.697500", "164829.187500", "164830.677500", "164832.167500", "164833.657500", "164835.147500", "164836.637500", "164838.127500", "164839.617500", "164841.107500", "164842.597500", "164844.087500", "164845.577500", "164847.067500", "164848.557500", "164850.047500", "164851.537500", "164853.027500", "164854.517500", "164856.007500", "164857.497500", "164858.987500", "164900.477500", "164901.967500", "164903.457500", "164904.947500", "164906.437500", "164907.927500", "164909.417500", "164910.907500", "164912.397500", "164913.887500", "164915.377500", "164916.867500", "164918.357500", "164919.847500", "164921.337500", "164922.827500", "164924.317500", "164925.807500", "164927.297500", "164928.787500", "164930.277500", "164931.767500", "164933.257500", "164934.747500", "164936.237500", "164937.727500", "164939.217500", "164940.707500", "164942.197500", "164943.687500", "164945.177500", "164946.667500", "164948.157500", "164949.647500", "164951.137500", "164952.627500", "164954.117500", "164955.607500", "164957.097500", "164958.587500", "165000.077500", "165001.567500", "165003.057500", "165004.547500", "165006.037500", "165007.527500", "165009.017500", "165010.507500", "165011.997500", "165013.487500", "165014.977500", "165016.467500", "165017.957500", "165019.447500", "165020.937500", "165022.427500", "165023.917500", "165025.407500", "165026.897500", "165028.387500", "165029.877500", "165031.367500", "165032.857500", "165034.347500", "165035.837500", "165037.327500", "165038.817500", "165040.307500", "165041.797500", "165043.287500", "165044.777500", "165046.267500", "165047.757500", "165049.247500", "165050.737500", "165052.227500", "165053.717500", "165055.207500", "165056.697500", "165058.187500", "165059.677500", "165101.167500"],
      "ContentTime": ["164306.958000", "164306.961000", "164306.963000", "164306.969000", "164306.972000", "164306.974000", "164306.977000", "164306.979000", "164306.982000", "164306.984000", "164306.987000", "164306.989000", "164306.992000", "164306.994000", "164306.997000", "164307.000000", "164307.003000", "164307.005000", "164307.008000", "164307.010000", "164307.013000", "164307.015000", "164307.018000", "164307.020000", "164307.023000", "164307.025000", "164307.028000", "164307.031000", "164307.062000", "164307.064000", "164326.858000", "164326.861000", "164326.864000", "164326.866000", "164326.869000", "164326.871000", "164326.873000", "164326.876000", "164326.878000", "164326.881000", "164326.883000", "164326.886000", "164326.888000", "164326.891000", "164326.894000", "164326.896000", "164326.899000", "164326.901000", "164326.904000", "164326.906000", "164346.892000", "164346.894000", "164346.897000", "164346.899000", "164346.902000", "164346.904000", "164346.907000", "164346.909000", "164346.912000", "164346.914000", "164346.917000", "164346.919000", "164346.925000", "164346.928000", "164346.930000", "164346.933000", "164346.936000", "164346.938000", "164346.941000", "164346.943000", "164346.946000", "164406.868000", "164406.870000", "164406.873000", "164406.875000", "164406.878000", "164406.880000", "164406.883000", "164406.885000", "164406.888000", "164406.891000", "164406.893000", "164406.896000", "164406.898000", "164406.901000", "164406.904000", "164406.906000", "164406.909000", "164406.911000", "164406.913000", "164406.916000", "164446.904000", "164446.907000", "164446.909000", "164446.912000", "164446.914000", "164446.917000", "164446.919000", "164446.922000", "164446.924000", "164446.927000", "164446.929000", "164446.932000", "164446.934000", "164446.937000", "164446.939000", "164446.942000", "164446.944000", "164446.947000", "164446.949000", "164446.952000", "164446.954000", "164446.957000", "164446.959000", "164446.962000", "164446.964000", "164446.967000", "164446.969000", "164446.972000", "164526.913000", "164526.916000", "164526.919000", "164526.921000", "164526.924000", "164526.926000", "164526.929000", "164526.931000", "164526.934000", "164526.936000", "164526.939000", "164526.941000", "164526.944000", "164526.946000", "164526.949000", "164526.951000", "164526.954000", "164526.956000", "164526.959000", "164526.961000", "164526.964000", "164526.966000", "164526.969000", "164526.971000", "164526.974000", "164526.976000", "164606.925000", "164606.928000", "164606.931000", "164606.933000", "164606.936000", "164606.939000", "164606.941000", "164606.944000", "164606.946000", "164606.949000", "164606.951000", "164606.954000", "164606.956000", "164606.959000", "164606.961000", "164606.964000", "164606.966000", "164606.969000", "164606.971000", "164606.974000", "164606.976000", "164606.979000", "164606.982000", "164606.985000", "164606.987000", "164606.990000", "164606.992000", "164626.838000", "164626.841000", "164626.843000", "164626.846000", "164626.848000", "164626.851000", "164626.853000", "164626.856000", "164626.858000", "164626.861000", "164626.863000", "164626.866000", "164626.868000", "164626.871000", "164706.920000", "164706.923000", "164706.925000", "164706.928000", "164706.930000", "164706.933000", "164706.935000", "164706.938000", "164706.940000", "164706.942000", "164706.945000", "164706.947000", "164706.950000", "164706.952000", "164706.955000", "164706.958000", "164706.960000", "164706.963000", "164706.965000", "164706.968000", "164706.970000", "164706.973000", "164706.975000", "164706.978000", "164706.980000", "164706.983000", "164706.985000", "164746.898000", "164746.901000", "164746.910000", "164746.912000", "164746.915000", "164746.917000", "164746.920000", "164746.922000", "164746.925000", "164746.927000", "164746.930000", "164746.933000", "164746.936000", "164746.938000", "164746.941000", "164746.944000", "164746.947000", "164746.950000", "164746.953000", "164746.955000", "164746.958000", "164746.961000", "164746.964000", "164746.970000", "164746.973000", "164746.975000", "164826.906000", "164826.909000", "164826.912000", "164826.914000", "164826.917000", "164826.919000", "164826.922000", "164826.924000", "164826.927000", "164826.929000", "164826.932000", "164826.934000", "164826.937000", "164826.939000", "164826.942000", "164826.944000", "164826.947000", "164826.949000", "164826.952000", "164826.954000", "164826.957000", "164826.959000", "164826.962000", "164826.964000", "164826.967000", "164826.969000", "164826.972000", "164906.914000", "164906.917000", "164906.920000", "164906.922000", "164906.925000", "164906.927000", "164906.930000", "164906.932000", "164906.935000", "164906.937000", "164906.940000", "164906.942000", "164906.945000", "164906.947000", "164906.950000", "164906.952000", "164906.955000", "164906.957000", "164906.960000", "164906.962000", "164906.965000", "164906.967000", "164906.970000", "164906.972000", "164906.975000", "164906.977000", "164906.980000", "164947.305000", "164947.307000", "164947.310000", "164947.312000", "164947.315000", "164947.317000", "164947.320000", "164947.322000", "164947.325000", "164947.327000", "164947.330000", "164947.333000", "164947.335000", "164947.337000", "164947.340000", "164947.342000", "164947.345000", "164947.347000", "164947.350000", "164947.352000", "164947.355000", "164947.357000", "164947.360000", "164947.362000", "164947.365000", "164947.367000", "164947.370000", "165026.909000", "165026.911000", "165026.914000", "165026.917000", "165026.924000", "165026.926000", "165026.929000", "165026.931000", "165026.934000", "165026.936000", "165026.939000", "165026.941000", "165026.944000", "165026.946000", "165026.949000", "165026.951000", "165026.954000", "165026.956000", "165026.959000", "165026.961000", "165026.964000", "165026.966000", "165026.969000", "165026.972000", "165026.974000", "165026.976000", "165026.979000", "165104.385000", "165104.388000", "165104.391000", "165104.393000", "165104.396000", "165104.398000", "165104.401000", "165104.404000", "165104.407000", "165104.409000", "165104.412000", "165104.415000", "165104.417000", "165104.420000", "165104.423000", "165104.425000", "165104.428000", "165104.431000", "165104.433000", "165104.436000", "165104.438000", "165104.441000", "165104.443000", "165104.446000", "165104.449000"],
      "InstanceCreationTime": ["164306.958000", "164306.961000", "164306.963000", "164306.969000", "164306.972000", "164306.974000", "164306.977000", "164306.979000", "164306.982000", "164306.984000", "164306.987000", "164306.989000", "164306.992000", "164306.994000", "164306.997000", "164307.000000", "164307.003000", "164307.005000", "164307.008000", "164307.010000", "164307.013000", "164307.015000", "164307.018000", "164307.020000", "164307.023000", "164307.025000", "164307.028000", "164307.031000", "164307.062000", "164307.064000", "164326.858000", "164326.861000", "164326.864000", "164326.866000", "164326.869000", "164326.871000", "164326.873000", "164326.876000", "164326.878000", "164326.881000", "164326.883000", "164326.886000", "164326.888000", "164326.891000", "164326.894000", "164326.896000", "164326.899000", "164326.901000", "164326.904000", "164326.906000", "164346.892000", "164346.894000", "164346.897000", "164346.899000", "164346.902000", "164346.904000", "164346.907000", "164346.909000", "164346.912000", "164346.914000", "164346.917000", "164346.919000", "164346.925000", "164346.928000", "164346.930000", "164346.933000", "164346.936000", "164346.938000", "164346.941000", "164346.943000", "164346.946000", "164406.868000", "164406.870000", "164406.873000", "164406.875000", "164406.878000", "164406.880000", "164406.883000", "164406.885000", "164406.888000", "164406.891000", "164406.893000", "164406.896000", "164406.898000", "164406.901000", "164406.904000", "164406.906000", "164406.909000", "164406.911000", "164406.913000", "164406.916000", "164446.904000", "164446.907000", "164446.909000", "164446.912000", "164446.914000", "164446.917000", "164446.919000", "164446.922000", "164446.924000", "164446.927000", "164446.929000", "164446.932000", "164446.934000", "164446.937000", "164446.939000", "164446.942000", "164446.944000", "164446.947000", "164446.949000", "164446.952000", "164446.954000", "164446.957000", "164446.959000", "164446.962000", "164446.964000", "164446.967000", "164446.969000", "164446.972000", "164526.913000", "164526.916000", "164526.919000", "164526.921000", "164526.924000", "164526.926000", "164526.929000", "164526.931000", "164526.934000", "164526.936000", "164526.939000", "164526.941000", "164526.944000", "164526.946000", "164526.949000", "164526.951000", "164526.954000", "164526.956000", "164526.959000", "164526.961000", "164526.964000", "164526.966000", "164526.969000", "164526.971000", "164526.974000", "164526.976000", "164606.925000", "164606.928000", "164606.931000", "164606.933000", "164606.936000", "164606.939000", "164606.941000", "164606.944000", "164606.946000", "164606.949000", "164606.951000", "164606.954000", "164606.956000", "164606.959000", "164606.961000", "164606.964000", "164606.966000", "164606.969000", "164606.971000", "164606.974000", "164606.976000", "164606.979000", "164606.982000", "164606.985000", "164606.987000", "164606.990000", "164606.992000", "164626.838000", "164626.841000", "164626.843000", "164626.846000", "164626.848000", "164626.851000", "164626.853000", "164626.856000", "164626.858000", "164626.861000", "164626.863000", "164626.866000", "164626.868000", "164626.871000", "164706.920000", "164706.923000", "164706.925000", "164706.928000", "164706.930000", "164706.933000", "164706.935000", "164706.938000", "164706.940000", "164706.942000", "164706.945000", "164706.947000", "164706.950000", "164706.952000", "164706.955000", "164706.958000", "164706.960000", "164706.963000", "164706.965000", "164706.968000", "164706.970000", "164706.973000", "164706.975000", "164706.978000", "164706.980000", "164706.983000", "164706.985000", "164746.898000", "164746.901000", "164746.910000", "164746.912000", "164746.915000", "164746.917000", "164746.920000", "164746.922000", "164746.925000", "164746.927000", "164746.930000", "164746.933000", "164746.936000", "164746.938000", "164746.941000", "164746.944000", "164746.947000", "164746.950000", "164746.953000", "164746.955000", "164746.958000", "164746.961000", "164746.964000", "164746.970000", "164746.973000", "164746.975000", "164826.906000", "164826.909000", "164826.912000", "164826.914000", "164826.917000", "164826.919000", "164826.922000", "164826.924000", "164826.927000", "164826.929000", "164826.932000", "164826.934000", "164826.937000", "164826.939000", "164826.942000", "164826.944000", "164826.947000", "164826.949000", "164826.952000", "164826.954000", "164826.957000", "164826.959000", "164826.962000", "164826.964000", "164826.967000", "164826.969000", "164826.972000", "164906.914000", "164906.917000", "164906.920000", "164906.922000", "164906.925000", "164906.927000", "164906.930000", "164906.932000", "164906.935000", "164906.937000", "164906.940000", "164906.942000", "164906.945000", "164906.947000", "164906.950000", "164906.952000", "164906.955000", "164906.957000", "164906.960000", "164906.962000", "164906.965000", "164906.967000", "164906.970000", "164906.972000", "164906.975000", "164906.977000", "164906.980000", "164947.305000", "164947.307000", "164947.310000", "164947.312000", "164947.315000", "164947.317000", "164947.320000", "164947.322000", "164947.325000", "164947.327000", "164947.330000", "164947.333000", "164947.335000", "164947.337000", "164947.340000", "164947.342000", "164947.345000", "164947.347000", "164947.350000", "164947.352000", "164947.355000", "164947.357000", "164947.360000", "164947.362000", "164947.365000", "164947.367000", "164947.370000", "165026.909000", "165026.911000", "165026.914000", "165026.917000", "165026.924000", "165026.926000", "165026.929000", "165026.931000", "165026.934000", "165026.936000", "165026.939000", "165026.941000", "165026.944000", "165026.946000", "165026.949000", "165026.951000", "165026.954000", "165026.956000", "165026.959000", "165026.961000", "165026.964000", "165026.966000", "165026.969000", "165026.972000", "165026.974000", "165026.976000", "165026.979000", "165104.385000", "165104.388000", "165104.391000", "165104.393000", "165104.396000", "165104.398000", "165104.401000", "165104.404000", "165104.407000", "165104.409000", "165104.412000", "165104.415000", "165104.417000", "165104.420000", "165104.423000", "165104.425000", "165104.428000", "165104.431000", "165104.433000", "165104.436000", "165104.438000", "165104.441000", "165104.443000", "165104.446000", "165104.449000"],
      "InstanceNumber": [1, 2, 3, 4, 5, 6, 7, 8, 9, 10, 11, 12, 13, 14, 15, 16, 17, 18, 19, 20, 21, 22, 23, 24, 25, 26, 27, 28, 29, 30, 31, 32, 33, 34, 35, 36, 37, 38, 39, 40, 41, 42, 43, 44, 45, 46, 47, 48, 49, 50, 51, 52, 53, 54, 55, 56, 57, 58, 59, 60, 61, 62, 63, 64, 65, 66, 67, 68, 69, 70, 71, 72, 73, 74, 75, 76, 77, 78, 79, 80, 81, 82, 83, 84, 85, 86, 87, 88, 89, 90, 91, 92, 93, 94, 95, 96, 97, 98, 99, 100, 101, 102, 103, 104, 105, 106, 107, 108, 109, 110, 111, 112, 113, 114, 115, 116, 117, 118, 119, 120, 121, 122, 123, 124, 125, 126, 127, 128, 129, 130, 131, 132, 133, 134, 135, 136, 137, 138, 139, 140, 141, 142, 143, 144, 145, 146, 147, 148, 149, 150, 151, 152, 153, 154, 155, 156, 157, 158, 159, 160, 161, 162, 163, 164, 165, 166, 167, 168, 169, 170, 171, 172, 173, 174, 175, 176, 177, 178, 179, 180, 181, 182, 183, 184, 185, 186, 187, 188, 189, 190, 191, 192, 193, 194, 195, 196, 197, 198, 199, 200, 201, 202, 203, 204, 205, 206, 207, 208, 209, 210, 211, 212, 213, 214, 215, 216, 217, 218, 219, 220, 221, 222, 223, 224, 225, 226, 227, 228, 229, 230, 231, 232, 233, 234, 235, 236, 237, 238, 239, 240, 241, 242, 243, 244, 245, 246, 247, 248, 249, 250, 251, 252, 253, 254, 255, 256, 257, 258, 259, 260, 261, 262, 263, 264, 265, 266, 267, 268, 269, 270, 271, 272, 273, 274, 275, 276, 277, 278, 279, 280, 281, 282, 283, 284, 285, 286, 287, 288, 289, 290, 291, 292, 293, 294, 295, 296, 297, 298, 299, 300, 301, 302, 303, 304, 305, 306, 307, 308, 309, 310, 311, 312, 313, 314, 315, 316, 317, 318, 319, 320, 321, 322, 323, 324, 325, 326, 327, 328, 329, 330, 331, 332, 333, 334, 335, 336, 337, 338, 339, 340, 341, 342, 343, 344, 345, 346, 347, 348, 349, 350, 351, 352, 353, 354, 355, 356, 357, 358, 359, 360, 361, 362, 363, 364, 365, 366, 367, 368, 369, 370, 371, 372],
