{
  "AcquisitionMatrixPE": 104,
  "AcquisitionNumber": 1,
  "AcquisitionTime": "16:31:59.882500",
  "BandwidthPerPixelPhaseEncode": 17.17,
  "BaseResolution": 104,
  "BodyPartExamined": "BRAIN",
  "CoilCombinationMethod": "Sum of Squares",
  "ConsistencyInfo": "N4_VE11C_LATEST_20160120",
  "ConversionSoftware": "dcm2niix",
  "ConversionSoftwareVersion": "v1.0.20220505",
  "DerivedVendorReportedEchoSpacing": 0.000560011,
  "DeviceSerialNumber": "167006",
  "DwellTime": 2.1e-06,
  "EchoTime": 0.037,
  "EchoTrainLength": 104,
  "EffectiveEchoSpacing": 0.000560011,
  "FlipAngle": 52,
  "HeudiconvVersion": "0.5.3.post811+g6206e14",
  "ImageComments": "Unaliased MB4/PE3/LB",
  "ImageOrientationPatientDICOM": [0.998198, -0.0521176, 0.0297528, 0.0593039, 0.932604, -0.355996],
  "ImageOrientationText": "Tra>Cor(-20.9)>Sag(0.5)",
  "ImageType": [
    "ORIGINAL",
    "PRIMARY",
    "M",
    "MB",
    "ND",
    "MOSAIC"
],
  "ImagingFrequency": 123.259,
  "InPlanePhaseEncodingDirectionDICOM": "COL",
  "InstitutionAddress": "Chemin Queen-Mary 4565,Montreal,District,CA,H3W 1W5",
  "InstitutionName": "IUGM",
  "InstitutionalDepartmentName": "Department",
  "MRAcquisitionType": "2D",
  "MagneticFieldStrength": 3,
  "Manufacturer": "Siemens",
  "ManufacturersModelName": "Prisma_fit",
  "MatrixCoilMode": "SENSE",
  "Modality": "MR",
  "MultibandAccelerationFactor": 4,
  "PartialFourier": 1,
  "PatientPosition": "HFS",
  "PercentPhaseFOV": 100,
  "PercentSampling": 100,
  "PhaseEncodingDirection": "j",
  "PhaseEncodingSteps": 104,
  "PhaseResolution": 1,
  "PixelBandwidth": 2290,
  "ProcedureStepDescription": "games^mario3",
  "ProtocolName": "func_task-mario3_run-02",
  "PulseSequenceDetails": "%CustomerSeq%\\cmrr_mbep2d_bold",
  "ReceiveCoilActiveElements": "HC1-7;NC1,2",
  "ReceiveCoilName": "HeadNeck_64",
  "ReconMatrixPE": 104,
  "RepetitionTime": 1.49,
  "SAR": 0.0475837,
  "ScanOptions": "FS",
  "ScanningSequence": "EP",
  "SequenceName": "epfid2d1_104",
  "SequenceVariant": "SK\\SS",
  "SeriesDescription": "func_task-mario3_run-02",
  "SeriesNumber": 13,
  "ShimSetting": [628, -7249, -8828, 520, 14, -199, -111, 7],
  "SliceThickness": 2,
  "SliceTiming": [0, 0.785, 0.0975, 0.8825, 0.195, 0.98, 0.295, 1.0775, 0.3925, 1.175, 0.49, 1.275, 0.5875, 1.3725, 0.685, 0, 0.785, 0.0975, 0.8825, 0.195, 0.98, 0.295, 1.0775, 0.3925, 1.175, 0.49, 1.275, 0.5875, 1.3725, 0.685, 0, 0.785, 0.0975, 0.8825, 0.195, 0.98, 0.295, 1.0775, 0.3925, 1.175, 0.49, 1.275, 0.5875, 1.3725, 0.685, 0, 0.785, 0.0975, 0.8825, 0.195, 0.98, 0.295, 1.0775, 0.3925, 1.175, 0.49, 1.275, 0.5875, 1.3725, 0.685],
  "SoftwareVersions": "syngo MR E11",
  "SpacingBetweenSlices": 2,
  "StationName": "MRC35049",
  "TaskName": "mario3",
  "TotalReadoutTime": 0.0576811,
  "TxRefAmp": 240.65,
  "WipMemBlock": "5489ddba-66b1-4bda-83be-326a7c3e643c||Sequence: R017 ve11c/master r/75a17815+; Jun 28 2022 16:32:11 by eja",
  "dcmmeta_affine": [
    [-1.996395230293274, 0.11860775947570801, 0.01838778890669346, 100.01006317138672],
    [0.10423529148101807, 1.8652076721191406, -0.7142376899719238, -69.22409057617188],
    [0.059505585581064224, 0.7119920253753662, 1.8680273294448853, -70.4662857055664],
    [0.0, 0.0, 0.0, 1.0]
],
  "dcmmeta_reorient_transform": [
    [0.0, -1.0, 0.0, 103.0],
    [1.0, 0.0, 0.0, 0.0],
    [0.0, 0.0, 1.0, 0.0],
    [0.0, 0.0, 0.0, 1.0]
],
  "dcmmeta_shape": [104, 104, 60, 355],
  "dcmmeta_slice_dim": 2,
  "dcmmeta_version": 0.6,
  "global": {
    "const": {
      "AcquisitionMatrix": [104, 0, 0, 104],
      "AngioFlag": "N",
      "BitsAllocated": 16,
      "BitsStored": 16,
      "BodyPartExamined": "BRAIN",
      "Columns": 832,
      "EchoNumbers": 1,
      "EchoTime": 37.0,
      "EchoTrainLength": 104,
      "FlipAngle": 52.0,
      "HighBit": 15,
      "ImageOrientationPatient": [0.9981976369038, -0.0521176452685, 0.02975279367287, 0.05930387834001, 0.93260381708809, -0.3559960257736],
      "ImagePositionPatient": [-882.08776332071, -763.88623224335, 240.37396909861],
      "ImageType": [
        "ORIGINAL",
        "PRIMARY",
        "M",
        "MB",
        "ND",
        "MOSAIC"
],
      "ImagedNucleus": "1H",
      "ImagingFrequency": 123.25882,
      "InPlanePhaseEncodingDirection": "COL",
      "MRAcquisitionType": "2D",
      "MagneticFieldStrength": 3.0,
      "Manufacturer": "SIEMENS",
      "ManufacturerModelName": "Prisma_fit",
      "Modality": "MR",
      "NumberOfAverages": 1.0,
      "NumberOfPhaseEncodingSteps": 104,
      "PercentPhaseFieldOfView": 100.0,
      "PercentSampling": 100.0,
      "PerformedProcedureStepStartTime": "161855.310000",
      "PhotometricInterpretation": "MONOCHROME2",
      "PixelBandwidth": 2290.0,
      "PixelRepresentation": 0,
      "PixelSpacing": [2.0, 2.0],
      "ProtocolName": "func_task-mario3_run-02",
      "RepetitionTime": 1490.0,
      "Rows": 832,
      "SAR": 0.04758371850011,
      "SamplesPerPixel": 1,
      "ScanOptions": "FS",
      "ScanningSequence": "EP",
      "SequenceName": "epfid2d1_104",
      "SequenceVariant": [
        "SK",
        "SS"
],
      "SeriesDescription": "func_task-mario3_run-02",
      "SeriesNumber": 13,
      "SeriesTime": "163312.648000",
      "SliceLocation": -40.175767909368,
      "SliceThickness": 2.0,
      "SmallestImagePixelValue": 0,
      "SoftwareVersions": "syngo MR E11",
      "SpacingBetweenSlices": 1.9999999487222,
      "SpecificCharacterSet": "ISO_IR 100",
      "StudyID": "1",
      "StudyTime": "161855.233000",
      "TransmitCoilName": "Body",
      "VariableFlipAngleFlag": "N",
      "WindowCenterWidthExplanation": "Algo1",
      "dBdt": 0.0},
    "slices": {}
  },
  "time": {
    "samples": {
      "AcquisitionNumber": [1, 2, 3, 4, 5, 6, 7, 8, 9, 10, 11, 12, 13, 14, 15, 16, 17, 18, 19, 20, 21, 22, 23, 24, 25, 26, 27, 28, 29, 30, 31, 32, 33, 34, 35, 36, 37, 38, 39, 40, 41, 42, 43, 44, 45, 46, 47, 48, 49, 50, 51, 52, 53, 54, 55, 56, 57, 58, 59, 60, 61, 62, 63, 64, 65, 66, 67, 68, 69, 70, 71, 72, 73, 74, 75, 76, 77, 78, 79, 80, 81, 82, 83, 84, 85, 86, 87, 88, 89, 90, 91, 92, 93, 94, 95, 96, 97, 98, 99, 100, 101, 102, 103, 104, 105, 106, 107, 108, 109, 110, 111, 112, 113, 114, 115, 116, 117, 118, 119, 120, 121, 122, 123, 124, 125, 126, 127, 128, 129, 130, 131, 132, 133, 134, 135, 136, 137, 138, 139, 140, 141, 142, 143, 144, 145, 146, 147, 148, 149, 150, 151, 152, 153, 154, 155, 156, 157, 158, 159, 160, 161, 162, 163, 164, 165, 166, 167, 168, 169, 170, 171, 172, 173, 174, 175, 176, 177, 178, 179, 180, 181, 182, 183, 184, 185, 186, 187, 188, 189, 190, 191, 192, 193, 194, 195, 196, 197, 198, 199, 200, 201, 202, 203, 204, 205, 206, 207, 208, 209, 210, 211, 212, 213, 214, 215, 216, 217, 218, 219, 220, 221, 222, 223, 224, 225, 226, 227, 228, 229, 230, 231, 232, 233, 234, 235, 236, 237, 238, 239, 240, 241, 242, 243, 244, 245, 246, 247, 248, 249, 250, 251, 252, 253, 254, 255, 256, 257, 258, 259, 260, 261, 262, 263, 264, 265, 266, 267, 268, 269, 270, 271, 272, 273, 274, 275, 276, 277, 278, 279, 280, 281, 282, 283, 284, 285, 286, 287, 288, 289, 290, 291, 292, 293, 294, 295, 296, 297, 298, 299, 300, 301, 302, 303, 304, 305, 306, 307, 308, 309, 310, 311, 312, 313, 314, 315, 316, 317, 318, 319, 320, 321, 322, 323, 324, 325, 326, 327, 328, 329, 330, 331, 332, 333, 334, 335, 336, 337, 338, 339, 340, 341, 342, 343, 344, 345, 346, 347, 348, 349, 350, 351, 352, 353, 354, 355],
      "AcquisitionTime": ["163159.882500", "163201.372500", "163202.862500", "163204.352500", "163205.842500", "163207.332500", "163208.822500", "163210.312500", "163211.802500", "163213.292500", "163214.782500", "163216.272500", "163217.762500", "163219.252500", "163220.742500", "163222.232500", "163223.722500", "163225.212500", "163226.702500", "163228.192500", "163229.682500", "163231.172500", "163232.662500", "163234.152500", "163235.642500", "163237.132500", "163238.622500", "163240.112500", "163241.602500", "163243.092500", "163244.582500", "163246.072500", "163247.562500", "163249.052500", "163250.542500", "163252.032500", "163253.522500", "163255.012500", "163256.502500", "163257.992500", "163259.482500", "163300.972500", "163302.462500", "163303.952500", "163305.442500", "163306.932500", "163308.422500", "163309.912500", "163311.402500", "163312.892500", "163314.382500", "163315.872500", "163317.362500", "163318.852500", "163320.342500", "163321.832500", "163323.322500", "163324.812500", "163326.302500", "163327.792500", "163329.282500", "163330.772500", "163332.262500", "163333.752500", "163335.242500", "163336.732500", "163338.222500", "163339.712500", "163341.202500", "163342.692500", "163344.182500", "163345.672500", "163347.162500", "163348.652500", "163350.142500", "163351.632500", "163353.122500", "163354.612500", "163356.102500", "163357.592500", "163359.082500", "163400.572500", "163402.062500", "163403.552500", "163405.042500", "163406.532500", "163408.022500", "163409.512500", "163411.002500", "163412.492500", "163413.982500", "163415.472500", "163416.962500", "163418.452500", "163419.942500", "163421.432500", "163422.922500", "163424.412500", "163425.902500", "163427.392500", "163428.882500", "163430.372500", "163431.862500", "163433.352500", "163434.842500", "163436.332500", "163437.822500", "163439.312500", "163440.802500", "163442.292500", "163443.782500", "163445.272500", "163446.762500", "163448.252500", "163449.742500", "163451.232500", "163452.722500", "163454.212500", "163455.702500", "163457.192500", "163458.682500", "163500.172500", "163501.662500", "163503.152500", "163504.642500", "163506.132500", "163507.622500", "163509.112500", "163510.602500", "163512.092500", "163513.582500", "163515.072500", "163516.562500", "163518.052500", "163519.542500", "163521.032500", "163522.522500", "163524.012500", "163525.502500", "163526.992500", "163528.482500", "163529.972500", "163531.462500", "163532.952500", "163534.442500", "163535.932500", "163537.422500", "163538.912500", "163540.402500", "163541.892500", "163543.382500", "163544.872500", "163546.362500", "163547.852500", "163549.342500", "163550.832500", "163552.322500", "163553.812500", "163555.302500", "163556.792500", "163558.282500", "163559.772500", "163601.262500", "163602.752500", "163604.242500", "163605.732500", "163607.222500", "163608.712500", "163610.202500", "163611.692500", "163613.182500", "163614.672500", "163616.162500", "163617.652500", "163619.142500", "163620.632500", "163622.122500", "163623.612500", "163625.102500", "163626.592500", "163628.082500", "163629.572500", "163631.062500", "163632.552500", "163634.042500", "163635.532500", "163637.022500", "163638.512500", "163640.002500", "163641.492500", "163642.982500", "163644.472500", "163645.962500", "163647.452500", "163648.942500", "163650.432500", "163651.922500", "163653.412500", "163654.902500", "163656.392500", "163657.882500", "163659.372500", "163700.862500", "163702.352500", "163703.842500", "163705.332500", "163706.822500", "163708.312500", "163709.802500", "163711.292500", "163712.782500", "163714.272500", "163715.762500", "163717.252500", "163718.742500", "163720.232500", "163721.722500", "163723.212500", "163724.702500", "163726.192500", "163727.682500", "163729.172500", "163730.662500", "163732.152500", "163733.642500", "163735.132500", "163736.622500", "163738.112500", "163739.602500", "163741.092500", "163742.582500", "163744.072500", "163745.562500", "163747.052500", "163748.542500", "163750.032500", "163751.522500", "163753.012500", "163754.502500", "163755.992500", "163757.482500", "163758.972500", "163800.462500", "163801.952500", "163803.442500", "163804.932500", "163806.422500", "163807.912500", "163809.402500", "163810.892500", "163812.382500", "163813.872500", "163815.362500", "163816.852500", "163818.342500", "163819.832500", "163821.322500", "163822.812500", "163824.302500", "163825.792500", "163827.282500", "163828.772500", "163830.262500", "163831.752500", "163833.242500", "163834.732500", "163836.222500", "163837.712500", "163839.202500", "163840.692500", "163842.182500", "163843.672500", "163845.162500", "163846.652500", "163848.142500", "163849.632500", "163851.122500", "163852.612500", "163854.102500", "163855.592500", "163857.082500", "163858.572500", "163900.062500", "163901.552500", "163903.042500", "163904.532500", "163906.022500", "163907.512500", "163909.002500", "163910.492500", "163911.982500", "163913.472500", "163914.962500", "163916.452500", "163917.942500", "163919.432500", "163920.922500", "163922.412500", "163923.902500", "163925.392500", "163926.882500", "163928.372500", "163929.862500", "163931.352500", "163932.842500", "163934.332500", "163935.822500", "163937.312500", "163938.802500", "163940.292500", "163941.782500", "163943.272500", "163944.762500", "163946.252500", "163947.742500", "163949.232500", "163950.722500", "163952.212500", "163953.702500", "163955.192500", "163956.682500", "163958.172500", "163959.662500", "164001.152500", "164002.642500", "164004.132500", "164005.622500", "164007.112500", "164008.602500", "164010.092500", "164011.582500", "164013.072500", "164014.562500", "164016.052500", "164017.542500", "164019.032500", "164020.522500", "164022.012500", "164023.502500", "164024.992500", "164026.482500", "164027.972500", "164029.462500", "164030.952500", "164032.442500", "164033.932500", "164035.422500", "164036.912500", "164038.402500", "164039.892500", "164041.382500", "164042.872500", "164044.362500", "164045.852500", "164047.342500"],
      "ContentTime": ["163312.651000", "163312.658000", "163312.661000", "163312.664000", "163312.668000", "163312.671000", "163312.674000", "163312.678000", "163312.681000", "163312.684000", "163312.687000", "163312.691000", "163312.694000", "163312.697000", "163312.701000", "163312.704000", "163312.707000", "163312.710000", "163312.714000", "163312.724000", "163312.727000", "163312.730000", "163312.734000", "163312.737000", "163312.740000", "163332.619000", "163332.623000", "163332.626000", "163332.629000", "163332.633000", "163332.636000", "163332.639000", "163332.642000", "163332.646000", "163332.649000", "163332.652000", "163332.655000", "163332.659000", "163332.662000", "163332.669000", "163332.672000", "163332.676000", "163332.679000", "163332.682000", "163332.685000", "163352.620000", "163352.626000", "163352.630000", "163352.634000", "163352.637000", "163352.640000", "163352.644000", "163352.648000", "163352.651000", "163352.655000", "163352.658000", "163352.661000", "163352.664000", "163352.667000", "163352.671000", "163352.674000", "163352.677000", "163352.681000", "163352.684000", "163352.687000", "163412.619000", "163412.623000", "163412.626000", "163412.630000", "163412.633000", "163412.636000", "163412.639000", "163412.643000", "163412.646000", "163412.649000", "163412.653000", "163412.656000", "163412.659000", "163412.663000", "163412.666000", "163412.672000", "163412.676000", "163412.679000", "163412.682000", "163412.686000", "163412.689000", "163452.618000", "163452.622000", "163452.625000", "163452.629000", "163452.632000", "163452.635000", "163452.639000", "163452.642000", "163452.645000", "163452.648000", "163452.652000", "163452.655000", "163452.667000", "163452.670000", "163452.674000", "163452.677000", "163452.680000", "163452.683000", "163452.687000", "163452.690000", "163452.693000", "163452.697000", "163452.700000", "163452.703000", "163452.706000", "163452.710000", "163452.717000", "163452.720000", "163452.724000", "163532.619000", "163532.623000", "163532.626000", "163532.630000", "163532.633000", "163532.636000", "163532.640000", "163532.643000", "163532.646000", "163532.649000", "163532.653000", "163532.656000", "163532.659000", "163532.663000", "163532.666000", "163532.669000", "163532.673000", "163532.676000", "163532.679000", "163532.682000", "163532.686000", "163532.689000", "163532.692000", "163532.696000", "163532.699000", "163532.702000", "163532.705000", "163612.633000", "163612.636000", "163612.640000", "163612.643000", "163612.646000", "163612.649000", "163612.653000", "163612.656000", "163612.659000", "163612.663000", "163612.666000", "163612.669000", "163612.672000", "163612.676000", "163612.679000", "163612.682000", "163612.686000", "163612.689000", "163612.692000", "163612.695000", "163612.699000", "163612.702000", "163612.705000", "163612.709000", "163612.712000", "163612.715000", "163612.719000", "163652.619000", "163652.624000", "163652.628000", "163652.631000", "163652.634000", "163652.638000", "163652.641000", "163652.644000", "163652.648000", "163652.651000", "163652.654000", "163652.658000", "163652.661000", "163652.665000", "163652.668000", "163652.671000", "163652.675000", "163652.678000", "163652.682000", "163652.685000", "163652.688000", "163652.692000", "163652.695000", "163652.698000", "163652.701000", "163652.705000", "163732.618000", "163732.622000", "163732.625000", "163732.629000", "163732.632000", "163732.635000", "163732.639000", "163732.642000", "163732.645000", "163732.649000", "163732.652000", "163732.665000", "163732.668000", "163732.672000", "163732.675000", "163732.678000", "163732.682000", "163732.685000", "163732.688000", "163732.692000", "163732.695000", "163732.698000", "163732.701000", "163732.705000", "163732.708000", "163732.711000", "163732.714000", "163812.619000", "163812.623000", "163812.626000", "163812.630000", "163812.633000", "163812.636000", "163812.640000", "163812.643000", "163812.647000", "163812.650000", "163812.653000", "163812.657000", "163812.660000", "163812.663000", "163812.667000", "163812.670000", "163812.673000", "163812.677000", "163812.680000", "163812.691000", "163812.705000", "163812.709000", "163812.712000", "163812.715000", "163812.718000", "163812.722000", "163812.725000", "163852.619000", "163852.623000", "163852.626000", "163852.630000", "163852.633000", "163852.636000", "163852.640000", "163852.643000", "163852.646000", "163852.650000", "163852.653000", "163852.656000", "163852.660000", "163852.663000", "163852.666000", "163852.669000", "163852.673000", "163852.676000", "163852.679000", "163852.683000", "163852.686000", "163852.689000", "163852.693000", "163852.696000", "163852.699000", "163852.702000", "163852.706000", "163932.618000", "163932.622000", "163932.625000", "163932.629000", "163932.632000", "163932.635000", "163932.638000", "163932.642000", "163932.645000", "163932.648000", "163932.652000", "163932.655000", "163932.658000", "163932.662000", "163932.665000", "163932.668000", "163932.672000", "163932.675000", "163932.678000", "163932.682000", "163932.685000", "163932.688000", "163932.691000", "163932.695000", "163932.698000", "163932.701000", "163932.705000", "164012.619000", "164012.623000", "164012.626000", "164012.630000", "164012.633000", "164012.636000", "164012.640000", "164012.643000", "164012.646000", "164012.650000", "164012.653000", "164012.656000", "164012.660000", "164012.663000", "164012.666000", "164012.669000", "164012.673000", "164012.676000", "164012.679000", "164012.683000", "164012.686000", "164012.689000", "164012.693000", "164012.696000", "164012.699000", "164012.703000", "164012.706000", "164050.084000", "164050.087000", "164050.091000", "164050.094000", "164050.098000", "164050.101000", "164050.104000", "164050.108000", "164050.111000", "164050.115000", "164050.118000", "164050.121000", "164050.125000", "164050.128000", "164050.131000", "164050.135000", "164050.138000", "164050.141000", "164050.145000", "164050.148000", "164050.151000", "164050.155000", "164050.158000", "164050.161000", "164050.165000"],
      "InstanceCreationTime": ["163312.651000", "163312.658000", "163312.661000", "163312.664000", "163312.668000", "163312.671000", "163312.674000", "163312.678000", "163312.681000", "163312.684000", "163312.687000", "163312.691000", "163312.694000", "163312.697000", "163312.701000", "163312.704000", "163312.707000", "163312.710000", "163312.714000", "163312.724000", "163312.727000", "163312.730000", "163312.734000", "163312.737000", "163312.740000", "163332.619000", "163332.623000", "163332.626000", "163332.629000", "163332.633000", "163332.636000", "163332.639000", "163332.642000", "163332.646000", "163332.649000", "163332.652000", "163332.655000", "163332.659000", "163332.662000", "163332.669000", "163332.672000", "163332.676000", "163332.679000", "163332.682000", "163332.685000", "163352.620000", "163352.626000", "163352.630000", "163352.634000", "163352.637000", "163352.640000", "163352.644000", "163352.648000", "163352.651000", "163352.655000", "163352.658000", "163352.661000", "163352.664000", "163352.667000", "163352.671000", "163352.674000", "163352.677000", "163352.681000", "163352.684000", "163352.687000", "163412.619000", "163412.623000", "163412.626000", "163412.630000", "163412.633000", "163412.636000", "163412.639000", "163412.643000", "163412.646000", "163412.649000", "163412.653000", "163412.656000", "163412.659000", "163412.663000", "163412.666000", "163412.672000", "163412.676000", "163412.679000", "163412.682000", "163412.686000", "163412.689000", "163452.618000", "163452.622000", "163452.625000", "163452.629000", "163452.632000", "163452.635000", "163452.639000", "163452.642000", "163452.645000", "163452.648000", "163452.652000", "163452.655000", "163452.667000", "163452.670000", "163452.674000", "163452.677000", "163452.680000", "163452.683000", "163452.687000", "163452.690000", "163452.693000", "163452.697000", "163452.700000", "163452.703000", "163452.706000", "163452.710000", "163452.717000", "163452.720000", "163452.724000", "163532.619000", "163532.623000", "163532.626000", "163532.630000", "163532.633000", "163532.636000", "163532.640000", "163532.643000", "163532.646000", "163532.649000", "163532.653000", "163532.656000", "163532.659000", "163532.663000", "163532.666000", "163532.669000", "163532.673000", "163532.676000", "163532.679000", "163532.682000", "163532.686000", "163532.689000", "163532.692000", "163532.696000", "163532.699000", "163532.702000", "163532.705000", "163612.633000", "163612.636000", "163612.640000", "163612.643000", "163612.646000", "163612.649000", "163612.653000", "163612.656000", "163612.659000", "163612.663000", "163612.666000", "163612.669000", "163612.672000", "163612.676000", "163612.679000", "163612.682000", "163612.686000", "163612.689000", "163612.692000", "163612.695000", "163612.699000", "163612.702000", "163612.705000", "163612.709000", "163612.712000", "163612.715000", "163612.719000", "163652.619000", "163652.624000", "163652.628000", "163652.631000", "163652.634000", "163652.638000", "163652.641000", "163652.644000", "163652.648000", "163652.651000", "163652.654000", "163652.658000", "163652.661000", "163652.665000", "163652.668000", "163652.671000", "163652.675000", "163652.678000", "163652.682000", "163652.685000", "163652.688000", "163652.692000", "163652.695000", "163652.698000", "163652.701000", "163652.705000", "163732.618000", "163732.622000", "163732.625000", "163732.629000", "163732.632000", "163732.635000", "163732.639000", "163732.642000", "163732.645000", "163732.649000", "163732.652000", "163732.665000", "163732.668000", "163732.672000", "163732.675000", "163732.678000", "163732.682000", "163732.685000", "163732.688000", "163732.692000", "163732.695000", "163732.698000", "163732.701000", "163732.705000", "163732.708000", "163732.711000", "163732.714000", "163812.619000", "163812.623000", "163812.626000", "163812.630000", "163812.633000", "163812.636000", "163812.640000", "163812.643000", "163812.647000", "163812.650000", "163812.653000", "163812.657000", "163812.660000", "163812.663000", "163812.667000", "163812.670000", "163812.673000", "163812.677000", "163812.680000", "163812.691000", "163812.705000", "163812.709000", "163812.712000", "163812.715000", "163812.718000", "163812.722000", "163812.725000", "163852.619000", "163852.623000", "163852.626000", "163852.630000", "163852.633000", "163852.636000", "163852.640000", "163852.643000", "163852.646000", "163852.650000", "163852.653000", "163852.656000", "163852.660000", "163852.663000", "163852.666000", "163852.669000", "163852.673000", "163852.676000", "163852.679000", "163852.683000", "163852.686000", "163852.689000", "163852.693000", "163852.696000", "163852.699000", "163852.702000", "163852.706000", "163932.618000", "163932.622000", "163932.625000", "163932.629000", "163932.632000", "163932.635000", "163932.638000", "163932.642000", "163932.645000", "163932.648000", "163932.652000", "163932.655000", "163932.658000", "163932.662000", "163932.665000", "163932.668000", "163932.672000", "163932.675000", "163932.678000", "163932.682000", "163932.685000", "163932.688000", "163932.691000", "163932.695000", "163932.698000", "163932.701000", "163932.705000", "164012.619000", "164012.623000", "164012.626000", "164012.630000", "164012.633000", "164012.636000", "164012.640000", "164012.643000", "164012.646000", "164012.650000", "164012.653000", "164012.656000", "164012.660000", "164012.663000", "164012.666000", "164012.669000", "164012.673000", "164012.676000", "164012.679000", "164012.683000", "164012.686000", "164012.689000", "164012.693000", "164012.696000", "164012.699000", "164012.703000", "164012.706000", "164050.084000", "164050.087000", "164050.091000", "164050.094000", "164050.098000", "164050.101000", "164050.104000", "164050.108000", "164050.111000", "164050.115000", "164050.118000", "164050.121000", "164050.125000", "164050.128000", "164050.131000", "164050.135000", "164050.138000", "164050.141000", "164050.145000", "164050.148000", "164050.151000", "164050.155000", "164050.158000", "164050.161000", "164050.165000"],
      "InstanceNumber": [1, 2, 3, 4, 5, 6, 7, 8, 9, 10, 11, 12, 13, 14, 15, 16, 17, 18, 19, 20, 21, 22, 23, 24, 25, 26, 27, 28, 29, 30, 31, 32, 33, 34, 35, 36, 37, 38, 39, 40, 41, 42, 43, 44, 45, 46, 47, 48, 49, 50, 51, 52, 53, 54, 55, 56, 57, 58, 59, 60, 61, 62, 63, 64, 65, 66, 67, 68, 69, 70, 71, 72, 73, 74, 75, 76, 77, 78, 79, 80, 81, 82, 83, 84, 85, 86, 87, 88, 89, 90, 91, 92, 93, 94, 95, 96, 97, 98, 99, 100, 101, 102, 103, 104, 105, 106, 107, 108, 109, 110, 111, 112, 113, 114, 115, 116, 117, 118, 119, 120, 121, 122, 123, 124, 125, 126, 127, 128, 129, 130, 131, 132, 133, 134, 135, 136, 137, 138, 139, 140, 141, 142, 143, 144, 145, 146, 147, 148, 149, 150, 151, 152, 153, 154, 155, 156, 157, 158, 159, 160, 161, 162, 163, 164, 165, 166, 167, 168, 169, 170, 171, 172, 173, 174, 175, 176, 177, 178, 179, 180, 181, 182, 183, 184, 185, 186, 187, 188, 189, 190, 191, 192, 193, 194, 195, 196, 197, 198, 199, 200, 201, 202, 203, 204, 205, 206, 207, 208, 209, 210, 211, 212, 213, 214, 215, 216, 217, 218, 219, 220, 221, 222, 223, 224, 225, 226, 227, 228, 229, 230, 231, 232, 233, 234, 235, 236, 237, 238, 239, 240, 241, 242, 243, 244, 245, 246, 247, 248, 249, 250, 251, 252, 253, 254, 255, 256, 257, 258, 259, 260, 261, 262, 263, 264, 265, 266, 267, 268, 269, 270, 271, 272, 273, 274, 275, 276, 277, 278, 279, 280, 281, 282, 283, 284, 285, 286, 287, 288, 289, 290, 291, 292, 293, 294, 295, 296, 297, 298, 299, 300, 301, 302, 303, 304, 305, 306, 307, 308, 309, 310, 311, 312, 313, 314, 315, 316, 317, 318, 319, 320, 321, 322, 323, 324, 325, 326, 327, 328, 329, 330, 331, 332, 333, 334, 335, 336, 337, 338, 339, 340, 341, 342, 343, 344, 345, 346, 347, 348, 349, 350, 351, 352, 353, 354, 355],
      "LargestImagePixelValue": [43257, 41798, 40290, 40905, 40452, 40703, 39686, 40706, 40858, 39835, 40403, 40312, 40629, 39744, 40114, 40117, 39308, 39977, 39455, 39261, 39138, 39671, 39405, 39407, 39091, 39230, 39506, 39603, 39842, 39665, 39963, 39726, 39620, 39860, 39702, 39816, 39532, 39491, 39152, 39454, 39290, 39629, 39671, 39522, 39928, 39515, 39341, 39404, 39950, 39890, 39146, 39309, 39169, 40676, 39501, 39777, 40317, 39464, 39602, 40684, 39554, 39667, 40115, 39380, 39868, 40347, 39270, 39165, 39579, 39151, 40421, 40255, 41348, 39703, 39523, 40437, 41021, 39399, 40373, 39716, 39502, 39208, 41346, 40695, 40462, 41181, 39859, 39793, 39595, 39686, 39536, 39590, 39285, 39803, 39770, 39695, 40748, 39647, 39812, 39526, 39341, 39280, 39240, 38805, 39029, 39480, 38807, 39553, 39298, 40768, 40507, 39351, 39706, 39831, 39580, 39366, 39513, 39387, 39358, 39463, 39088, 39858, 39320, 40106, 40941, 38891, 39402, 39616, 39401, 39315, 39303, 37140, 37091, 37239, 38534, 38352, 38704, 38975, 39051, 39025, 39135, 38687, 39155, 38972, 38691, 38746, 39164, 39331, 39097, 39080, 38373, 37915, 38490, 38287, 38199, 38024, 37972, 41166, 41386, 40725, 40195, 40087, 39858, 40036, 41954, 39738, 40359, 39100, 40503, 40584, 39331, 38809, 39205, 38741, 39064, 39667, 39398, 39982, 40171, 39015, 39383, 38253, 37823, 38045, 37957, 38763, 38798, 39220, 39697, 39512, 39616, 40543, 40444, 39654, 39540, 39329, 38886, 38393, 38770, 38784, 38529, 39286, 38965, 38566, 39742, 39042, 39690, 39189, 39455, 39082, 39602, 39498, 39670, 39542, 39616, 39401, 39821, 39850, 39409, 40224, 40773, 39883, 40587, 40077, 39703, 39533, 40396, 39235, 39735, 40240, 40389, 40079, 37288, 40272, 40747, 40836, 40529, 40612, 39872, 39074, 37768, 38619, 39271, 39705, 40606, 40297, 39966, 40378, 39996, 39860, 40441, 39309, 39989, 38568, 40009, 39143, 40116, 40093, 40417, 40522, 40299, 39949, 39596, 39059, 39350, 39944, 40199, 39561, 39517, 39458, 39471, 39182, 39592, 39924, 39027, 40452, 38946, 39605, 39264, 38632, 38670, 38968, 39560, 39096, 39752, 39501, 39769, 39485, 39082, 39577, 39210, 40040, 40006, 39855, 39621, 40704, 39509, 40128, 40777, 40580, 39866, 40659, 39607, 40148, 40822, 40341, 39959, 40732, 41250, 41068, 40357, 41123, 40699, 40713, 40648, 40334, 40772, 40266, 40324, 40460, 40607, 40468, 41008, 40936, 40643, 40311, 40359, 40544, 40219, 40591, 40525, 39549, 39976, 40609, 40074, 40438, 38219, 40086, 40071, 40249, 40304, 39228, 38698, 39574, 40245, 39696, 39583, 39481, 39275, 39332, 39122, 38247, 38839, 38920, 38798],
