{
  "AcquisitionMatrixPE": 104,
  "AcquisitionNumber": 1,
  "AcquisitionTime": "16:48:13.487500",
  "BandwidthPerPixelPhaseEncode": 17.17,
  "BaseResolution": 104,
  "BodyPartExamined": "BRAIN",
  "CoilCombinationMethod": "Sum of Squares",
  "ConsistencyInfo": "N4_VE11C_LATEST_20160120",
  "ConversionSoftware": "dcm2niix",
  "ConversionSoftwareVersion": "v1.0.20220505",
  "DerivedVendorReportedEchoSpacing": 0.000560011,
  "DeviceSerialNumber": "167006",
  "DwellTime": 2.1e-06,
  "EchoTime": 0.037,
  "EchoTrainLength": 104,
  "EffectiveEchoSpacing": 0.000560011,
  "FlipAngle": 52,
  "HeudiconvVersion": "0.5.3.post811+g6206e14",
  "ImageComments": "Unaliased MB4/PE3/LB",
  "ImageOrientationPatientDICOM": [0.998304, 0.0181039, 0.0553309, 0.0151598, 0.836791, -0.547312],
  "ImageOrientationText": "Tra>Cor(-33.2)>Sag(3.2)",
  "ImageType": [
    "ORIGINAL",
    "PRIMARY",
    "M",
    "MB",
    "ND",
    "MOSAIC"
],
  "ImagingFrequency": 123.26,
  "InPlanePhaseEncodingDirectionDICOM": "COL",
  "InstitutionAddress": "Chemin Queen-Mary 4565,Montreal,District,CA,H3W 1W5",
  "InstitutionName": "IUGM",
  "InstitutionalDepartmentName": "Department",
  "MRAcquisitionType": "2D",
  "MagneticFieldStrength": 3,
  "Manufacturer": "Siemens",
  "ManufacturersModelName": "Prisma_fit",
  "MatrixCoilMode": "SENSE",
  "Modality": "MR",
  "MultibandAccelerationFactor": 4,
  "PartialFourier": 1,
  "PatientPosition": "HFS",
  "PercentPhaseFOV": 100,
  "PercentSampling": 100,
  "PhaseEncodingDirection": "j",
  "PhaseEncodingSteps": 104,
  "PhaseResolution": 1,
  "PixelBandwidth": 2290,
  "ProcedureStepDescription": "games^mario3",
  "ProtocolName": "func_task-mario3_run-04",
  "PulseSequenceDetails": "%CustomerSeq%\\cmrr_mbep2d_bold",
  "ReceiveCoilActiveElements": "HC1-7;NC1,2",
  "ReceiveCoilName": "HeadNeck_64",
  "ReconMatrixPE": 104,
  "RepetitionTime": 1.49,
  "SAR": 0.0490342,
  "ScanOptions": "FS",
  "ScanningSequence": "EP",
  "SequenceName": "epfid2d1_104",
  "SequenceVariant": "SK\\SS",
  "SeriesDescription": "func_task-mario3_run-04",
  "SeriesNumber": 19,
  "ShimSetting": [616, -7188, -8874, 253, 13, -235, -26, 51],
  "SliceThickness": 2,
  "SliceTiming": [0, 0.7825, 0.0975, 0.8825, 0.195, 0.98, 0.2925, 1.0775, 0.3925, 1.175, 0.49, 1.2725, 0.5875, 1.3725, 0.685, 0, 0.7825, 0.0975, 0.8825, 0.195, 0.98, 0.2925, 1.0775, 0.3925, 1.175, 0.49, 1.2725, 0.5875, 1.3725, 0.685, 0, 0.7825, 0.0975, 0.8825, 0.195, 0.98, 0.2925, 1.0775, 0.3925, 1.175, 0.49, 1.2725, 0.5875, 1.3725, 0.685, 0, 0.7825, 0.0975, 0.8825, 0.195, 0.98, 0.2925, 1.0775, 0.3925, 1.175, 0.49, 1.2725, 0.5875, 1.3725, 0.685],
  "SoftwareVersions": "syngo MR E11",
  "SpacingBetweenSlices": 2,
  "StationName": "MRC35049",
  "TaskName": "mario3",
  "TotalReadoutTime": 0.0576811,
  "TxRefAmp": 261.813,
  "WipMemBlock": "647e3157-2266-481c-b005-93b8f0ab266e||Sequence: R017 ve11c/master r/75a17815+; Jun 28 2022 16:32:11 by eja",
  "dcmmeta_affine": [
    [-1.9966078996658325, 0.03031959757208824, 0.11241777241230011, 101.96884155273438],
    [-0.036207761615514755, 1.6735827922821045, -1.0944448709487915, -44.98036575317383],
    [0.11066178977489471, 1.0946238040924072, 1.6701953411102295, -101.68331146240234],
    [0.0, 0.0, 0.0, 1.0]
],
  "dcmmeta_reorient_transform": [
    [0.0, -1.0, 0.0, 103.0],
    [1.0, 0.0, 0.0, 0.0],
    [0.0, 0.0, 1.0, 0.0],
    [0.0, 0.0, 0.0, 1.0]
],
  "dcmmeta_shape": [104, 104, 60, 302],
  "dcmmeta_slice_dim": 2,
  "dcmmeta_version": 0.6,
  "global": {
    "const": {
      "AcquisitionMatrix": [104, 0, 0, 104],
      "AngioFlag": "N",
      "BitsAllocated": 16,
      "BitsStored": 16,
      "BodyPartExamined": "BRAIN",
      "Columns": 832,
      "EchoNumbers": 1,
      "EchoTime": 37.0,
      "EchoTrainLength": 104,
      "FlipAngle": 52.0,
      "HighBit": 15,
      "ImageOrientationPatient": [0.99830393243773, 0.01810388142486, 0.05533089513759, 0.01515979848011, 0.83679139524025, -0.5473119232777],
      "ImagePositionPatient": [-842.89335280159, -749.76242172956, 369.22513466305],
      "ImageType": [
        "ORIGINAL",
        "PRIMARY",
        "M",
        "MB",
        "ND",
        "MOSAIC"
],
      "ImagedNucleus": "1H",
      "ImagingFrequency": 123.260322,
      "InPlanePhaseEncodingDirection": "COL",
      "MRAcquisitionType": "2D",
      "MagneticFieldStrength": 3.0,
      "Manufacturer": "SIEMENS",
      "ManufacturerModelName": "Prisma_fit",
      "Modality": "MR",
      "NumberOfAverages": 1.0,
      "NumberOfPhaseEncodingSteps": 104,
      "PercentPhaseFieldOfView": 100.0,
      "PercentSampling": 100.0,
      "PerformedProcedureStepStartTime": "161411.318000",
      "PhotometricInterpretation": "MONOCHROME2",
      "PixelBandwidth": 2290.0,
      "PixelRepresentation": 0,
      "PixelSpacing": [2.0, 2.0],
      "ProtocolName": "func_task-mario3_run-04",
      "RepetitionTime": 1490.0,
      "Rows": 832,
      "SAR": 0.04903424455214,
      "SamplesPerPixel": 1,
      "ScanOptions": "FS",
      "ScanningSequence": "EP",
      "SequenceName": "epfid2d1_104",
      "SequenceVariant": [
        "SK",
        "SS"
],
      "SeriesDescription": "func_task-mario3_run-04",
      "SeriesNumber": 19,
      "SeriesTime": "164930.611000",
      "SliceLocation": -54.569675612204,
      "SliceThickness": 2.0,
      "SmallestImagePixelValue": 0,
      "SoftwareVersions": "syngo MR E11",
      "SpacingBetweenSlices": 1.999999987092,
      "SpecificCharacterSet": "ISO_IR 100",
      "StudyID": "1",
      "StudyTime": "161411.236000",
      "TransmitCoilName": "Body",
      "VariableFlipAngleFlag": "N",
      "WindowCenterWidthExplanation": "Algo1",
      "dBdt": 0.0},
    "slices": {}
  },
  "time": {
    "samples": {
      "AcquisitionNumber": [1, 2, 3, 4, 5, 6, 7, 8, 9, 10, 11, 12, 13, 14, 15, 16, 17, 18, 19, 20, 21, 22, 23, 24, 25, 26, 27, 28, 29, 30, 31, 32, 33, 34, 35, 36, 37, 38, 39, 40, 41, 42, 43, 44, 45, 46, 47, 48, 49, 50, 51, 52, 53, 54, 55, 56, 57, 58, 59, 60, 61, 62, 63, 64, 65, 66, 67, 68, 69, 70, 71, 72, 73, 74, 75, 76, 77, 78, 79, 80, 81, 82, 83, 84, 85, 86, 87, 88, 89, 90, 91, 92, 93, 94, 95, 96, 97, 98, 99, 100, 101, 102, 103, 104, 105, 106, 107, 108, 109, 110, 111, 112, 113, 114, 115, 116, 117, 118, 119, 120, 121, 122, 123, 124, 125, 126, 127, 128, 129, 130, 131, 132, 133, 134, 135, 136, 137, 138, 139, 140, 141, 142, 143, 144, 145, 146, 147, 148, 149, 150, 151, 152, 153, 154, 155, 156, 157, 158, 159, 160, 161, 162, 163, 164, 165, 166, 167, 168, 169, 170, 171, 172, 173, 174, 175, 176, 177, 178, 179, 180, 181, 182, 183, 184, 185, 186, 187, 188, 189, 190, 191, 192, 193, 194, 195, 196, 197, 198, 199, 200, 201, 202, 203, 204, 205, 206, 207, 208, 209, 210, 211, 212, 213, 214, 215, 216, 217, 218, 219, 220, 221, 222, 223, 224, 225, 226, 227, 228, 229, 230, 231, 232, 233, 234, 235, 236, 237, 238, 239, 240, 241, 242, 243, 244, 245, 246, 247, 248, 249, 250, 251, 252, 253, 254, 255, 256, 257, 258, 259, 260, 261, 262, 263, 264, 265, 266, 267, 268, 269, 270, 271, 272, 273, 274, 275, 276, 277, 278, 279, 280, 281, 282, 283, 284, 285, 286, 287, 288, 289, 290, 291, 292, 293, 294, 295, 296, 297, 298, 299, 300, 301, 302],
      "AcquisitionTime": ["164813.487500", "164814.977500", "164816.467500", "164817.957500", "164819.447500", "164820.937500", "164822.427500", "164823.917500", "164825.407500", "164826.897500", "164828.387500", "164829.877500", "164831.367500", "164832.857500", "164834.347500", "164835.837500", "164837.327500", "164838.817500", "164840.307500", "164841.797500", "164843.287500", "164844.777500", "164846.267500", "164847.757500", "164849.247500", "164850.737500", "164852.227500", "164853.717500", "164855.207500", "164856.697500", "164858.187500", "164859.677500", "164901.167500", "164902.657500", "164904.147500", "164905.637500", "164907.127500", "164908.617500", "164910.107500", "164911.597500", "164913.087500", "164914.577500", "164916.067500", "164917.557500", "164919.047500", "164920.537500", "164922.027500", "164923.517500", "164925.007500", "164926.497500", "164927.987500", "164929.477500", "164930.967500", "164932.457500", "164933.947500", "164935.437500", "164936.927500", "164938.417500", "164939.907500", "164941.397500", "164942.887500", "164944.377500", "164945.867500", "164947.357500", "164948.847500", "164950.337500", "164951.827500", "164953.317500", "164954.807500", "164956.297500", "164957.787500", "164959.277500", "165000.767500", "165002.257500", "165003.747500", "165005.237500", "165006.727500", "165008.217500", "165009.707500", "165011.197500", "165012.687500", "165014.177500", "165015.667500", "165017.157500", "165018.647500", "165020.137500", "165021.627500", "165023.117500", "165024.607500", "165026.097500", "165027.587500", "165029.077500", "165030.567500", "165032.057500", "165033.547500", "165035.037500", "165036.527500", "165038.017500", "165039.507500", "165040.997500", "165042.487500", "165043.977500", "165045.467500", "165046.957500", "165048.447500", "165049.937500", "165051.427500", "165052.917500", "165054.407500", "165055.897500", "165057.387500", "165058.877500", "165100.367500", "165101.857500", "165103.347500", "165104.837500", "165106.327500", "165107.817500", "165109.307500", "165110.797500", "165112.287500", "165113.777500", "165115.267500", "165116.757500", "165118.247500", "165119.737500", "165121.227500", "165122.717500", "165124.207500", "165125.697500", "165127.187500", "165128.677500", "165130.167500", "165131.657500", "165133.147500", "165134.637500", "165136.127500", "165137.617500", "165139.107500", "165140.597500", "165142.087500", "165143.577500", "165145.067500", "165146.557500", "165148.047500", "165149.537500", "165151.027500", "165152.517500", "165154.007500", "165155.497500", "165156.987500", "165158.477500", "165159.967500", "165201.457500", "165202.947500", "165204.437500", "165205.927500", "165207.417500", "165208.907500", "165210.397500", "165211.887500", "165213.377500", "165214.867500", "165216.357500", "165217.847500", "165219.337500", "165220.827500", "165222.317500", "165223.807500", "165225.297500", "165226.787500", "165228.277500", "165229.767500", "165231.257500", "165232.747500", "165234.237500", "165235.727500", "165237.217500", "165238.707500", "165240.197500", "165241.687500", "165243.177500", "165244.667500", "165246.157500", "165247.647500", "165249.137500", "165250.627500", "165252.117500", "165253.607500", "165255.097500", "165256.587500", "165258.077500", "165259.567500", "165301.057500", "165302.547500", "165304.037500", "165305.527500", "165307.017500", "165308.507500", "165309.997500", "165311.487500", "165312.977500", "165314.467500", "165315.957500", "165317.447500", "165318.937500", "165320.427500", "165321.917500", "165323.407500", "165324.897500", "165326.387500", "165327.877500", "165329.367500", "165330.857500", "165332.347500", "165333.837500", "165335.327500", "165336.817500", "165338.307500", "165339.797500", "165341.287500", "165342.777500", "165344.267500", "165345.757500", "165347.247500", "165348.737500", "165350.227500", "165351.717500", "165353.207500", "165354.697500", "165356.187500", "165357.677500", "165359.167500", "165400.657500", "165402.147500", "165403.637500", "165405.127500", "165406.617500", "165408.107500", "165409.597500", "165411.087500", "165412.577500", "165414.067500", "165415.557500", "165417.047500", "165418.537500", "165420.027500", "165421.517500", "165423.007500", "165424.497500", "165425.987500", "165427.477500", "165428.967500", "165430.457500", "165431.947500", "165433.437500", "165434.927500", "165436.417500", "165437.907500", "165439.397500", "165440.887500", "165442.377500", "165443.867500", "165445.357500", "165446.847500", "165448.337500", "165449.827500", "165451.317500", "165452.807500", "165454.297500", "165455.787500", "165457.277500", "165458.767500", "165500.257500", "165501.747500", "165503.237500", "165504.727500", "165506.217500", "165507.707500", "165509.197500", "165510.687500", "165512.177500", "165513.667500", "165515.157500", "165516.647500", "165518.137500", "165519.627500", "165521.117500", "165522.607500", "165524.097500", "165525.587500", "165527.077500", "165528.567500", "165530.057500", "165531.547500", "165533.037500", "165534.527500", "165536.017500", "165537.507500", "165538.997500", "165540.487500", "165541.977500"],
      "ContentTime": ["164930.615000", "164930.619000", "164930.622000", "164930.625000", "164930.629000", "164930.632000", "164930.636000", "164930.639000", "164930.642000", "164930.646000", "164930.649000", "164930.652000", "164930.656000", "164930.659000", "164930.662000", "164930.666000", "164930.669000", "164930.672000", "164930.676000", "164930.679000", "164930.682000", "164930.686000", "164930.689000", "164930.692000", "164930.696000", "164930.712000", "164950.578000", "164950.582000", "164950.585000", "164950.589000", "164950.592000", "164950.595000", "164950.598000", "164950.602000", "164950.605000", "164950.608000", "164950.612000", "164950.615000", "164950.618000", "164950.622000", "164950.625000", "164950.629000", "164950.632000", "164950.635000", "164950.639000", "164950.642000", "165010.577000", "165010.581000", "165010.584000", "165010.588000", "165010.591000", "165010.594000", "165010.598000", "165010.601000", "165010.604000", "165010.608000", "165010.611000", "165010.614000", "165010.618000", "165010.621000", "165010.625000", "165010.628000", "165010.631000", "165010.635000", "165010.646000", "165010.649000", "165030.577000", "165030.581000", "165030.584000", "165030.588000", "165030.591000", "165030.594000", "165030.598000", "165030.618000", "165030.621000", "165030.624000", "165030.628000", "165030.631000", "165030.634000", "165030.638000", "165030.641000", "165030.645000", "165030.648000", "165030.651000", "165030.655000", "165030.658000", "165030.661000", "165110.578000", "165110.582000", "165110.585000", "165110.589000", "165110.592000", "165110.595000", "165110.599000", "165110.602000", "165110.605000", "165110.609000", "165110.612000", "165110.615000", "165110.619000", "165110.622000", "165110.626000", "165110.629000", "165110.632000", "165110.636000", "165110.639000", "165110.642000", "165110.646000", "165110.649000", "165110.653000", "165110.656000", "165110.659000", "165110.663000", "165110.666000", "165110.669000", "165110.673000", "165110.676000", "165110.680000", "165150.578000", "165150.582000", "165150.586000", "165150.589000", "165150.592000", "165150.596000", "165150.599000", "165150.602000", "165150.606000", "165150.609000", "165150.613000", "165150.616000", "165150.619000", "165150.622000", "165150.626000", "165150.629000", "165150.633000", "165150.636000", "165150.639000", "165150.643000", "165150.646000", "165150.649000", "165150.653000", "165150.656000", "165150.660000", "165150.663000", "165150.666000", "165230.577000", "165230.581000", "165230.584000", "165230.588000", "165230.597000", "165230.600000", "165230.604000", "165230.607000", "165230.610000", "165230.614000", "165230.617000", "165230.621000", "165230.624000", "165230.627000", "165230.631000", "165230.634000", "165230.638000", "165230.642000", "165230.647000", "165230.651000", "165230.655000", "165230.658000", "165230.662000", "165230.666000", "165230.670000", "165230.674000", "165310.577000", "165310.590000", "165310.594000", "165310.597000", "165310.601000", "165310.604000", "165310.607000", "165310.611000", "165310.614000", "165310.618000", "165310.621000", "165310.624000", "165310.628000", "165310.631000", "165310.634000", "165310.638000", "165310.641000", "165310.645000", "165310.648000", "165310.651000", "165310.655000", "165310.658000", "165310.661000", "165310.665000", "165310.668000", "165310.672000", "165310.675000", "165350.578000", "165350.582000", "165350.586000", "165350.589000", "165350.592000", "165350.596000", "165350.599000", "165350.603000", "165350.606000", "165350.609000", "165350.613000", "165350.616000", "165350.619000", "165350.623000", "165350.626000", "165350.629000", "165350.633000", "165350.636000", "165350.640000", "165350.643000", "165350.646000", "165350.650000", "165350.653000", "165350.656000", "165350.660000", "165350.663000", "165350.666000", "165430.578000", "165430.582000", "165430.586000", "165430.589000", "165430.593000", "165430.596000", "165430.599000", "165430.603000", "165430.606000", "165430.610000", "165430.613000", "165430.616000", "165430.620000", "165430.623000", "165430.626000", "165430.630000", "165430.633000", "165430.637000", "165430.640000", "165430.644000", "165430.647000", "165430.650000", "165430.654000", "165430.657000", "165430.661000", "165430.664000", "165430.667000", "165510.577000", "165510.581000", "165510.585000", "165510.588000", "165510.591000", "165510.595000", "165510.598000", "165510.602000", "165510.605000", "165510.609000", "165510.612000", "165510.615000", "165510.619000", "165510.622000", "165510.626000", "165510.629000", "165510.632000", "165510.636000", "165510.639000", "165510.643000", "165510.646000", "165510.649000", "165510.653000", "165510.664000", "165510.668000", "165510.671000", "165510.675000", "165544.659000", "165544.663000", "165544.666000", "165544.670000", "165544.673000", "165544.676000", "165544.680000", "165544.683000", "165544.687000", "165544.690000", "165544.693000", "165544.697000", "165544.700000", "165544.704000", "165544.707000", "165544.711000", "165544.714000", "165544.717000", "165544.721000", "165544.724000", "165544.728000", "165544.731000", "165544.734000"],
      "InstanceCreationTime": ["164930.615000", "164930.619000", "164930.622000", "164930.625000", "164930.629000", "164930.632000", "164930.636000", "164930.639000", "164930.642000", "164930.646000", "164930.649000", "164930.652000", "164930.656000", "164930.659000", "164930.662000", "164930.666000", "164930.669000", "164930.672000", "164930.676000", "164930.679000", "164930.682000", "164930.686000", "164930.689000", "164930.692000", "164930.696000", "164930.712000", "164950.578000", "164950.582000", "164950.585000", "164950.589000", "164950.592000", "164950.595000", "164950.598000", "164950.602000", "164950.605000", "164950.608000", "164950.612000", "164950.615000", "164950.618000", "164950.622000", "164950.625000", "164950.629000", "164950.632000", "164950.635000", "164950.639000", "164950.642000", "165010.577000", "165010.581000", "165010.584000", "165010.588000", "165010.591000", "165010.594000", "165010.598000", "165010.601000", "165010.604000", "165010.608000", "165010.611000", "165010.614000", "165010.618000", "165010.621000", "165010.625000", "165010.628000", "165010.631000", "165010.635000", "165010.646000", "165010.649000", "165030.577000", "165030.581000", "165030.584000", "165030.588000", "165030.591000", "165030.594000", "165030.598000", "165030.618000", "165030.621000", "165030.624000", "165030.628000", "165030.631000", "165030.634000", "165030.638000", "165030.641000", "165030.645000", "165030.648000", "165030.651000", "165030.655000", "165030.658000", "165030.661000", "165110.578000", "165110.582000", "165110.585000", "165110.589000", "165110.592000", "165110.595000", "165110.599000", "165110.602000", "165110.605000", "165110.609000", "165110.612000", "165110.615000", "165110.619000", "165110.622000", "165110.626000", "165110.629000", "165110.632000", "165110.636000", "165110.639000", "165110.642000", "165110.646000", "165110.649000", "165110.653000", "165110.656000", "165110.659000", "165110.663000", "165110.666000", "165110.669000", "165110.673000", "165110.676000", "165110.680000", "165150.578000", "165150.582000", "165150.586000", "165150.589000", "165150.592000", "165150.596000", "165150.599000", "165150.602000", "165150.606000", "165150.609000", "165150.613000", "165150.616000", "165150.619000", "165150.622000", "165150.626000", "165150.629000", "165150.633000", "165150.636000", "165150.639000", "165150.643000", "165150.646000", "165150.649000", "165150.653000", "165150.656000", "165150.660000", "165150.663000", "165150.666000", "165230.577000", "165230.581000", "165230.584000", "165230.588000", "165230.597000", "165230.600000", "165230.604000", "165230.607000", "165230.610000", "165230.614000", "165230.617000", "165230.621000", "165230.624000", "165230.627000", "165230.631000", "165230.634000", "165230.638000", "165230.642000", "165230.647000", "165230.651000", "165230.655000", "165230.658000", "165230.662000", "165230.666000", "165230.670000", "165230.674000", "165310.577000", "165310.590000", "165310.594000", "165310.597000", "165310.601000", "165310.604000", "165310.607000", "165310.611000", "165310.614000", "165310.618000", "165310.621000", "165310.624000", "165310.628000", "165310.631000", "165310.634000", "165310.638000", "165310.641000", "165310.645000", "165310.648000", "165310.651000", "165310.655000", "165310.658000", "165310.661000", "165310.665000", "165310.668000", "165310.672000", "165310.675000", "165350.578000", "165350.582000", "165350.586000", "165350.589000", "165350.592000", "165350.596000", "165350.599000", "165350.603000", "165350.606000", "165350.609000", "165350.613000", "165350.616000", "165350.619000", "165350.623000", "165350.626000", "165350.629000", "165350.633000", "165350.636000", "165350.640000", "165350.643000", "165350.646000", "165350.650000", "165350.653000", "165350.656000", "165350.660000", "165350.663000", "165350.666000", "165430.578000", "165430.582000", "165430.586000", "165430.589000", "165430.593000", "165430.596000", "165430.599000", "165430.603000", "165430.606000", "165430.610000", "165430.613000", "165430.616000", "165430.620000", "165430.623000", "165430.626000", "165430.630000", "165430.633000", "165430.637000", "165430.640000", "165430.644000", "165430.647000", "165430.650000", "165430.654000", "165430.657000", "165430.661000", "165430.664000", "165430.667000", "165510.577000", "165510.581000", "165510.585000", "165510.588000", "165510.591000", "165510.595000", "165510.598000", "165510.602000", "165510.605000", "165510.609000", "165510.612000", "165510.615000", "165510.619000", "165510.622000", "165510.626000", "165510.629000", "165510.632000", "165510.636000", "165510.639000", "165510.643000", "165510.646000", "165510.649000", "165510.653000", "165510.664000", "165510.668000", "165510.671000", "165510.675000", "165544.659000", "165544.663000", "165544.666000", "165544.670000", "165544.673000", "165544.676000", "165544.680000", "165544.683000", "165544.687000", "165544.690000", "165544.693000", "165544.697000", "165544.700000", "165544.704000", "165544.707000", "165544.711000", "165544.714000", "165544.717000", "165544.721000", "165544.724000", "165544.728000", "165544.731000", "165544.734000"],
      "InstanceNumber": [1, 2, 3, 4, 5, 6, 7, 8, 9, 10, 11, 12, 13, 14, 15, 16, 17, 18, 19, 20, 21, 22, 23, 24, 25, 26, 27, 28, 29, 30, 31, 32, 33, 34, 35, 36, 37, 38, 39, 40, 41, 42, 43, 44, 45, 46, 47, 48, 49, 50, 51, 52, 53, 54, 55, 56, 57, 58, 59, 60, 61, 62, 63, 64, 65, 66, 67, 68, 69, 70, 71, 72, 73, 74, 75, 76, 77, 78, 79, 80, 81, 82, 83, 84, 85, 86, 87, 88, 89, 90, 91, 92, 93, 94, 95, 96, 97, 98, 99, 100, 101, 102, 103, 104, 105, 106, 107, 108, 109, 110, 111, 112, 113, 114, 115, 116, 117, 118, 119, 120, 121, 122, 123, 124, 125, 126, 127, 128, 129, 130, 131, 132, 133, 134, 135, 136, 137, 138, 139, 140, 141, 142, 143, 144, 145, 146, 147, 148, 149, 150, 151, 152, 153, 154, 155, 156, 157, 158, 159, 160, 161, 162, 163, 164, 165, 166, 167, 168, 169, 170, 171, 172, 173, 174, 175, 176, 177, 178, 179, 180, 181, 182, 183, 184, 185, 186, 187, 188, 189, 190, 191, 192, 193, 194, 195, 196, 197, 198, 199, 200, 201, 202, 203, 204, 205, 206, 207, 208, 209, 210, 211, 212, 213, 214, 215, 216, 217, 218, 219, 220, 221, 222, 223, 224, 225, 226, 227, 228, 229, 230, 231, 232, 233, 234, 235, 236, 237, 238, 239, 240, 241, 242, 243, 244, 245, 246, 247, 248, 249, 250, 251, 252, 253, 254, 255, 256, 257, 258, 259, 260, 261, 262, 263, 264, 265, 266, 267, 268, 269, 270, 271, 272, 273, 274, 275, 276, 277, 278, 279, 280, 281, 282, 283, 284, 285, 286, 287, 288, 289, 290, 291, 292, 293, 294, 295, 296, 297, 298, 299, 300, 301, 302],
      "LargestImagePixelValue": [44922, 44201, 44269, 42938, 43351, 42146, 42434, 41480, 42096, 42535, 42513, 41195, 42860, 41906, 43769, 44090, 42643, 43121, 42506, 41095, 41665, 41889, 41431, 41399, 41584, 43626, 43448, 42176, 42583, 42010, 42296, 42582, 43684, 42196, 42404, 43416, 42902, 41702, 41820, 41483, 42727, 41255, 42045, 42021, 41933, 41567, 42267, 42864, 41965, 43955, 41873, 40685, 41905, 42476, 42048, 42883, 41179, 41139, 41635, 41834, 41565, 41788, 44572, 41098, 41808, 42101, 42938, 42679, 41633, 42619, 43072, 43036, 43091, 42416, 43333, 41991, 41631, 41406, 41867, 42426, 41047, 41429, 41734, 41067, 41386, 41664, 41731, 41902, 42454, 41236, 41617, 42126, 42186, 42308, 40966, 41538, 40502, 41766, 41522, 41932, 42434, 42284, 42663, 42669, 41987, 42820, 43227, 42693, 41631, 43940, 42259, 43330, 42841, 43488, 43223, 43031, 42180, 42443, 42770, 45648, 43199, 42323, 42065, 44245, 43286, 43381, 43559, 43845, 42950, 42350, 42615, 42811, 42822, 43761, 43574, 43970, 42684, 43027, 44379, 43137, 43133, 43710, 43257, 42811, 43528, 42014, 42953, 42120, 43176, 43357, 41240, 43519, 42237, 43947, 43063, 42683, 42575, 42532, 43491, 43245, 43686, 44309, 44016, 43154, 40890, 42464, 42818, 42749, 42724, 42309, 41893, 41871, 43557, 43821, 43414, 43497, 42451, 42702, 42742, 43053, 42967, 42399, 42554, 42268, 42772, 40969, 40873, 41125, 42659, 43041, 43596, 42381, 42238, 43389, 42932, 42654, 43052, 43556, 43303, 42740, 43366, 41588, 43018, 43644, 41799, 43593, 43078, 40866, 41932, 41561, 42424, 41089, 42911, 42890, 42551, 43219, 42780, 43718, 43733, 43621, 43626, 43146, 43410, 41944, 43331, 41982, 43799, 42587, 42742, 42411, 42451, 41901, 43372, 41665, 42205, 42848, 43092, 43187, 42859, 42664, 42775, 43037, 42968, 42293, 43418, 43691, 43510, 42828, 43259, 43421, 44227, 41747, 40895, 43292, 41884, 41027, 42172, 41617, 42393, 43279, 43390, 43868, 43066, 43965, 44550, 42421, 42215, 43631, 43370, 44945, 44596, 43891, 44405, 44253, 44100, 43664, 43130, 42678, 44308, 43801, 43059, 43283, 43773, 44120, 41404, 43304, 43424, 44832, 43296, 43440, 42423, 43043, 42763, 42816, 42819, 43469, 42957, 43913, 42990, 42995, 41143, 42311],
      "WindowCenter": [10728.0, 10659.0, 10670.0, 10688.0, 10666.0, 10634.0, 10616.0, 10598.0, 10624.0, 10657.0, 10669.0, 10661.0, 10659.0, 10638.0, 10630.0, 10601.0, 10620.0, 10680.0, 10609.0, 10596.0, 10582.0, 10597.0, 10649.0, 10684.0, 10685.0, 10705.0, 10577.0, 10589.0, 10622.0, 10647.0, 10672.0, 10678.0, 10695.0, 10635.0, 10621.0, 10587.0, 10610.0, 10636.0, 10653.0, 10625.0, 10627.0, 10571.0, 10626.0, 10644.0, 10626.0, 10607.0, 10614.0, 10643.0, 10653.0, 10667.0, 10651.0, 10554.0, 10606.0, 10643.0, 10633.0, 10636.0, 10599.0, 10597.0, 10576.0, 10577.0, 10592.0, 10590.0, 10645.0, 10535.0, 10586.0, 10578.0, 10612.0, 10644.0, 10654.0, 10659.0, 10651.0, 10615.0, 10598.0, 10566.0, 10567.0, 10618.0, 10625.0, 10621.0, 10605.0, 10595.0, 10592.0, 10600.0, 10612.0, 10602.0, 10592.0, 10594.0, 10599.0, 10597.0, 10604.0, 10588.0, 10595.0, 10638.0, 10577.0, 10601.0, 10607.0, 10615.0, 10597.0, 10616.0, 10539.0, 10543.0, 10564.0, 10576.0, 10587.0, 10586.0, 10609.0, 10641.0, 10630.0, 10576.0, 10565.0, 10625.0, 10652.0, 10689.0, 10655.0, 10630.0, 10641.0, 10647.0, 10634.0, 10647.0, 10632.0, 10649.0, 10646.0, 10637.0, 10625.0, 10642.0, 10636.0, 10641.0, 10639.0, 10652.0, 10636.0, 10621.0, 10628.0, 10636.0, 10651.0, 10661.0, 10641.0, 10619.0, 10605.0, 10621.0, 10684.0, 10637.0, 10652.0, 10631.0, 10623.0, 10608.0, 10603.0, 10612.0, 10642.0, 10656.0, 10661.0, 10630.0, 10610.0, 10639.0, 10601.0, 10623.0, 10605.0, 10613.0, 10618.0, 10594.0, 10623.0, 10613.0, 10618.0, 10613.0, 10634.0, 10625.0, 10596.0, 10599.0, 10577.0, 10627.0, 10643.0, 10620.0, 10609.0, 10562.0, 10583.0, 10584.0, 10611.0, 10613.0, 10591.0, 10571.0, 10565.0, 10561.0, 10547.0, 10533.0, 10554.0, 10554.0, 10605.0, 10636.0, 10660.0, 10635.0, 10606.0, 10612.0, 10597.0, 10586.0, 10602.0, 10612.0, 10603.0, 10603.0, 10625.0, 10603.0, 10597.0, 10618.0, 10638.0, 10599.0, 10605.0, 10600.0, 10585.0, 10635.0, 10622.0, 10603.0, 10667.0, 10635.0, 10605.0, 10559.0, 10582.0, 10548.0, 10543.0, 10527.0, 10553.0, 10585.0, 10562.0, 10556.0, 10556.0, 10550.0, 10573.0, 10559.0, 10604.0, 10638.0, 10682.0, 10644.0, 10610.0, 10585.0, 10610.0, 10616.0, 10680.0, 10640.0, 10645.0, 10631.0, 10588.0, 10576.0, 10570.0, 10567.0, 10644.0, 10668.0, 10660.0, 10631.0, 10604.0, 10580.0, 10560.0, 10554.0, 10561.0, 10585.0, 10611.0, 10596.0, 10598.0, 10617.0, 10608.0, 10605.0, 10632.0, 10609.0, 10599.0, 10601.0, 10598.0, 10616.0, 10584.0, 10598.0, 10620.0, 10597.0, 10628.0, 10638.0, 10619.0, 10608.0, 10587.0, 10582.0, 10595.0, 10617.0, 10627.0, 10633.0, 10674.0, 10707.0, 10694.0, 10660.0, 10628.0, 10588.0, 10590.0, 10647.0, 10656.0, 10689.0, 10635.0, 10605.0, 10634.0, 10602.0, 10599.0, 10647.0, 10686.0, 10678.0, 10635.0, 10604.0, 10571.0, 10591.0, 10616.0, 10630.0, 10612.0, 10611.0],
