{
  "AcquisitionMatrixPE": 104,
  "AcquisitionNumber": 1,
  "AcquisitionTime": "16:28:32.925000",
  "BandwidthPerPixelPhaseEncode": 17.17,
  "BaseResolution": 104,
  "BodyPartExamined": "BRAIN",
  "CoilCombinationMethod": "Sum of Squares",
  "ConsistencyInfo": "N4_VE11C_LATEST_20160120",
  "ConversionSoftware": "dcm2niix",
  "ConversionSoftwareVersion": "v1.0.20220505",
  "DerivedVendorReportedEchoSpacing": 0.000560011,
  "DeviceSerialNumber": "167006",
  "DwellTime": 2.1e-06,
  "EchoTime": 0.037,
  "EchoTime1": 0.037,
  "EchoTime2": 0.001,
  "EchoTrainLength": 104,
  "EffectiveEchoSpacing": 0.000560011,
  "FlipAngle": 52,
  "HeudiconvVersion": "0.5.3.post811+g6206e14",
  "ImageComments": "Unaliased MB4/PE3/LB",
  "ImageOrientationPatientDICOM": [0.998304, 0.0181039, 0.0553309, 0.0151598, 0.836791, -0.547312],
  "ImageOrientationText": "Tra>Cor(-33.2)>Sag(3.2)",
  "ImageType": [
    "ORIGINAL",
    "PRIMARY",
    "P",
    "MB",
    "ND",
    "MOSAIC",
    "PHASE"
],
  "ImagingFrequency": 123.26,
  "InPlanePhaseEncodingDirectionDICOM": "COL",
  "InstitutionAddress": "Chemin Queen-Mary 4565,Montreal,District,CA,H3W 1W5",
  "InstitutionName": "IUGM",
  "InstitutionalDepartmentName": "Department",
  "MRAcquisitionType": "2D",
  "MagneticFieldStrength": 3,
  "Manufacturer": "Siemens",
  "ManufacturersModelName": "Prisma_fit",
  "MatrixCoilMode": "SENSE",
  "Modality": "MR",
  "MultibandAccelerationFactor": 4,
  "PartialFourier": 1,
  "PatientPosition": "HFS",
  "PercentPhaseFOV": 100,
  "PercentSampling": 100,
  "PhaseEncodingDirection": "j",
  "PhaseEncodingSteps": 104,
  "PhaseResolution": 1,
  "PixelBandwidth": 2290,
  "ProcedureStepDescription": "games^mario3",
  "ProtocolName": "func_task-mario3_run-02",
  "PulseSequenceDetails": "%CustomerSeq%\\cmrr_mbep2d_bold",
  "ReceiveCoilActiveElements": "HC1-7;NC1,2",
  "ReceiveCoilName": "HeadNeck_64",
  "ReconMatrixPE": 104,
  "RepetitionTime": 1.49,
  "SAR": 0.0490342,
  "ScanOptions": "FS",
  "ScanningSequence": "EP",
  "SequenceName": "epfid2d1_104",
  "SequenceVariant": "SK\\SS",
  "SeriesDescription": "func_task-mario3_run-02",
  "SeriesNumber": 14,
  "ShimSetting": [616, -7188, -8874, 253, 13, -235, -26, 51],
  "SliceThickness": 2,
  "SliceTiming": [0, 0.7825, 0.0975, 0.8825, 0.195, 0.98, 0.2925, 1.0775, 0.3925, 1.175, 0.49, 1.2725, 0.5875, 1.3725, 0.685, 0, 0.7825, 0.0975, 0.8825, 0.195, 0.98, 0.2925, 1.0775, 0.3925, 1.175, 0.49, 1.2725, 0.5875, 1.3725, 0.685, 0, 0.7825, 0.0975, 0.8825, 0.195, 0.98, 0.2925, 1.0775, 0.3925, 1.175, 0.49, 1.2725, 0.5875, 1.3725, 0.685, 0, 0.7825, 0.0975, 0.8825, 0.195, 0.98, 0.2925, 1.0775, 0.3925, 1.175, 0.49, 1.2725, 0.5875, 1.3725, 0.685],
  "SoftwareVersions": "syngo MR E11",
  "SpacingBetweenSlices": 2,
  "StationName": "MRC35049",
  "TaskName": "mario3",
  "TotalReadoutTime": 0.0576811,
  "TxRefAmp": 261.813,
  "WipMemBlock": "f70a8710-5c7b-46c1-8884-371a028777ce||Sequence: R017 ve11c/master r/75a17815+; Jun 28 2022 16:32:11 by eja",
  "dcmmeta_affine": [
    [-1.9966078996658325, 0.03031959757208824, 0.11241777241230011, 101.96884155273438],
    [-0.036207761615514755, 1.6735827922821045, -1.0944448709487915, -44.98036575317383],
    [0.11066178977489471, 1.0946238040924072, 1.6701953411102295, -101.68331146240234],
    [0.0, 0.0, 0.0, 1.0]
],
  "dcmmeta_reorient_transform": [
    [0.0, -1.0, 0.0, 103.0],
    [1.0, 0.0, 0.0, 0.0],
    [0.0, 0.0, 1.0, 0.0],
    [0.0, 0.0, 0.0, 1.0]
],
  "dcmmeta_shape": [104, 104, 60, 356],
  "dcmmeta_slice_dim": 2,
  "dcmmeta_version": 0.6,
  "global": {
    "const": {
      "AcquisitionMatrix": [104, 0, 0, 104],
      "AngioFlag": "N",
      "BitsAllocated": 16,
      "BitsStored": 16,
      "BodyPartExamined": "BRAIN",
      "Columns": 832,
      "EchoNumbers": 1,
      "EchoTime": 37.0,
      "EchoTrainLength": 104,
      "FlipAngle": 52.0,
      "HighBit": 15,
      "ImageOrientationPatient": [0.99830393243773, 0.01810388142486, 0.05533089513759, 0.01515979848011, 0.83679139524025, -0.5473119232777],
      "ImagePositionPatient": [-842.89335280159, -749.76242172956, 369.22513466305],
      "ImageType": [
        "ORIGINAL",
        "PRIMARY",
        "P",
        "MB",
        "ND",
        "MOSAIC"
],
      "ImagedNucleus": "1H",
      "ImagingFrequency": 123.260314,
      "InPlanePhaseEncodingDirection": "COL",
      "LargestImagePixelValue": 4095,
      "MRAcquisitionType": "2D",
      "MagneticFieldStrength": 3.0,
      "Manufacturer": "SIEMENS",
      "ManufacturerModelName": "Prisma_fit",
      "Modality": "MR",
      "NumberOfAverages": 1.0,
      "NumberOfPhaseEncodingSteps": 104,
      "PercentPhaseFieldOfView": 100.0,
      "PercentSampling": 100.0,
      "PerformedProcedureStepStartTime": "161411.318000",
      "PhotometricInterpretation": "MONOCHROME2",
      "PixelBandwidth": 2290.0,
      "PixelRepresentation": 0,
      "PixelSpacing": [2.0, 2.0],
      "ProtocolName": "func_task-mario3_run-02",
      "RepetitionTime": 1490.0,
      "RescaleIntercept": -4096.0,
      "RescaleSlope": 2.0,
      "RescaleType": "US",
      "Rows": 832,
      "SAR": 0.04903424455214,
      "SamplesPerPixel": 1,
      "ScanOptions": "FS",
      "ScanningSequence": "EP",
      "SequenceName": "epfid2d1_104",
      "SequenceVariant": [
        "SK",
        "SS"
],
      "SeriesDescription": "func_task-mario3_run-02",
      "SeriesNumber": 14,
      "SeriesTime": "162953.983000",
      "SliceLocation": -54.569675612204,
      "SliceThickness": 2.0,
      "SmallestImagePixelValue": 0,
      "SoftwareVersions": "syngo MR E11",
      "SpacingBetweenSlices": 1.999999987092,
      "SpecificCharacterSet": "ISO_IR 100",
      "StudyID": "1",
      "StudyTime": "161411.236000",
      "TransmitCoilName": "Body",
      "VariableFlipAngleFlag": "N",
      "WindowCenterWidthExplanation": "Algo1",
      "dBdt": 0.0},
    "slices": {}
  },
  "time": {
    "samples": {
      "AcquisitionNumber": [1, 2, 3, 4, 5, 6, 7, 8, 9, 10, 11, 12, 13, 14, 15, 16, 17, 18, 19, 20, 21, 22, 23, 24, 25, 26, 27, 28, 29, 30, 31, 32, 33, 34, 35, 36, 37, 38, 39, 40, 41, 42, 43, 44, 45, 46, 47, 48, 49, 50, 51, 52, 53, 54, 55, 56, 57, 58, 59, 60, 61, 62, 63, 64, 65, 66, 67, 68, 69, 70, 71, 72, 73, 74, 75, 76, 77, 78, 79, 80, 81, 82, 83, 84, 85, 86, 87, 88, 89, 90, 91, 92, 93, 94, 95, 96, 97, 98, 99, 100, 101, 102, 103, 104, 105, 106, 107, 108, 109, 110, 111, 112, 113, 114, 115, 116, 117, 118, 119, 120, 121, 122, 123, 124, 125, 126, 127, 128, 129, 130, 131, 132, 133, 134, 135, 136, 137, 138, 139, 140, 141, 142, 143, 144, 145, 146, 147, 148, 149, 150, 151, 152, 153, 154, 155, 156, 157, 158, 159, 160, 161, 162, 163, 164, 165, 166, 167, 168, 169, 170, 171, 172, 173, 174, 175, 176, 177, 178, 179, 180, 181, 182, 183, 184, 185, 186, 187, 188, 189, 190, 191, 192, 193, 194, 195, 196, 197, 198, 199, 200, 201, 202, 203, 204, 205, 206, 207, 208, 209, 210, 211, 212, 213, 214, 215, 216, 217, 218, 219, 220, 221, 222, 223, 224, 225, 226, 227, 228, 229, 230, 231, 232, 233, 234, 235, 236, 237, 238, 239, 240, 241, 242, 243, 244, 245, 246, 247, 248, 249, 250, 251, 252, 253, 254, 255, 256, 257, 258, 259, 260, 261, 262, 263, 264, 265, 266, 267, 268, 269, 270, 271, 272, 273, 274, 275, 276, 277, 278, 279, 280, 281, 282, 283, 284, 285, 286, 287, 288, 289, 290, 291, 292, 293, 294, 295, 296, 297, 298, 299, 300, 301, 302, 303, 304, 305, 306, 307, 308, 309, 310, 311, 312, 313, 314, 315, 316, 317, 318, 319, 320, 321, 322, 323, 324, 325, 326, 327, 328, 329, 330, 331, 332, 333, 334, 335, 336, 337, 338, 339, 340, 341, 342, 343, 344, 345, 346, 347, 348, 349, 350, 351, 352, 353, 354, 355, 356],
      "AcquisitionTime": ["162832.925000", "162834.415000", "162835.905000", "162837.395000", "162838.885000", "162840.375000", "162841.865000", "162843.355000", "162844.845000", "162846.335000", "162847.825000", "162849.315000", "162850.805000", "162852.295000", "162853.785000", "162855.275000", "162856.765000", "162858.255000", "162859.745000", "162901.235000", "162902.725000", "162904.215000", "162905.705000", "162907.195000", "162908.685000", "162910.175000", "162911.665000", "162913.155000", "162914.645000", "162916.135000", "162917.625000", "162919.115000", "162920.605000", "162922.095000", "162923.585000", "162925.075000", "162926.565000", "162928.055000", "162929.545000", "162931.035000", "162932.525000", "162934.015000", "162935.505000", "162936.995000", "162938.485000", "162939.975000", "162941.465000", "162942.955000", "162944.445000", "162945.935000", "162947.425000", "162948.915000", "162950.405000", "162951.895000", "162953.385000", "162954.875000", "162956.365000", "162957.855000", "162959.345000", "163000.835000", "163002.325000", "163003.815000", "163005.305000", "163006.795000", "163008.285000", "163009.775000", "163011.265000", "163012.755000", "163014.245000", "163015.735000", "163017.225000", "163018.715000", "163020.205000", "163021.695000", "163023.185000", "163024.675000", "163026.165000", "163027.655000", "163029.145000", "163030.635000", "163032.125000", "163033.615000", "163035.105000", "163036.595000", "163038.085000", "163039.575000", "163041.065000", "163042.555000", "163044.045000", "163045.535000", "163047.025000", "163048.515000", "163050.005000", "163051.495000", "163052.985000", "163054.475000", "163055.965000", "163057.455000", "163058.945000", "163100.435000", "163101.925000", "163103.415000", "163104.905000", "163106.395000", "163107.885000", "163109.375000", "163110.865000", "163112.355000", "163113.845000", "163115.335000", "163116.825000", "163118.315000", "163119.805000", "163121.295000", "163122.785000", "163124.275000", "163125.765000", "163127.255000", "163128.745000", "163130.235000", "163131.725000", "163133.215000", "163134.705000", "163136.195000", "163137.685000", "163139.175000", "163140.665000", "163142.155000", "163143.645000", "163145.135000", "163146.625000", "163148.115000", "163149.605000", "163151.095000", "163152.585000", "163154.075000", "163155.565000", "163157.055000", "163158.545000", "163200.035000", "163201.525000", "163203.015000", "163204.505000", "163205.995000", "163207.485000", "163208.975000", "163210.465000", "163211.955000", "163213.445000", "163214.935000", "163216.425000", "163217.915000", "163219.405000", "163220.895000", "163222.385000", "163223.875000", "163225.365000", "163226.855000", "163228.345000", "163229.835000", "163231.325000", "163232.815000", "163234.305000", "163235.795000", "163237.285000", "163238.775000", "163240.265000", "163241.755000", "163243.245000", "163244.735000", "163246.225000", "163247.715000", "163249.205000", "163250.695000", "163252.185000", "163253.675000", "163255.165000", "163256.655000", "163258.145000", "163259.635000", "163301.125000", "163302.615000", "163304.105000", "163305.595000", "163307.085000", "163308.575000", "163310.065000", "163311.555000", "163313.045000", "163314.535000", "163316.025000", "163317.515000", "163319.005000", "163320.495000", "163321.985000", "163323.475000", "163324.965000", "163326.455000", "163327.945000", "163329.435000", "163330.925000", "163332.415000", "163333.905000", "163335.395000", "163336.885000", "163338.375000", "163339.865000", "163341.355000", "163342.845000", "163344.335000", "163345.825000", "163347.315000", "163348.805000", "163350.295000", "163351.785000", "163353.275000", "163354.765000", "163356.255000", "163357.745000", "163359.235000", "163400.725000", "163402.215000", "163403.705000", "163405.195000", "163406.685000", "163408.175000", "163409.665000", "163411.155000", "163412.645000", "163414.135000", "163415.625000", "163417.115000", "163418.605000", "163420.095000", "163421.585000", "163423.075000", "163424.565000", "163426.055000", "163427.545000", "163429.035000", "163430.525000", "163432.015000", "163433.505000", "163434.995000", "163436.485000", "163437.975000", "163439.465000", "163440.955000", "163442.445000", "163443.935000", "163445.425000", "163446.915000", "163448.405000", "163449.895000", "163451.385000", "163452.875000", "163454.365000", "163455.855000", "163457.345000", "163458.835000", "163500.325000", "163501.815000", "163503.305000", "163504.795000", "163506.285000", "163507.775000", "163509.265000", "163510.755000", "163512.245000", "163513.735000", "163515.225000", "163516.715000", "163518.205000", "163519.695000", "163521.185000", "163522.675000", "163524.165000", "163525.655000", "163527.145000", "163528.635000", "163530.125000", "163531.615000", "163533.105000", "163534.595000", "163536.085000", "163537.575000", "163539.065000", "163540.555000", "163542.045000", "163543.535000", "163545.025000", "163546.515000", "163548.005000", "163549.495000", "163550.985000", "163552.475000", "163553.965000", "163555.455000", "163556.945000", "163558.435000", "163559.925000", "163601.415000", "163602.905000", "163604.395000", "163605.885000", "163607.375000", "163608.865000", "163610.355000", "163611.845000", "163613.335000", "163614.825000", "163616.315000", "163617.805000", "163619.295000", "163620.785000", "163622.275000", "163623.765000", "163625.255000", "163626.745000", "163628.235000", "163629.725000", "163631.215000", "163632.705000", "163634.195000", "163635.685000", "163637.175000", "163638.665000", "163640.155000", "163641.645000", "163643.135000", "163644.625000", "163646.115000", "163647.605000", "163649.095000", "163650.585000", "163652.075000", "163653.565000", "163655.055000", "163656.545000", "163658.035000", "163659.525000", "163701.015000", "163702.505000", "163703.995000", "163705.485000", "163706.975000", "163708.465000", "163709.955000", "163711.445000", "163712.935000", "163714.425000", "163715.915000", "163717.405000", "163718.895000", "163720.385000", "163721.875000"],
      "ContentTime": ["162953.985000", "162953.988000", "162953.990000", "162953.993000", "162953.995000", "162953.998000", "162954.002000", "162954.004000", "162954.007000", "162954.009000", "162954.012000", "162954.014000", "162954.017000", "162954.019000", "162954.022000", "162954.025000", "162954.027000", "162954.030000", "162954.032000", "162954.035000", "162954.037000", "162954.040000", "162954.042000", "162954.045000", "162954.048000", "162954.050000", "162954.053000", "162954.056000", "162954.058000", "162954.061000", "162954.063000", "163013.898000", "163013.901000", "163013.903000", "163013.906000", "163013.909000", "163013.911000", "163013.914000", "163013.916000", "163013.919000", "163013.921000", "163013.924000", "163013.926000", "163013.929000", "163013.931000", "163013.934000", "163013.937000", "163013.939000", "163013.942000", "163013.944000", "163013.947000", "163033.914000", "163033.917000", "163033.920000", "163033.923000", "163033.925000", "163033.928000", "163033.930000", "163033.933000", "163033.935000", "163033.938000", "163033.941000", "163033.943000", "163033.946000", "163033.948000", "163033.951000", "163033.953000", "163033.956000", "163033.958000", "163033.961000", "163033.964000", "163054.375000", "163054.378000", "163054.381000", "163054.383000", "163054.386000", "163054.388000", "163054.391000", "163054.393000", "163054.396000", "163054.398000", "163054.401000", "163054.403000", "163054.406000", "163054.408000", "163054.411000", "163054.413000", "163054.416000", "163054.418000", "163054.421000", "163054.423000", "163133.944000", "163133.947000", "163133.950000", "163133.952000", "163133.955000", "163133.957000", "163133.960000", "163133.962000", "163133.965000", "163133.967000", "163133.970000", "163133.972000", "163133.975000", "163133.977000", "163133.980000", "163133.982000", "163133.985000", "163133.988000", "163133.990000", "163133.992000", "163133.995000", "163133.998000", "163134.000000", "163134.003000", "163134.005000", "163134.008000", "163134.010000", "163134.013000", "163134.015000", "163134.018000", "163213.929000", "163213.932000", "163213.935000", "163213.937000", "163213.940000", "163213.942000", "163213.945000", "163213.947000", "163213.950000", "163213.953000", "163213.955000", "163213.958000", "163213.960000", "163213.963000", "163213.965000", "163213.968000", "163213.970000", "163213.973000", "163213.975000", "163213.978000", "163213.980000", "163213.983000", "163213.985000", "163213.988000", "163213.990000", "163213.993000", "163253.942000", "163253.945000", "163253.948000", "163253.950000", "163253.953000", "163253.955000", "163253.958000", "163253.960000", "163253.963000", "163253.967000", "163253.970000", "163253.973000", "163253.976000", "163253.979000", "163253.984000", "163253.988000", "163253.991000", "163253.994000", "163253.997000", "163254.001000", "163254.004000", "163254.006000", "163254.009000", "163254.011000", "163254.014000", "163254.016000", "163254.019000", "163313.860000", "163313.863000", "163313.866000", "163313.868000", "163313.871000", "163313.874000", "163313.876000", "163313.879000", "163313.881000", "163313.884000", "163313.886000", "163313.889000", "163313.891000", "163313.894000", "163353.926000", "163353.928000", "163353.931000", "163353.933000", "163353.936000", "163353.939000", "163353.941000", "163353.944000", "163353.946000", "163353.949000", "163353.951000", "163353.954000", "163353.956000", "163353.959000", "163353.961000", "163353.964000", "163353.967000", "163353.969000", "163353.972000", "163353.974000", "163353.977000", "163353.979000", "163353.982000", "163353.984000", "163353.987000", "163353.989000", "163353.992000", "163433.934000", "163433.937000", "163433.939000", "163433.942000", "163433.944000", "163433.947000", "163433.949000", "163433.952000", "163433.955000", "163433.957000", "163433.960000", "163433.962000", "163433.965000", "163433.967000", "163433.970000", "163433.972000", "163433.975000", "163433.977000", "163433.980000", "163433.982000", "163433.985000", "163433.988000", "163433.990000", "163433.993000", "163433.996000", "163434.000000", "163513.925000", "163513.928000", "163513.930000", "163513.933000", "163513.935000", "163513.938000", "163513.940000", "163513.943000", "163513.945000", "163513.948000", "163513.950000", "163513.953000", "163513.956000", "163513.958000", "163513.961000", "163513.964000", "163513.966000", "163513.969000", "163513.971000", "163513.974000", "163513.976000", "163513.979000", "163513.981000", "163513.984000", "163513.986000", "163513.989000", "163513.991000", "163553.932000", "163553.935000", "163553.938000", "163553.940000", "163553.943000", "163553.945000", "163553.948000", "163553.950000", "163553.953000", "163553.955000", "163553.958000", "163553.961000", "163553.963000", "163553.966000", "163553.968000", "163553.971000", "163553.973000", "163553.976000", "163553.978000", "163553.981000", "163553.983000", "163553.986000", "163553.988000", "163553.991000", "163553.993000", "163553.996000", "163553.998000", "163633.941000", "163633.943000", "163633.946000", "163633.949000", "163633.951000", "163633.954000", "163633.956000", "163633.959000", "163633.961000", "163633.964000", "163633.966000", "163633.969000", "163633.971000", "163633.974000", "163633.976000", "163633.979000", "163633.982000", "163633.984000", "163633.987000", "163633.989000", "163633.992000", "163633.994000", "163633.997000", "163634.000000", "163634.003000", "163634.005000", "163634.008000", "163713.943000", "163713.946000", "163713.949000", "163713.951000", "163713.954000", "163713.956000", "163713.959000", "163713.961000", "163713.964000", "163713.966000", "163713.969000", "163713.972000", "163713.974000", "163713.977000", "163713.979000", "163713.982000", "163713.984000", "163713.987000", "163713.989000", "163713.992000", "163713.994000", "163713.997000", "163713.999000", "163714.002000", "163714.004000", "163714.007000", "163714.009000", "163724.347000", "163724.349000", "163724.352000", "163724.354000", "163724.357000", "163724.359000", "163724.362000"],
      "InstanceCreationTime": ["162953.985000", "162953.988000", "162953.990000", "162953.993000", "162953.995000", "162953.998000", "162954.002000", "162954.004000", "162954.007000", "162954.009000", "162954.012000", "162954.014000", "162954.017000", "162954.019000", "162954.022000", "162954.025000", "162954.027000", "162954.030000", "162954.032000", "162954.035000", "162954.037000", "162954.040000", "162954.042000", "162954.045000", "162954.048000", "162954.050000", "162954.053000", "162954.056000", "162954.058000", "162954.061000", "162954.063000", "163013.898000", "163013.901000", "163013.903000", "163013.906000", "163013.909000", "163013.911000", "163013.914000", "163013.916000", "163013.919000", "163013.921000", "163013.924000", "163013.926000", "163013.929000", "163013.931000", "163013.934000", "163013.937000", "163013.939000", "163013.942000", "163013.944000", "163013.947000", "163033.914000", "163033.917000", "163033.920000", "163033.923000", "163033.925000", "163033.928000", "163033.930000", "163033.933000", "163033.935000", "163033.938000", "163033.941000", "163033.943000", "163033.946000", "163033.948000", "163033.951000", "163033.953000", "163033.956000", "163033.958000", "163033.961000", "163033.964000", "163054.375000", "163054.378000", "163054.381000", "163054.383000", "163054.386000", "163054.388000", "163054.391000", "163054.393000", "163054.396000", "163054.398000", "163054.401000", "163054.403000", "163054.406000", "163054.408000", "163054.411000", "163054.413000", "163054.416000", "163054.418000", "163054.421000", "163054.423000", "163133.944000", "163133.947000", "163133.950000", "163133.952000", "163133.955000", "163133.957000", "163133.960000", "163133.962000", "163133.965000", "163133.967000", "163133.970000", "163133.972000", "163133.975000", "163133.977000", "163133.980000", "163133.982000", "163133.985000", "163133.988000", "163133.990000", "163133.992000", "163133.995000", "163133.998000", "163134.000000", "163134.003000", "163134.005000", "163134.008000", "163134.010000", "163134.013000", "163134.015000", "163134.018000", "163213.929000", "163213.932000", "163213.935000", "163213.937000", "163213.940000", "163213.942000", "163213.945000", "163213.947000", "163213.950000", "163213.953000", "163213.955000", "163213.958000", "163213.960000", "163213.963000", "163213.965000", "163213.968000", "163213.970000", "163213.973000", "163213.975000", "163213.978000", "163213.980000", "163213.983000", "163213.985000", "163213.988000", "163213.990000", "163213.993000", "163253.942000", "163253.945000", "163253.948000", "163253.950000", "163253.953000", "163253.955000", "163253.958000", "163253.960000", "163253.963000", "163253.967000", "163253.970000", "163253.973000", "163253.976000", "163253.979000", "163253.984000", "163253.988000", "163253.991000", "163253.994000", "163253.997000", "163254.001000", "163254.004000", "163254.006000", "163254.009000", "163254.011000", "163254.014000", "163254.016000", "163254.019000", "163313.860000", "163313.863000", "163313.866000", "163313.868000", "163313.871000", "163313.874000", "163313.876000", "163313.879000", "163313.881000", "163313.884000", "163313.886000", "163313.889000", "163313.891000", "163313.894000", "163353.926000", "163353.928000", "163353.931000", "163353.933000", "163353.936000", "163353.939000", "163353.941000", "163353.944000", "163353.946000", "163353.949000", "163353.951000", "163353.954000", "163353.956000", "163353.959000", "163353.961000", "163353.964000", "163353.967000", "163353.969000", "163353.972000", "163353.974000", "163353.977000", "163353.979000", "163353.982000", "163353.984000", "163353.987000", "163353.989000", "163353.992000", "163433.934000", "163433.937000", "163433.939000", "163433.942000", "163433.944000", "163433.947000", "163433.949000", "163433.952000", "163433.955000", "163433.957000", "163433.960000", "163433.962000", "163433.965000", "163433.967000", "163433.970000", "163433.972000", "163433.975000", "163433.977000", "163433.980000", "163433.982000", "163433.985000", "163433.988000", "163433.990000", "163433.993000", "163433.996000", "163434.000000", "163513.925000", "163513.928000", "163513.930000", "163513.933000", "163513.935000", "163513.938000", "163513.940000", "163513.943000", "163513.945000", "163513.948000", "163513.950000", "163513.953000", "163513.956000", "163513.958000", "163513.961000", "163513.964000", "163513.966000", "163513.969000", "163513.971000", "163513.974000", "163513.976000", "163513.979000", "163513.981000", "163513.984000", "163513.986000", "163513.989000", "163513.991000", "163553.932000", "163553.935000", "163553.938000", "163553.940000", "163553.943000", "163553.945000", "163553.948000", "163553.950000", "163553.953000", "163553.955000", "163553.958000", "163553.961000", "163553.963000", "163553.966000", "163553.968000", "163553.971000", "163553.973000", "163553.976000", "163553.978000", "163553.981000", "163553.983000", "163553.986000", "163553.988000", "163553.991000", "163553.993000", "163553.996000", "163553.998000", "163633.941000", "163633.943000", "163633.946000", "163633.949000", "163633.951000", "163633.954000", "163633.956000", "163633.959000", "163633.961000", "163633.964000", "163633.966000", "163633.969000", "163633.971000", "163633.974000", "163633.976000", "163633.979000", "163633.982000", "163633.984000", "163633.987000", "163633.989000", "163633.992000", "163633.994000", "163633.997000", "163634.000000", "163634.003000", "163634.005000", "163634.008000", "163713.943000", "163713.946000", "163713.949000", "163713.951000", "163713.954000", "163713.956000", "163713.959000", "163713.961000", "163713.964000", "163713.966000", "163713.969000", "163713.972000", "163713.974000", "163713.977000", "163713.979000", "163713.982000", "163713.984000", "163713.987000", "163713.989000", "163713.992000", "163713.994000", "163713.997000", "163713.999000", "163714.002000", "163714.004000", "163714.007000", "163714.009000", "163724.347000", "163724.349000", "163724.352000", "163724.354000", "163724.357000", "163724.359000", "163724.362000"],
      "InstanceNumber": [1, 2, 3, 4, 5, 6, 7, 8, 9, 10, 11, 12, 13, 14, 15, 16, 17, 18, 19, 20, 21, 22, 23, 24, 25, 26, 27, 28, 29, 30, 31, 32, 33, 34, 35, 36, 37, 38, 39, 40, 41, 42, 43, 44, 45, 46, 47, 48, 49, 50, 51, 52, 53, 54, 55, 56, 57, 58, 59, 60, 61, 62, 63, 64, 65, 66, 67, 68, 69, 70, 71, 72, 73, 74, 75, 76, 77, 78, 79, 80, 81, 82, 83, 84, 85, 86, 87, 88, 89, 90, 91, 92, 93, 94, 95, 96, 97, 98, 99, 100, 101, 102, 103, 104, 105, 106, 107, 108, 109, 110, 111, 112, 113, 114, 115, 116, 117, 118, 119, 120, 121, 122, 123, 124, 125, 126, 127, 128, 129, 130, 131, 132, 133, 134, 135, 136, 137, 138, 139, 140, 141, 142, 143, 144, 145, 146, 147, 148, 149, 150, 151, 152, 153, 154, 155, 156, 157, 158, 159, 160, 161, 162, 163, 164, 165, 166, 167, 168, 169, 170, 171, 172, 173, 174, 175, 176, 177, 178, 179, 180, 181, 182, 183, 184, 185, 186, 187, 188, 189, 190, 191, 192, 193, 194, 195, 196, 197, 198, 199, 200, 201, 202, 203, 204, 205, 206, 207, 208, 209, 210, 211, 212, 213, 214, 215, 216, 217, 218, 219, 220, 221, 222, 223, 224, 225, 226, 227, 228, 229, 230, 231, 232, 233, 234, 235, 236, 237, 238, 239, 240, 241, 242, 243, 244, 245, 246, 247, 248, 249, 250, 251, 252, 253, 254, 255, 256, 257, 258, 259, 260, 261, 262, 263, 264, 265, 266, 267, 268, 269, 270, 271, 272, 273, 274, 275, 276, 277, 278, 279, 280, 281, 282, 283, 284, 285, 286, 287, 288, 289, 290, 291, 292, 293, 294, 295, 296, 297, 298, 299, 300, 301, 302, 303, 304, 305, 306, 307, 308, 309, 310, 311, 312, 313, 314, 315, 316, 317, 318, 319, 320, 321, 322, 323, 324, 325, 326, 327, 328, 329, 330, 331, 332, 333, 334, 335, 336, 337, 338, 339, 340, 341, 342, 343, 344, 345, 346, 347, 348, 349, 350, 351, 352, 353, 354, 355, 356],
