{
  "AcquisitionMatrixPE": 104,
  "AcquisitionNumber": 1,
  "AcquisitionTime": "16:38:22.455000",
  "BandwidthPerPixelPhaseEncode": 17.17,
  "BaseResolution": 104,
  "BodyPartExamined": "BRAIN",
  "CoilCombinationMethod": "Sum of Squares",
  "ConsistencyInfo": "N4_VE11C_LATEST_20160120",
  "ConversionSoftware": "dcm2niix",
  "ConversionSoftwareVersion": "v1.0.20220505",
  "DerivedVendorReportedEchoSpacing": 0.000560011,
  "DeviceSerialNumber": "167006",
  "DwellTime": 2.1e-06,
  "EchoTime": 0.037,
  "EchoTime1": 0.037,
  "EchoTime2": 0.001,
  "EchoTrainLength": 104,
  "EffectiveEchoSpacing": 0.000560011,
  "FlipAngle": 52,
  "HeudiconvVersion": "0.5.3.post811+g6206e14",
  "ImageComments": "Unaliased MB4/PE3/LB",
  "ImageOrientationPatientDICOM": [0.998304, 0.0181039, 0.0553309, 0.0151598, 0.836791, -0.547312],
  "ImageOrientationText": "Tra>Cor(-33.2)>Sag(3.2)",
  "ImageType": [
    "ORIGINAL",
    "PRIMARY",
    "P",
    "MB",
    "ND",
    "MOSAIC",
    "PHASE"
],
  "ImagingFrequency": 123.26,
  "InPlanePhaseEncodingDirectionDICOM": "COL",
  "InstitutionAddress": "Chemin Queen-Mary 4565,Montreal,District,CA,H3W 1W5",
  "InstitutionName": "IUGM",
  "InstitutionalDepartmentName": "Department",
  "MRAcquisitionType": "2D",
  "MagneticFieldStrength": 3,
  "Manufacturer": "Siemens",
  "ManufacturersModelName": "Prisma_fit",
  "MatrixCoilMode": "SENSE",
  "Modality": "MR",
  "MultibandAccelerationFactor": 4,
  "PartialFourier": 1,
  "PatientPosition": "HFS",
  "PercentPhaseFOV": 100,
  "PercentSampling": 100,
  "PhaseEncodingDirection": "j",
  "PhaseEncodingSteps": 104,
  "PhaseResolution": 1,
  "PixelBandwidth": 2290,
  "ProcedureStepDescription": "games^mario3",
  "ProtocolName": "func_task-mario3_run-03",
  "PulseSequenceDetails": "%CustomerSeq%\\cmrr_mbep2d_bold",
  "ReceiveCoilActiveElements": "HC1-7;NC1,2",
  "ReceiveCoilName": "HeadNeck_64",
  "ReconMatrixPE": 104,
  "RepetitionTime": 1.49,
  "SAR": 0.0490342,
  "ScanOptions": "FS",
  "ScanningSequence": "EP",
  "SequenceName": "epfid2d1_104",
  "SequenceVariant": "SK\\SS",
  "SeriesDescription": "func_task-mario3_run-03",
  "SeriesNumber": 17,
  "ShimSetting": [616, -7188, -8874, 253, 13, -235, -26, 51],
  "SliceThickness": 2,
  "SliceTiming": [0, 0.7825, 0.0975, 0.8825, 0.195, 0.98, 0.295, 1.0775, 0.3925, 1.175, 0.49, 1.2725, 0.5875, 1.3725, 0.685, 0, 0.7825, 0.0975, 0.8825, 0.195, 0.98, 0.295, 1.0775, 0.3925, 1.175, 0.49, 1.2725, 0.5875, 1.3725, 0.685, 0, 0.7825, 0.0975, 0.8825, 0.195, 0.98, 0.295, 1.0775, 0.3925, 1.175, 0.49, 1.2725, 0.5875, 1.3725, 0.685, 0, 0.7825, 0.0975, 0.8825, 0.195, 0.98, 0.295, 1.0775, 0.3925, 1.175, 0.49, 1.2725, 0.5875, 1.3725, 0.685],
  "SoftwareVersions": "syngo MR E11",
  "SpacingBetweenSlices": 2,
  "StationName": "MRC35049",
  "TaskName": "mario3",
  "TotalReadoutTime": 0.0576811,
  "TxRefAmp": 261.813,
  "WipMemBlock": "23a72194-4067-4d53-a5dc-1a837ee53d68||Sequence: R017 ve11c/master r/75a17815+; Jun 28 2022 16:32:11 by eja",
  "dcmmeta_affine": [
    [-1.9966078996658325, 0.03031959757208824, 0.11241777241230011, 101.96884155273438],
    [-0.036207761615514755, 1.6735827922821045, -1.0944448709487915, -44.98036575317383],
    [0.11066178977489471, 1.0946238040924072, 1.6701953411102295, -101.68331146240234],
    [0.0, 0.0, 0.0, 1.0]
],
  "dcmmeta_reorient_transform": [
    [0.0, -1.0, 0.0, 103.0],
    [1.0, 0.0, 0.0, 0.0],
    [0.0, 0.0, 1.0, 0.0],
    [0.0, 0.0, 0.0, 1.0]
],
  "dcmmeta_shape": [104, 104, 60, 305],
  "dcmmeta_slice_dim": 2,
  "dcmmeta_version": 0.6,
  "global": {
    "const": {
      "AcquisitionMatrix": [104, 0, 0, 104],
      "AngioFlag": "N",
      "BitsAllocated": 16,
      "BitsStored": 16,
      "BodyPartExamined": "BRAIN",
      "Columns": 832,
      "EchoNumbers": 1,
      "EchoTime": 37.0,
      "EchoTrainLength": 104,
      "FlipAngle": 52.0,
      "HighBit": 15,
      "ImageOrientationPatient": [0.99830393243773, 0.01810388142486, 0.05533089513759, 0.01515979848011, 0.83679139524025, -0.5473119232777],
      "ImagePositionPatient": [-842.89335280159, -749.76242172956, 369.22513466305],
      "ImageType": [
        "ORIGINAL",
        "PRIMARY",
        "P",
        "MB",
        "ND",
        "MOSAIC"
],
      "ImagedNucleus": "1H",
      "ImagingFrequency": 123.260316,
      "InPlanePhaseEncodingDirection": "COL",
      "LargestImagePixelValue": 4095,
      "MRAcquisitionType": "2D",
      "MagneticFieldStrength": 3.0,
      "Manufacturer": "SIEMENS",
      "ManufacturerModelName": "Prisma_fit",
      "Modality": "MR",
      "NumberOfAverages": 1.0,
      "NumberOfPhaseEncodingSteps": 104,
      "PercentPhaseFieldOfView": 100.0,
      "PercentSampling": 100.0,
      "PerformedProcedureStepStartTime": "161411.318000",
      "PhotometricInterpretation": "MONOCHROME2",
      "PixelBandwidth": 2290.0,
      "PixelRepresentation": 0,
      "PixelSpacing": [2.0, 2.0],
      "ProtocolName": "func_task-mario3_run-03",
      "RepetitionTime": 1490.0,
      "RescaleIntercept": -4096.0,
      "RescaleSlope": 2.0,
      "RescaleType": "US",
      "Rows": 832,
      "SAR": 0.04903424455214,
      "SamplesPerPixel": 1,
      "ScanOptions": "FS",
      "ScanningSequence": "EP",
      "SequenceName": "epfid2d1_104",
      "SequenceVariant": [
        "SK",
        "SS"
],
      "SeriesDescription": "func_task-mario3_run-03",
      "SeriesNumber": 17,
      "SeriesTime": "163953.381000",
      "SliceLocation": -54.569675612204,
      "SliceThickness": 2.0,
      "SmallestImagePixelValue": 0,
      "SoftwareVersions": "syngo MR E11",
      "SpacingBetweenSlices": 1.999999987092,
      "SpecificCharacterSet": "ISO_IR 100",
      "StudyID": "1",
      "StudyTime": "161411.236000",
      "TransmitCoilName": "Body",
      "VariableFlipAngleFlag": "N",
      "WindowCenterWidthExplanation": "Algo1",
      "dBdt": 0.0},
    "slices": {}
  },
  "time": {
    "samples": {
      "AcquisitionNumber": [1, 2, 3, 4, 5, 6, 7, 8, 9, 10, 11, 12, 13, 14, 15, 16, 17, 18, 19, 20, 21, 22, 23, 24, 25, 26, 27, 28, 29, 30, 31, 32, 33, 34, 35, 36, 37, 38, 39, 40, 41, 42, 43, 44, 45, 46, 47, 48, 49, 50, 51, 52, 53, 54, 55, 56, 57, 58, 59, 60, 61, 62, 63, 64, 65, 66, 67, 68, 69, 70, 71, 72, 73, 74, 75, 76, 77, 78, 79, 80, 81, 82, 83, 84, 85, 86, 87, 88, 89, 90, 91, 92, 93, 94, 95, 96, 97, 98, 99, 100, 101, 102, 103, 104, 105, 106, 107, 108, 109, 110, 111, 112, 113, 114, 115, 116, 117, 118, 119, 120, 121, 122, 123, 124, 125, 126, 127, 128, 129, 130, 131, 132, 133, 134, 135, 136, 137, 138, 139, 140, 141, 142, 143, 144, 145, 146, 147, 148, 149, 150, 151, 152, 153, 154, 155, 156, 157, 158, 159, 160, 161, 162, 163, 164, 165, 166, 167, 168, 169, 170, 171, 172, 173, 174, 175, 176, 177, 178, 179, 180, 181, 182, 183, 184, 185, 186, 187, 188, 189, 190, 191, 192, 193, 194, 195, 196, 197, 198, 199, 200, 201, 202, 203, 204, 205, 206, 207, 208, 209, 210, 211, 212, 213, 214, 215, 216, 217, 218, 219, 220, 221, 222, 223, 224, 225, 226, 227, 228, 229, 230, 231, 232, 233, 234, 235, 236, 237, 238, 239, 240, 241, 242, 243, 244, 245, 246, 247, 248, 249, 250, 251, 252, 253, 254, 255, 256, 257, 258, 259, 260, 261, 262, 263, 264, 265, 266, 267, 268, 269, 270, 271, 272, 273, 274, 275, 276, 277, 278, 279, 280, 281, 282, 283, 284, 285, 286, 287, 288, 289, 290, 291, 292, 293, 294, 295, 296, 297, 298, 299, 300, 301, 302, 303, 304, 305],
      "AcquisitionTime": ["163822.455000", "163823.945000", "163825.435000", "163826.925000", "163828.415000", "163829.905000", "163831.395000", "163832.885000", "163834.375000", "163835.865000", "163837.355000", "163838.845000", "163840.335000", "163841.825000", "163843.315000", "163844.805000", "163846.295000", "163847.785000", "163849.275000", "163850.765000", "163852.255000", "163853.745000", "163855.235000", "163856.725000", "163858.215000", "163859.705000", "163901.195000", "163902.685000", "163904.175000", "163905.665000", "163907.155000", "163908.645000", "163910.135000", "163911.625000", "163913.115000", "163914.605000", "163916.095000", "163917.585000", "163919.075000", "163920.565000", "163922.055000", "163923.545000", "163925.035000", "163926.525000", "163928.015000", "163929.505000", "163930.995000", "163932.485000", "163933.975000", "163935.465000", "163936.955000", "163938.445000", "163939.935000", "163941.425000", "163942.915000", "163944.405000", "163945.895000", "163947.385000", "163948.875000", "163950.365000", "163951.855000", "163953.345000", "163954.835000", "163956.325000", "163957.815000", "163959.305000", "164000.795000", "164002.285000", "164003.775000", "164005.265000", "164006.755000", "164008.245000", "164009.735000", "164011.225000", "164012.715000", "164014.205000", "164015.695000", "164017.185000", "164018.675000", "164020.165000", "164021.655000", "164023.145000", "164024.635000", "164026.125000", "164027.615000", "164029.105000", "164030.595000", "164032.085000", "164033.575000", "164035.065000", "164036.555000", "164038.045000", "164039.535000", "164041.025000", "164042.515000", "164044.005000", "164045.495000", "164046.985000", "164048.475000", "164049.965000", "164051.455000", "164052.945000", "164054.435000", "164055.925000", "164057.415000", "164058.905000", "164100.395000", "164101.885000", "164103.375000", "164104.865000", "164106.355000", "164107.845000", "164109.335000", "164110.825000", "164112.315000", "164113.805000", "164115.295000", "164116.785000", "164118.275000", "164119.765000", "164121.255000", "164122.745000", "164124.235000", "164125.725000", "164127.215000", "164128.705000", "164130.195000", "164131.685000", "164133.175000", "164134.665000", "164136.155000", "164137.645000", "164139.135000", "164140.625000", "164142.115000", "164143.605000", "164145.095000", "164146.585000", "164148.075000", "164149.565000", "164151.055000", "164152.545000", "164154.035000", "164155.525000", "164157.015000", "164158.505000", "164159.995000", "164201.485000", "164202.975000", "164204.465000", "164205.955000", "164207.445000", "164208.935000", "164210.425000", "164211.915000", "164213.405000", "164214.895000", "164216.385000", "164217.875000", "164219.365000", "164220.855000", "164222.345000", "164223.835000", "164225.325000", "164226.815000", "164228.305000", "164229.795000", "164231.285000", "164232.775000", "164234.265000", "164235.755000", "164237.245000", "164238.735000", "164240.225000", "164241.715000", "164243.205000", "164244.695000", "164246.185000", "164247.675000", "164249.165000", "164250.655000", "164252.145000", "164253.635000", "164255.125000", "164256.615000", "164258.105000", "164259.595000", "164301.085000", "164302.575000", "164304.065000", "164305.555000", "164307.045000", "164308.535000", "164310.025000", "164311.515000", "164313.005000", "164314.495000", "164315.985000", "164317.475000", "164318.965000", "164320.455000", "164321.945000", "164323.435000", "164324.925000", "164326.415000", "164327.905000", "164329.395000", "164330.885000", "164332.375000", "164333.865000", "164335.355000", "164336.845000", "164338.335000", "164339.825000", "164341.315000", "164342.805000", "164344.295000", "164345.785000", "164347.275000", "164348.765000", "164350.255000", "164351.745000", "164353.235000", "164354.725000", "164356.215000", "164357.705000", "164359.195000", "164400.685000", "164402.175000", "164403.665000", "164405.155000", "164406.645000", "164408.135000", "164409.625000", "164411.115000", "164412.605000", "164414.095000", "164415.585000", "164417.075000", "164418.565000", "164420.055000", "164421.545000", "164423.035000", "164424.525000", "164426.015000", "164427.505000", "164428.995000", "164430.485000", "164431.975000", "164433.465000", "164434.955000", "164436.445000", "164437.935000", "164439.425000", "164440.915000", "164442.405000", "164443.895000", "164445.385000", "164446.875000", "164448.365000", "164449.855000", "164451.345000", "164452.835000", "164454.325000", "164455.815000", "164457.305000", "164458.795000", "164500.285000", "164501.775000", "164503.265000", "164504.755000", "164506.245000", "164507.735000", "164509.225000", "164510.715000", "164512.205000", "164513.695000", "164515.185000", "164516.675000", "164518.165000", "164519.655000", "164521.145000", "164522.635000", "164524.125000", "164525.615000", "164527.105000", "164528.595000", "164530.085000", "164531.575000", "164533.065000", "164534.555000", "164536.045000", "164537.535000", "164539.025000", "164540.515000", "164542.005000", "164543.495000", "164544.985000", "164546.475000", "164547.965000", "164549.455000", "164550.945000", "164552.435000", "164553.925000", "164555.415000"],
      "ContentTime": ["163953.383000", "163953.391000", "163953.393000", "163953.403000", "163953.406000", "163953.408000", "163953.411000", "163953.414000", "163953.416000", "163953.419000", "163953.421000", "163953.424000", "163953.426000", "163953.429000", "163953.431000", "163953.434000", "163953.436000", "163953.439000", "163953.441000", "163953.444000", "163953.446000", "163953.449000", "163953.451000", "163953.454000", "163953.456000", "163953.459000", "163953.461000", "163953.464000", "163953.467000", "163953.469000", "163953.472000", "163953.474000", "163953.476000", "163953.479000", "163953.481000", "163953.484000", "163953.486000", "163953.489000", "164013.255000", "164013.258000", "164013.260000", "164013.263000", "164013.265000", "164013.268000", "164013.270000", "164013.273000", "164013.275000", "164013.278000", "164013.281000", "164013.283000", "164013.286000", "164013.288000", "164013.291000", "164013.293000", "164013.296000", "164013.298000", "164013.301000", "164013.303000", "164013.306000", "164033.237000", "164033.239000", "164033.242000", "164033.244000", "164033.247000", "164033.249000", "164033.252000", "164033.255000", "164033.257000", "164033.260000", "164033.262000", "164033.265000", "164033.267000", "164033.270000", "164033.272000", "164033.275000", "164033.277000", "164033.280000", "164033.282000", "164033.285000", "164053.253000", "164053.255000", "164053.258000", "164053.260000", "164053.263000", "164053.265000", "164053.268000", "164053.270000", "164053.273000", "164053.276000", "164053.278000", "164053.281000", "164053.283000", "164053.286000", "164053.288000", "164053.291000", "164053.293000", "164053.296000", "164053.298000", "164053.301000", "164133.285000", "164133.288000", "164133.291000", "164133.294000", "164133.297000", "164133.304000", "164133.307000", "164133.310000", "164133.313000", "164133.316000", "164133.319000", "164133.322000", "164133.325000", "164133.328000", "164133.331000", "164133.334000", "164133.336000", "164133.340000", "164133.343000", "164133.346000", "164133.349000", "164133.352000", "164133.355000", "164133.357000", "164133.361000", "164133.364000", "164133.367000", "164133.370000", "164213.274000", "164213.277000", "164213.280000", "164213.282000", "164213.286000", "164213.288000", "164213.291000", "164213.293000", "164213.296000", "164213.298000", "164213.301000", "164213.303000", "164213.306000", "164213.308000", "164213.311000", "164213.314000", "164213.316000", "164213.319000", "164213.321000", "164213.324000", "164213.326000", "164213.329000", "164213.331000", "164213.334000", "164213.336000", "164213.339000", "164213.341000", "164253.636000", "164253.639000", "164253.641000", "164253.644000", "164253.646000", "164253.649000", "164253.651000", "164253.654000", "164253.656000", "164253.659000", "164253.661000", "164253.664000", "164253.666000", "164253.669000", "164253.671000", "164253.674000", "164253.677000", "164253.679000", "164253.682000", "164253.684000", "164253.687000", "164253.689000", "164253.692000", "164253.694000", "164253.697000", "164253.699000", "164253.702000", "164313.217000", "164313.219000", "164313.222000", "164313.224000", "164313.227000", "164313.230000", "164313.232000", "164313.235000", "164313.238000", "164313.240000", "164313.243000", "164313.245000", "164313.248000", "164353.266000", "164353.269000", "164353.271000", "164353.274000", "164353.276000", "164353.279000", "164353.281000", "164353.284000", "164353.286000", "164353.289000", "164353.291000", "164353.294000", "164353.296000", "164353.299000", "164353.301000", "164353.304000", "164353.306000", "164353.309000", "164353.311000", "164353.314000", "164353.316000", "164353.319000", "164353.321000", "164353.324000", "164353.327000", "164353.329000", "164353.332000", "164433.273000", "164433.276000", "164433.279000", "164433.281000", "164433.284000", "164433.286000", "164433.289000", "164433.291000", "164433.294000", "164433.297000", "164433.299000", "164433.302000", "164433.304000", "164433.307000", "164433.309000", "164433.312000", "164433.314000", "164433.317000", "164433.319000", "164433.322000", "164433.324000", "164433.327000", "164433.330000", "164433.332000", "164433.335000", "164433.337000", "164433.340000", "164513.269000", "164513.272000", "164513.275000", "164513.277000", "164513.280000", "164513.282000", "164513.285000", "164513.287000", "164513.290000", "164513.293000", "164513.295000", "164513.298000", "164513.300000", "164513.303000", "164513.305000", "164513.308000", "164513.310000", "164513.313000", "164513.315000", "164513.318000", "164513.320000", "164513.323000", "164513.325000", "164513.328000", "164513.330000", "164513.333000", "164513.335000", "164553.295000", "164553.297000", "164553.300000", "164553.302000", "164553.305000", "164553.307000", "164553.310000", "164553.312000", "164553.315000", "164553.317000", "164553.320000", "164553.322000", "164553.325000", "164553.328000", "164553.330000", "164553.333000", "164553.335000", "164553.338000", "164553.340000", "164553.343000", "164553.345000", "164553.348000", "164553.350000", "164553.353000", "164553.355000", "164553.358000", "164558.462000", "164558.465000", "164558.468000", "164558.470000"],
      "InstanceCreationTime": ["163953.383000", "163953.391000", "163953.393000", "163953.403000", "163953.406000", "163953.408000", "163953.411000", "163953.414000", "163953.416000", "163953.419000", "163953.421000", "163953.424000", "163953.426000", "163953.429000", "163953.431000", "163953.434000", "163953.436000", "163953.439000", "163953.441000", "163953.444000", "163953.446000", "163953.449000", "163953.451000", "163953.454000", "163953.456000", "163953.459000", "163953.461000", "163953.464000", "163953.467000", "163953.469000", "163953.472000", "163953.474000", "163953.476000", "163953.479000", "163953.481000", "163953.484000", "163953.486000", "163953.489000", "164013.255000", "164013.258000", "164013.260000", "164013.263000", "164013.265000", "164013.268000", "164013.270000", "164013.273000", "164013.275000", "164013.278000", "164013.281000", "164013.283000", "164013.286000", "164013.288000", "164013.291000", "164013.293000", "164013.296000", "164013.298000", "164013.301000", "164013.303000", "164013.306000", "164033.237000", "164033.239000", "164033.242000", "164033.244000", "164033.247000", "164033.249000", "164033.252000", "164033.255000", "164033.257000", "164033.260000", "164033.262000", "164033.265000", "164033.267000", "164033.270000", "164033.272000", "164033.275000", "164033.277000", "164033.280000", "164033.282000", "164033.285000", "164053.253000", "164053.255000", "164053.258000", "164053.260000", "164053.263000", "164053.265000", "164053.268000", "164053.270000", "164053.273000", "164053.276000", "164053.278000", "164053.281000", "164053.283000", "164053.286000", "164053.288000", "164053.291000", "164053.293000", "164053.296000", "164053.298000", "164053.301000", "164133.285000", "164133.288000", "164133.291000", "164133.294000", "164133.297000", "164133.304000", "164133.307000", "164133.310000", "164133.313000", "164133.316000", "164133.319000", "164133.322000", "164133.325000", "164133.328000", "164133.331000", "164133.334000", "164133.336000", "164133.340000", "164133.343000", "164133.346000", "164133.349000", "164133.352000", "164133.355000", "164133.357000", "164133.361000", "164133.364000", "164133.367000", "164133.370000", "164213.274000", "164213.277000", "164213.280000", "164213.282000", "164213.286000", "164213.288000", "164213.291000", "164213.293000", "164213.296000", "164213.298000", "164213.301000", "164213.303000", "164213.306000", "164213.308000", "164213.311000", "164213.314000", "164213.316000", "164213.319000", "164213.321000", "164213.324000", "164213.326000", "164213.329000", "164213.331000", "164213.334000", "164213.336000", "164213.339000", "164213.341000", "164253.636000", "164253.639000", "164253.641000", "164253.644000", "164253.646000", "164253.649000", "164253.651000", "164253.654000", "164253.656000", "164253.659000", "164253.661000", "164253.664000", "164253.666000", "164253.669000", "164253.671000", "164253.674000", "164253.677000", "164253.679000", "164253.682000", "164253.684000", "164253.687000", "164253.689000", "164253.692000", "164253.694000", "164253.697000", "164253.699000", "164253.702000", "164313.217000", "164313.219000", "164313.222000", "164313.224000", "164313.227000", "164313.230000", "164313.232000", "164313.235000", "164313.238000", "164313.240000", "164313.243000", "164313.245000", "164313.248000", "164353.266000", "164353.269000", "164353.271000", "164353.274000", "164353.276000", "164353.279000", "164353.281000", "164353.284000", "164353.286000", "164353.289000", "164353.291000", "164353.294000", "164353.296000", "164353.299000", "164353.301000", "164353.304000", "164353.306000", "164353.309000", "164353.311000", "164353.314000", "164353.316000", "164353.319000", "164353.321000", "164353.324000", "164353.327000", "164353.329000", "164353.332000", "164433.273000", "164433.276000", "164433.279000", "164433.281000", "164433.284000", "164433.286000", "164433.289000", "164433.291000", "164433.294000", "164433.297000", "164433.299000", "164433.302000", "164433.304000", "164433.307000", "164433.309000", "164433.312000", "164433.314000", "164433.317000", "164433.319000", "164433.322000", "164433.324000", "164433.327000", "164433.330000", "164433.332000", "164433.335000", "164433.337000", "164433.340000", "164513.269000", "164513.272000", "164513.275000", "164513.277000", "164513.280000", "164513.282000", "164513.285000", "164513.287000", "164513.290000", "164513.293000", "164513.295000", "164513.298000", "164513.300000", "164513.303000", "164513.305000", "164513.308000", "164513.310000", "164513.313000", "164513.315000", "164513.318000", "164513.320000", "164513.323000", "164513.325000", "164513.328000", "164513.330000", "164513.333000", "164513.335000", "164553.295000", "164553.297000", "164553.300000", "164553.302000", "164553.305000", "164553.307000", "164553.310000", "164553.312000", "164553.315000", "164553.317000", "164553.320000", "164553.322000", "164553.325000", "164553.328000", "164553.330000", "164553.333000", "164553.335000", "164553.338000", "164553.340000", "164553.343000", "164553.345000", "164553.348000", "164553.350000", "164553.353000", "164553.355000", "164553.358000", "164558.462000", "164558.465000", "164558.468000", "164558.470000"],
      "InstanceNumber": [1, 2, 3, 4, 5, 6, 7, 8, 9, 10, 11, 12, 13, 14, 15, 16, 17, 18, 19, 20, 21, 22, 23, 24, 25, 26, 27, 28, 29, 30, 31, 32, 33, 34, 35, 36, 37, 38, 39, 40, 41, 42, 43, 44, 45, 46, 47, 48, 49, 50, 51, 52, 53, 54, 55, 56, 57, 58, 59, 60, 61, 62, 63, 64, 65, 66, 67, 68, 69, 70, 71, 72, 73, 74, 75, 76, 77, 78, 79, 80, 81, 82, 83, 84, 85, 86, 87, 88, 89, 90, 91, 92, 93, 94, 95, 96, 97, 98, 99, 100, 101, 102, 103, 104, 105, 106, 107, 108, 109, 110, 111, 112, 113, 114, 115, 116, 117, 118, 119, 120, 121, 122, 123, 124, 125, 126, 127, 128, 129, 130, 131, 132, 133, 134, 135, 136, 137, 138, 139, 140, 141, 142, 143, 144, 145, 146, 147, 148, 149, 150, 151, 152, 153, 154, 155, 156, 157, 158, 159, 160, 161, 162, 163, 164, 165, 166, 167, 168, 169, 170, 171, 172, 173, 174, 175, 176, 177, 178, 179, 180, 181, 182, 183, 184, 185, 186, 187, 188, 189, 190, 191, 192, 193, 194, 195, 196, 197, 198, 199, 200, 201, 202, 203, 204, 205, 206, 207, 208, 209, 210, 211, 212, 213, 214, 215, 216, 217, 218, 219, 220, 221, 222, 223, 224, 225, 226, 227, 228, 229, 230, 231, 232, 233, 234, 235, 236, 237, 238, 239, 240, 241, 242, 243, 244, 245, 246, 247, 248, 249, 250, 251, 252, 253, 254, 255, 256, 257, 258, 259, 260, 261, 262, 263, 264, 265, 266, 267, 268, 269, 270, 271, 272, 273, 274, 275, 276, 277, 278, 279, 280, 281, 282, 283, 284, 285, 286, 287, 288, 289, 290, 291, 292, 293, 294, 295, 296, 297, 298, 299, 300, 301, 302, 303, 304, 305],
      "WindowCenter": [4780.0, 4788.0, 4776.0, 4756.0, 4780.0, 4778.0, 4786.0, 4782.0, 4792.0, 4790.0, 4786.0, 4784.0, 4756.0, 4782.0, 4780.0, 4782.0, 4780.0, 4778.0, 4780.0, 4780.0, 4782.0, 4784.0, 4782.0, 4782.0, 4758.0, 4782.0, 4782.0, 4756.0, 4780.0, 4782.0, 4778.0, 4782.0, 4786.0, 4756.0, 4782.0, 4756.0, 4786.0, 4780.0, 4754.0, 4782.0, 4782.0, 4782.0, 4758.0, 4756.0, 4782.0, 4792.0, 4786.0, 4786.0, 4782.0, 4752.0, 4790.0, 4776.0, 4780.0, 4778.0, 4756.0, 4780.0, 4754.0, 4754.0, 4790.0, 4762.0, 4782.0, 4780.0, 4784.0, 4756.0, 4756.0, 4778.0, 4754.0, 4756.0, 4782.0, 4780.0, 4786.0, 4792.0, 4786.0, 4760.0, 4786.0, 4760.0, 4760.0, 4780.0, 4782.0, 4754.0, 4784.0, 4788.0, 4790.0, 4758.0, 4826.0, 4798.0, 4776.0, 4800.0, 4804.0, 4752.0, 4754.0, 4798.0, 4824.0, 4798.0, 4796.0, 4782.0, 4756.0, 4754.0, 4778.0, 4750.0, 4776.0, 4780.0, 4788.0, 4788.0, 4802.0, 4820.0, 4786.0, 4760.0, 4758.0, 4752.0, 4776.0, 4758.0, 4776.0, 4760.0, 4792.0, 4792.0, 4790.0, 4790.0, 4784.0, 4758.0, 4752.0, 4754.0, 4750.0, 4754.0, 4786.0, 4794.0, 4794.0, 4788.0, 4756.0, 4764.0, 4754.0, 4754.0, 4760.0, 4758.0, 4758.0, 4758.0, 4782.0, 4786.0, 4794.0, 4796.0, 4788.0, 4782.0, 4756.0, 4778.0, 4754.0, 4778.0, 4754.0, 4782.0, 4762.0, 4786.0, 4786.0, 4790.0, 4788.0, 4780.0, 4762.0, 4760.0, 4786.0, 4758.0, 4758.0, 4778.0, 4758.0, 4784.0, 4788.0, 4782.0, 4784.0, 4782.0, 4786.0, 4784.0, 4788.0, 4788.0, 4784.0, 4780.0, 4758.0, 4776.0, 4774.0, 4752.0, 4760.0, 4790.0, 4786.0, 4784.0, 4788.0, 4782.0, 4754.0, 4756.0, 4780.0, 4754.0, 4784.0, 4794.0, 4832.0, 4794.0, 4780.0, 4804.0, 4778.0, 4778.0, 4756.0, 4758.0, 4790.0, 4792.0, 4792.0, 4820.0, 4790.0, 4786.0, 4786.0, 4788.0, 4788.0, 4788.0, 4790.0, 4792.0, 4794.0, 4796.0, 4784.0, 4782.0, 4782.0, 4782.0, 4790.0, 4790.0, 4786.0, 4756.0, 4784.0, 4786.0, 4782.0, 4790.0, 4786.0, 4784.0, 4758.0, 4786.0, 4782.0, 4780.0, 4754.0, 4778.0, 4782.0, 4782.0, 4786.0, 4784.0, 4788.0, 4782.0, 4780.0, 4780.0, 4758.0, 4780.0, 4782.0, 4780.0, 4784.0, 4782.0, 4782.0, 4784.0, 4778.0, 4782.0, 4784.0, 4782.0, 4784.0, 4782.0, 4782.0, 4782.0, 4784.0, 4786.0, 4782.0, 4786.0, 4782.0, 4784.0, 4784.0, 4788.0, 4786.0, 4778.0, 4784.0, 4786.0, 4784.0, 4786.0, 4782.0, 4784.0, 4782.0, 4782.0, 4786.0, 4786.0, 4784.0, 4782.0, 4784.0, 4782.0, 4780.0, 4786.0, 4782.0, 4758.0, 4780.0, 4780.0, 4782.0, 4784.0, 4784.0, 4782.0, 4782.0, 4788.0, 4784.0, 4780.0, 4780.0, 4782.0, 4778.0, 4786.0, 4784.0, 4788.0, 4782.0, 4790.0, 4782.0, 4784.0, 4782.0, 4784.0, 4780.0],
      "WindowWidth": [18556.0, 18562.0, 18556.0, 18534.0, 18558.0, 18556.0, 18566.0, 18560.0, 18562.0, 18558.0, 18552.0, 18554.0, 18530.0, 18554.0, 18564.0, 18556.0, 18564.0, 18564.0, 18558.0, 18556.0, 18562.0, 18560.0, 18558.0, 18558.0, 18532.0, 18560.0, 18558.0, 18528.0, 18556.0, 18562.0, 18558.0, 18560.0, 18564.0, 18530.0, 18554.0, 18528.0, 18566.0, 18560.0, 18530.0, 18564.0, 18562.0, 18558.0, 18528.0, 18526.0, 18560.0, 18554.0, 18560.0, 18558.0, 18558.0, 18528.0, 18554.0, 18564.0, 18556.0, 18564.0, 18534.0, 18560.0, 18524.0, 18530.0, 18558.0, 18528.0, 18556.0, 18562.0, 18562.0, 18530.0, 18534.0, 18556.0, 18528.0, 18534.0, 18558.0, 18560.0, 18556.0, 18558.0, 18558.0, 18526.0, 18556.0, 18526.0, 18528.0, 18570.0, 18562.0, 18528.0, 18558.0, 18554.0, 18550.0, 18528.0, 18586.0, 18550.0, 18566.0, 18620.0, 18620.0, 18538.0, 18534.0, 18558.0, 18598.0, 18560.0, 18566.0, 18558.0, 18528.0, 18534.0, 18570.0, 18538.0, 18564.0, 18560.0, 18562.0, 18562.0, 18560.0, 18592.0, 18556.0, 18532.0, 18530.0, 18538.0, 18570.0, 18528.0, 18560.0, 18528.0, 18566.0, 18560.0, 18566.0, 18560.0, 18556.0, 18522.0, 18536.0, 18542.0, 18532.0, 18534.0, 18564.0, 18562.0, 18560.0, 18552.0, 18526.0, 18522.0, 18526.0, 18526.0, 18526.0, 18532.0, 18532.0, 18532.0, 18556.0, 18558.0, 18562.0, 18554.0, 18554.0, 18554.0, 18530.0, 18562.0, 18530.0, 18564.0, 18526.0, 18552.0, 18526.0, 18554.0, 18556.0, 18558.0, 18560.0, 18550.0, 18532.0, 18524.0, 18558.0, 18532.0, 18532.0, 18560.0, 18524.0, 18558.0, 18552.0, 18556.0, 18554.0, 18560.0, 18560.0, 18554.0, 18554.0, 18554.0, 18554.0, 18556.0, 18534.0, 18566.0, 18564.0, 18528.0, 18526.0, 18562.0, 18554.0, 18556.0, 18560.0, 18556.0, 18526.0, 18526.0, 18556.0, 18526.0, 18558.0, 18560.0, 18590.0, 18548.0, 18570.0, 18614.0, 18578.0, 18562.0, 18526.0, 18526.0, 18558.0, 18562.0, 18560.0, 18592.0, 18550.0, 18552.0, 18558.0, 18564.0, 18564.0, 18560.0, 18560.0, 18552.0, 18556.0, 18554.0, 18556.0, 18558.0, 18562.0, 18554.0, 18560.0, 18554.0, 18562.0, 18534.0, 18560.0, 18560.0, 18570.0, 18554.0, 18554.0, 18560.0, 18522.0, 18558.0, 18554.0, 18562.0, 18526.0, 18560.0, 18558.0, 18558.0, 18564.0, 18560.0, 18564.0, 18560.0, 18560.0, 18560.0, 18530.0, 18554.0, 18562.0, 18560.0, 18562.0, 18556.0, 18556.0, 18558.0, 18552.0, 18556.0, 18558.0, 18560.0, 18562.0, 18558.0, 18556.0, 18560.0, 18554.0, 18558.0, 18556.0, 18554.0, 18560.0, 18558.0, 18554.0, 18562.0, 18558.0, 18558.0, 18556.0, 18554.0, 18554.0, 18560.0, 18558.0, 18558.0, 18558.0, 18550.0, 18560.0, 18558.0, 18556.0, 18556.0, 18554.0, 18552.0, 18550.0, 18554.0, 18554.0, 18526.0, 18556.0, 18554.0, 18556.0, 18556.0, 18554.0, 18554.0, 18550.0, 18562.0, 18556.0, 18560.0, 18558.0, 18558.0, 18560.0, 18560.0, 18558.0, 18556.0, 18558.0, 18552.0, 18556.0, 18554.0, 18562.0, 18564.0, 18562.0]
    },
    "slices": {}
  }
}