{
  "AcquisitionMatrixPE": 104,
  "AcquisitionNumber": 1,
  "AcquisitionTime": "16:48:13.487500",
  "BandwidthPerPixelPhaseEncode": 17.17,
  "BaseResolution": 104,
  "BodyPartExamined": "BRAIN",
  "CoilCombinationMethod": "Sum of Squares",
  "ConsistencyInfo": "N4_VE11C_LATEST_20160120",
  "ConversionSoftware": "dcm2niix",
  "ConversionSoftwareVersion": "v1.0.20220505",
  "DerivedVendorReportedEchoSpacing": 0.000560011,
  "DeviceSerialNumber": "167006",
  "DwellTime": 2.1e-06,
  "EchoTime": 0.037,
  "EchoTime1": 0.037,
  "EchoTime2": 0.001,
  "EchoTrainLength": 104,
  "EffectiveEchoSpacing": 0.000560011,
  "FlipAngle": 52,
  "HeudiconvVersion": "0.5.3.post811+g6206e14",
  "ImageComments": "Unaliased MB4/PE3/LB",
  "ImageOrientationPatientDICOM": [0.998304, 0.0181039, 0.0553309, 0.0151598, 0.836791, -0.547312],
  "ImageOrientationText": "Tra>Cor(-33.2)>Sag(3.2)",
  "ImageType": [
    "ORIGINAL",
    "PRIMARY",
    "P",
    "MB",
    "ND",
    "MOSAIC",
    "PHASE"
],
  "ImagingFrequency": 123.26,
  "InPlanePhaseEncodingDirectionDICOM": "COL",
  "InstitutionAddress": "Chemin Queen-Mary 4565,Montreal,District,CA,H3W 1W5",
  "InstitutionName": "IUGM",
  "InstitutionalDepartmentName": "Department",
  "MRAcquisitionType": "2D",
  "MagneticFieldStrength": 3,
  "Manufacturer": "Siemens",
  "ManufacturersModelName": "Prisma_fit",
  "MatrixCoilMode": "SENSE",
  "Modality": "MR",
  "MultibandAccelerationFactor": 4,
  "PartialFourier": 1,
  "PatientPosition": "HFS",
  "PercentPhaseFOV": 100,
  "PercentSampling": 100,
  "PhaseEncodingDirection": "j",
  "PhaseEncodingSteps": 104,
  "PhaseResolution": 1,
  "PixelBandwidth": 2290,
  "ProcedureStepDescription": "games^mario3",
  "ProtocolName": "func_task-mario3_run-04",
  "PulseSequenceDetails": "%CustomerSeq%\\cmrr_mbep2d_bold",
  "ReceiveCoilActiveElements": "HC1-7;NC1,2",
  "ReceiveCoilName": "HeadNeck_64",
  "ReconMatrixPE": 104,
  "RepetitionTime": 1.49,
  "SAR": 0.0490342,
  "ScanOptions": "FS",
  "ScanningSequence": "EP",
  "SequenceName": "epfid2d1_104",
  "SequenceVariant": "SK\\SS",
  "SeriesDescription": "func_task-mario3_run-04",
  "SeriesNumber": 20,
  "ShimSetting": [616, -7188, -8874, 253, 13, -235, -26, 51],
  "SliceThickness": 2,
  "SliceTiming": [0, 0.7825, 0.0975, 0.8825, 0.195, 0.98, 0.2925, 1.0775, 0.3925, 1.175, 0.49, 1.2725, 0.5875, 1.3725, 0.685, 0, 0.7825, 0.0975, 0.8825, 0.195, 0.98, 0.2925, 1.0775, 0.3925, 1.175, 0.49, 1.2725, 0.5875, 1.3725, 0.685, 0, 0.7825, 0.0975, 0.8825, 0.195, 0.98, 0.2925, 1.0775, 0.3925, 1.175, 0.49, 1.2725, 0.5875, 1.3725, 0.685, 0, 0.7825, 0.0975, 0.8825, 0.195, 0.98, 0.2925, 1.0775, 0.3925, 1.175, 0.49, 1.2725, 0.5875, 1.3725, 0.685],
  "SoftwareVersions": "syngo MR E11",
  "SpacingBetweenSlices": 2,
  "StationName": "MRC35049",
  "TaskName": "mario3",
  "TotalReadoutTime": 0.0576811,
  "TxRefAmp": 261.813,
  "WipMemBlock": "647e3157-2266-481c-b005-93b8f0ab266e||Sequence: R017 ve11c/master r/75a17815+; Jun 28 2022 16:32:11 by eja",
  "dcmmeta_affine": [
    [-1.9966078996658325, 0.03031959757208824, 0.11241777241230011, 101.96884155273438],
    [-0.036207761615514755, 1.6735827922821045, -1.0944448709487915, -44.98036575317383],
    [0.11066178977489471, 1.0946238040924072, 1.6701953411102295, -101.68331146240234],
    [0.0, 0.0, 0.0, 1.0]
],
  "dcmmeta_reorient_transform": [
    [0.0, -1.0, 0.0, 103.0],
    [1.0, 0.0, 0.0, 0.0],
    [0.0, 0.0, 1.0, 0.0],
    [0.0, 0.0, 0.0, 1.0]
],
  "dcmmeta_shape": [104, 104, 60, 302],
  "dcmmeta_slice_dim": 2,
  "dcmmeta_version": 0.6,
  "global": {
    "const": {
      "AcquisitionMatrix": [104, 0, 0, 104],
      "AngioFlag": "N",
      "BitsAllocated": 16,
      "BitsStored": 16,
      "BodyPartExamined": "BRAIN",
      "Columns": 832,
      "EchoNumbers": 1,
      "EchoTime": 37.0,
      "EchoTrainLength": 104,
      "FlipAngle": 52.0,
      "HighBit": 15,
      "ImageOrientationPatient": [0.99830393243773, 0.01810388142486, 0.05533089513759, 0.01515979848011, 0.83679139524025, -0.5473119232777],
      "ImagePositionPatient": [-842.89335280159, -749.76242172956, 369.22513466305],
      "ImageType": [
        "ORIGINAL",
        "PRIMARY",
        "P",
        "MB",
        "ND",
        "MOSAIC"
],
      "ImagedNucleus": "1H",
      "ImagingFrequency": 123.260322,
      "InPlanePhaseEncodingDirection": "COL",
      "LargestImagePixelValue": 4095,
      "MRAcquisitionType": "2D",
      "MagneticFieldStrength": 3.0,
      "Manufacturer": "SIEMENS",
      "ManufacturerModelName": "Prisma_fit",
      "Modality": "MR",
      "NumberOfAverages": 1.0,
      "NumberOfPhaseEncodingSteps": 104,
      "PercentPhaseFieldOfView": 100.0,
      "PercentSampling": 100.0,
      "PerformedProcedureStepStartTime": "161411.318000",
      "PhotometricInterpretation": "MONOCHROME2",
      "PixelBandwidth": 2290.0,
      "PixelRepresentation": 0,
      "PixelSpacing": [2.0, 2.0],
      "ProtocolName": "func_task-mario3_run-04",
      "RepetitionTime": 1490.0,
      "RescaleIntercept": -4096.0,
      "RescaleSlope": 2.0,
      "RescaleType": "US",
      "Rows": 832,
      "SAR": 0.04903424455214,
      "SamplesPerPixel": 1,
      "ScanOptions": "FS",
      "ScanningSequence": "EP",
      "SequenceName": "epfid2d1_104",
      "SequenceVariant": [
        "SK",
        "SS"
],
      "SeriesDescription": "func_task-mario3_run-04",
      "SeriesNumber": 20,
      "SeriesTime": "164930.752000",
      "SliceLocation": -54.569675612204,
      "SliceThickness": 2.0,
      "SmallestImagePixelValue": 0,
      "SoftwareVersions": "syngo MR E11",
      "SpacingBetweenSlices": 1.999999987092,
      "SpecificCharacterSet": "ISO_IR 100",
      "StudyID": "1",
      "StudyTime": "161411.236000",
      "TransmitCoilName": "Body",
      "VariableFlipAngleFlag": "N",
      "WindowCenterWidthExplanation": "Algo1",
      "dBdt": 0.0},
    "slices": {}
  },
  "time": {
    "samples": {
      "AcquisitionNumber": [1, 2, 3, 4, 5, 6, 7, 8, 9, 10, 11, 12, 13, 14, 15, 16, 17, 18, 19, 20, 21, 22, 23, 24, 25, 26, 27, 28, 29, 30, 31, 32, 33, 34, 35, 36, 37, 38, 39, 40, 41, 42, 43, 44, 45, 46, 47, 48, 49, 50, 51, 52, 53, 54, 55, 56, 57, 58, 59, 60, 61, 62, 63, 64, 65, 66, 67, 68, 69, 70, 71, 72, 73, 74, 75, 76, 77, 78, 79, 80, 81, 82, 83, 84, 85, 86, 87, 88, 89, 90, 91, 92, 93, 94, 95, 96, 97, 98, 99, 100, 101, 102, 103, 104, 105, 106, 107, 108, 109, 110, 111, 112, 113, 114, 115, 116, 117, 118, 119, 120, 121, 122, 123, 124, 125, 126, 127, 128, 129, 130, 131, 132, 133, 134, 135, 136, 137, 138, 139, 140, 141, 142, 143, 144, 145, 146, 147, 148, 149, 150, 151, 152, 153, 154, 155, 156, 157, 158, 159, 160, 161, 162, 163, 164, 165, 166, 167, 168, 169, 170, 171, 172, 173, 174, 175, 176, 177, 178, 179, 180, 181, 182, 183, 184, 185, 186, 187, 188, 189, 190, 191, 192, 193, 194, 195, 196, 197, 198, 199, 200, 201, 202, 203, 204, 205, 206, 207, 208, 209, 210, 211, 212, 213, 214, 215, 216, 217, 218, 219, 220, 221, 222, 223, 224, 225, 226, 227, 228, 229, 230, 231, 232, 233, 234, 235, 236, 237, 238, 239, 240, 241, 242, 243, 244, 245, 246, 247, 248, 249, 250, 251, 252, 253, 254, 255, 256, 257, 258, 259, 260, 261, 262, 263, 264, 265, 266, 267, 268, 269, 270, 271, 272, 273, 274, 275, 276, 277, 278, 279, 280, 281, 282, 283, 284, 285, 286, 287, 288, 289, 290, 291, 292, 293, 294, 295, 296, 297, 298, 299, 300, 301, 302],
      "AcquisitionTime": ["164813.487500", "164814.977500", "164816.467500", "164817.957500", "164819.447500", "164820.937500", "164822.427500", "164823.917500", "164825.407500", "164826.897500", "164828.387500", "164829.877500", "164831.367500", "164832.857500", "164834.347500", "164835.837500", "164837.327500", "164838.817500", "164840.307500", "164841.797500", "164843.287500", "164844.777500", "164846.267500", "164847.757500", "164849.247500", "164850.737500", "164852.227500", "164853.717500", "164855.207500", "164856.697500", "164858.187500", "164859.677500", "164901.167500", "164902.657500", "164904.147500", "164905.637500", "164907.127500", "164908.617500", "164910.107500", "164911.597500", "164913.087500", "164914.577500", "164916.067500", "164917.557500", "164919.047500", "164920.537500", "164922.027500", "164923.517500", "164925.007500", "164926.497500", "164927.987500", "164929.477500", "164930.967500", "164932.457500", "164933.947500", "164935.437500", "164936.927500", "164938.417500", "164939.907500", "164941.397500", "164942.887500", "164944.377500", "164945.867500", "164947.357500", "164948.847500", "164950.337500", "164951.827500", "164953.317500", "164954.807500", "164956.297500", "164957.787500", "164959.277500", "165000.767500", "165002.257500", "165003.747500", "165005.237500", "165006.727500", "165008.217500", "165009.707500", "165011.197500", "165012.687500", "165014.177500", "165015.667500", "165017.157500", "165018.647500", "165020.137500", "165021.627500", "165023.117500", "165024.607500", "165026.097500", "165027.587500", "165029.077500", "165030.567500", "165032.057500", "165033.547500", "165035.037500", "165036.527500", "165038.017500", "165039.507500", "165040.997500", "165042.487500", "165043.977500", "165045.467500", "165046.957500", "165048.447500", "165049.937500", "165051.427500", "165052.917500", "165054.407500", "165055.897500", "165057.387500", "165058.877500", "165100.367500", "165101.857500", "165103.347500", "165104.837500", "165106.327500", "165107.817500", "165109.307500", "165110.797500", "165112.287500", "165113.777500", "165115.267500", "165116.757500", "165118.247500", "165119.737500", "165121.227500", "165122.717500", "165124.207500", "165125.697500", "165127.187500", "165128.677500", "165130.167500", "165131.657500", "165133.147500", "165134.637500", "165136.127500", "165137.617500", "165139.107500", "165140.597500", "165142.087500", "165143.577500", "165145.067500", "165146.557500", "165148.047500", "165149.537500", "165151.027500", "165152.517500", "165154.007500", "165155.497500", "165156.987500", "165158.477500", "165159.967500", "165201.457500", "165202.947500", "165204.437500", "165205.927500", "165207.417500", "165208.907500", "165210.397500", "165211.887500", "165213.377500", "165214.867500", "165216.357500", "165217.847500", "165219.337500", "165220.827500", "165222.317500", "165223.807500", "165225.297500", "165226.787500", "165228.277500", "165229.767500", "165231.257500", "165232.747500", "165234.237500", "165235.727500", "165237.217500", "165238.707500", "165240.197500", "165241.687500", "165243.177500", "165244.667500", "165246.157500", "165247.647500", "165249.137500", "165250.627500", "165252.117500", "165253.607500", "165255.097500", "165256.587500", "165258.077500", "165259.567500", "165301.057500", "165302.547500", "165304.037500", "165305.527500", "165307.017500", "165308.507500", "165309.997500", "165311.487500", "165312.977500", "165314.467500", "165315.957500", "165317.447500", "165318.937500", "165320.427500", "165321.917500", "165323.407500", "165324.897500", "165326.387500", "165327.877500", "165329.367500", "165330.857500", "165332.347500", "165333.837500", "165335.327500", "165336.817500", "165338.307500", "165339.797500", "165341.287500", "165342.777500", "165344.267500", "165345.757500", "165347.247500", "165348.737500", "165350.227500", "165351.717500", "165353.207500", "165354.697500", "165356.187500", "165357.677500", "165359.167500", "165400.657500", "165402.147500", "165403.637500", "165405.127500", "165406.617500", "165408.107500", "165409.597500", "165411.087500", "165412.577500", "165414.067500", "165415.557500", "165417.047500", "165418.537500", "165420.027500", "165421.517500", "165423.007500", "165424.497500", "165425.987500", "165427.477500", "165428.967500", "165430.457500", "165431.947500", "165433.437500", "165434.927500", "165436.417500", "165437.907500", "165439.397500", "165440.887500", "165442.377500", "165443.867500", "165445.357500", "165446.847500", "165448.337500", "165449.827500", "165451.317500", "165452.807500", "165454.297500", "165455.787500", "165457.277500", "165458.767500", "165500.257500", "165501.747500", "165503.237500", "165504.727500", "165506.217500", "165507.707500", "165509.197500", "165510.687500", "165512.177500", "165513.667500", "165515.157500", "165516.647500", "165518.137500", "165519.627500", "165521.117500", "165522.607500", "165524.097500", "165525.587500", "165527.077500", "165528.567500", "165530.057500", "165531.547500", "165533.037500", "165534.527500", "165536.017500", "165537.507500", "165538.997500", "165540.487500", "165541.977500"],
      "ContentTime": ["164930.754000", "164930.757000", "164930.759000", "164930.762000", "164930.764000", "164930.767000", "164930.769000", "164930.772000", "164930.774000", "164930.777000", "164930.779000", "164930.782000", "164930.784000", "164930.787000", "164930.790000", "164930.792000", "164930.795000", "164930.797000", "164930.800000", "164930.802000", "164930.805000", "164930.807000", "164930.810000", "164930.812000", "164930.815000", "164930.817000", "164950.689000", "164950.691000", "164950.694000", "164950.696000", "164950.704000", "164950.707000", "164950.709000", "164950.712000", "164950.714000", "164950.717000", "164950.719000", "164950.722000", "164950.724000", "164950.727000", "164950.729000", "164950.732000", "164950.734000", "164950.737000", "164950.739000", "164950.742000", "165010.694000", "165010.696000", "165010.699000", "165010.702000", "165010.704000", "165010.707000", "165010.709000", "165010.712000", "165010.714000", "165010.717000", "165010.719000", "165010.722000", "165010.724000", "165010.727000", "165010.729000", "165010.732000", "165010.734000", "165010.737000", "165010.739000", "165010.742000", "165030.709000", "165030.712000", "165030.715000", "165030.717000", "165030.728000", "165030.730000", "165030.733000", "165030.736000", "165030.738000", "165030.741000", "165030.743000", "165030.746000", "165030.748000", "165030.751000", "165030.753000", "165030.756000", "165030.758000", "165030.761000", "165030.763000", "165030.766000", "165030.768000", "165110.735000", "165110.738000", "165110.741000", "165110.743000", "165110.746000", "165110.748000", "165110.751000", "165110.753000", "165110.756000", "165110.758000", "165110.761000", "165110.763000", "165110.766000", "165110.768000", "165110.771000", "165110.773000", "165110.776000", "165110.778000", "165110.781000", "165110.783000", "165110.786000", "165110.789000", "165110.791000", "165110.794000", "165110.796000", "165110.799000", "165110.801000", "165110.804000", "165110.806000", "165110.809000", "165110.811000", "165150.743000", "165150.745000", "165150.748000", "165150.751000", "165150.753000", "165150.756000", "165150.758000", "165150.761000", "165150.763000", "165150.766000", "165150.768000", "165150.771000", "165150.773000", "165150.776000", "165150.778000", "165150.781000", "165150.803000", "165150.806000", "165150.813000", "165150.815000", "165150.818000", "165150.820000", "165150.830000", "165150.832000", "165150.835000", "165150.838000", "165150.840000", "165230.727000", "165230.730000", "165230.732000", "165230.735000", "165230.738000", "165230.743000", "165230.745000", "165230.748000", "165230.750000", "165230.753000", "165230.756000", "165230.758000", "165230.761000", "165230.763000", "165230.766000", "165230.768000", "165230.771000", "165230.774000", "165230.776000", "165230.779000", "165230.781000", "165230.846000", "165230.848000", "165230.851000", "165230.853000", "165230.856000", "165310.733000", "165310.736000", "165310.738000", "165310.741000", "165310.743000", "165310.746000", "165310.749000", "165310.752000", "165310.754000", "165310.757000", "165310.759000", "165310.762000", "165310.765000", "165310.767000", "165310.770000", "165310.772000", "165310.775000", "165310.778000", "165310.781000", "165310.783000", "165310.786000", "165310.789000", "165310.791000", "165310.794000", "165310.796000", "165310.799000", "165310.801000", "165350.719000", "165350.722000", "165350.730000", "165350.733000", "165350.736000", "165350.738000", "165350.741000", "165350.743000", "165350.746000", "165350.748000", "165350.751000", "165350.753000", "165350.756000", "165350.759000", "165350.761000", "165350.764000", "165350.766000", "165350.769000", "165350.771000", "165350.774000", "165350.776000", "165350.779000", "165350.781000", "165350.784000", "165350.787000", "165350.789000", "165350.792000", "165430.740000", "165430.743000", "165430.752000", "165430.755000", "165430.757000", "165430.760000", "165430.762000", "165430.765000", "165430.768000", "165430.770000", "165430.773000", "165430.776000", "165430.778000", "165430.781000", "165430.783000", "165430.786000", "165430.788000", "165430.791000", "165430.794000", "165430.796000", "165430.799000", "165430.801000", "165430.804000", "165430.806000", "165430.809000", "165430.811000", "165430.814000", "165510.717000", "165510.720000", "165510.723000", "165510.725000", "165510.728000", "165510.730000", "165510.733000", "165510.736000", "165510.738000", "165510.741000", "165510.743000", "165510.746000", "165510.748000", "165510.751000", "165510.754000", "165510.756000", "165510.759000", "165510.761000", "165510.764000", "165510.766000", "165510.769000", "165510.772000", "165510.774000", "165510.777000", "165510.779000", "165510.782000", "165510.785000", "165544.799000", "165544.802000", "165544.805000", "165544.807000", "165544.810000", "165544.813000", "165544.815000", "165544.818000", "165544.820000", "165544.823000", "165544.825000", "165544.828000", "165544.831000", "165544.833000", "165544.836000", "165544.838000", "165544.841000", "165544.844000", "165544.846000", "165544.849000", "165544.851000", "165544.854000", "165544.856000"],
      "InstanceCreationTime": ["164930.754000", "164930.757000", "164930.759000", "164930.762000", "164930.764000", "164930.767000", "164930.769000", "164930.772000", "164930.774000", "164930.777000", "164930.779000", "164930.782000", "164930.784000", "164930.787000", "164930.790000", "164930.792000", "164930.795000", "164930.797000", "164930.800000", "164930.802000", "164930.805000", "164930.807000", "164930.810000", "164930.812000", "164930.815000", "164930.817000", "164950.689000", "164950.691000", "164950.694000", "164950.696000", "164950.704000", "164950.707000", "164950.709000", "164950.712000", "164950.714000", "164950.717000", "164950.719000", "164950.722000", "164950.724000", "164950.727000", "164950.729000", "164950.732000", "164950.734000", "164950.737000", "164950.739000", "164950.742000", "165010.694000", "165010.696000", "165010.699000", "165010.702000", "165010.704000", "165010.707000", "165010.709000", "165010.712000", "165010.714000", "165010.717000", "165010.719000", "165010.722000", "165010.724000", "165010.727000", "165010.729000", "165010.732000", "165010.734000", "165010.737000", "165010.739000", "165010.742000", "165030.709000", "165030.712000", "165030.715000", "165030.717000", "165030.728000", "165030.730000", "165030.733000", "165030.736000", "165030.738000", "165030.741000", "165030.743000", "165030.746000", "165030.748000", "165030.751000", "165030.753000", "165030.756000", "165030.758000", "165030.761000", "165030.763000", "165030.766000", "165030.768000", "165110.735000", "165110.738000", "165110.741000", "165110.743000", "165110.746000", "165110.748000", "165110.751000", "165110.753000", "165110.756000", "165110.758000", "165110.761000", "165110.763000", "165110.766000", "165110.768000", "165110.771000", "165110.773000", "165110.776000", "165110.778000", "165110.781000", "165110.783000", "165110.786000", "165110.789000", "165110.791000", "165110.794000", "165110.796000", "165110.799000", "165110.801000", "165110.804000", "165110.806000", "165110.809000", "165110.811000", "165150.743000", "165150.745000", "165150.748000", "165150.751000", "165150.753000", "165150.756000", "165150.758000", "165150.761000", "165150.763000", "165150.766000", "165150.768000", "165150.771000", "165150.773000", "165150.776000", "165150.778000", "165150.781000", "165150.803000", "165150.806000", "165150.813000", "165150.815000", "165150.818000", "165150.820000", "165150.830000", "165150.832000", "165150.835000", "165150.838000", "165150.840000", "165230.727000", "165230.730000", "165230.732000", "165230.735000", "165230.738000", "165230.743000", "165230.745000", "165230.748000", "165230.750000", "165230.753000", "165230.756000", "165230.758000", "165230.761000", "165230.763000", "165230.766000", "165230.768000", "165230.771000", "165230.774000", "165230.776000", "165230.779000", "165230.781000", "165230.846000", "165230.848000", "165230.851000", "165230.853000", "165230.856000", "165310.733000", "165310.736000", "165310.738000", "165310.741000", "165310.743000", "165310.746000", "165310.749000", "165310.752000", "165310.754000", "165310.757000", "165310.759000", "165310.762000", "165310.765000", "165310.767000", "165310.770000", "165310.772000", "165310.775000", "165310.778000", "165310.781000", "165310.783000", "165310.786000", "165310.789000", "165310.791000", "165310.794000", "165310.796000", "165310.799000", "165310.801000", "165350.719000", "165350.722000", "165350.730000", "165350.733000", "165350.736000", "165350.738000", "165350.741000", "165350.743000", "165350.746000", "165350.748000", "165350.751000", "165350.753000", "165350.756000", "165350.759000", "165350.761000", "165350.764000", "165350.766000", "165350.769000", "165350.771000", "165350.774000", "165350.776000", "165350.779000", "165350.781000", "165350.784000", "165350.787000", "165350.789000", "165350.792000", "165430.740000", "165430.743000", "165430.752000", "165430.755000", "165430.757000", "165430.760000", "165430.762000", "165430.765000", "165430.768000", "165430.770000", "165430.773000", "165430.776000", "165430.778000", "165430.781000", "165430.783000", "165430.786000", "165430.788000", "165430.791000", "165430.794000", "165430.796000", "165430.799000", "165430.801000", "165430.804000", "165430.806000", "165430.809000", "165430.811000", "165430.814000", "165510.717000", "165510.720000", "165510.723000", "165510.725000", "165510.728000", "165510.730000", "165510.733000", "165510.736000", "165510.738000", "165510.741000", "165510.743000", "165510.746000", "165510.748000", "165510.751000", "165510.754000", "165510.756000", "165510.759000", "165510.761000", "165510.764000", "165510.766000", "165510.769000", "165510.772000", "165510.774000", "165510.777000", "165510.779000", "165510.782000", "165510.785000", "165544.799000", "165544.802000", "165544.805000", "165544.807000", "165544.810000", "165544.813000", "165544.815000", "165544.818000", "165544.820000", "165544.823000", "165544.825000", "165544.828000", "165544.831000", "165544.833000", "165544.836000", "165544.838000", "165544.841000", "165544.844000", "165544.846000", "165544.849000", "165544.851000", "165544.854000", "165544.856000"],
      "InstanceNumber": [1, 2, 3, 4, 5, 6, 7, 8, 9, 10, 11, 12, 13, 14, 15, 16, 17, 18, 19, 20, 21, 22, 23, 24, 25, 26, 27, 28, 29, 30, 31, 32, 33, 34, 35, 36, 37, 38, 39, 40, 41, 42, 43, 44, 45, 46, 47, 48, 49, 50, 51, 52, 53, 54, 55, 56, 57, 58, 59, 60, 61, 62, 63, 64, 65, 66, 67, 68, 69, 70, 71, 72, 73, 74, 75, 76, 77, 78, 79, 80, 81, 82, 83, 84, 85, 86, 87, 88, 89, 90, 91, 92, 93, 94, 95, 96, 97, 98, 99, 100, 101, 102, 103, 104, 105, 106, 107, 108, 109, 110, 111, 112, 113, 114, 115, 116, 117, 118, 119, 120, 121, 122, 123, 124, 125, 126, 127, 128, 129, 130, 131, 132, 133, 134, 135, 136, 137, 138, 139, 140, 141, 142, 143, 144, 145, 146, 147, 148, 149, 150, 151, 152, 153, 154, 155, 156, 157, 158, 159, 160, 161, 162, 163, 164, 165, 166, 167, 168, 169, 170, 171, 172, 173, 174, 175, 176, 177, 178, 179, 180, 181, 182, 183, 184, 185, 186, 187, 188, 189, 190, 191, 192, 193, 194, 195, 196, 197, 198, 199, 200, 201, 202, 203, 204, 205, 206, 207, 208, 209, 210, 211, 212, 213, 214, 215, 216, 217, 218, 219, 220, 221, 222, 223, 224, 225, 226, 227, 228, 229, 230, 231, 232, 233, 234, 235, 236, 237, 238, 239, 240, 241, 242, 243, 244, 245, 246, 247, 248, 249, 250, 251, 252, 253, 254, 255, 256, 257, 258, 259, 260, 261, 262, 263, 264, 265, 266, 267, 268, 269, 270, 271, 272, 273, 274, 275, 276, 277, 278, 279, 280, 281, 282, 283, 284, 285, 286, 287, 288, 289, 290, 291, 292, 293, 294, 295, 296, 297, 298, 299, 300, 301, 302],
      "WindowCenter": [4786.0, 4808.0, 4806.0, 4782.0, 4782.0, 4784.0, 4790.0, 4784.0, 4784.0, 4786.0, 4806.0, 4808.0, 4808.0, 4784.0, 4784.0, 4794.0, 4794.0, 4818.0, 4822.0, 4812.0, 4810.0, 4810.0, 4832.0, 4810.0, 4780.0, 4784.0, 4786.0, 4792.0, 4792.0, 4784.0, 4792.0, 4808.0, 4810.0, 4810.0, 4812.0, 4808.0, 4804.0, 4782.0, 4784.0, 4782.0, 4784.0, 4782.0, 4784.0, 4804.0, 4806.0, 4806.0, 4806.0, 4792.0, 4792.0, 4780.0, 4808.0, 4782.0, 4804.0, 4806.0, 4780.0, 4804.0, 4774.0, 4780.0, 4780.0, 4782.0, 4778.0, 4780.0, 4788.0, 4788.0, 4780.0, 4780.0, 4804.0, 4808.0, 4782.0, 4784.0, 4790.0, 4788.0, 4784.0, 4784.0, 4780.0, 4784.0, 4782.0, 4804.0, 4808.0, 4780.0, 4780.0, 4778.0, 4782.0, 4782.0, 4778.0, 4780.0, 4782.0, 4784.0, 4780.0, 4782.0, 4802.0, 4780.0, 4790.0, 4778.0, 4782.0, 4786.0, 4808.0, 4784.0, 4780.0, 4784.0, 4778.0, 4782.0, 4778.0, 4786.0, 4786.0, 4790.0, 4786.0, 4812.0, 4810.0, 4808.0, 4804.0, 4780.0, 4780.0, 4778.0, 4778.0, 4780.0, 4780.0, 4776.0, 4780.0, 4788.0, 4780.0, 4782.0, 4804.0, 4780.0, 4780.0, 4776.0, 4780.0, 4780.0, 4778.0, 4778.0, 4776.0, 4778.0, 4782.0, 4780.0, 4776.0, 4778.0, 4780.0, 4780.0, 4778.0, 4774.0, 4776.0, 4778.0, 4778.0, 4778.0, 4778.0, 4780.0, 4780.0, 4804.0, 4780.0, 4758.0, 4774.0, 4782.0, 4780.0, 4778.0, 4778.0, 4780.0, 4782.0, 4802.0, 4778.0, 4778.0, 4776.0, 4778.0, 4784.0, 4786.0, 4782.0, 4778.0, 4778.0, 4780.0, 4784.0, 4782.0, 4804.0, 4778.0, 4780.0, 4780.0, 4782.0, 4786.0, 4788.0, 4784.0, 4812.0, 4786.0, 4788.0, 4784.0, 4788.0, 4802.0, 4784.0, 4784.0, 4780.0, 4778.0, 4782.0, 4782.0, 4778.0, 4782.0, 4784.0, 4782.0, 4780.0, 4782.0, 4782.0, 4782.0, 4780.0, 4778.0, 4786.0, 4780.0, 4784.0, 4786.0, 4802.0, 4778.0, 4808.0, 4784.0, 4778.0, 4780.0, 4780.0, 4780.0, 4776.0, 4780.0, 4778.0, 4786.0, 4784.0, 4794.0, 4792.0, 4814.0, 4810.0, 4810.0, 4808.0, 4806.0, 4780.0, 4778.0, 4784.0, 4780.0, 4780.0, 4780.0, 4782.0, 4778.0, 4784.0, 4788.0, 4788.0, 4786.0, 4788.0, 4810.0, 4806.0, 4808.0, 4778.0, 4784.0, 4778.0, 4778.0, 4778.0, 4782.0, 4786.0, 4782.0, 4780.0, 4806.0, 4802.0, 4780.0, 4778.0, 4782.0, 4778.0, 4778.0, 4780.0, 4784.0, 4782.0, 4804.0, 4804.0, 4802.0, 4778.0, 4778.0, 4784.0, 4786.0, 4790.0, 4788.0, 4812.0, 4814.0, 4814.0, 4812.0, 4792.0, 4786.0, 4784.0, 4784.0, 4784.0, 4786.0, 4786.0, 4788.0, 4810.0, 4810.0, 4784.0, 4792.0, 4788.0, 4786.0, 4792.0, 4796.0, 4792.0, 4784.0, 4810.0, 4808.0, 4804.0, 4780.0, 4778.0, 4784.0, 4756.0, 4782.0, 4780.0, 4778.0, 4782.0, 4782.0],
      "WindowWidth": [18578.0, 18614.0, 18612.0, 18572.0, 18578.0, 18572.0, 18574.0, 18560.0, 18576.0, 18578.0, 18612.0, 18604.0, 18620.0, 18576.0, 18578.0, 18558.0, 18560.0, 18596.0, 18600.0, 18604.0, 18620.0, 18624.0, 18652.0, 18618.0, 18584.0, 18568.0, 18562.0, 18556.0, 18554.0, 18572.0, 18568.0, 18606.0, 18624.0, 18622.0, 18624.0, 18620.0, 18608.0, 18564.0, 18564.0, 18558.0, 18568.0, 18572.0, 18572.0, 18616.0, 18616.0, 18610.0, 18616.0, 18556.0, 18564.0, 18578.0, 18614.0, 18578.0, 18610.0, 18622.0, 18576.0, 18614.0, 18568.0, 18570.0, 18570.0, 18568.0, 18560.0, 18566.0, 18564.0, 18568.0, 18578.0, 18576.0, 18616.0, 18622.0, 18582.0, 18576.0, 18570.0, 18566.0, 18574.0, 18578.0, 18576.0, 18574.0, 18576.0, 18616.0, 18612.0, 18576.0, 18578.0, 18568.0, 18574.0, 18574.0, 18568.0, 18576.0, 18570.0, 18580.0, 18578.0, 18578.0, 18612.0, 18574.0, 18568.0, 18572.0, 18584.0, 18580.0, 18616.0, 18574.0, 18574.0, 18582.0, 18566.0, 18576.0, 18574.0, 18558.0, 18564.0, 18570.0, 18570.0, 18606.0, 18628.0, 18622.0, 18616.0, 18582.0, 18574.0, 18564.0, 18562.0, 18562.0, 18568.0, 18570.0, 18570.0, 18576.0, 18584.0, 18582.0, 18616.0, 18578.0, 18574.0, 18568.0, 18570.0, 18572.0, 18570.0, 18574.0, 18572.0, 18576.0, 18576.0, 18574.0, 18574.0, 18576.0, 18580.0, 18578.0, 18572.0, 18570.0, 18572.0, 18564.0, 18570.0, 18572.0, 18574.0, 18582.0, 18576.0, 18616.0, 18576.0, 18534.0, 18568.0, 18564.0, 18582.0, 18566.0, 18576.0, 18580.0, 18580.0, 18610.0, 18572.0, 18576.0, 18570.0, 18564.0, 18562.0, 18564.0, 18576.0, 18582.0, 18574.0, 18580.0, 18566.0, 18578.0, 18614.0, 18574.0, 18572.0, 18566.0, 18554.0, 18552.0, 18566.0, 18568.0, 18614.0, 18580.0, 18586.0, 18580.0, 18578.0, 18614.0, 18564.0, 18570.0, 18576.0, 18574.0, 18576.0, 18584.0, 18574.0, 18572.0, 18574.0, 18574.0, 18578.0, 18580.0, 18578.0, 18570.0, 18570.0, 18570.0, 18560.0, 18574.0, 18562.0, 18574.0, 18610.0, 18568.0, 18606.0, 18566.0, 18574.0, 18588.0, 18570.0, 18578.0, 18574.0, 18576.0, 18570.0, 18564.0, 18552.0, 18564.0, 18568.0, 18606.0, 18606.0, 18610.0, 18610.0, 18620.0, 18574.0, 18574.0, 18564.0, 18566.0, 18570.0, 18572.0, 18568.0, 18580.0, 18566.0, 18566.0, 18568.0, 18570.0, 18574.0, 18612.0, 18622.0, 18618.0, 18578.0, 18572.0, 18574.0, 18570.0, 18566.0, 18566.0, 18564.0, 18570.0, 18574.0, 18616.0, 18612.0, 18582.0, 18582.0, 18560.0, 18566.0, 18566.0, 18562.0, 18580.0, 18584.0, 18614.0, 18616.0, 18610.0, 18564.0, 18568.0, 18562.0, 18560.0, 18568.0, 18572.0, 18608.0, 18612.0, 18618.0, 18608.0, 18578.0, 18572.0, 18566.0, 18566.0, 18560.0, 18556.0, 18562.0, 18574.0, 18606.0, 18620.0, 18574.0, 18574.0, 18572.0, 18564.0, 18564.0, 18570.0, 18564.0, 18566.0, 18622.0, 18614.0, 18612.0, 18576.0, 18572.0, 18564.0, 18532.0, 18564.0, 18572.0, 18568.0, 18578.0, 18576.0]
    },
    "slices": {}
  }
}