{
  "AcquisitionMatrixPE": 104,
  "AcquisitionNumber": 1,
  "AcquisitionTime": "16:17:21.652500",
  "BandwidthPerPixelPhaseEncode": 17.17,
  "BaseResolution": 104,
  "BodyPartExamined": "BRAIN",
  "CoilCombinationMethod": "Sum of Squares",
  "ConsistencyInfo": "N4_VE11C_LATEST_20160120",
  "ConversionSoftware": "dcm2niix",
  "ConversionSoftwareVersion": "v1.0.20220505",
  "DerivedVendorReportedEchoSpacing": 0.000560011,
  "DeviceSerialNumber": "167006",
  "DwellTime": 2.1e-06,
  "EchoTime": 0.037,
  "EchoTime1": 0.037,
  "EchoTime2": 0.001,
  "EchoTrainLength": 104,
  "EffectiveEchoSpacing": 0.000560011,
  "FlipAngle": 52,
  "HeudiconvVersion": "0.5.3.post811+g6206e14",
  "ImageComments": "Unaliased MB4/PE3/LB",
  "ImageOrientationPatientDICOM": [0.998304, 0.0181039, 0.0553309, 0.0151598, 0.836791, -0.547312],
  "ImageOrientationText": "Tra>Cor(-33.2)>Sag(3.2)",
  "ImageType": [
    "ORIGINAL",
    "PRIMARY",
    "P",
    "MB",
    "ND",
    "MOSAIC",
    "PHASE"
],
  "ImagingFrequency": 123.26,
  "InPlanePhaseEncodingDirectionDICOM": "COL",
  "InstitutionAddress": "Chemin Queen-Mary 4565,Montreal,District,CA,H3W 1W5",
  "InstitutionName": "IUGM",
  "InstitutionalDepartmentName": "Department",
  "MRAcquisitionType": "2D",
  "MagneticFieldStrength": 3,
  "Manufacturer": "Siemens",
  "ManufacturersModelName": "Prisma_fit",
  "MatrixCoilMode": "SENSE",
  "Modality": "MR",
  "MultibandAccelerationFactor": 4,
  "PartialFourier": 1,
  "PatientPosition": "HFS",
  "PercentPhaseFOV": 100,
  "PercentSampling": 100,
  "PhaseEncodingDirection": "j",
  "PhaseEncodingSteps": 104,
  "PhaseResolution": 1,
  "PixelBandwidth": 2290,
  "ProcedureStepDescription": "games^mario3",
  "ProtocolName": "func_task-mario3_run-01",
  "PulseSequenceDetails": "%CustomerSeq%\\cmrr_mbep2d_bold",
  "ReceiveCoilActiveElements": "HC1-7;NC1,2",
  "ReceiveCoilName": "HeadNeck_64",
  "ReconMatrixPE": 104,
  "RepetitionTime": 1.49,
  "SAR": 0.0490342,
  "ScanOptions": "FS",
  "ScanningSequence": "EP",
  "SequenceName": "epfid2d1_104",
  "SequenceVariant": "SK\\SS",
  "SeriesDescription": "func_task-mario3_run-01",
  "SeriesNumber": 11,
  "ShimSetting": [616, -7188, -8874, 253, 13, -235, -26, 51],
  "SliceThickness": 2,
  "SliceTiming": [0, 0.785, 0.1, 0.8825, 0.1975, 0.98, 0.295, 1.08, 0.3925, 1.1775, 0.49, 1.275, 0.59, 1.3725, 0.6875, 0, 0.785, 0.1, 0.8825, 0.1975, 0.98, 0.295, 1.08, 0.3925, 1.1775, 0.49, 1.275, 0.59, 1.3725, 0.6875, 0, 0.785, 0.1, 0.8825, 0.1975, 0.98, 0.295, 1.08, 0.3925, 1.1775, 0.49, 1.275, 0.59, 1.3725, 0.6875, 0, 0.785, 0.1, 0.8825, 0.1975, 0.98, 0.295, 1.08, 0.3925, 1.1775, 0.49, 1.275, 0.59, 1.3725, 0.6875],
  "SoftwareVersions": "syngo MR E11",
  "SpacingBetweenSlices": 2,
  "StationName": "MRC35049",
  "TaskName": "mario3",
  "TotalReadoutTime": 0.0576811,
  "TxRefAmp": 261.813,
  "WipMemBlock": "14685f3e-eb33-4847-bc6e-5c87dc053d44||Sequence: R017 ve11c/master r/75a17815+; Jun 28 2022 16:32:11 by eja",
  "dcmmeta_affine": [
    [-1.9966078996658325, 0.03031959757208824, 0.11241777241230011, 101.96884155273438],
    [-0.036207761615514755, 1.6735827922821045, -1.0944448709487915, -44.98036575317383],
    [0.11066178977489471, 1.0946238040924072, 1.6701953411102295, -101.68331146240234],
    [0.0, 0.0, 0.0, 1.0]
],
  "dcmmeta_reorient_transform": [
    [0.0, -1.0, 0.0, 103.0],
    [1.0, 0.0, 0.0, 0.0],
    [0.0, 0.0, 1.0, 0.0],
    [0.0, 0.0, 0.0, 1.0]
],
  "dcmmeta_shape": [104, 104, 60, 336],
  "dcmmeta_slice_dim": 2,
  "dcmmeta_version": 0.6,
  "global": {
    "const": {
      "AcquisitionMatrix": [104, 0, 0, 104],
      "AngioFlag": "N",
      "BitsAllocated": 16,
      "BitsStored": 16,
      "BodyPartExamined": "BRAIN",
      "Columns": 832,
      "EchoNumbers": 1,
      "EchoTime": 37.0,
      "EchoTrainLength": 104,
      "FlipAngle": 52.0,
      "HighBit": 15,
      "ImageOrientationPatient": [0.99830393243773, 0.01810388142486, 0.05533089513759, 0.01515979848011, 0.83679139524025, -0.5473119232777],
      "ImagePositionPatient": [-842.89335280159, -749.76242172956, 369.22513466305],
      "ImageType": [
        "ORIGINAL",
        "PRIMARY",
        "P",
        "MB",
        "ND",
        "MOSAIC"
],
      "ImagedNucleus": "1H",
      "ImagingFrequency": 123.260308,
      "InPlanePhaseEncodingDirection": "COL",
      "LargestImagePixelValue": 4095,
      "MRAcquisitionType": "2D",
      "MagneticFieldStrength": 3.0,
      "Manufacturer": "SIEMENS",
      "ManufacturerModelName": "Prisma_fit",
      "Modality": "MR",
      "NumberOfAverages": 1.0,
      "NumberOfPhaseEncodingSteps": 104,
      "PercentPhaseFieldOfView": 100.0,
      "PercentSampling": 100.0,
      "PerformedProcedureStepStartTime": "161411.318000",
      "PhotometricInterpretation": "MONOCHROME2",
      "PixelBandwidth": 2290.0,
      "PixelRepresentation": 0,
      "PixelSpacing": [2.0, 2.0],
      "ProtocolName": "func_task-mario3_run-01",
      "RepetitionTime": 1490.0,
      "RescaleIntercept": -4096.0,
      "RescaleSlope": 2.0,
      "RescaleType": "US",
      "Rows": 832,
      "SAR": 0.04903424455214,
      "SamplesPerPixel": 1,
      "ScanOptions": "FS",
      "ScanningSequence": "EP",
      "SequenceName": "epfid2d1_104",
      "SequenceVariant": [
        "SK",
        "SS"
],
      "SeriesDescription": "func_task-mario3_run-01",
      "SeriesNumber": 11,
      "SeriesTime": "161830.751000",
      "SliceLocation": -54.569675612204,
      "SliceThickness": 2.0,
      "SmallestImagePixelValue": 0,
      "SoftwareVersions": "syngo MR E11",
      "SpacingBetweenSlices": 1.999999987092,
      "SpecificCharacterSet": "ISO_IR 100",
      "StudyID": "1",
      "StudyTime": "161411.236000",
      "TransmitCoilName": "Body",
      "VariableFlipAngleFlag": "N",
      "WindowCenterWidthExplanation": "Algo1",
      "dBdt": 0.0},
    "slices": {}
  },
  "time": {
    "samples": {
      "AcquisitionNumber": [1, 2, 3, 4, 5, 6, 7, 8, 9, 10, 11, 12, 13, 14, 15, 16, 17, 18, 19, 20, 21, 22, 23, 24, 25, 26, 27, 28, 29, 30, 31, 32, 33, 34, 35, 36, 37, 38, 39, 40, 41, 42, 43, 44, 45, 46, 47, 48, 49, 50, 51, 52, 53, 54, 55, 56, 57, 58, 59, 60, 61, 62, 63, 64, 65, 66, 67, 68, 69, 70, 71, 72, 73, 74, 75, 76, 77, 78, 79, 80, 81, 82, 83, 84, 85, 86, 87, 88, 89, 90, 91, 92, 93, 94, 95, 96, 97, 98, 99, 100, 101, 102, 103, 104, 105, 106, 107, 108, 109, 110, 111, 112, 113, 114, 115, 116, 117, 118, 119, 120, 121, 122, 123, 124, 125, 126, 127, 128, 129, 130, 131, 132, 133, 134, 135, 136, 137, 138, 139, 140, 141, 142, 143, 144, 145, 146, 147, 148, 149, 150, 151, 152, 153, 154, 155, 156, 157, 158, 159, 160, 161, 162, 163, 164, 165, 166, 167, 168, 169, 170, 171, 172, 173, 174, 175, 176, 177, 178, 179, 180, 181, 182, 183, 184, 185, 186, 187, 188, 189, 190, 191, 192, 193, 194, 195, 196, 197, 198, 199, 200, 201, 202, 203, 204, 205, 206, 207, 208, 209, 210, 211, 212, 213, 214, 215, 216, 217, 218, 219, 220, 221, 222, 223, 224, 225, 226, 227, 228, 229, 230, 231, 232, 233, 234, 235, 236, 237, 238, 239, 240, 241, 242, 243, 244, 245, 246, 247, 248, 249, 250, 251, 252, 253, 254, 255, 256, 257, 258, 259, 260, 261, 262, 263, 264, 265, 266, 267, 268, 269, 270, 271, 272, 273, 274, 275, 276, 277, 278, 279, 280, 281, 282, 283, 284, 285, 286, 287, 288, 289, 290, 291, 292, 293, 294, 295, 296, 297, 298, 299, 300, 301, 302, 303, 304, 305, 306, 307, 308, 309, 310, 311, 312, 313, 314, 315, 316, 317, 318, 319, 320, 321, 322, 323, 324, 325, 326, 327, 328, 329, 330, 331, 332, 333, 334, 335, 336],
      "AcquisitionTime": ["161721.652500", "161723.142500", "161724.632500", "161726.122500", "161727.612500", "161729.102500", "161730.592500", "161732.082500", "161733.572500", "161735.062500", "161736.552500", "161738.042500", "161739.532500", "161741.022500", "161742.512500", "161744.002500", "161745.492500", "161746.982500", "161748.472500", "161749.962500", "161751.452500", "161752.942500", "161754.432500", "161755.922500", "161757.412500", "161758.902500", "161800.392500", "161801.882500", "161803.372500", "161804.862500", "161806.352500", "161807.842500", "161809.332500", "161810.822500", "161812.312500", "161813.802500", "161815.292500", "161816.782500", "161818.272500", "161819.762500", "161821.252500", "161822.742500", "161824.232500", "161825.722500", "161827.212500", "161828.702500", "161830.192500", "161831.682500", "161833.172500", "161834.662500", "161836.152500", "161837.642500", "161839.132500", "161840.622500", "161842.112500", "161843.602500", "161845.092500", "161846.582500", "161848.072500", "161849.562500", "161851.052500", "161852.542500", "161854.032500", "161855.522500", "161857.012500", "161858.502500", "161859.992500", "161901.482500", "161902.972500", "161904.462500", "161905.952500", "161907.442500", "161908.932500", "161910.422500", "161911.912500", "161913.402500", "161914.892500", "161916.382500", "161917.872500", "161919.362500", "161920.852500", "161922.342500", "161923.832500", "161925.322500", "161926.812500", "161928.302500", "161929.792500", "161931.282500", "161932.772500", "161934.262500", "161935.752500", "161937.242500", "161938.732500", "161940.222500", "161941.712500", "161943.202500", "161944.692500", "161946.182500", "161947.672500", "161949.162500", "161950.652500", "161952.142500", "161953.632500", "161955.122500", "161956.612500", "161958.102500", "161959.592500", "162001.082500", "162002.572500", "162004.062500", "162005.552500", "162007.042500", "162008.532500", "162010.022500", "162011.512500", "162013.002500", "162014.492500", "162015.982500", "162017.472500", "162018.962500", "162020.452500", "162021.942500", "162023.432500", "162024.922500", "162026.412500", "162027.902500", "162029.392500", "162030.882500", "162032.372500", "162033.862500", "162035.352500", "162036.842500", "162038.332500", "162039.822500", "162041.312500", "162042.802500", "162044.292500", "162045.782500", "162047.272500", "162048.762500", "162050.252500", "162051.742500", "162053.232500", "162054.722500", "162056.212500", "162057.702500", "162059.192500", "162100.682500", "162102.172500", "162103.662500", "162105.152500", "162106.642500", "162108.132500", "162109.622500", "162111.112500", "162112.602500", "162114.092500", "162115.582500", "162117.072500", "162118.562500", "162120.052500", "162121.542500", "162123.032500", "162124.522500", "162126.012500", "162127.502500", "162128.992500", "162130.482500", "162131.972500", "162133.462500", "162134.952500", "162136.442500", "162137.932500", "162139.422500", "162140.912500", "162142.402500", "162143.892500", "162145.382500", "162146.872500", "162148.362500", "162149.852500", "162151.342500", "162152.832500", "162154.322500", "162155.812500", "162157.302500", "162158.792500", "162200.282500", "162201.772500", "162203.262500", "162204.752500", "162206.242500", "162207.732500", "162209.222500", "162210.712500", "162212.202500", "162213.692500", "162215.182500", "162216.672500", "162218.162500", "162219.652500", "162221.142500", "162222.632500", "162224.122500", "162225.612500", "162227.102500", "162228.592500", "162230.082500", "162231.572500", "162233.062500", "162234.552500", "162236.042500", "162237.532500", "162239.022500", "162240.512500", "162242.002500", "162243.492500", "162244.982500", "162246.472500", "162247.962500", "162249.452500", "162250.942500", "162252.432500", "162253.922500", "162255.412500", "162256.902500", "162258.392500", "162259.882500", "162301.372500", "162302.862500", "162304.352500", "162305.842500", "162307.332500", "162308.822500", "162310.312500", "162311.802500", "162313.292500", "162314.782500", "162316.272500", "162317.762500", "162319.252500", "162320.742500", "162322.232500", "162323.722500", "162325.212500", "162326.702500", "162328.192500", "162329.682500", "162331.172500", "162332.662500", "162334.152500", "162335.642500", "162337.132500", "162338.622500", "162340.112500", "162341.602500", "162343.092500", "162344.582500", "162346.072500", "162347.562500", "162349.052500", "162350.542500", "162352.032500", "162353.522500", "162355.012500", "162356.502500", "162357.992500", "162359.482500", "162400.972500", "162402.462500", "162403.952500", "162405.442500", "162406.932500", "162408.422500", "162409.912500", "162411.402500", "162412.892500", "162414.382500", "162415.872500", "162417.362500", "162418.852500", "162420.342500", "162421.832500", "162423.322500", "162424.812500", "162426.302500", "162427.792500", "162429.282500", "162430.772500", "162432.262500", "162433.752500", "162435.242500", "162436.732500", "162438.222500", "162439.712500", "162441.202500", "162442.692500", "162444.182500", "162445.672500", "162447.162500", "162448.652500", "162450.142500", "162451.632500", "162453.122500", "162454.612500", "162456.102500", "162457.592500", "162459.082500", "162500.572500", "162502.062500", "162503.552500", "162505.042500", "162506.532500", "162508.022500", "162509.512500", "162511.002500", "162512.492500", "162513.982500", "162515.472500", "162516.962500", "162518.452500", "162519.942500", "162521.432500", "162522.922500", "162524.412500", "162525.902500", "162527.392500", "162528.882500", "162530.372500", "162531.862500", "162533.352500", "162534.842500", "162536.332500", "162537.822500", "162539.312500", "162540.802500"],
      "ContentTime": ["161830.753000", "161830.756000", "161830.759000", "161830.761000", "161830.764000", "161830.766000", "161830.769000", "161830.771000", "161830.774000", "161830.777000", "161830.779000", "161830.782000", "161830.784000", "161830.787000", "161830.789000", "161830.792000", "161830.795000", "161830.797000", "161830.800000", "161830.802000", "161830.805000", "161850.699000", "161850.702000", "161850.704000", "161850.707000", "161850.709000", "161850.712000", "161850.715000", "161850.717000", "161850.720000", "161850.722000", "161850.725000", "161850.736000", "161850.738000", "161850.741000", "161850.743000", "161850.746000", "161850.748000", "161850.751000", "161850.753000", "161850.756000", "161910.692000", "161910.695000", "161910.698000", "161910.700000", "161910.703000", "161910.708000", "161910.711000", "161910.713000", "161910.716000", "161910.718000", "161910.721000", "161910.723000", "161910.726000", "161910.728000", "161910.731000", "161910.734000", "161910.736000", "161910.739000", "161910.741000", "161910.744000", "161930.692000", "161930.694000", "161930.697000", "161930.700000", "161930.702000", "161930.705000", "161930.708000", "161930.710000", "161930.713000", "161930.715000", "161930.718000", "161930.720000", "161930.723000", "161930.725000", "161930.728000", "161930.730000", "161930.733000", "161930.735000", "161930.738000", "161930.741000", "162010.751000", "162010.754000", "162010.757000", "162010.765000", "162010.768000", "162010.770000", "162010.773000", "162010.775000", "162010.778000", "162010.781000", "162010.783000", "162010.786000", "162010.788000", "162010.791000", "162010.794000", "162010.796000", "162010.799000", "162010.801000", "162010.804000", "162010.806000", "162010.809000", "162010.812000", "162010.814000", "162010.817000", "162010.819000", "162010.822000", "162010.824000", "162010.827000", "162010.830000", "162010.832000", "162010.835000", "162050.737000", "162050.740000", "162050.742000", "162050.745000", "162050.747000", "162050.750000", "162050.753000", "162050.756000", "162050.758000", "162050.761000", "162050.764000", "162050.766000", "162050.769000", "162050.771000", "162050.774000", "162050.777000", "162050.779000", "162050.782000", "162050.784000", "162050.787000", "162050.789000", "162050.792000", "162050.794000", "162050.797000", "162050.799000", "162050.802000", "162050.805000", "162131.258000", "162131.261000", "162131.264000", "162131.266000", "162131.269000", "162131.271000", "162131.274000", "162131.277000", "162131.279000", "162131.286000", "162131.289000", "162131.291000", "162131.294000", "162131.296000", "162131.299000", "162131.302000", "162131.304000", "162131.307000", "162131.309000", "162131.312000", "162131.314000", "162131.317000", "162131.319000", "162131.322000", "162131.325000", "162131.327000", "162131.330000", "162210.741000", "162210.744000", "162210.747000", "162210.749000", "162210.752000", "162210.754000", "162210.757000", "162210.759000", "162210.762000", "162210.765000", "162210.767000", "162210.770000", "162210.772000", "162210.775000", "162210.778000", "162210.780000", "162210.783000", "162210.786000", "162210.788000", "162210.791000", "162210.793000", "162210.796000", "162210.798000", "162210.801000", "162210.803000", "162210.806000", "162210.808000", "162250.732000", "162250.735000", "162250.738000", "162250.740000", "162250.743000", "162250.746000", "162250.749000", "162250.751000", "162250.754000", "162250.756000", "162250.759000", "162250.762000", "162250.764000", "162250.767000", "162250.769000", "162250.772000", "162250.774000", "162250.777000", "162250.779000", "162250.782000", "162250.784000", "162250.792000", "162250.795000", "162250.797000", "162250.800000", "162250.803000", "162250.805000", "162310.663000", "162310.666000", "162310.668000", "162310.671000", "162310.674000", "162310.676000", "162310.679000", "162310.681000", "162310.684000", "162310.687000", "162310.689000", "162310.692000", "162310.694000", "162350.728000", "162350.731000", "162350.734000", "162350.736000", "162350.739000", "162350.741000", "162350.744000", "162350.747000", "162350.749000", "162350.752000", "162350.754000", "162350.757000", "162350.759000", "162350.762000", "162350.764000", "162350.767000", "162350.770000", "162350.772000", "162350.775000", "162350.777000", "162350.780000", "162350.782000", "162350.785000", "162350.788000", "162350.790000", "162350.793000", "162350.795000", "162430.725000", "162430.728000", "162430.730000", "162430.733000", "162430.735000", "162430.738000", "162430.741000", "162430.743000", "162430.746000", "162430.748000", "162430.751000", "162430.753000", "162430.756000", "162430.759000", "162430.761000", "162430.764000", "162430.766000", "162430.769000", "162430.772000", "162430.774000", "162430.777000", "162430.779000", "162430.782000", "162430.785000", "162430.787000", "162430.790000", "162430.792000", "162510.728000", "162510.731000", "162510.734000", "162510.736000", "162510.739000", "162510.742000", "162510.744000", "162510.747000", "162510.749000", "162510.752000", "162510.754000", "162510.757000", "162510.760000", "162510.762000", "162510.765000", "162510.767000", "162510.770000", "162510.773000", "162510.775000", "162510.778000", "162510.780000", "162510.783000", "162510.785000", "162510.788000", "162510.791000", "162510.793000", "162510.796000", "162543.878000", "162543.881000", "162543.884000", "162543.887000", "162543.889000", "162543.892000", "162543.894000", "162543.897000", "162543.899000", "162543.902000", "162543.905000", "162543.907000", "162543.910000", "162543.912000", "162543.915000", "162543.918000", "162543.920000", "162543.923000", "162543.925000", "162543.928000", "162543.931000", "162543.933000"],
      "InstanceCreationTime": ["161830.753000", "161830.756000", "161830.759000", "161830.761000", "161830.764000", "161830.766000", "161830.769000", "161830.771000", "161830.774000", "161830.777000", "161830.779000", "161830.782000", "161830.784000", "161830.787000", "161830.789000", "161830.792000", "161830.795000", "161830.797000", "161830.800000", "161830.802000", "161830.805000", "161850.699000", "161850.702000", "161850.704000", "161850.707000", "161850.709000", "161850.712000", "161850.715000", "161850.717000", "161850.720000", "161850.722000", "161850.725000", "161850.736000", "161850.738000", "161850.741000", "161850.743000", "161850.746000", "161850.748000", "161850.751000", "161850.753000", "161850.756000", "161910.692000", "161910.695000", "161910.698000", "161910.700000", "161910.703000", "161910.708000", "161910.711000", "161910.713000", "161910.716000", "161910.718000", "161910.721000", "161910.723000", "161910.726000", "161910.728000", "161910.731000", "161910.734000", "161910.736000", "161910.739000", "161910.741000", "161910.744000", "161930.692000", "161930.694000", "161930.697000", "161930.700000", "161930.702000", "161930.705000", "161930.708000", "161930.710000", "161930.713000", "161930.715000", "161930.718000", "161930.720000", "161930.723000", "161930.725000", "161930.728000", "161930.730000", "161930.733000", "161930.735000", "161930.738000", "161930.741000", "162010.751000", "162010.754000", "162010.757000", "162010.765000", "162010.768000", "162010.770000", "162010.773000", "162010.775000", "162010.778000", "162010.781000", "162010.783000", "162010.786000", "162010.788000", "162010.791000", "162010.794000", "162010.796000", "162010.799000", "162010.801000", "162010.804000", "162010.806000", "162010.809000", "162010.812000", "162010.814000", "162010.817000", "162010.819000", "162010.822000", "162010.824000", "162010.827000", "162010.830000", "162010.832000", "162010.835000", "162050.737000", "162050.740000", "162050.742000", "162050.745000", "162050.747000", "162050.750000", "162050.753000", "162050.756000", "162050.758000", "162050.761000", "162050.764000", "162050.766000", "162050.769000", "162050.771000", "162050.774000", "162050.777000", "162050.779000", "162050.782000", "162050.784000", "162050.787000", "162050.789000", "162050.792000", "162050.794000", "162050.797000", "162050.799000", "162050.802000", "162050.805000", "162131.258000", "162131.261000", "162131.264000", "162131.266000", "162131.269000", "162131.271000", "162131.274000", "162131.277000", "162131.279000", "162131.286000", "162131.289000", "162131.291000", "162131.294000", "162131.296000", "162131.299000", "162131.302000", "162131.304000", "162131.307000", "162131.309000", "162131.312000", "162131.314000", "162131.317000", "162131.319000", "162131.322000", "162131.325000", "162131.327000", "162131.330000", "162210.741000", "162210.744000", "162210.747000", "162210.749000", "162210.752000", "162210.754000", "162210.757000", "162210.759000", "162210.762000", "162210.765000", "162210.767000", "162210.770000", "162210.772000", "162210.775000", "162210.778000", "162210.780000", "162210.783000", "162210.786000", "162210.788000", "162210.791000", "162210.793000", "162210.796000", "162210.798000", "162210.801000", "162210.803000", "162210.806000", "162210.808000", "162250.732000", "162250.735000", "162250.738000", "162250.740000", "162250.743000", "162250.746000", "162250.749000", "162250.751000", "162250.754000", "162250.756000", "162250.759000", "162250.762000", "162250.764000", "162250.767000", "162250.769000", "162250.772000", "162250.774000", "162250.777000", "162250.779000", "162250.782000", "162250.784000", "162250.792000", "162250.795000", "162250.797000", "162250.800000", "162250.803000", "162250.805000", "162310.663000", "162310.666000", "162310.668000", "162310.671000", "162310.674000", "162310.676000", "162310.679000", "162310.681000", "162310.684000", "162310.687000", "162310.689000", "162310.692000", "162310.694000", "162350.728000", "162350.731000", "162350.734000", "162350.736000", "162350.739000", "162350.741000", "162350.744000", "162350.747000", "162350.749000", "162350.752000", "162350.754000", "162350.757000", "162350.759000", "162350.762000", "162350.764000", "162350.767000", "162350.770000", "162350.772000", "162350.775000", "162350.777000", "162350.780000", "162350.782000", "162350.785000", "162350.788000", "162350.790000", "162350.793000", "162350.795000", "162430.725000", "162430.728000", "162430.730000", "162430.733000", "162430.735000", "162430.738000", "162430.741000", "162430.743000", "162430.746000", "162430.748000", "162430.751000", "162430.753000", "162430.756000", "162430.759000", "162430.761000", "162430.764000", "162430.766000", "162430.769000", "162430.772000", "162430.774000", "162430.777000", "162430.779000", "162430.782000", "162430.785000", "162430.787000", "162430.790000", "162430.792000", "162510.728000", "162510.731000", "162510.734000", "162510.736000", "162510.739000", "162510.742000", "162510.744000", "162510.747000", "162510.749000", "162510.752000", "162510.754000", "162510.757000", "162510.760000", "162510.762000", "162510.765000", "162510.767000", "162510.770000", "162510.773000", "162510.775000", "162510.778000", "162510.780000", "162510.783000", "162510.785000", "162510.788000", "162510.791000", "162510.793000", "162510.796000", "162543.878000", "162543.881000", "162543.884000", "162543.887000", "162543.889000", "162543.892000", "162543.894000", "162543.897000", "162543.899000", "162543.902000", "162543.905000", "162543.907000", "162543.910000", "162543.912000", "162543.915000", "162543.918000", "162543.920000", "162543.923000", "162543.925000", "162543.928000", "162543.931000", "162543.933000"],
      "InstanceNumber": [1, 2, 3, 4, 5, 6, 7, 8, 9, 10, 11, 12, 13, 14, 15, 16, 17, 18, 19, 20, 21, 22, 23, 24, 25, 26, 27, 28, 29, 30, 31, 32, 33, 34, 35, 36, 37, 38, 39, 40, 41, 42, 43, 44, 45, 46, 47, 48, 49, 50, 51, 52, 53, 54, 55, 56, 57, 58, 59, 60, 61, 62, 63, 64, 65, 66, 67, 68, 69, 70, 71, 72, 73, 74, 75, 76, 77, 78, 79, 80, 81, 82, 83, 84, 85, 86, 87, 88, 89, 90, 91, 92, 93, 94, 95, 96, 97, 98, 99, 100, 101, 102, 103, 104, 105, 106, 107, 108, 109, 110, 111, 112, 113, 114, 115, 116, 117, 118, 119, 120, 121, 122, 123, 124, 125, 126, 127, 128, 129, 130, 131, 132, 133, 134, 135, 136, 137, 138, 139, 140, 141, 142, 143, 144, 145, 146, 147, 148, 149, 150, 151, 152, 153, 154, 155, 156, 157, 158, 159, 160, 161, 162, 163, 164, 165, 166, 167, 168, 169, 170, 171, 172, 173, 174, 175, 176, 177, 178, 179, 180, 181, 182, 183, 184, 185, 186, 187, 188, 189, 190, 191, 192, 193, 194, 195, 196, 197, 198, 199, 200, 201, 202, 203, 204, 205, 206, 207, 208, 209, 210, 211, 212, 213, 214, 215, 216, 217, 218, 219, 220, 221, 222, 223, 224, 225, 226, 227, 228, 229, 230, 231, 232, 233, 234, 235, 236, 237, 238, 239, 240, 241, 242, 243, 244, 245, 246, 247, 248, 249, 250, 251, 252, 253, 254, 255, 256, 257, 258, 259, 260, 261, 262, 263, 264, 265, 266, 267, 268, 269, 270, 271, 272, 273, 274, 275, 276, 277, 278, 279, 280, 281, 282, 283, 284, 285, 286, 287, 288, 289, 290, 291, 292, 293, 294, 295, 296, 297, 298, 299, 300, 301, 302, 303, 304, 305, 306, 307, 308, 309, 310, 311, 312, 313, 314, 315, 316, 317, 318, 319, 320, 321, 322, 323, 324, 325, 326, 327, 328, 329, 330, 331, 332, 333, 334, 335, 336],
      "WindowCenter": [4782.0, 4778.0, 4782.0, 4784.0, 4782.0, 4782.0, 4782.0, 4784.0, 4784.0, 4774.0, 4780.0, 4788.0, 4782.0, 4786.0, 4758.0, 4778.0, 4780.0, 4780.0, 4780.0, 4780.0, 4782.0, 4780.0, 4778.0, 4780.0, 4782.0, 4756.0, 4784.0, 4782.0, 4788.0, 4790.0, 4792.0, 4792.0, 4814.0, 4792.0, 4792.0, 4792.0, 4786.0, 4786.0, 4790.0, 4786.0, 4786.0, 4782.0, 4784.0, 4782.0, 4784.0, 4782.0, 4778.0, 4780.0, 4756.0, 4792.0, 4788.0, 4780.0, 4784.0, 4780.0, 4782.0, 4782.0, 4790.0, 4784.0, 4780.0, 4780.0, 4780.0, 4780.0, 4780.0, 4782.0, 4784.0, 4782.0, 4778.0, 4774.0, 4786.0, 4788.0, 4780.0, 4778.0, 4780.0, 4784.0, 4778.0, 4782.0, 4754.0, 4776.0, 4778.0, 4786.0, 4790.0, 4790.0, 4792.0, 4780.0, 4778.0, 4782.0, 4776.0, 4780.0, 4778.0, 4782.0, 4782.0, 4782.0, 4780.0, 4778.0, 4778.0, 4778.0, 4780.0, 4784.0, 4778.0, 4778.0, 4776.0, 4784.0, 4780.0, 4786.0, 4822.0, 4782.0, 4786.0, 4780.0, 4784.0, 4776.0, 4756.0, 4780.0, 4782.0, 4780.0, 4780.0, 4786.0, 4778.0, 4784.0, 4790.0, 4776.0, 4782.0, 4784.0, 4780.0, 4784.0, 4780.0, 4788.0, 4780.0, 4782.0, 4778.0, 4778.0, 4778.0, 4776.0, 4784.0, 4756.0, 4756.0, 4780.0, 4782.0, 4756.0, 4752.0, 4774.0, 4776.0, 4774.0, 4776.0, 4778.0, 4776.0, 4786.0, 4760.0, 4782.0, 4776.0, 4756.0, 4776.0, 4776.0, 4776.0, 4770.0, 4778.0, 4778.0, 4782.0, 4756.0, 4782.0, 4758.0, 4780.0, 4774.0, 4760.0, 4758.0, 4752.0, 4782.0, 4776.0, 4784.0, 4784.0, 4784.0, 4782.0, 4782.0, 4792.0, 4788.0, 4792.0, 4792.0, 4776.0, 4780.0, 4762.0, 4758.0, 4792.0, 4756.0, 4760.0, 4754.0, 4754.0, 4776.0, 4776.0, 4754.0, 4752.0, 4786.0, 4760.0, 4758.0, 4760.0, 4752.0, 4752.0, 4780.0, 4780.0, 4782.0, 4786.0, 4786.0, 4786.0, 4784.0, 4780.0, 4774.0, 4782.0, 4780.0, 4778.0, 4780.0, 4784.0, 4778.0, 4754.0, 4784.0, 4782.0, 4780.0, 4782.0, 4782.0, 4780.0, 4784.0, 4786.0, 4758.0, 4784.0, 4780.0, 4776.0, 4782.0, 4788.0, 4780.0, 4784.0, 4752.0, 4822.0, 4824.0, 4754.0, 4804.0, 4806.0, 4802.0, 4776.0, 4784.0, 4796.0, 4822.0, 4794.0, 4760.0, 4778.0, 4782.0, 4778.0, 4778.0, 4778.0, 4780.0, 4778.0, 4780.0, 4782.0, 4778.0, 4756.0, 4778.0, 4754.0, 4780.0, 4784.0, 4778.0, 4778.0, 4780.0, 4776.0, 4776.0, 4780.0, 4784.0, 4758.0, 4780.0, 4778.0, 4756.0, 4780.0, 4756.0, 4790.0, 4792.0, 4782.0, 4776.0, 4780.0, 4780.0, 4774.0, 4776.0, 4752.0, 4778.0, 4782.0, 4782.0, 4782.0, 4820.0, 4792.0, 4788.0, 4780.0, 4784.0, 4808.0, 4786.0, 4786.0, 4790.0, 4790.0, 4790.0, 4812.0, 4788.0, 4778.0, 4784.0, 4782.0, 4782.0, 4776.0, 4782.0, 4786.0, 4784.0, 4780.0, 4778.0, 4784.0, 4782.0, 4754.0, 4784.0, 4782.0, 4778.0, 4780.0, 4780.0, 4774.0, 4776.0, 4780.0, 4778.0, 4780.0, 4784.0, 4758.0, 4754.0, 4776.0, 4778.0, 4780.0, 4780.0, 4788.0, 4786.0, 4784.0, 4778.0, 4786.0, 4792.0, 4784.0, 4782.0, 4780.0, 4778.0, 4776.0, 4776.0],
