{
  "AcquisitionMatrixPE": 104,
  "AcquisitionNumber": 1,
  "AcquisitionTime": "16:03:2.810000",
  "BandwidthPerPixelPhaseEncode": 17.17,
  "BaseResolution": 104,
  "BodyPartExamined": "BRAIN",
  "CoilCombinationMethod": "Sum of Squares",
  "ConsistencyInfo": "N4_VE11C_LATEST_20160120",
  "ConversionSoftware": "dcm2niix",
  "ConversionSoftwareVersion": "v1.0.20220505",
  "DerivedVendorReportedEchoSpacing": 0.000560011,
  "DeviceSerialNumber": "167006",
  "DwellTime": 2.1e-06,
  "EchoTime": 0.037,
  "EchoTrainLength": 104,
  "EffectiveEchoSpacing": 0.000560011,
  "FlipAngle": 52,
  "HeudiconvVersion": "0.5.3.post811+g6206e14",
  "ImageComments": "Unaliased MB4/PE3/LB",
  "ImageOrientationPatientDICOM": [0.998303, 0.0150197, 0.0562623, 0.0149855, 0.867364, -0.497449],
  "ImageOrientationText": "Tra>Cor(-29.9)>Sag(3.2)",
  "ImageType": [
    "ORIGINAL",
    "PRIMARY",
    "M",
    "MB",
    "ND",
    "MOSAIC"
],
  "ImagingFrequency": 123.26,
  "InPlanePhaseEncodingDirectionDICOM": "COL",
  "InstitutionAddress": "Chemin Queen-Mary 4565,Montreal,District,CA,H3W 1W5",
  "InstitutionName": "IUGM",
  "InstitutionalDepartmentName": "Department",
  "MRAcquisitionType": "2D",
  "MagneticFieldStrength": 3,
  "Manufacturer": "Siemens",
  "ManufacturersModelName": "Prisma_fit",
  "MatrixCoilMode": "SENSE",
  "Modality": "MR",
  "MultibandAccelerationFactor": 4,
  "PartialFourier": 1,
  "PatientPosition": "HFS",
  "PercentPhaseFOV": 100,
  "PercentSampling": 100,
  "PhaseEncodingDirection": "j",
  "PhaseEncodingSteps": 104,
  "PhaseResolution": 1,
  "PixelBandwidth": 2290,
  "ProcedureStepDescription": "games^mario3",
  "ProtocolName": "func_task-mario3_run-05",
  "PulseSequenceDetails": "%CustomerSeq%\\cmrr_mbep2d_bold",
  "ReceiveCoilActiveElements": "HC1-7;NC1,2",
  "ReceiveCoilName": "HeadNeck_64",
  "ReconMatrixPE": 104,
  "RepetitionTime": 1.49,
  "SAR": 0.070332,
  "ScanOptions": "FS",
  "ScanningSequence": "EP",
  "SequenceName": "epfid2d1_104",
  "SequenceVariant": "SK\\SS",
  "SeriesDescription": "func_task-mario3_run-05",
  "SeriesNumber": 22,
  "ShimSetting": [619, -7183, -8858, 290, 25, -156, -61, 31],
  "SliceThickness": 2,
  "SliceTiming": [0, 0.785, 0.1, 0.8825, 0.1975, 0.98, 0.295, 1.08, 0.3925, 1.1775, 0.49, 1.275, 0.59, 1.3725, 0.6875, 0, 0.785, 0.1, 0.8825, 0.1975, 0.98, 0.295, 1.08, 0.3925, 1.1775, 0.49, 1.275, 0.59, 1.3725, 0.6875, 0, 0.785, 0.1, 0.8825, 0.1975, 0.98, 0.295, 1.08, 0.3925, 1.1775, 0.49, 1.275, 0.59, 1.3725, 0.6875, 0, 0.785, 0.1, 0.8825, 0.1975, 0.98, 0.295, 1.08, 0.3925, 1.1775, 0.49, 1.275, 0.59, 1.3725, 0.6875],
  "SoftwareVersions": "syngo MR E11",
  "SpacingBetweenSlices": 2,
  "StationName": "MRC35049",
  "TaskName": "mario3",
  "TotalReadoutTime": 0.0576811,
  "TxRefAmp": 301.694,
  "WipMemBlock": "11aaeb0c-4633-436c-ae39-4b730435c44e||Sequence: R017 ve11c/master r/75a17815+; Jun 28 2022 16:32:11 by eja",
  "dcmmeta_affine": [
    [-1.9966061115264893, 0.029971018433570862, 0.11254291981458664, 103.28376007080078],
    [-0.030039407312870026, 1.7347278594970703, -0.994895339012146, -49.20748519897461],
    [0.11252468079328537, 0.9948974251747131, 1.7313339710235596, -98.86970520019531],
    [0.0, 0.0, 0.0, 1.0]
],
  "dcmmeta_reorient_transform": [
    [0.0, -1.0, 0.0, 103.0],
    [1.0, 0.0, 0.0, 0.0],
    [0.0, 0.0, 1.0, 0.0],
    [0.0, 0.0, 0.0, 1.0]
],
  "dcmmeta_shape": [104, 104, 60, 343],
  "dcmmeta_slice_dim": 2,
  "dcmmeta_version": 0.6,
  "global": {
    "const": {
      "AcquisitionMatrix": [104, 0, 0, 104],
      "AngioFlag": "N",
      "BitsAllocated": 16,
      "BitsStored": 16,
      "BodyPartExamined": "BRAIN",
      "Columns": 832,
      "EchoNumbers": 1,
      "EchoTime": 37.0,
      "EchoTrainLength": 104,
      "FlipAngle": 52.0,
      "HighBit": 15,
      "ImageOrientationPatient": [0.99830303888915, 0.01501970319936, 0.05626234140598, 0.01498550947068, 0.86736395050446, -0.4974487027536],
      "ImagePositionPatient": [-844.04484051493, -771.84478755858, 324.78839663533],
      "ImageType": [
        "ORIGINAL",
        "PRIMARY",
        "M",
        "MB",
        "ND",
        "MOSAIC"
],
      "ImagedNucleus": "1H",
      "ImagingFrequency": 123.260238,
      "InPlanePhaseEncodingDirection": "COL",
      "MRAcquisitionType": "2D",
      "MagneticFieldStrength": 3.0,
      "Manufacturer": "SIEMENS",
      "ManufacturerModelName": "Prisma_fit",
      "Modality": "MR",
      "NumberOfAverages": 1.0,
      "NumberOfPhaseEncodingSteps": 104,
      "PercentPhaseFieldOfView": 100.0,
      "PercentSampling": 100.0,
      "PerformedProcedureStepStartTime": "143058.604000",
      "PhotometricInterpretation": "MONOCHROME2",
      "PixelBandwidth": 2290.0,
      "PixelRepresentation": 0,
      "PixelSpacing": [2.0, 2.0],
      "ProtocolName": "func_task-mario3_run-05",
      "RepetitionTime": 1490.0,
      "Rows": 832,
      "SAR": 0.0703320173411,
      "SamplesPerPixel": 1,
      "ScanOptions": "FS",
      "ScanningSequence": "EP",
      "SequenceName": "epfid2d1_104",
      "SequenceVariant": [
        "SK",
        "SS"
],
      "SeriesDescription": "func_task-mario3_run-05",
      "SeriesNumber": 22,
      "SeriesTime": "160427.957000",
      "SliceLocation": -55.298164441952,
      "SliceThickness": 2.0,
      "SmallestImagePixelValue": 0,
      "SoftwareVersions": "syngo MR E11",
      "SpacingBetweenSlices": 2.0000000250943,
      "SpecificCharacterSet": "ISO_IR 100",
      "StudyID": "1",
      "StudyTime": "143058.522000",
      "TransmitCoilName": "Body",
      "VariableFlipAngleFlag": "N",
      "WindowCenterWidthExplanation": "Algo1",
      "dBdt": 0.0},
    "slices": {}
  },
  "time": {
    "samples": {
      "AcquisitionNumber": [1, 2, 3, 4, 5, 6, 7, 8, 9, 10, 11, 12, 13, 14, 15, 16, 17, 18, 19, 20, 21, 22, 23, 24, 25, 26, 27, 28, 29, 30, 31, 32, 33, 34, 35, 36, 37, 38, 39, 40, 41, 42, 43, 44, 45, 46, 47, 48, 49, 50, 51, 52, 53, 54, 55, 56, 57, 58, 59, 60, 61, 62, 63, 64, 65, 66, 67, 68, 69, 70, 71, 72, 73, 74, 75, 76, 77, 78, 79, 80, 81, 82, 83, 84, 85, 86, 87, 88, 89, 90, 91, 92, 93, 94, 95, 96, 97, 98, 99, 100, 101, 102, 103, 104, 105, 106, 107, 108, 109, 110, 111, 112, 113, 114, 115, 116, 117, 118, 119, 120, 121, 122, 123, 124, 125, 126, 127, 128, 129, 130, 131, 132, 133, 134, 135, 136, 137, 138, 139, 140, 141, 142, 143, 144, 145, 146, 147, 148, 149, 150, 151, 152, 153, 154, 155, 156, 157, 158, 159, 160, 161, 162, 163, 164, 165, 166, 167, 168, 169, 170, 171, 172, 173, 174, 175, 176, 177, 178, 179, 180, 181, 182, 183, 184, 185, 186, 187, 188, 189, 190, 191, 192, 193, 194, 195, 196, 197, 198, 199, 200, 201, 202, 203, 204, 205, 206, 207, 208, 209, 210, 211, 212, 213, 214, 215, 216, 217, 218, 219, 220, 221, 222, 223, 224, 225, 226, 227, 228, 229, 230, 231, 232, 233, 234, 235, 236, 237, 238, 239, 240, 241, 242, 243, 244, 245, 246, 247, 248, 249, 250, 251, 252, 253, 254, 255, 256, 257, 258, 259, 260, 261, 262, 263, 264, 265, 266, 267, 268, 269, 270, 271, 272, 273, 274, 275, 276, 277, 278, 279, 280, 281, 282, 283, 284, 285, 286, 287, 288, 289, 290, 291, 292, 293, 294, 295, 296, 297, 298, 299, 300, 301, 302, 303, 304, 305, 306, 307, 308, 309, 310, 311, 312, 313, 314, 315, 316, 317, 318, 319, 320, 321, 322, 323, 324, 325, 326, 327, 328, 329, 330, 331, 332, 333, 334, 335, 336, 337, 338, 339, 340, 341, 342, 343],
      "AcquisitionTime": ["160302.810000", "160304.300000", "160305.790000", "160307.280000", "160308.770000", "160310.260000", "160311.750000", "160313.240000", "160314.730000", "160316.220000", "160317.710000", "160319.200000", "160320.690000", "160322.180000", "160323.670000", "160325.160000", "160326.650000", "160328.140000", "160329.630000", "160331.120000", "160332.610000", "160334.100000", "160335.590000", "160337.080000", "160338.570000", "160340.060000", "160341.550000", "160343.040000", "160344.530000", "160346.020000", "160347.510000", "160349.000000", "160350.490000", "160351.980000", "160353.470000", "160354.960000", "160356.450000", "160357.940000", "160359.430000", "160400.920000", "160402.410000", "160403.900000", "160405.390000", "160406.880000", "160408.370000", "160409.860000", "160411.350000", "160412.840000", "160414.330000", "160415.820000", "160417.310000", "160418.800000", "160420.290000", "160421.780000", "160423.270000", "160424.760000", "160426.250000", "160427.740000", "160429.230000", "160430.720000", "160432.210000", "160433.700000", "160435.190000", "160436.680000", "160438.170000", "160439.660000", "160441.150000", "160442.640000", "160444.130000", "160445.620000", "160447.110000", "160448.600000", "160450.090000", "160451.580000", "160453.070000", "160454.560000", "160456.050000", "160457.540000", "160459.030000", "160500.520000", "160502.010000", "160503.500000", "160504.990000", "160506.480000", "160507.970000", "160509.460000", "160510.950000", "160512.440000", "160513.930000", "160515.420000", "160516.910000", "160518.400000", "160519.890000", "160521.380000", "160522.870000", "160524.360000", "160525.850000", "160527.340000", "160528.830000", "160530.320000", "160531.810000", "160533.300000", "160534.790000", "160536.280000", "160537.770000", "160539.260000", "160540.750000", "160542.240000", "160543.730000", "160545.220000", "160546.710000", "160548.200000", "160549.690000", "160551.180000", "160552.670000", "160554.160000", "160555.650000", "160557.140000", "160558.630000", "160600.120000", "160601.610000", "160603.100000", "160604.590000", "160606.080000", "160607.570000", "160609.060000", "160610.550000", "160612.040000", "160613.530000", "160615.020000", "160616.510000", "160618.000000", "160619.490000", "160620.980000", "160622.470000", "160623.960000", "160625.450000", "160626.940000", "160628.430000", "160629.920000", "160631.410000", "160632.900000", "160634.390000", "160635.880000", "160637.370000", "160638.860000", "160640.350000", "160641.840000", "160643.330000", "160644.820000", "160646.310000", "160647.800000", "160649.290000", "160650.780000", "160652.270000", "160653.760000", "160655.250000", "160656.740000", "160658.230000", "160659.720000", "160701.210000", "160702.700000", "160704.190000", "160705.680000", "160707.170000", "160708.660000", "160710.150000", "160711.640000", "160713.130000", "160714.620000", "160716.110000", "160717.600000", "160719.090000", "160720.580000", "160722.070000", "160723.560000", "160725.050000", "160726.540000", "160728.030000", "160729.520000", "160731.010000", "160732.500000", "160733.990000", "160735.480000", "160736.970000", "160738.460000", "160739.950000", "160741.440000", "160742.930000", "160744.420000", "160745.910000", "160747.400000", "160748.890000", "160750.380000", "160751.870000", "160753.360000", "160754.850000", "160756.340000", "160757.830000", "160759.320000", "160800.810000", "160802.300000", "160803.790000", "160805.280000", "160806.770000", "160808.260000", "160809.750000", "160811.240000", "160812.730000", "160814.220000", "160815.710000", "160817.200000", "160818.690000", "160820.180000", "160821.670000", "160823.160000", "160824.650000", "160826.140000", "160827.630000", "160829.120000", "160830.610000", "160832.100000", "160833.590000", "160835.080000", "160836.570000", "160838.060000", "160839.550000", "160841.040000", "160842.530000", "160844.020000", "160845.510000", "160847.000000", "160848.490000", "160849.980000", "160851.470000", "160852.960000", "160854.450000", "160855.940000", "160857.430000", "160858.920000", "160900.410000", "160901.900000", "160903.390000", "160904.880000", "160906.370000", "160907.860000", "160909.350000", "160910.840000", "160912.330000", "160913.820000", "160915.310000", "160916.800000", "160918.290000", "160919.780000", "160921.270000", "160922.760000", "160924.250000", "160925.740000", "160927.230000", "160928.720000", "160930.210000", "160931.700000", "160933.190000", "160934.680000", "160936.170000", "160937.660000", "160939.150000", "160940.640000", "160942.130000", "160943.620000", "160945.110000", "160946.600000", "160948.090000", "160949.580000", "160951.070000", "160952.560000", "160954.050000", "160955.540000", "160957.030000", "160958.520000", "161000.010000", "161001.500000", "161002.990000", "161004.480000", "161005.970000", "161007.460000", "161008.950000", "161010.440000", "161011.930000", "161013.420000", "161014.910000", "161016.400000", "161017.890000", "161019.380000", "161020.870000", "161022.360000", "161023.850000", "161025.340000", "161026.830000", "161028.320000", "161029.810000", "161031.300000", "161032.790000", "161034.280000", "161035.770000", "161037.260000", "161038.750000", "161040.240000", "161041.730000", "161043.220000", "161044.710000", "161046.200000", "161047.690000", "161049.180000", "161050.670000", "161052.160000", "161053.650000", "161055.140000", "161056.630000", "161058.120000", "161059.610000", "161101.100000", "161102.590000", "161104.080000", "161105.570000", "161107.060000", "161108.550000", "161110.040000", "161111.530000", "161113.020000", "161114.510000", "161116.000000", "161117.490000", "161118.980000", "161120.470000", "161121.960000", "161123.450000", "161124.940000", "161126.430000", "161127.920000", "161129.410000", "161130.900000", "161132.390000"],
      "ContentTime": ["160427.960000", "160427.964000", "160427.968000", "160427.971000", "160427.974000", "160427.978000", "160427.981000", "160427.984000", "160427.988000", "160427.991000", "160427.994000", "160427.998000", "160428.002000", "160428.011000", "160428.015000", "160428.018000", "160428.021000", "160428.025000", "160428.028000", "160428.031000", "160428.035000", "160428.038000", "160428.042000", "160428.045000", "160428.054000", "160428.057000", "160428.060000", "160428.064000", "160428.067000", "160428.071000", "160428.074000", "160428.077000", "160428.081000", "160428.084000", "160428.087000", "160428.090000", "160428.094000", "160447.924000", "160447.928000", "160447.931000", "160447.935000", "160447.938000", "160447.941000", "160447.945000", "160447.948000", "160447.952000", "160447.955000", "160447.958000", "160447.962000", "160447.965000", "160447.968000", "160447.972000", "160447.975000", "160447.982000", "160447.986000", "160447.989000", "160447.992000", "160507.924000", "160507.928000", "160507.931000", "160507.935000", "160507.938000", "160507.941000", "160507.945000", "160507.948000", "160507.952000", "160507.955000", "160507.958000", "160507.961000", "160507.965000", "160507.969000", "160507.972000", "160507.975000", "160507.979000", "160507.982000", "160507.985000", "160507.989000", "160507.992000", "160547.925000", "160547.929000", "160547.933000", "160547.936000", "160547.939000", "160547.943000", "160547.946000", "160547.950000", "160547.953000", "160547.956000", "160547.960000", "160547.963000", "160547.966000", "160547.970000", "160547.973000", "160547.976000", "160547.980000", "160547.983000", "160547.986000", "160547.990000", "160547.993000", "160547.996000", "160548.001000", "160548.004000", "160548.008000", "160548.011000", "160548.014000", "160548.017000", "160548.021000", "160548.024000", "160548.028000", "160548.031000", "160627.925000", "160627.937000", "160627.940000", "160627.943000", "160627.947000", "160627.950000", "160627.954000", "160627.957000", "160627.960000", "160627.963000", "160627.967000", "160627.970000", "160627.973000", "160627.977000", "160627.980000", "160627.983000", "160627.987000", "160627.990000", "160627.993000", "160627.997000", "160628.001000", "160628.004000", "160628.008000", "160628.011000", "160628.014000", "160628.018000", "160628.021000", "160707.924000", "160707.928000", "160707.931000", "160707.935000", "160707.938000", "160707.941000", "160707.945000", "160707.948000", "160707.951000", "160707.955000", "160707.958000", "160707.961000", "160707.965000", "160707.968000", "160707.972000", "160707.975000", "160707.978000", "160707.982000", "160707.985000", "160707.988000", "160707.992000", "160707.995000", "160707.998000", "160708.003000", "160708.006000", "160708.009000", "160708.012000", "160747.925000", "160747.929000", "160747.933000", "160747.936000", "160747.939000", "160747.943000", "160747.946000", "160747.951000", "160747.956000", "160747.960000", "160747.965000", "160747.970000", "160747.973000", "160747.977000", "160747.980000", "160747.984000", "160747.987000", "160747.991000", "160747.994000", "160747.998000", "160748.002000", "160748.005000", "160748.009000", "160748.012000", "160748.015000", "160748.019000", "160827.925000", "160827.929000", "160827.932000", "160827.936000", "160827.939000", "160827.942000", "160827.946000", "160827.949000", "160827.953000", "160827.956000", "160827.959000", "160827.963000", "160827.966000", "160827.969000", "160827.973000", "160827.976000", "160827.979000", "160827.983000", "160827.986000", "160827.998000", "160828.003000", "160828.006000", "160828.009000", "160828.013000", "160828.016000", "160828.019000", "160828.023000", "160907.925000", "160907.928000", "160907.932000", "160907.935000", "160907.939000", "160907.942000", "160907.946000", "160907.949000", "160907.953000", "160907.956000", "160907.959000", "160907.963000", "160907.966000", "160907.970000", "160907.973000", "160907.976000", "160907.980000", "160907.983000", "160907.987000", "160907.990000", "160907.993000", "160907.997000", "160908.001000", "160908.005000", "160908.008000", "160908.011000", "160908.015000", "160947.924000", "160947.928000", "160947.932000", "160947.935000", "160947.938000", "160947.942000", "160947.945000", "160947.948000", "160947.952000", "160947.955000", "160947.958000", "160947.962000", "160947.965000", "160947.968000", "160947.972000", "160947.975000", "160947.978000", "160947.982000", "160947.985000", "160947.989000", "160947.992000", "160947.995000", "160948.000000", "160948.003000", "160948.007000", "160948.010000", "160948.013000", "161027.925000", "161027.929000", "161027.932000", "161027.936000", "161027.939000", "161027.942000", "161027.946000", "161027.949000", "161027.952000", "161027.956000", "161027.959000", "161027.963000", "161027.966000", "161027.969000", "161027.973000", "161027.976000", "161027.979000", "161027.983000", "161027.986000", "161027.989000", "161027.993000", "161027.996000", "161028.000000", "161028.004000", "161028.007000", "161028.011000", "161028.014000", "161107.939000", "161107.943000", "161107.946000", "161107.950000", "161107.953000", "161107.956000", "161107.960000", "161107.963000", "161107.967000", "161107.970000", "161107.973000", "161107.977000", "161107.980000", "161107.984000", "161107.987000", "161107.990000", "161107.994000", "161107.997000", "161108.002000", "161108.005000", "161108.008000", "161108.012000", "161108.015000", "161108.018000", "161108.022000", "161108.025000", "161108.028000", "161135.746000", "161135.750000", "161135.753000", "161135.757000", "161135.760000", "161135.763000", "161135.767000", "161135.770000", "161135.774000", "161135.777000", "161135.780000", "161135.784000", "161135.787000", "161135.790000", "161135.794000", "161135.797000", "161135.800000", "161135.804000"],
      "InstanceCreationTime": ["160427.960000", "160427.964000", "160427.968000", "160427.971000", "160427.974000", "160427.978000", "160427.981000", "160427.984000", "160427.988000", "160427.991000", "160427.994000", "160427.998000", "160428.002000", "160428.011000", "160428.015000", "160428.018000", "160428.021000", "160428.025000", "160428.028000", "160428.031000", "160428.035000", "160428.038000", "160428.042000", "160428.045000", "160428.054000", "160428.057000", "160428.060000", "160428.064000", "160428.067000", "160428.071000", "160428.074000", "160428.077000", "160428.081000", "160428.084000", "160428.087000", "160428.090000", "160428.094000", "160447.924000", "160447.928000", "160447.931000", "160447.935000", "160447.938000", "160447.941000", "160447.945000", "160447.948000", "160447.952000", "160447.955000", "160447.958000", "160447.962000", "160447.965000", "160447.968000", "160447.972000", "160447.975000", "160447.982000", "160447.986000", "160447.989000", "160447.992000", "160507.924000", "160507.928000", "160507.931000", "160507.935000", "160507.938000", "160507.941000", "160507.945000", "160507.948000", "160507.952000", "160507.955000", "160507.958000", "160507.961000", "160507.965000", "160507.969000", "160507.972000", "160507.975000", "160507.979000", "160507.982000", "160507.985000", "160507.989000", "160507.992000", "160547.925000", "160547.929000", "160547.933000", "160547.936000", "160547.939000", "160547.943000", "160547.946000", "160547.950000", "160547.953000", "160547.956000", "160547.960000", "160547.963000", "160547.966000", "160547.970000", "160547.973000", "160547.976000", "160547.980000", "160547.983000", "160547.986000", "160547.990000", "160547.993000", "160547.996000", "160548.001000", "160548.004000", "160548.008000", "160548.011000", "160548.014000", "160548.017000", "160548.021000", "160548.024000", "160548.028000", "160548.031000", "160627.925000", "160627.937000", "160627.940000", "160627.943000", "160627.947000", "160627.950000", "160627.954000", "160627.957000", "160627.960000", "160627.963000", "160627.967000", "160627.970000", "160627.973000", "160627.977000", "160627.980000", "160627.983000", "160627.987000", "160627.990000", "160627.993000", "160627.997000", "160628.001000", "160628.004000", "160628.008000", "160628.011000", "160628.014000", "160628.018000", "160628.021000", "160707.924000", "160707.928000", "160707.931000", "160707.935000", "160707.938000", "160707.941000", "160707.945000", "160707.948000", "160707.951000", "160707.955000", "160707.958000", "160707.961000", "160707.965000", "160707.968000", "160707.972000", "160707.975000", "160707.978000", "160707.982000", "160707.985000", "160707.988000", "160707.992000", "160707.995000", "160707.998000", "160708.003000", "160708.006000", "160708.009000", "160708.012000", "160747.925000", "160747.929000", "160747.933000", "160747.936000", "160747.939000", "160747.943000", "160747.946000", "160747.951000", "160747.956000", "160747.960000", "160747.965000", "160747.970000", "160747.973000", "160747.977000", "160747.980000", "160747.984000", "160747.987000", "160747.991000", "160747.994000", "160747.998000", "160748.002000", "160748.005000", "160748.009000", "160748.012000", "160748.015000", "160748.019000", "160827.925000", "160827.929000", "160827.932000", "160827.936000", "160827.939000", "160827.942000", "160827.946000", "160827.949000", "160827.953000", "160827.956000", "160827.959000", "160827.963000", "160827.966000", "160827.969000", "160827.973000", "160827.976000", "160827.979000", "160827.983000", "160827.986000", "160827.998000", "160828.003000", "160828.006000", "160828.009000", "160828.013000", "160828.016000", "160828.019000", "160828.023000", "160907.925000", "160907.928000", "160907.932000", "160907.935000", "160907.939000", "160907.942000", "160907.946000", "160907.949000", "160907.953000", "160907.956000", "160907.959000", "160907.963000", "160907.966000", "160907.970000", "160907.973000", "160907.976000", "160907.980000", "160907.983000", "160907.987000", "160907.990000", "160907.993000", "160907.997000", "160908.001000", "160908.005000", "160908.008000", "160908.011000", "160908.015000", "160947.924000", "160947.928000", "160947.932000", "160947.935000", "160947.938000", "160947.942000", "160947.945000", "160947.948000", "160947.952000", "160947.955000", "160947.958000", "160947.962000", "160947.965000", "160947.968000", "160947.972000", "160947.975000", "160947.978000", "160947.982000", "160947.985000", "160947.989000", "160947.992000", "160947.995000", "160948.000000", "160948.003000", "160948.007000", "160948.010000", "160948.013000", "161027.925000", "161027.929000", "161027.932000", "161027.936000", "161027.939000", "161027.942000", "161027.946000", "161027.949000", "161027.952000", "161027.956000", "161027.959000", "161027.963000", "161027.966000", "161027.969000", "161027.973000", "161027.976000", "161027.979000", "161027.983000", "161027.986000", "161027.989000", "161027.993000", "161027.996000", "161028.000000", "161028.004000", "161028.007000", "161028.011000", "161028.014000", "161107.939000", "161107.943000", "161107.946000", "161107.950000", "161107.953000", "161107.956000", "161107.960000", "161107.963000", "161107.967000", "161107.970000", "161107.973000", "161107.977000", "161107.980000", "161107.984000", "161107.987000", "161107.990000", "161107.994000", "161107.997000", "161108.002000", "161108.005000", "161108.008000", "161108.012000", "161108.015000", "161108.018000", "161108.022000", "161108.025000", "161108.028000", "161135.746000", "161135.750000", "161135.753000", "161135.757000", "161135.760000", "161135.763000", "161135.767000", "161135.770000", "161135.774000", "161135.777000", "161135.780000", "161135.784000", "161135.787000", "161135.790000", "161135.794000", "161135.797000", "161135.800000", "161135.804000"],
      "InstanceNumber": [1, 2, 3, 4, 5, 6, 7, 8, 9, 10, 11, 12, 13, 14, 15, 16, 17, 18, 19, 20, 21, 22, 23, 24, 25, 26, 27, 28, 29, 30, 31, 32, 33, 34, 35, 36, 37, 38, 39, 40, 41, 42, 43, 44, 45, 46, 47, 48, 49, 50, 51, 52, 53, 54, 55, 56, 57, 58, 59, 60, 61, 62, 63, 64, 65, 66, 67, 68, 69, 70, 71, 72, 73, 74, 75, 76, 77, 78, 79, 80, 81, 82, 83, 84, 85, 86, 87, 88, 89, 90, 91, 92, 93, 94, 95, 96, 97, 98, 99, 100, 101, 102, 103, 104, 105, 106, 107, 108, 109, 110, 111, 112, 113, 114, 115, 116, 117, 118, 119, 120, 121, 122, 123, 124, 125, 126, 127, 128, 129, 130, 131, 132, 133, 134, 135, 136, 137, 138, 139, 140, 141, 142, 143, 144, 145, 146, 147, 148, 149, 150, 151, 152, 153, 154, 155, 156, 157, 158, 159, 160, 161, 162, 163, 164, 165, 166, 167, 168, 169, 170, 171, 172, 173, 174, 175, 176, 177, 178, 179, 180, 181, 182, 183, 184, 185, 186, 187, 188, 189, 190, 191, 192, 193, 194, 195, 196, 197, 198, 199, 200, 201, 202, 203, 204, 205, 206, 207, 208, 209, 210, 211, 212, 213, 214, 215, 216, 217, 218, 219, 220, 221, 222, 223, 224, 225, 226, 227, 228, 229, 230, 231, 232, 233, 234, 235, 236, 237, 238, 239, 240, 241, 242, 243, 244, 245, 246, 247, 248, 249, 250, 251, 252, 253, 254, 255, 256, 257, 258, 259, 260, 261, 262, 263, 264, 265, 266, 267, 268, 269, 270, 271, 272, 273, 274, 275, 276, 277, 278, 279, 280, 281, 282, 283, 284, 285, 286, 287, 288, 289, 290, 291, 292, 293, 294, 295, 296, 297, 298, 299, 300, 301, 302, 303, 304, 305, 306, 307, 308, 309, 310, 311, 312, 313, 314, 315, 316, 317, 318, 319, 320, 321, 322, 323, 324, 325, 326, 327, 328, 329, 330, 331, 332, 333, 334, 335, 336, 337, 338, 339, 340, 341, 342, 343],
      "LargestImagePixelValue": [42721, 41165, 41373, 40611, 39999, 40038, 40014, 39929, 40045, 39921, 39582, 39096, 39456, 39780, 39715, 38823, 39245, 38424, 43370, 42091, 39831, 38706, 39550, 40841, 39915, 39031, 39524, 38977, 38558, 39205, 39197, 38856, 40618, 39157, 39764, 39647, 39773, 39693, 39734, 39528, 38909, 39820, 41071, 40230, 39614, 39769, 39638, 39546, 39324, 39189, 39671, 39072, 39600, 39718, 39446, 39678, 39223, 39354, 39780, 39552, 39125, 39924, 39205, 39470, 40202, 39479, 39443, 39669, 39298, 39363, 39574, 39895, 40161, 39941, 41699, 42173, 41147, 40833, 40855, 40488, 39997, 40596, 40132, 40435, 39531, 39376, 39075, 39060, 40383, 45769, 40492, 39072, 38867, 39257, 39295, 40391, 39259, 39249, 39029, 39900, 39894, 39887, 39670, 39003, 39502, 39146, 39175, 39326, 39554, 39507, 39127, 38627, 39221, 39230, 38995, 39185, 39223, 38798, 38519, 39238, 38954, 39085, 39222, 39600, 38978, 38975, 38898, 39109, 39276, 38906, 40016, 40612, 39588, 38876, 39340, 39021, 38969, 39414, 38997, 39404, 38959, 40017, 39288, 40670, 39581, 40838, 39034, 38976, 39224, 39756, 39265, 39588, 38805, 39097, 39576, 40123, 39502, 40326, 39690, 38910, 39153, 39243, 39700, 39954, 39307, 39580, 39262, 39646, 40477, 40276, 40305, 40387, 40036, 39891, 39410, 40032, 40509, 40646, 40836, 40086, 40580, 40209, 41136, 41279, 41725, 41360, 41619, 41451, 40721, 41800, 41041, 40398, 39855, 40186, 41634, 41057, 40496, 41177, 39995, 39802, 40418, 39756, 40201, 39930, 39589, 40200, 40160, 40505, 40017, 40853, 39965, 40394, 40599, 41503, 39906, 39239, 40493, 39952, 39907, 39092, 38640, 39262, 38840, 38934, 40197, 39457, 39246, 39923, 39672, 39878, 39430, 39850, 38921, 39119, 39437, 39904, 40359, 41577, 41507, 40708, 40494, 40961, 40703, 41593, 41429, 41544, 41967, 41901, 41544, 39092, 39899, 40344, 41236, 38704, 38631, 39003, 38814, 39441, 39816, 39356, 40000, 40129, 39382, 40678, 40639, 40610, 40059, 40945, 40150, 40047, 40222, 39452, 39443, 39276, 39979, 39990, 40558, 39828, 40084, 39654, 39526, 39364, 39636, 39053, 39662, 39117, 39474, 39609, 39495, 39418, 39648, 39210, 39926, 39410, 39849, 39564, 39343, 39440, 39875, 39209, 38594, 38946, 38488, 39310, 38906, 38945, 38362, 39321, 39663, 39352, 39092, 39293, 39197, 39451, 39434, 39528, 39204, 39557, 39745, 39238, 39995, 39700, 39443, 39043, 38526, 39090, 39486, 41548, 41037, 39951, 38952, 39171, 41014, 43202, 41999, 40501, 41129, 40591, 40537, 42338, 41151, 42418, 41822],
