{
  "AcquisitionMatrixPE": 104,
  "AcquisitionNumber": 1,
  "AcquisitionTime": "15:39:22.017500",
  "BandwidthPerPixelPhaseEncode": 17.17,
  "BaseResolution": 104,
  "BodyPartExamined": "BRAIN",
  "CoilCombinationMethod": "Sum of Squares",
  "ConsistencyInfo": "N4_VE11C_LATEST_20160120",
  "ConversionSoftware": "dcm2niix",
  "ConversionSoftwareVersion": "v1.0.20220505",
  "DerivedVendorReportedEchoSpacing": 0.000560011,
  "DeviceSerialNumber": "167006",
  "DwellTime": 2.1e-06,
  "EchoTime": 0.037,
  "EchoTrainLength": 104,
  "EffectiveEchoSpacing": 0.000560011,
  "FlipAngle": 52,
  "HeudiconvVersion": "0.5.3.post811+g6206e14",
  "ImageComments": "Unaliased MB4/PE3/LB",
  "ImageOrientationPatientDICOM": [0.998303, 0.0150197, 0.0562623, 0.0149855, 0.867364, -0.497449],
  "ImageOrientationText": "Tra>Cor(-29.9)>Sag(3.2)",
  "ImageType": [
    "ORIGINAL",
    "PRIMARY",
    "M",
    "MB",
    "ND",
    "MOSAIC"
],
  "ImagingFrequency": 123.26,
  "InPlanePhaseEncodingDirectionDICOM": "COL",
  "InstitutionAddress": "Chemin Queen-Mary 4565,Montreal,District,CA,H3W 1W5",
  "InstitutionName": "IUGM",
  "InstitutionalDepartmentName": "Department",
  "MRAcquisitionType": "2D",
  "MagneticFieldStrength": 3,
  "Manufacturer": "Siemens",
  "ManufacturersModelName": "Prisma_fit",
  "MatrixCoilMode": "SENSE",
  "Modality": "MR",
  "MultibandAccelerationFactor": 4,
  "PartialFourier": 1,
  "PatientPosition": "HFS",
  "PercentPhaseFOV": 100,
  "PercentSampling": 100,
  "PhaseEncodingDirection": "j",
  "PhaseEncodingSteps": 104,
  "PhaseResolution": 1,
  "PixelBandwidth": 2290,
  "ProcedureStepDescription": "games^mario3",
  "ProtocolName": "func_task-mario3_run-03",
  "PulseSequenceDetails": "%CustomerSeq%\\cmrr_mbep2d_bold",
  "ReceiveCoilActiveElements": "HC1-7;NC1,2",
  "ReceiveCoilName": "HeadNeck_64",
  "ReconMatrixPE": 104,
  "RepetitionTime": 1.49,
  "SAR": 0.070332,
  "ScanOptions": "FS",
  "ScanningSequence": "EP",
  "SequenceName": "epfid2d1_104",
  "SequenceVariant": "SK\\SS",
  "SeriesDescription": "func_task-mario3_run-03",
  "SeriesNumber": 16,
  "ShimSetting": [619, -7183, -8858, 290, 25, -156, -61, 31],
  "SliceThickness": 2,
  "SliceTiming": [0, 0.7825, 0.0975, 0.88, 0.195, 0.98, 0.2925, 1.0775, 0.39, 1.175, 0.49, 1.2725, 0.5875, 1.37, 0.685, 0, 0.7825, 0.0975, 0.88, 0.195, 0.98, 0.2925, 1.0775, 0.39, 1.175, 0.49, 1.2725, 0.5875, 1.37, 0.685, 0, 0.7825, 0.0975, 0.88, 0.195, 0.98, 0.2925, 1.0775, 0.39, 1.175, 0.49, 1.2725, 0.5875, 1.37, 0.685, 0, 0.7825, 0.0975, 0.88, 0.195, 0.98, 0.2925, 1.0775, 0.39, 1.175, 0.49, 1.2725, 0.5875, 1.37, 0.685],
  "SoftwareVersions": "syngo MR E11",
  "SpacingBetweenSlices": 2,
  "StationName": "MRC35049",
  "TaskName": "mario3",
  "TotalReadoutTime": 0.0576811,
  "TxRefAmp": 301.694,
  "WipMemBlock": "af9674ee-d4f0-4d1e-945b-78618abbe691||Sequence: R017 ve11c/master r/75a17815+; Jun 28 2022 16:32:11 by eja",
  "dcmmeta_affine": [
    [-1.9966061115264893, 0.029971018433570862, 0.11254291981458664, 103.28376007080078],
    [-0.030039407312870026, 1.7347278594970703, -0.994895339012146, -49.20748519897461],
    [0.11252468079328537, 0.9948974251747131, 1.7313339710235596, -98.86970520019531],
    [0.0, 0.0, 0.0, 1.0]
],
  "dcmmeta_reorient_transform": [
    [0.0, -1.0, 0.0, 103.0],
    [1.0, 0.0, 0.0, 0.0],
    [0.0, 0.0, 1.0, 0.0],
    [0.0, 0.0, 0.0, 1.0]
],
  "dcmmeta_shape": [104, 104, 60, 318],
  "dcmmeta_slice_dim": 2,
  "dcmmeta_version": 0.6,
  "global": {
    "const": {
      "AcquisitionMatrix": [104, 0, 0, 104],
      "AngioFlag": "N",
      "BitsAllocated": 16,
      "BitsStored": 16,
      "BodyPartExamined": "BRAIN",
      "Columns": 832,
      "EchoNumbers": 1,
      "EchoTime": 37.0,
      "EchoTrainLength": 104,
      "FlipAngle": 52.0,
      "HighBit": 15,
      "ImageOrientationPatient": [0.99830303888915, 0.01501970319936, 0.05626234140598, 0.01498550947068, 0.86736395050446, -0.4974487027536],
      "ImagePositionPatient": [-844.04484051493, -771.84478755858, 324.78839663533],
      "ImageType": [
        "ORIGINAL",
        "PRIMARY",
        "M",
        "MB",
        "ND",
        "MOSAIC"
],
      "ImagedNucleus": "1H",
      "ImagingFrequency": 123.26023,
      "InPlanePhaseEncodingDirection": "COL",
      "MRAcquisitionType": "2D",
      "MagneticFieldStrength": 3.0,
      "Manufacturer": "SIEMENS",
      "ManufacturerModelName": "Prisma_fit",
      "Modality": "MR",
      "NumberOfAverages": 1.0,
      "NumberOfPhaseEncodingSteps": 104,
      "PercentPhaseFieldOfView": 100.0,
      "PercentSampling": 100.0,
      "PerformedProcedureStepStartTime": "143058.604000",
      "PhotometricInterpretation": "MONOCHROME2",
      "PixelBandwidth": 2290.0,
      "PixelRepresentation": 0,
      "PixelSpacing": [2.0, 2.0],
      "ProtocolName": "func_task-mario3_run-03",
      "RepetitionTime": 1490.0,
      "Rows": 832,
      "SAR": 0.0703320173411,
      "SamplesPerPixel": 1,
      "ScanOptions": "FS",
      "ScanningSequence": "EP",
      "SequenceName": "epfid2d1_104",
      "SequenceVariant": [
        "SK",
        "SS"
],
      "SeriesDescription": "func_task-mario3_run-03",
      "SeriesNumber": 16,
      "SeriesTime": "154047.499000",
      "SliceLocation": -55.298164441952,
      "SliceThickness": 2.0,
      "SmallestImagePixelValue": 0,
      "SoftwareVersions": "syngo MR E11",
      "SpacingBetweenSlices": 2.0000000250943,
      "SpecificCharacterSet": "ISO_IR 100",
      "StudyID": "1",
      "StudyTime": "143058.522000",
      "TransmitCoilName": "Body",
      "VariableFlipAngleFlag": "N",
      "WindowCenterWidthExplanation": "Algo1",
      "dBdt": 0.0},
    "slices": {}
  },
  "time": {
    "samples": {
      "AcquisitionNumber": [1, 2, 3, 4, 5, 6, 7, 8, 9, 10, 11, 12, 13, 14, 15, 16, 17, 18, 19, 20, 21, 22, 23, 24, 25, 26, 27, 28, 29, 30, 31, 32, 33, 34, 35, 36, 37, 38, 39, 40, 41, 42, 43, 44, 45, 46, 47, 48, 49, 50, 51, 52, 53, 54, 55, 56, 57, 58, 59, 60, 61, 62, 63, 64, 65, 66, 67, 68, 69, 70, 71, 72, 73, 74, 75, 76, 77, 78, 79, 80, 81, 82, 83, 84, 85, 86, 87, 88, 89, 90, 91, 92, 93, 94, 95, 96, 97, 98, 99, 100, 101, 102, 103, 104, 105, 106, 107, 108, 109, 110, 111, 112, 113, 114, 115, 116, 117, 118, 119, 120, 121, 122, 123, 124, 125, 126, 127, 128, 129, 130, 131, 132, 133, 134, 135, 136, 137, 138, 139, 140, 141, 142, 143, 144, 145, 146, 147, 148, 149, 150, 151, 152, 153, 154, 155, 156, 157, 158, 159, 160, 161, 162, 163, 164, 165, 166, 167, 168, 169, 170, 171, 172, 173, 174, 175, 176, 177, 178, 179, 180, 181, 182, 183, 184, 185, 186, 187, 188, 189, 190, 191, 192, 193, 194, 195, 196, 197, 198, 199, 200, 201, 202, 203, 204, 205, 206, 207, 208, 209, 210, 211, 212, 213, 214, 215, 216, 217, 218, 219, 220, 221, 222, 223, 224, 225, 226, 227, 228, 229, 230, 231, 232, 233, 234, 235, 236, 237, 238, 239, 240, 241, 242, 243, 244, 245, 246, 247, 248, 249, 250, 251, 252, 253, 254, 255, 256, 257, 258, 259, 260, 261, 262, 263, 264, 265, 266, 267, 268, 269, 270, 271, 272, 273, 274, 275, 276, 277, 278, 279, 280, 281, 282, 283, 284, 285, 286, 287, 288, 289, 290, 291, 292, 293, 294, 295, 296, 297, 298, 299, 300, 301, 302, 303, 304, 305, 306, 307, 308, 309, 310, 311, 312, 313, 314, 315, 316, 317, 318],
      "AcquisitionTime": ["153922.017500", "153923.507500", "153924.997500", "153926.487500", "153927.977500", "153929.467500", "153930.957500", "153932.447500", "153933.937500", "153935.427500", "153936.917500", "153938.407500", "153939.897500", "153941.387500", "153942.877500", "153944.367500", "153945.857500", "153947.347500", "153948.837500", "153950.327500", "153951.817500", "153953.307500", "153954.797500", "153956.287500", "153957.777500", "153959.267500", "154000.757500", "154002.247500", "154003.737500", "154005.227500", "154006.717500", "154008.207500", "154009.697500", "154011.187500", "154012.677500", "154014.167500", "154015.657500", "154017.147500", "154018.637500", "154020.127500", "154021.617500", "154023.107500", "154024.597500", "154026.087500", "154027.577500", "154029.067500", "154030.557500", "154032.047500", "154033.537500", "154035.027500", "154036.517500", "154038.007500", "154039.497500", "154040.987500", "154042.477500", "154043.967500", "154045.457500", "154046.947500", "154048.437500", "154049.927500", "154051.417500", "154052.907500", "154054.397500", "154055.887500", "154057.377500", "154058.867500", "154100.357500", "154101.847500", "154103.337500", "154104.827500", "154106.317500", "154107.807500", "154109.297500", "154110.787500", "154112.277500", "154113.767500", "154115.257500", "154116.747500", "154118.237500", "154119.727500", "154121.217500", "154122.707500", "154124.197500", "154125.687500", "154127.177500", "154128.667500", "154130.157500", "154131.647500", "154133.137500", "154134.627500", "154136.117500", "154137.607500", "154139.097500", "154140.587500", "154142.077500", "154143.567500", "154145.057500", "154146.547500", "154148.037500", "154149.527500", "154151.017500", "154152.507500", "154153.997500", "154155.487500", "154156.977500", "154158.467500", "154159.957500", "154201.447500", "154202.937500", "154204.427500", "154205.917500", "154207.407500", "154208.897500", "154210.387500", "154211.877500", "154213.367500", "154214.857500", "154216.347500", "154217.837500", "154219.327500", "154220.817500", "154222.307500", "154223.797500", "154225.287500", "154226.777500", "154228.267500", "154229.757500", "154231.247500", "154232.737500", "154234.227500", "154235.717500", "154237.207500", "154238.697500", "154240.187500", "154241.677500", "154243.167500", "154244.657500", "154246.147500", "154247.637500", "154249.127500", "154250.617500", "154252.107500", "154253.597500", "154255.087500", "154256.577500", "154258.067500", "154259.557500", "154301.047500", "154302.537500", "154304.027500", "154305.517500", "154307.007500", "154308.497500", "154309.987500", "154311.477500", "154312.967500", "154314.457500", "154315.947500", "154317.437500", "154318.927500", "154320.417500", "154321.907500", "154323.397500", "154324.887500", "154326.377500", "154327.867500", "154329.357500", "154330.847500", "154332.337500", "154333.827500", "154335.317500", "154336.807500", "154338.297500", "154339.787500", "154341.277500", "154342.767500", "154344.257500", "154345.747500", "154347.237500", "154348.727500", "154350.217500", "154351.707500", "154353.197500", "154354.687500", "154356.177500", "154357.667500", "154359.157500", "154400.647500", "154402.137500", "154403.627500", "154405.117500", "154406.607500", "154408.097500", "154409.587500", "154411.077500", "154412.567500", "154414.057500", "154415.547500", "154417.037500", "154418.527500", "154420.017500", "154421.507500", "154422.997500", "154424.487500", "154425.977500", "154427.467500", "154428.957500", "154430.447500", "154431.937500", "154433.427500", "154434.917500", "154436.407500", "154437.897500", "154439.387500", "154440.877500", "154442.367500", "154443.857500", "154445.347500", "154446.837500", "154448.327500", "154449.817500", "154451.307500", "154452.797500", "154454.287500", "154455.777500", "154457.267500", "154458.757500", "154500.247500", "154501.737500", "154503.227500", "154504.717500", "154506.207500", "154507.697500", "154509.187500", "154510.677500", "154512.167500", "154513.657500", "154515.147500", "154516.637500", "154518.127500", "154519.617500", "154521.107500", "154522.597500", "154524.087500", "154525.577500", "154527.067500", "154528.557500", "154530.047500", "154531.537500", "154533.027500", "154534.517500", "154536.007500", "154537.497500", "154538.987500", "154540.477500", "154541.967500", "154543.457500", "154544.947500", "154546.437500", "154547.927500", "154549.417500", "154550.907500", "154552.397500", "154553.887500", "154555.377500", "154556.867500", "154558.357500", "154559.847500", "154601.337500", "154602.827500", "154604.317500", "154605.807500", "154607.297500", "154608.787500", "154610.277500", "154611.767500", "154613.257500", "154614.747500", "154616.237500", "154617.727500", "154619.217500", "154620.707500", "154622.197500", "154623.687500", "154625.177500", "154626.667500", "154628.157500", "154629.647500", "154631.137500", "154632.627500", "154634.117500", "154635.607500", "154637.097500", "154638.587500", "154640.077500", "154641.567500", "154643.057500", "154644.547500", "154646.037500", "154647.527500", "154649.017500", "154650.507500", "154651.997500", "154653.487500", "154654.977500", "154656.467500", "154657.957500", "154659.447500", "154700.937500", "154702.427500", "154703.917500", "154705.407500", "154706.897500", "154708.387500", "154709.877500", "154711.367500", "154712.857500", "154714.347500"],
      "ContentTime": ["154047.504000", "154047.508000", "154047.512000", "154047.515000", "154047.518000", "154047.522000", "154047.525000", "154047.528000", "154047.532000", "154047.535000", "154047.538000", "154047.542000", "154047.545000", "154047.548000", "154047.552000", "154047.555000", "154047.561000", "154047.565000", "154047.568000", "154047.571000", "154047.575000", "154047.578000", "154047.581000", "154047.585000", "154047.588000", "154047.591000", "154047.595000", "154047.598000", "154047.601000", "154047.605000", "154047.608000", "154047.611000", "154047.615000", "154047.618000", "154047.621000", "154047.625000", "154047.628000", "154107.462000", "154107.466000", "154107.469000", "154107.473000", "154107.476000", "154107.479000", "154107.483000", "154107.486000", "154107.490000", "154107.493000", "154107.496000", "154107.500000", "154107.503000", "154107.506000", "154107.510000", "154107.513000", "154107.516000", "154107.520000", "154107.523000", "154107.526000", "154107.530000", "154127.462000", "154127.466000", "154127.469000", "154127.473000", "154127.476000", "154127.479000", "154127.483000", "154127.486000", "154127.489000", "154127.493000", "154127.496000", "154127.499000", "154127.503000", "154127.506000", "154127.509000", "154127.513000", "154127.516000", "154127.519000", "154127.523000", "154127.526000", "154207.461000", "154207.465000", "154207.468000", "154207.472000", "154207.475000", "154207.478000", "154207.482000", "154207.485000", "154207.488000", "154207.492000", "154207.495000", "154207.499000", "154207.502000", "154207.505000", "154207.509000", "154207.512000", "154207.515000", "154207.519000", "154207.522000", "154207.525000", "154207.529000", "154207.532000", "154207.535000", "154207.539000", "154207.542000", "154207.545000", "154207.549000", "154207.552000", "154207.556000", "154207.559000", "154207.562000", "154207.566000", "154247.462000", "154247.466000", "154247.469000", "154247.478000", "154247.482000", "154247.485000", "154247.489000", "154247.492000", "154247.495000", "154247.499000", "154247.502000", "154247.505000", "154247.509000", "154247.512000", "154247.515000", "154247.519000", "154247.522000", "154247.525000", "154247.529000", "154247.532000", "154247.535000", "154247.539000", "154247.542000", "154247.545000", "154247.549000", "154247.552000", "154247.555000", "154327.462000", "154327.466000", "154327.469000", "154327.473000", "154327.476000", "154327.479000", "154327.483000", "154327.486000", "154327.490000", "154327.493000", "154327.496000", "154327.500000", "154327.503000", "154327.506000", "154327.510000", "154327.513000", "154327.516000", "154327.520000", "154327.523000", "154327.526000", "154327.530000", "154327.533000", "154327.536000", "154327.540000", "154327.543000", "154327.546000", "154327.550000", "154407.463000", "154407.467000", "154407.470000", "154407.474000", "154407.477000", "154407.481000", "154407.484000", "154407.488000", "154407.491000", "154407.494000", "154407.497000", "154407.501000", "154407.504000", "154407.508000", "154407.511000", "154407.514000", "154407.518000", "154407.521000", "154407.524000", "154407.528000", "154407.531000", "154407.534000", "154407.538000", "154407.541000", "154407.544000", "154407.548000", "154407.551000", "154447.462000", "154447.466000", "154447.469000", "154447.473000", "154447.476000", "154447.479000", "154447.483000", "154447.486000", "154447.490000", "154447.493000", "154447.496000", "154447.500000", "154447.503000", "154447.506000", "154447.510000", "154447.513000", "154447.516000", "154447.520000", "154447.523000", "154447.526000", "154447.530000", "154447.533000", "154447.536000", "154447.540000", "154447.544000", "154447.548000", "154527.462000", "154527.466000", "154527.470000", "154527.473000", "154527.489000", "154527.492000", "154527.496000", "154527.499000", "154527.503000", "154527.506000", "154527.509000", "154527.513000", "154527.516000", "154527.520000", "154527.523000", "154527.527000", "154527.530000", "154527.534000", "154527.537000", "154527.541000", "154527.544000", "154527.548000", "154527.551000", "154527.554000", "154527.558000", "154527.561000", "154527.565000", "154547.462000", "154547.466000", "154547.470000", "154547.473000", "154547.476000", "154547.480000", "154547.483000", "154547.487000", "154547.490000", "154547.493000", "154547.510000", "154547.514000", "154547.517000", "154547.521000", "154627.462000", "154627.466000", "154627.470000", "154627.473000", "154627.476000", "154627.480000", "154627.483000", "154627.486000", "154627.491000", "154627.495000", "154627.498000", "154627.502000", "154627.506000", "154627.510000", "154627.514000", "154627.517000", "154627.521000", "154627.525000", "154627.528000", "154627.531000", "154627.535000", "154627.538000", "154627.542000", "154627.545000", "154627.548000", "154627.552000", "154707.462000", "154707.466000", "154707.469000", "154707.473000", "154707.476000", "154707.480000", "154707.483000", "154707.486000", "154707.490000", "154707.493000", "154707.496000", "154707.500000", "154707.503000", "154707.506000", "154707.510000", "154707.513000", "154707.517000", "154707.520000", "154707.523000", "154707.527000", "154707.530000", "154707.533000", "154707.537000", "154707.540000", "154707.544000", "154707.547000", "154707.550000", "154717.101000", "154717.105000", "154717.109000", "154717.112000", "154717.116000", "154717.119000", "154717.122000"],
      "InstanceCreationTime": ["154047.504000", "154047.508000", "154047.512000", "154047.515000", "154047.518000", "154047.522000", "154047.525000", "154047.528000", "154047.532000", "154047.535000", "154047.538000", "154047.542000", "154047.545000", "154047.548000", "154047.552000", "154047.555000", "154047.561000", "154047.565000", "154047.568000", "154047.571000", "154047.575000", "154047.578000", "154047.581000", "154047.585000", "154047.588000", "154047.591000", "154047.595000", "154047.598000", "154047.601000", "154047.605000", "154047.608000", "154047.611000", "154047.615000", "154047.618000", "154047.621000", "154047.625000", "154047.628000", "154107.462000", "154107.466000", "154107.469000", "154107.473000", "154107.476000", "154107.479000", "154107.483000", "154107.486000", "154107.490000", "154107.493000", "154107.496000", "154107.500000", "154107.503000", "154107.506000", "154107.510000", "154107.513000", "154107.516000", "154107.520000", "154107.523000", "154107.526000", "154107.530000", "154127.462000", "154127.466000", "154127.469000", "154127.473000", "154127.476000", "154127.479000", "154127.483000", "154127.486000", "154127.489000", "154127.493000", "154127.496000", "154127.499000", "154127.503000", "154127.506000", "154127.509000", "154127.513000", "154127.516000", "154127.519000", "154127.523000", "154127.526000", "154207.461000", "154207.465000", "154207.468000", "154207.472000", "154207.475000", "154207.478000", "154207.482000", "154207.485000", "154207.488000", "154207.492000", "154207.495000", "154207.499000", "154207.502000", "154207.505000", "154207.509000", "154207.512000", "154207.515000", "154207.519000", "154207.522000", "154207.525000", "154207.529000", "154207.532000", "154207.535000", "154207.539000", "154207.542000", "154207.545000", "154207.549000", "154207.552000", "154207.556000", "154207.559000", "154207.562000", "154207.566000", "154247.462000", "154247.466000", "154247.469000", "154247.478000", "154247.482000", "154247.485000", "154247.489000", "154247.492000", "154247.495000", "154247.499000", "154247.502000", "154247.505000", "154247.509000", "154247.512000", "154247.515000", "154247.519000", "154247.522000", "154247.525000", "154247.529000", "154247.532000", "154247.535000", "154247.539000", "154247.542000", "154247.545000", "154247.549000", "154247.552000", "154247.555000", "154327.462000", "154327.466000", "154327.469000", "154327.473000", "154327.476000", "154327.479000", "154327.483000", "154327.486000", "154327.490000", "154327.493000", "154327.496000", "154327.500000", "154327.503000", "154327.506000", "154327.510000", "154327.513000", "154327.516000", "154327.520000", "154327.523000", "154327.526000", "154327.530000", "154327.533000", "154327.536000", "154327.540000", "154327.543000", "154327.546000", "154327.550000", "154407.463000", "154407.467000", "154407.470000", "154407.474000", "154407.477000", "154407.481000", "154407.484000", "154407.488000", "154407.491000", "154407.494000", "154407.497000", "154407.501000", "154407.504000", "154407.508000", "154407.511000", "154407.514000", "154407.518000", "154407.521000", "154407.524000", "154407.528000", "154407.531000", "154407.534000", "154407.538000", "154407.541000", "154407.544000", "154407.548000", "154407.551000", "154447.462000", "154447.466000", "154447.469000", "154447.473000", "154447.476000", "154447.479000", "154447.483000", "154447.486000", "154447.490000", "154447.493000", "154447.496000", "154447.500000", "154447.503000", "154447.506000", "154447.510000", "154447.513000", "154447.516000", "154447.520000", "154447.523000", "154447.526000", "154447.530000", "154447.533000", "154447.536000", "154447.540000", "154447.544000", "154447.548000", "154527.462000", "154527.466000", "154527.470000", "154527.473000", "154527.489000", "154527.492000", "154527.496000", "154527.499000", "154527.503000", "154527.506000", "154527.509000", "154527.513000", "154527.516000", "154527.520000", "154527.523000", "154527.527000", "154527.530000", "154527.534000", "154527.537000", "154527.541000", "154527.544000", "154527.548000", "154527.551000", "154527.554000", "154527.558000", "154527.561000", "154527.565000", "154547.462000", "154547.466000", "154547.470000", "154547.473000", "154547.476000", "154547.480000", "154547.483000", "154547.487000", "154547.490000", "154547.493000", "154547.510000", "154547.514000", "154547.517000", "154547.521000", "154627.462000", "154627.466000", "154627.470000", "154627.473000", "154627.476000", "154627.480000", "154627.483000", "154627.486000", "154627.491000", "154627.495000", "154627.498000", "154627.502000", "154627.506000", "154627.510000", "154627.514000", "154627.517000", "154627.521000", "154627.525000", "154627.528000", "154627.531000", "154627.535000", "154627.538000", "154627.542000", "154627.545000", "154627.548000", "154627.552000", "154707.462000", "154707.466000", "154707.469000", "154707.473000", "154707.476000", "154707.480000", "154707.483000", "154707.486000", "154707.490000", "154707.493000", "154707.496000", "154707.500000", "154707.503000", "154707.506000", "154707.510000", "154707.513000", "154707.517000", "154707.520000", "154707.523000", "154707.527000", "154707.530000", "154707.533000", "154707.537000", "154707.540000", "154707.544000", "154707.547000", "154707.550000", "154717.101000", "154717.105000", "154717.109000", "154717.112000", "154717.116000", "154717.119000", "154717.122000"],
      "InstanceNumber": [1, 2, 3, 4, 5, 6, 7, 8, 9, 10, 11, 12, 13, 14, 15, 16, 17, 18, 19, 20, 21, 22, 23, 24, 25, 26, 27, 28, 29, 30, 31, 32, 33, 34, 35, 36, 37, 38, 39, 40, 41, 42, 43, 44, 45, 46, 47, 48, 49, 50, 51, 52, 53, 54, 55, 56, 57, 58, 59, 60, 61, 62, 63, 64, 65, 66, 67, 68, 69, 70, 71, 72, 73, 74, 75, 76, 77, 78, 79, 80, 81, 82, 83, 84, 85, 86, 87, 88, 89, 90, 91, 92, 93, 94, 95, 96, 97, 98, 99, 100, 101, 102, 103, 104, 105, 106, 107, 108, 109, 110, 111, 112, 113, 114, 115, 116, 117, 118, 119, 120, 121, 122, 123, 124, 125, 126, 127, 128, 129, 130, 131, 132, 133, 134, 135, 136, 137, 138, 139, 140, 141, 142, 143, 144, 145, 146, 147, 148, 149, 150, 151, 152, 153, 154, 155, 156, 157, 158, 159, 160, 161, 162, 163, 164, 165, 166, 167, 168, 169, 170, 171, 172, 173, 174, 175, 176, 177, 178, 179, 180, 181, 182, 183, 184, 185, 186, 187, 188, 189, 190, 191, 192, 193, 194, 195, 196, 197, 198, 199, 200, 201, 202, 203, 204, 205, 206, 207, 208, 209, 210, 211, 212, 213, 214, 215, 216, 217, 218, 219, 220, 221, 222, 223, 224, 225, 226, 227, 228, 229, 230, 231, 232, 233, 234, 235, 236, 237, 238, 239, 240, 241, 242, 243, 244, 245, 246, 247, 248, 249, 250, 251, 252, 253, 254, 255, 256, 257, 258, 259, 260, 261, 262, 263, 264, 265, 266, 267, 268, 269, 270, 271, 272, 273, 274, 275, 276, 277, 278, 279, 280, 281, 282, 283, 284, 285, 286, 287, 288, 289, 290, 291, 292, 293, 294, 295, 296, 297, 298, 299, 300, 301, 302, 303, 304, 305, 306, 307, 308, 309, 310, 311, 312, 313, 314, 315, 316, 317, 318],
      "LargestImagePixelValue": [43055, 41178, 40410, 40146, 39948, 39977, 39937, 39481, 39115, 39039, 39113, 39066, 38743, 37769, 39125, 39311, 39710, 40498, 39748, 39270, 38813, 38855, 39822, 40211, 41252, 39222, 39646, 39025, 40460, 39670, 40068, 40728, 39715, 39516, 39479, 40157, 40369, 39329, 41240, 40950, 39677, 39101, 39607, 39976, 39907, 39885, 39687, 40622, 40143, 39551, 39185, 41737, 39680, 39657, 39006, 39269, 38651, 39482, 38612, 40093, 38986, 39149, 39104, 41174, 39236, 39712, 40459, 40374, 40403, 39422, 40233, 39121, 40103, 39006, 38972, 40157, 39402, 41327, 41340, 41343, 40233, 40025, 41946, 39591, 40301, 41340, 40823, 40255, 40013, 40186, 38569, 39372, 39806, 38329, 39148, 38356, 38556, 37824, 38289, 38566, 39286, 40512, 40143, 41602, 39603, 39214, 39299, 39096, 38844, 39077, 39320, 38655, 38713, 39139, 39356, 39076, 38725, 39388, 39424, 39556, 39003, 39894, 40258, 39017, 39879, 39315, 39600, 39587, 39212, 38961, 39305, 39343, 39872, 40026, 39780, 40258, 40196, 39815, 39629, 39751, 39691, 40422, 39977, 40959, 40154, 39567, 39302, 39776, 39358, 39435, 39455, 39152, 39776, 39341, 39882, 40300, 39997, 39257, 38704, 38474, 39406, 39912, 39133, 38524, 38740, 38789, 39533, 40731, 41187, 40302, 41689, 41596, 42494, 42175, 41715, 41028, 42052, 40118, 39898, 42244, 40114, 40997, 40064, 41322, 40243, 40872, 42057, 40417, 40855, 39869, 40649, 40348, 41104, 40539, 39916, 39609, 39600, 39692, 39540, 39073, 38808, 38635, 38772, 38741, 38871, 38705, 38794, 39255, 38846, 39410, 39416, 38580, 39158, 38820, 38843, 39247, 38602, 38840, 39043, 39132, 38956, 38866, 39268, 38751, 39612, 39462, 39388, 38460, 38902, 39381, 38636, 38350, 40924, 39356, 39025, 38311, 38171, 38654, 38667, 38866, 38968, 38941, 39764, 39493, 39251, 39101, 40009, 39151, 39090, 39509, 39229, 40051, 39864, 39644, 38999, 39748, 39690, 39709, 39302, 39241, 39395, 39537, 40058, 41238, 39612, 39437, 39230, 41026, 40143, 39223, 38793, 40007, 39872, 39518, 39345, 38523, 38772, 39402, 39457, 38827, 38671, 39427, 39634, 40147, 40850, 39596, 40769, 40419, 40814, 39977, 38494, 39429, 39121, 39382, 39371, 39678, 38904, 38729, 38981, 38475, 38692, 38695, 38785, 39541, 39775, 39636, 39879, 40397, 39158, 39923, 38887, 39651, 39966, 39063, 39129, 39193, 38514, 38575],
