{
  "AcquisitionMatrixPE": 104,
  "AcquisitionNumber": 1,
  "AcquisitionTime": "15:30:1.130000",
  "BandwidthPerPixelPhaseEncode": 17.17,
  "BaseResolution": 104,
  "BodyPartExamined": "BRAIN",
  "CoilCombinationMethod": "Sum of Squares",
  "ConsistencyInfo": "N4_VE11C_LATEST_20160120",
  "ConversionSoftware": "dcm2niix",
  "ConversionSoftwareVersion": "v1.0.20220505",
  "DerivedVendorReportedEchoSpacing": 0.000560011,
  "DeviceSerialNumber": "167006",
  "DwellTime": 2.1e-06,
  "EchoTime": 0.037,
  "EchoTrainLength": 104,
  "EffectiveEchoSpacing": 0.000560011,
  "FlipAngle": 52,
  "HeudiconvVersion": "0.5.3.post811+g6206e14",
  "ImageComments": "Unaliased MB4/PE3/LB",
  "ImageOrientationPatientDICOM": [0.998303, 0.0150197, 0.0562623, 0.0149855, 0.867364, -0.497449],
  "ImageOrientationText": "Tra>Cor(-29.9)>Sag(3.2)",
  "ImageType": [
    "ORIGINAL",
    "PRIMARY",
    "M",
    "MB",
    "ND",
    "MOSAIC"
],
  "ImagingFrequency": 123.26,
  "InPlanePhaseEncodingDirectionDICOM": "COL",
  "InstitutionAddress": "Chemin Queen-Mary 4565,Montreal,District,CA,H3W 1W5",
  "InstitutionName": "IUGM",
  "InstitutionalDepartmentName": "Department",
  "MRAcquisitionType": "2D",
  "MagneticFieldStrength": 3,
  "Manufacturer": "Siemens",
  "ManufacturersModelName": "Prisma_fit",
  "MatrixCoilMode": "SENSE",
  "Modality": "MR",
  "MultibandAccelerationFactor": 4,
  "PartialFourier": 1,
  "PatientPosition": "HFS",
  "PercentPhaseFOV": 100,
  "PercentSampling": 100,
  "PhaseEncodingDirection": "j",
  "PhaseEncodingSteps": 104,
  "PhaseResolution": 1,
  "PixelBandwidth": 2290,
  "ProcedureStepDescription": "games^mario3",
  "ProtocolName": "func_task-mario3_run-02",
  "PulseSequenceDetails": "%CustomerSeq%\\cmrr_mbep2d_bold",
  "ReceiveCoilActiveElements": "HC1-7;NC1,2",
  "ReceiveCoilName": "HeadNeck_64",
  "ReconMatrixPE": 104,
  "RepetitionTime": 1.49,
  "SAR": 0.070332,
  "ScanOptions": "FS",
  "ScanningSequence": "EP",
  "SequenceName": "epfid2d1_104",
  "SequenceVariant": "SK\\SS",
  "SeriesDescription": "func_task-mario3_run-02",
  "SeriesNumber": 13,
  "ShimSetting": [619, -7183, -8858, 290, 25, -156, -61, 31],
  "SliceThickness": 2,
  "SliceTiming": [0, 0.785, 0.0975, 0.8825, 0.1975, 0.98, 0.295, 1.0775, 0.3925, 1.1775, 0.49, 1.275, 0.5875, 1.3725, 0.6875, 0, 0.785, 0.0975, 0.8825, 0.1975, 0.98, 0.295, 1.0775, 0.3925, 1.1775, 0.49, 1.275, 0.5875, 1.3725, 0.6875, 0, 0.785, 0.0975, 0.8825, 0.1975, 0.98, 0.295, 1.0775, 0.3925, 1.1775, 0.49, 1.275, 0.5875, 1.3725, 0.6875, 0, 0.785, 0.0975, 0.8825, 0.1975, 0.98, 0.295, 1.0775, 0.3925, 1.1775, 0.49, 1.275, 0.5875, 1.3725, 0.6875],
  "SoftwareVersions": "syngo MR E11",
  "SpacingBetweenSlices": 2,
  "StationName": "MRC35049",
  "TaskName": "mario3",
  "TotalReadoutTime": 0.0576811,
  "TxRefAmp": 301.694,
  "WipMemBlock": "5a023ff6-e3b2-4c1d-a8e6-6121dcafe0d6||Sequence: R017 ve11c/master r/75a17815+; Jun 28 2022 16:32:11 by eja",
  "dcmmeta_affine": [
    [-1.9966061115264893, 0.029971018433570862, 0.11254291981458664, 103.28376007080078],
    [-0.030039407312870026, 1.7347278594970703, -0.994895339012146, -49.20748519897461],
    [0.11252468079328537, 0.9948974251747131, 1.7313339710235596, -98.86970520019531],
    [0.0, 0.0, 0.0, 1.0]
],
  "dcmmeta_reorient_transform": [
    [0.0, -1.0, 0.0, 103.0],
    [1.0, 0.0, 0.0, 0.0],
    [0.0, 0.0, 1.0, 0.0],
    [0.0, 0.0, 0.0, 1.0]
],
  "dcmmeta_shape": [104, 104, 60, 329],
  "dcmmeta_slice_dim": 2,
  "dcmmeta_version": 0.6,
  "global": {
    "const": {
      "AcquisitionMatrix": [104, 0, 0, 104],
      "AngioFlag": "N",
      "BitsAllocated": 16,
      "BitsStored": 16,
      "BodyPartExamined": "BRAIN",
      "Columns": 832,
      "EchoNumbers": 1,
      "EchoTime": 37.0,
      "EchoTrainLength": 104,
      "FlipAngle": 52.0,
      "HighBit": 15,
      "ImageOrientationPatient": [0.99830303888915, 0.01501970319936, 0.05626234140598, 0.01498550947068, 0.86736395050446, -0.4974487027536],
      "ImagePositionPatient": [-844.04484051493, -771.84478755858, 324.78839663533],
      "ImageType": [
        "ORIGINAL",
        "PRIMARY",
        "M",
        "MB",
        "ND",
        "MOSAIC"
],
      "ImagedNucleus": "1H",
      "ImagingFrequency": 123.260224,
      "InPlanePhaseEncodingDirection": "COL",
      "MRAcquisitionType": "2D",
      "MagneticFieldStrength": 3.0,
      "Manufacturer": "SIEMENS",
      "ManufacturerModelName": "Prisma_fit",
      "Modality": "MR",
      "NumberOfAverages": 1.0,
      "NumberOfPhaseEncodingSteps": 104,
      "PercentPhaseFieldOfView": 100.0,
      "PercentSampling": 100.0,
      "PerformedProcedureStepStartTime": "143058.604000",
      "PhotometricInterpretation": "MONOCHROME2",
      "PixelBandwidth": 2290.0,
      "PixelRepresentation": 0,
      "PixelSpacing": [2.0, 2.0],
      "ProtocolName": "func_task-mario3_run-02",
      "RepetitionTime": 1490.0,
      "Rows": 832,
      "SAR": 0.0703320173411,
      "SamplesPerPixel": 1,
      "ScanOptions": "FS",
      "ScanningSequence": "EP",
      "SequenceName": "epfid2d1_104",
      "SequenceVariant": [
        "SK",
        "SS"
],
      "SeriesDescription": "func_task-mario3_run-02",
      "SeriesNumber": 13,
      "SeriesTime": "153127.956000",
      "SliceLocation": -55.298164441952,
      "SliceThickness": 2.0,
      "SmallestImagePixelValue": 0,
      "SoftwareVersions": "syngo MR E11",
      "SpacingBetweenSlices": 2.0000000250943,
      "SpecificCharacterSet": "ISO_IR 100",
      "StudyID": "1",
      "StudyTime": "143058.522000",
      "TransmitCoilName": "Body",
      "VariableFlipAngleFlag": "N",
      "WindowCenterWidthExplanation": "Algo1",
      "dBdt": 0.0},
    "slices": {}
  },
  "time": {
    "samples": {
      "AcquisitionNumber": [1, 2, 3, 4, 5, 6, 7, 8, 9, 10, 11, 12, 13, 14, 15, 16, 17, 18, 19, 20, 21, 22, 23, 24, 25, 26, 27, 28, 29, 30, 31, 32, 33, 34, 35, 36, 37, 38, 39, 40, 41, 42, 43, 44, 45, 46, 47, 48, 49, 50, 51, 52, 53, 54, 55, 56, 57, 58, 59, 60, 61, 62, 63, 64, 65, 66, 67, 68, 69, 70, 71, 72, 73, 74, 75, 76, 77, 78, 79, 80, 81, 82, 83, 84, 85, 86, 87, 88, 89, 90, 91, 92, 93, 94, 95, 96, 97, 98, 99, 100, 101, 102, 103, 104, 105, 106, 107, 108, 109, 110, 111, 112, 113, 114, 115, 116, 117, 118, 119, 120, 121, 122, 123, 124, 125, 126, 127, 128, 129, 130, 131, 132, 133, 134, 135, 136, 137, 138, 139, 140, 141, 142, 143, 144, 145, 146, 147, 148, 149, 150, 151, 152, 153, 154, 155, 156, 157, 158, 159, 160, 161, 162, 163, 164, 165, 166, 167, 168, 169, 170, 171, 172, 173, 174, 175, 176, 177, 178, 179, 180, 181, 182, 183, 184, 185, 186, 187, 188, 189, 190, 191, 192, 193, 194, 195, 196, 197, 198, 199, 200, 201, 202, 203, 204, 205, 206, 207, 208, 209, 210, 211, 212, 213, 214, 215, 216, 217, 218, 219, 220, 221, 222, 223, 224, 225, 226, 227, 228, 229, 230, 231, 232, 233, 234, 235, 236, 237, 238, 239, 240, 241, 242, 243, 244, 245, 246, 247, 248, 249, 250, 251, 252, 253, 254, 255, 256, 257, 258, 259, 260, 261, 262, 263, 264, 265, 266, 267, 268, 269, 270, 271, 272, 273, 274, 275, 276, 277, 278, 279, 280, 281, 282, 283, 284, 285, 286, 287, 288, 289, 290, 291, 292, 293, 294, 295, 296, 297, 298, 299, 300, 301, 302, 303, 304, 305, 306, 307, 308, 309, 310, 311, 312, 313, 314, 315, 316, 317, 318, 319, 320, 321, 322, 323, 324, 325, 326, 327, 328, 329],
      "AcquisitionTime": ["153001.130000", "153002.620000", "153004.110000", "153005.600000", "153007.090000", "153008.580000", "153010.070000", "153011.560000", "153013.050000", "153014.540000", "153016.030000", "153017.520000", "153019.010000", "153020.500000", "153021.990000", "153023.480000", "153024.970000", "153026.460000", "153027.950000", "153029.440000", "153030.930000", "153032.420000", "153033.910000", "153035.400000", "153036.890000", "153038.380000", "153039.870000", "153041.360000", "153042.850000", "153044.340000", "153045.830000", "153047.320000", "153048.810000", "153050.300000", "153051.790000", "153053.280000", "153054.770000", "153056.260000", "153057.750000", "153059.240000", "153100.730000", "153102.220000", "153103.710000", "153105.200000", "153106.690000", "153108.180000", "153109.670000", "153111.160000", "153112.650000", "153114.140000", "153115.630000", "153117.120000", "153118.610000", "153120.100000", "153121.590000", "153123.080000", "153124.570000", "153126.060000", "153127.550000", "153129.040000", "153130.530000", "153132.020000", "153133.510000", "153135.000000", "153136.490000", "153137.980000", "153139.470000", "153140.960000", "153142.450000", "153143.940000", "153145.430000", "153146.920000", "153148.410000", "153149.900000", "153151.390000", "153152.880000", "153154.370000", "153155.860000", "153157.350000", "153158.840000", "153200.330000", "153201.820000", "153203.310000", "153204.800000", "153206.290000", "153207.780000", "153209.270000", "153210.760000", "153212.250000", "153213.740000", "153215.230000", "153216.720000", "153218.210000", "153219.700000", "153221.190000", "153222.680000", "153224.170000", "153225.660000", "153227.150000", "153228.640000", "153230.130000", "153231.620000", "153233.110000", "153234.600000", "153236.090000", "153237.580000", "153239.070000", "153240.560000", "153242.050000", "153243.540000", "153245.030000", "153246.520000", "153248.010000", "153249.500000", "153250.990000", "153252.480000", "153253.970000", "153255.460000", "153256.950000", "153258.440000", "153259.930000", "153301.420000", "153302.910000", "153304.400000", "153305.890000", "153307.380000", "153308.870000", "153310.360000", "153311.850000", "153313.340000", "153314.830000", "153316.320000", "153317.810000", "153319.300000", "153320.790000", "153322.280000", "153323.770000", "153325.260000", "153326.750000", "153328.240000", "153329.730000", "153331.220000", "153332.710000", "153334.200000", "153335.690000", "153337.180000", "153338.670000", "153340.160000", "153341.650000", "153343.140000", "153344.630000", "153346.120000", "153347.610000", "153349.100000", "153350.590000", "153352.080000", "153353.570000", "153355.060000", "153356.550000", "153358.040000", "153359.530000", "153401.020000", "153402.510000", "153404.000000", "153405.490000", "153406.980000", "153408.470000", "153409.960000", "153411.450000", "153412.940000", "153414.430000", "153415.920000", "153417.410000", "153418.900000", "153420.390000", "153421.880000", "153423.370000", "153424.860000", "153426.350000", "153427.840000", "153429.330000", "153430.820000", "153432.310000", "153433.800000", "153435.290000", "153436.780000", "153438.270000", "153439.760000", "153441.250000", "153442.740000", "153444.230000", "153445.720000", "153447.210000", "153448.700000", "153450.190000", "153451.680000", "153453.170000", "153454.660000", "153456.150000", "153457.640000", "153459.130000", "153500.620000", "153502.110000", "153503.600000", "153505.090000", "153506.580000", "153508.070000", "153509.560000", "153511.050000", "153512.540000", "153514.030000", "153515.520000", "153517.010000", "153518.500000", "153519.990000", "153521.480000", "153522.970000", "153524.460000", "153525.950000", "153527.440000", "153528.930000", "153530.420000", "153531.910000", "153533.400000", "153534.890000", "153536.380000", "153537.870000", "153539.360000", "153540.850000", "153542.340000", "153543.830000", "153545.320000", "153546.810000", "153548.300000", "153549.790000", "153551.280000", "153552.770000", "153554.260000", "153555.750000", "153557.240000", "153558.730000", "153600.220000", "153601.710000", "153603.200000", "153604.690000", "153606.180000", "153607.670000", "153609.160000", "153610.650000", "153612.140000", "153613.630000", "153615.120000", "153616.610000", "153618.100000", "153619.590000", "153621.080000", "153622.570000", "153624.060000", "153625.550000", "153627.040000", "153628.530000", "153630.020000", "153631.510000", "153633.000000", "153634.490000", "153635.980000", "153637.470000", "153638.960000", "153640.450000", "153641.940000", "153643.430000", "153644.920000", "153646.410000", "153647.900000", "153649.390000", "153650.880000", "153652.370000", "153653.860000", "153655.350000", "153656.840000", "153658.330000", "153659.820000", "153701.310000", "153702.800000", "153704.290000", "153705.780000", "153707.270000", "153708.760000", "153710.250000", "153711.740000", "153713.230000", "153714.720000", "153716.210000", "153717.700000", "153719.190000", "153720.680000", "153722.170000", "153723.660000", "153725.150000", "153726.640000", "153728.130000", "153729.620000", "153731.110000", "153732.600000", "153734.090000", "153735.580000", "153737.070000", "153738.560000", "153740.050000", "153741.540000", "153743.030000", "153744.520000", "153746.010000", "153747.500000", "153748.990000", "153750.480000", "153751.970000", "153753.460000", "153754.950000", "153756.440000", "153757.930000", "153759.420000", "153800.910000", "153802.400000", "153803.890000", "153805.380000", "153806.870000", "153808.360000", "153809.850000"],
      "ContentTime": ["153127.959000", "153127.963000", "153127.966000", "153127.970000", "153127.973000", "153127.976000", "153127.980000", "153127.983000", "153127.986000", "153127.990000", "153127.993000", "153127.996000", "153128.009000", "153128.021000", "153128.025000", "153128.028000", "153128.031000", "153128.035000", "153128.038000", "153128.041000", "153128.044000", "153128.048000", "153128.051000", "153128.054000", "153128.058000", "153128.061000", "153128.064000", "153128.068000", "153128.071000", "153128.074000", "153128.078000", "153128.081000", "153128.084000", "153128.087000", "153128.091000", "153128.094000", "153128.098000", "153128.101000", "153147.925000", "153147.929000", "153147.932000", "153147.939000", "153147.942000", "153147.945000", "153147.949000", "153147.952000", "153147.955000", "153147.958000", "153147.962000", "153147.965000", "153147.968000", "153147.972000", "153147.975000", "153147.978000", "153147.982000", "153147.985000", "153147.988000", "153147.992000", "153207.924000", "153207.928000", "153207.931000", "153207.935000", "153207.938000", "153207.941000", "153207.945000", "153207.948000", "153207.951000", "153207.955000", "153207.958000", "153207.961000", "153207.964000", "153207.968000", "153207.971000", "153207.974000", "153207.978000", "153207.981000", "153207.984000", "153207.988000", "153227.924000", "153227.928000", "153227.931000", "153227.934000", "153227.938000", "153227.941000", "153227.945000", "153227.948000", "153227.951000", "153227.955000", "153227.958000", "153227.961000", "153227.965000", "153227.968000", "153227.971000", "153227.975000", "153227.978000", "153227.981000", "153227.985000", "153227.988000", "153307.925000", "153307.929000", "153307.932000", "153307.935000", "153307.939000", "153307.942000", "153307.946000", "153307.949000", "153307.952000", "153307.956000", "153307.959000", "153307.962000", "153307.966000", "153307.969000", "153307.973000", "153307.976000", "153307.979000", "153307.983000", "153307.986000", "153307.989000", "153308.000000", "153308.004000", "153308.007000", "153308.010000", "153308.014000", "153308.017000", "153308.020000", "153347.925000", "153347.929000", "153347.932000", "153347.936000", "153347.939000", "153347.943000", "153347.946000", "153347.949000", "153347.953000", "153347.956000", "153347.960000", "153347.964000", "153347.968000", "153347.971000", "153347.975000", "153347.979000", "153347.982000", "153347.986000", "153347.989000", "153347.992000", "153347.996000", "153348.000000", "153348.003000", "153348.007000", "153348.010000", "153348.013000", "153427.924000", "153427.928000", "153427.931000", "153427.935000", "153427.938000", "153427.941000", "153427.945000", "153427.948000", "153427.952000", "153427.955000", "153427.958000", "153427.962000", "153427.965000", "153427.968000", "153427.972000", "153427.975000", "153427.978000", "153427.981000", "153427.985000", "153427.988000", "153427.992000", "153427.995000", "153427.998000", "153428.003000", "153428.006000", "153428.009000", "153428.013000", "153507.924000", "153507.928000", "153507.931000", "153507.935000", "153507.938000", "153507.941000", "153507.945000", "153507.948000", "153507.951000", "153507.955000", "153507.958000", "153507.961000", "153507.965000", "153507.968000", "153507.971000", "153507.975000", "153507.978000", "153507.981000", "153507.985000", "153507.988000", "153507.991000", "153507.995000", "153507.998000", "153508.002000", "153508.006000", "153508.009000", "153508.012000", "153547.925000", "153547.929000", "153547.945000", "153547.949000", "153547.952000", "153547.956000", "153547.959000", "153547.962000", "153547.966000", "153547.969000", "153547.972000", "153547.976000", "153547.979000", "153547.982000", "153547.986000", "153547.989000", "153547.992000", "153547.996000", "153548.000000", "153548.003000", "153548.007000", "153548.010000", "153548.013000", "153548.017000", "153548.020000", "153548.024000", "153548.027000", "153627.925000", "153627.929000", "153627.932000", "153627.936000", "153627.939000", "153627.942000", "153627.946000", "153627.949000", "153627.952000", "153627.956000", "153627.959000", "153627.962000", "153627.966000", "153627.969000", "153627.972000", "153627.976000", "153627.979000", "153627.983000", "153627.986000", "153627.989000", "153627.993000", "153627.996000", "153628.000000", "153628.004000", "153628.007000", "153628.010000", "153628.014000", "153707.924000", "153707.928000", "153707.931000", "153707.935000", "153707.938000", "153707.942000", "153707.945000", "153707.948000", "153707.952000", "153707.955000", "153707.958000", "153707.962000", "153707.965000", "153707.969000", "153707.972000", "153707.975000", "153707.979000", "153707.982000", "153707.985000", "153707.989000", "153707.992000", "153707.995000", "153708.000000", "153708.003000", "153708.007000", "153708.010000", "153708.013000", "153747.925000", "153747.929000", "153747.932000", "153747.936000", "153747.939000", "153747.942000", "153747.946000", "153747.949000", "153747.952000", "153747.956000", "153747.959000", "153747.962000", "153747.966000", "153747.969000", "153747.972000", "153747.976000", "153747.979000", "153747.982000", "153747.986000", "153747.989000", "153747.992000", "153748.010000", "153748.013000", "153748.016000", "153748.020000", "153748.023000", "153748.026000", "153811.920000", "153811.924000", "153811.927000", "153811.931000", "153811.934000", "153811.938000", "153811.941000", "153811.945000", "153811.948000", "153811.952000", "153811.955000", "153811.958000", "153811.962000", "153811.965000", "153811.969000", "153811.972000"],
      "InstanceCreationTime": ["153127.959000", "153127.963000", "153127.966000", "153127.970000", "153127.973000", "153127.976000", "153127.980000", "153127.983000", "153127.986000", "153127.990000", "153127.993000", "153127.996000", "153128.009000", "153128.021000", "153128.025000", "153128.028000", "153128.031000", "153128.035000", "153128.038000", "153128.041000", "153128.044000", "153128.048000", "153128.051000", "153128.054000", "153128.058000", "153128.061000", "153128.064000", "153128.068000", "153128.071000", "153128.074000", "153128.078000", "153128.081000", "153128.084000", "153128.087000", "153128.091000", "153128.094000", "153128.098000", "153128.101000", "153147.925000", "153147.929000", "153147.932000", "153147.939000", "153147.942000", "153147.945000", "153147.949000", "153147.952000", "153147.955000", "153147.958000", "153147.962000", "153147.965000", "153147.968000", "153147.972000", "153147.975000", "153147.978000", "153147.982000", "153147.985000", "153147.988000", "153147.992000", "153207.924000", "153207.928000", "153207.931000", "153207.935000", "153207.938000", "153207.941000", "153207.945000", "153207.948000", "153207.951000", "153207.955000", "153207.958000", "153207.961000", "153207.964000", "153207.968000", "153207.971000", "153207.974000", "153207.978000", "153207.981000", "153207.984000", "153207.988000", "153227.924000", "153227.928000", "153227.931000", "153227.934000", "153227.938000", "153227.941000", "153227.945000", "153227.948000", "153227.951000", "153227.955000", "153227.958000", "153227.961000", "153227.965000", "153227.968000", "153227.971000", "153227.975000", "153227.978000", "153227.981000", "153227.985000", "153227.988000", "153307.925000", "153307.929000", "153307.932000", "153307.935000", "153307.939000", "153307.942000", "153307.946000", "153307.949000", "153307.952000", "153307.956000", "153307.959000", "153307.962000", "153307.966000", "153307.969000", "153307.973000", "153307.976000", "153307.979000", "153307.983000", "153307.986000", "153307.989000", "153308.000000", "153308.004000", "153308.007000", "153308.010000", "153308.014000", "153308.017000", "153308.020000", "153347.925000", "153347.929000", "153347.932000", "153347.936000", "153347.939000", "153347.943000", "153347.946000", "153347.949000", "153347.953000", "153347.956000", "153347.960000", "153347.964000", "153347.968000", "153347.971000", "153347.975000", "153347.979000", "153347.982000", "153347.986000", "153347.989000", "153347.992000", "153347.996000", "153348.000000", "153348.003000", "153348.007000", "153348.010000", "153348.013000", "153427.924000", "153427.928000", "153427.931000", "153427.935000", "153427.938000", "153427.941000", "153427.945000", "153427.948000", "153427.952000", "153427.955000", "153427.958000", "153427.962000", "153427.965000", "153427.968000", "153427.972000", "153427.975000", "153427.978000", "153427.981000", "153427.985000", "153427.988000", "153427.992000", "153427.995000", "153427.998000", "153428.003000", "153428.006000", "153428.009000", "153428.013000", "153507.924000", "153507.928000", "153507.931000", "153507.935000", "153507.938000", "153507.941000", "153507.945000", "153507.948000", "153507.951000", "153507.955000", "153507.958000", "153507.961000", "153507.965000", "153507.968000", "153507.971000", "153507.975000", "153507.978000", "153507.981000", "153507.985000", "153507.988000", "153507.991000", "153507.995000", "153507.998000", "153508.002000", "153508.006000", "153508.009000", "153508.012000", "153547.925000", "153547.929000", "153547.945000", "153547.949000", "153547.952000", "153547.956000", "153547.959000", "153547.962000", "153547.966000", "153547.969000", "153547.972000", "153547.976000", "153547.979000", "153547.982000", "153547.986000", "153547.989000", "153547.992000", "153547.996000", "153548.000000", "153548.003000", "153548.007000", "153548.010000", "153548.013000", "153548.017000", "153548.020000", "153548.024000", "153548.027000", "153627.925000", "153627.929000", "153627.932000", "153627.936000", "153627.939000", "153627.942000", "153627.946000", "153627.949000", "153627.952000", "153627.956000", "153627.959000", "153627.962000", "153627.966000", "153627.969000", "153627.972000", "153627.976000", "153627.979000", "153627.983000", "153627.986000", "153627.989000", "153627.993000", "153627.996000", "153628.000000", "153628.004000", "153628.007000", "153628.010000", "153628.014000", "153707.924000", "153707.928000", "153707.931000", "153707.935000", "153707.938000", "153707.942000", "153707.945000", "153707.948000", "153707.952000", "153707.955000", "153707.958000", "153707.962000", "153707.965000", "153707.969000", "153707.972000", "153707.975000", "153707.979000", "153707.982000", "153707.985000", "153707.989000", "153707.992000", "153707.995000", "153708.000000", "153708.003000", "153708.007000", "153708.010000", "153708.013000", "153747.925000", "153747.929000", "153747.932000", "153747.936000", "153747.939000", "153747.942000", "153747.946000", "153747.949000", "153747.952000", "153747.956000", "153747.959000", "153747.962000", "153747.966000", "153747.969000", "153747.972000", "153747.976000", "153747.979000", "153747.982000", "153747.986000", "153747.989000", "153747.992000", "153748.010000", "153748.013000", "153748.016000", "153748.020000", "153748.023000", "153748.026000", "153811.920000", "153811.924000", "153811.927000", "153811.931000", "153811.934000", "153811.938000", "153811.941000", "153811.945000", "153811.948000", "153811.952000", "153811.955000", "153811.958000", "153811.962000", "153811.965000", "153811.969000", "153811.972000"],
      "InstanceNumber": [1, 2, 3, 4, 5, 6, 7, 8, 9, 10, 11, 12, 13, 14, 15, 16, 17, 18, 19, 20, 21, 22, 23, 24, 25, 26, 27, 28, 29, 30, 31, 32, 33, 34, 35, 36, 37, 38, 39, 40, 41, 42, 43, 44, 45, 46, 47, 48, 49, 50, 51, 52, 53, 54, 55, 56, 57, 58, 59, 60, 61, 62, 63, 64, 65, 66, 67, 68, 69, 70, 71, 72, 73, 74, 75, 76, 77, 78, 79, 80, 81, 82, 83, 84, 85, 86, 87, 88, 89, 90, 91, 92, 93, 94, 95, 96, 97, 98, 99, 100, 101, 102, 103, 104, 105, 106, 107, 108, 109, 110, 111, 112, 113, 114, 115, 116, 117, 118, 119, 120, 121, 122, 123, 124, 125, 126, 127, 128, 129, 130, 131, 132, 133, 134, 135, 136, 137, 138, 139, 140, 141, 142, 143, 144, 145, 146, 147, 148, 149, 150, 151, 152, 153, 154, 155, 156, 157, 158, 159, 160, 161, 162, 163, 164, 165, 166, 167, 168, 169, 170, 171, 172, 173, 174, 175, 176, 177, 178, 179, 180, 181, 182, 183, 184, 185, 186, 187, 188, 189, 190, 191, 192, 193, 194, 195, 196, 197, 198, 199, 200, 201, 202, 203, 204, 205, 206, 207, 208, 209, 210, 211, 212, 213, 214, 215, 216, 217, 218, 219, 220, 221, 222, 223, 224, 225, 226, 227, 228, 229, 230, 231, 232, 233, 234, 235, 236, 237, 238, 239, 240, 241, 242, 243, 244, 245, 246, 247, 248, 249, 250, 251, 252, 253, 254, 255, 256, 257, 258, 259, 260, 261, 262, 263, 264, 265, 266, 267, 268, 269, 270, 271, 272, 273, 274, 275, 276, 277, 278, 279, 280, 281, 282, 283, 284, 285, 286, 287, 288, 289, 290, 291, 292, 293, 294, 295, 296, 297, 298, 299, 300, 301, 302, 303, 304, 305, 306, 307, 308, 309, 310, 311, 312, 313, 314, 315, 316, 317, 318, 319, 320, 321, 322, 323, 324, 325, 326, 327, 328, 329],
      "LargestImagePixelValue": [43254, 42099, 41183, 40635, 40668, 40121, 40402, 39781, 39966, 40140, 40984, 40560, 40940, 40586, 39376, 40256, 40137, 40037, 40160, 40222, 39674, 42696, 42090, 42234, 42728, 41221, 40536, 40688, 41697, 41875, 42635, 41439, 40943, 41689, 41942, 39673, 40608, 40379, 41592, 43336, 42192, 41305, 42737, 42390, 42517, 43299, 43352, 43233, 41524, 42754, 41885, 41981, 42278, 41377, 41102, 40923, 41821, 40933, 41232, 42315, 43312, 43603, 43550, 41909, 40130, 40541, 39589, 39063, 39029, 40275, 41644, 42388, 42895, 42877, 41651, 40258, 40622, 39573, 39363, 40080, 40246, 42494, 42247, 42358, 42568, 43310, 42634, 42744, 42325, 42878, 43093, 43816, 42845, 44149, 43564, 43261, 42917, 42055, 42299, 43158, 41117, 42414, 41213, 40947, 41095, 41510, 42166, 41985, 42186, 41761, 42386, 43107, 42866, 41939, 42285, 41742, 41953, 40530, 40630, 40180, 40200, 40804, 40580, 40615, 41697, 40321, 41505, 40252, 41003, 40847, 41002, 40691, 41596, 40860, 41228, 40892, 42020, 42482, 41425, 41121, 40784, 39993, 41046, 42428, 42530, 41863, 41995, 41989, 42524, 41817, 42513, 42293, 42270, 42220, 41674, 41470, 41197, 41037, 41628, 41497, 40876, 40693, 39696, 40253, 40449, 40190, 40555, 41374, 38947, 39832, 40551, 40515, 40125, 40011, 40458, 40118, 40602, 40542, 40122, 39894, 41896, 40780, 40213, 39494, 39715, 39694, 39706, 39377, 39636, 40142, 40578, 39807, 39528, 39131, 39211, 39796, 40634, 40197, 40833, 39106, 39933, 39661, 39275, 39262, 38862, 39763, 39587, 39146, 39781, 39932, 40783, 39679, 40756, 39616, 40144, 39123, 39661, 39169, 39504, 39221, 39690, 39327, 39311, 39371, 39870, 38798, 39492, 40401, 40342, 39979, 40614, 40420, 40668, 39810, 40376, 40385, 40437, 39765, 39249, 39921, 40221, 40041, 39356, 39198, 39759, 39572, 40549, 39251, 39273, 39725, 39372, 40060, 41302, 40725, 39689, 40948, 40466, 40534, 40889, 40572, 39834, 39793, 39869, 40561, 40727, 40375, 40354, 40603, 40630, 40066, 41090, 39621, 40562, 40047, 40743, 40441, 39991, 39605, 39952, 40606, 40427, 39715, 41462, 40511, 40498, 41626, 42109, 42579, 41743, 41786, 39739, 40847, 40222, 40832, 41406, 39828, 39758, 39293, 39413, 39638, 39367, 39669, 40153, 39748, 40155, 40105, 40691, 40360, 40408, 40146, 40299, 39649, 40474, 41938, 41434, 40539, 39901, 38765, 39749, 40139, 40383, 39339, 39530, 39183, 39696, 40609, 39803, 40554, 40534],
