{
  "AcquisitionMatrixPE": 104,
  "AcquisitionNumber": 1,
  "AcquisitionTime": "15:19:55.650000",
  "BandwidthPerPixelPhaseEncode": 17.17,
  "BaseResolution": 104,
  "BodyPartExamined": "BRAIN",
  "CoilCombinationMethod": "Sum of Squares",
  "ConsistencyInfo": "N4_VE11C_LATEST_20160120",
  "ConversionSoftware": "dcm2niix",
  "ConversionSoftwareVersion": "v1.0.20220505",
  "DerivedVendorReportedEchoSpacing": 0.000560011,
  "DeviceSerialNumber": "167006",
  "DwellTime": 2.1e-06,
  "EchoTime": 0.037,
  "EchoTime1": 0.037,
  "EchoTime2": 0.001,
  "EchoTrainLength": 104,
  "EffectiveEchoSpacing": 0.000560011,
  "FlipAngle": 52,
  "HeudiconvVersion": "0.5.3.post811+g6206e14",
  "ImageComments": "Unaliased MB4/PE3/LB",
  "ImageOrientationPatientDICOM": [0.998303, 0.0150197, 0.0562623, 0.0149855, 0.867364, -0.497449],
  "ImageOrientationText": "Tra>Cor(-29.9)>Sag(3.2)",
  "ImageType": [
    "ORIGINAL",
    "PRIMARY",
    "P",
    "MB",
    "ND",
    "MOSAIC",
    "PHASE"
],
  "ImagingFrequency": 123.26,
  "InPlanePhaseEncodingDirectionDICOM": "COL",
  "InstitutionAddress": "Chemin Queen-Mary 4565,Montreal,District,CA,H3W 1W5",
  "InstitutionName": "IUGM",
  "InstitutionalDepartmentName": "Department",
  "MRAcquisitionType": "2D",
  "MagneticFieldStrength": 3,
  "Manufacturer": "Siemens",
  "ManufacturersModelName": "Prisma_fit",
  "MatrixCoilMode": "SENSE",
  "Modality": "MR",
  "MultibandAccelerationFactor": 4,
  "PartialFourier": 1,
  "PatientPosition": "HFS",
  "PercentPhaseFOV": 100,
  "PercentSampling": 100,
  "PhaseEncodingDirection": "j",
  "PhaseEncodingSteps": 104,
  "PhaseResolution": 1,
  "PixelBandwidth": 2290,
  "ProcedureStepDescription": "games^mario3",
  "ProtocolName": "func_task-mario3_run-01",
  "PulseSequenceDetails": "%CustomerSeq%\\cmrr_mbep2d_bold",
  "ReceiveCoilActiveElements": "HC1-7;NC1,2",
  "ReceiveCoilName": "HeadNeck_64",
  "ReconMatrixPE": 104,
  "RepetitionTime": 1.49,
  "SAR": 0.070332,
  "ScanOptions": "FS",
  "ScanningSequence": "EP",
  "SequenceName": "epfid2d1_104",
  "SequenceVariant": "SK\\SS",
  "SeriesDescription": "func_task-mario3_run-01",
  "SeriesNumber": 11,
  "ShimSetting": [619, -7183, -8858, 290, 25, -156, -61, 31],
  "SliceThickness": 2,
  "SliceTiming": [0, 0.7825, 0.0975, 0.8825, 0.195, 0.98, 0.2925, 1.0775, 0.3925, 1.175, 0.49, 1.2725, 0.5875, 1.3725, 0.685, 0, 0.7825, 0.0975, 0.8825, 0.195, 0.98, 0.2925, 1.0775, 0.3925, 1.175, 0.49, 1.2725, 0.5875, 1.3725, 0.685, 0, 0.7825, 0.0975, 0.8825, 0.195, 0.98, 0.2925, 1.0775, 0.3925, 1.175, 0.49, 1.2725, 0.5875, 1.3725, 0.685, 0, 0.7825, 0.0975, 0.8825, 0.195, 0.98, 0.2925, 1.0775, 0.3925, 1.175, 0.49, 1.2725, 0.5875, 1.3725, 0.685],
  "SoftwareVersions": "syngo MR E11",
  "SpacingBetweenSlices": 2,
  "StationName": "MRC35049",
  "TaskName": "mario3",
  "TotalReadoutTime": 0.0576811,
  "TxRefAmp": 301.694,
  "WipMemBlock": "89bbb75d-8f7d-4675-a92d-bee56e0cbf6b||Sequence: R017 ve11c/master r/75a17815+; Jun 28 2022 16:32:11 by eja",
  "dcmmeta_affine": [
    [-1.9966061115264893, 0.029971018433570862, 0.11254291981458664, 103.28376007080078],
    [-0.030039407312870026, 1.7347278594970703, -0.994895339012146, -49.20748519897461],
    [0.11252468079328537, 0.9948974251747131, 1.7313339710235596, -98.86970520019531],
    [0.0, 0.0, 0.0, 1.0]
],
  "dcmmeta_reorient_transform": [
    [0.0, -1.0, 0.0, 103.0],
    [1.0, 0.0, 0.0, 0.0],
    [0.0, 0.0, 1.0, 0.0],
    [0.0, 0.0, 0.0, 1.0]
],
  "dcmmeta_shape": [104, 104, 60, 306],
  "dcmmeta_slice_dim": 2,
  "dcmmeta_version": 0.6,
  "global": {
    "const": {
      "AcquisitionMatrix": [104, 0, 0, 104],
      "AngioFlag": "N",
      "BitsAllocated": 16,
      "BitsStored": 16,
      "BodyPartExamined": "BRAIN",
      "Columns": 832,
      "EchoNumbers": 1,
      "EchoTime": 37.0,
      "EchoTrainLength": 104,
      "FlipAngle": 52.0,
      "HighBit": 15,
      "ImageOrientationPatient": [0.99830303888915, 0.01501970319936, 0.05626234140598, 0.01498550947068, 0.86736395050446, -0.4974487027536],
      "ImagePositionPatient": [-844.04484051493, -771.84478755858, 324.78839663533],
      "ImageType": [
        "ORIGINAL",
        "PRIMARY",
        "P",
        "MB",
        "ND",
        "MOSAIC"
],
      "ImagedNucleus": "1H",
      "ImagingFrequency": 123.260219,
      "InPlanePhaseEncodingDirection": "COL",
      "LargestImagePixelValue": 4095,
      "MRAcquisitionType": "2D",
      "MagneticFieldStrength": 3.0,
      "Manufacturer": "SIEMENS",
      "ManufacturerModelName": "Prisma_fit",
      "Modality": "MR",
      "NumberOfAverages": 1.0,
      "NumberOfPhaseEncodingSteps": 104,
      "PercentPhaseFieldOfView": 100.0,
      "PercentSampling": 100.0,
      "PerformedProcedureStepStartTime": "143058.604000",
      "PhotometricInterpretation": "MONOCHROME2",
      "PixelBandwidth": 2290.0,
      "PixelRepresentation": 0,
      "PixelSpacing": [2.0, 2.0],
      "ProtocolName": "func_task-mario3_run-01",
      "RepetitionTime": 1490.0,
      "RescaleIntercept": -4096.0,
      "RescaleSlope": 2.0,
      "RescaleType": "US",
      "Rows": 832,
      "SAR": 0.0703320173411,
      "SamplesPerPixel": 1,
      "ScanOptions": "FS",
      "ScanningSequence": "EP",
      "SequenceName": "epfid2d1_104",
      "SequenceVariant": [
        "SK",
        "SS"
],
      "SeriesDescription": "func_task-mario3_run-01",
      "SeriesNumber": 11,
      "SeriesTime": "152057.920000",
      "SliceLocation": -55.298164441952,
      "SliceThickness": 2.0,
      "SmallestImagePixelValue": 0,
      "SoftwareVersions": "syngo MR E11",
      "SpacingBetweenSlices": 2.0000000250943,
      "SpecificCharacterSet": "ISO_IR 100",
      "StudyID": "1",
      "StudyTime": "143058.522000",
      "TransmitCoilName": "Body",
      "VariableFlipAngleFlag": "N",
      "WindowCenterWidthExplanation": "Algo1",
      "dBdt": 0.0},
    "slices": {}
  },
  "time": {
    "samples": {
      "AcquisitionNumber": [1, 2, 3, 4, 5, 6, 7, 8, 9, 10, 11, 12, 13, 14, 15, 16, 17, 18, 19, 20, 21, 22, 23, 24, 25, 26, 27, 28, 29, 30, 31, 32, 33, 34, 35, 36, 37, 38, 39, 40, 41, 42, 43, 44, 45, 46, 47, 48, 49, 50, 51, 52, 53, 54, 55, 56, 57, 58, 59, 60, 61, 62, 63, 64, 65, 66, 67, 68, 69, 70, 71, 72, 73, 74, 75, 76, 77, 78, 79, 80, 81, 82, 83, 84, 85, 86, 87, 88, 89, 90, 91, 92, 93, 94, 95, 96, 97, 98, 99, 100, 101, 102, 103, 104, 105, 106, 107, 108, 109, 110, 111, 112, 113, 114, 115, 116, 117, 118, 119, 120, 121, 122, 123, 124, 125, 126, 127, 128, 129, 130, 131, 132, 133, 134, 135, 136, 137, 138, 139, 140, 141, 142, 143, 144, 145, 146, 147, 148, 149, 150, 151, 152, 153, 154, 155, 156, 157, 158, 159, 160, 161, 162, 163, 164, 165, 166, 167, 168, 169, 170, 171, 172, 173, 174, 175, 176, 177, 178, 179, 180, 181, 182, 183, 184, 185, 186, 187, 188, 189, 190, 191, 192, 193, 194, 195, 196, 197, 198, 199, 200, 201, 202, 203, 204, 205, 206, 207, 208, 209, 210, 211, 212, 213, 214, 215, 216, 217, 218, 219, 220, 221, 222, 223, 224, 225, 226, 227, 228, 229, 230, 231, 232, 233, 234, 235, 236, 237, 238, 239, 240, 241, 242, 243, 244, 245, 246, 247, 248, 249, 250, 251, 252, 253, 254, 255, 256, 257, 258, 259, 260, 261, 262, 263, 264, 265, 266, 267, 268, 269, 270, 271, 272, 273, 274, 275, 276, 277, 278, 279, 280, 281, 282, 283, 284, 285, 286, 287, 288, 289, 290, 291, 292, 293, 294, 295, 296, 297, 298, 299, 300, 301, 302, 303, 304, 305, 306],
      "AcquisitionTime": ["151955.650000", "151957.140000", "151958.630000", "152000.120000", "152001.610000", "152003.100000", "152004.590000", "152006.080000", "152007.570000", "152009.060000", "152010.550000", "152012.040000", "152013.530000", "152015.020000", "152016.510000", "152018.000000", "152019.490000", "152020.980000", "152022.470000", "152023.960000", "152025.450000", "152026.940000", "152028.430000", "152029.920000", "152031.410000", "152032.900000", "152034.390000", "152035.880000", "152037.370000", "152038.860000", "152040.350000", "152041.840000", "152043.330000", "152044.820000", "152046.310000", "152047.800000", "152049.290000", "152050.780000", "152052.270000", "152053.760000", "152055.250000", "152056.740000", "152058.230000", "152059.720000", "152101.210000", "152102.700000", "152104.190000", "152105.680000", "152107.170000", "152108.660000", "152110.150000", "152111.640000", "152113.130000", "152114.620000", "152116.110000", "152117.600000", "152119.090000", "152120.580000", "152122.070000", "152123.560000", "152125.050000", "152126.540000", "152128.030000", "152129.520000", "152131.010000", "152132.500000", "152133.990000", "152135.480000", "152136.970000", "152138.460000", "152139.950000", "152141.440000", "152142.930000", "152144.420000", "152145.910000", "152147.400000", "152148.890000", "152150.380000", "152151.870000", "152153.360000", "152154.850000", "152156.340000", "152157.830000", "152159.320000", "152200.810000", "152202.300000", "152203.790000", "152205.280000", "152206.770000", "152208.260000", "152209.750000", "152211.240000", "152212.730000", "152214.220000", "152215.710000", "152217.200000", "152218.690000", "152220.180000", "152221.670000", "152223.160000", "152224.650000", "152226.140000", "152227.630000", "152229.120000", "152230.610000", "152232.100000", "152233.590000", "152235.080000", "152236.570000", "152238.060000", "152239.550000", "152241.040000", "152242.530000", "152244.020000", "152245.510000", "152247.000000", "152248.490000", "152249.980000", "152251.470000", "152252.960000", "152254.450000", "152255.940000", "152257.430000", "152258.920000", "152300.410000", "152301.900000", "152303.390000", "152304.880000", "152306.370000", "152307.860000", "152309.350000", "152310.840000", "152312.330000", "152313.820000", "152315.310000", "152316.800000", "152318.290000", "152319.780000", "152321.270000", "152322.760000", "152324.250000", "152325.740000", "152327.230000", "152328.720000", "152330.210000", "152331.700000", "152333.190000", "152334.680000", "152336.170000", "152337.660000", "152339.150000", "152340.640000", "152342.130000", "152343.620000", "152345.110000", "152346.600000", "152348.090000", "152349.580000", "152351.070000", "152352.560000", "152354.050000", "152355.540000", "152357.030000", "152358.520000", "152400.010000", "152401.500000", "152402.990000", "152404.480000", "152405.970000", "152407.460000", "152408.950000", "152410.440000", "152411.930000", "152413.420000", "152414.910000", "152416.400000", "152417.890000", "152419.380000", "152420.870000", "152422.360000", "152423.850000", "152425.340000", "152426.830000", "152428.320000", "152429.810000", "152431.300000", "152432.790000", "152434.280000", "152435.770000", "152437.260000", "152438.750000", "152440.240000", "152441.730000", "152443.220000", "152444.710000", "152446.200000", "152447.690000", "152449.180000", "152450.670000", "152452.160000", "152453.650000", "152455.140000", "152456.630000", "152458.120000", "152459.610000", "152501.100000", "152502.590000", "152504.080000", "152505.570000", "152507.060000", "152508.550000", "152510.040000", "152511.530000", "152513.020000", "152514.510000", "152516.000000", "152517.490000", "152518.980000", "152520.470000", "152521.960000", "152523.450000", "152524.940000", "152526.430000", "152527.920000", "152529.410000", "152530.900000", "152532.390000", "152533.880000", "152535.370000", "152536.860000", "152538.350000", "152539.840000", "152541.330000", "152542.820000", "152544.310000", "152545.800000", "152547.290000", "152548.780000", "152550.270000", "152551.760000", "152553.250000", "152554.740000", "152556.230000", "152557.720000", "152559.210000", "152600.700000", "152602.190000", "152603.680000", "152605.170000", "152606.660000", "152608.150000", "152609.640000", "152611.130000", "152612.620000", "152614.110000", "152615.600000", "152617.090000", "152618.580000", "152620.070000", "152621.560000", "152623.050000", "152624.540000", "152626.030000", "152627.520000", "152629.010000", "152630.500000", "152631.990000", "152633.480000", "152634.970000", "152636.460000", "152637.950000", "152639.440000", "152640.930000", "152642.420000", "152643.910000", "152645.400000", "152646.890000", "152648.380000", "152649.870000", "152651.360000", "152652.850000", "152654.340000", "152655.830000", "152657.320000", "152658.810000", "152700.300000", "152701.790000", "152703.280000", "152704.770000", "152706.260000", "152707.750000", "152709.240000", "152710.730000", "152712.220000", "152713.710000", "152715.200000", "152716.690000", "152718.180000", "152719.670000", "152721.160000", "152722.650000", "152724.140000", "152725.630000", "152727.120000", "152728.610000", "152730.100000"],
      "ContentTime": ["152057.922000", "152057.924000", "152057.927000", "152057.929000", "152057.932000", "152057.934000", "152057.937000", "152057.939000", "152057.942000", "152057.944000", "152057.947000", "152057.949000", "152057.955000", "152057.958000", "152057.960000", "152117.925000", "152117.928000", "152117.930000", "152117.933000", "152117.935000", "152117.938000", "152117.940000", "152117.943000", "152117.945000", "152117.948000", "152117.950000", "152117.952000", "152117.955000", "152117.957000", "152117.960000", "152117.962000", "152117.965000", "152117.967000", "152117.970000", "152117.972000", "152137.930000", "152137.932000", "152137.935000", "152137.937000", "152137.940000", "152137.942000", "152137.945000", "152137.947000", "152137.950000", "152137.952000", "152137.955000", "152137.957000", "152137.960000", "152137.962000", "152137.965000", "152137.967000", "152137.970000", "152137.977000", "152137.980000", "152137.982000", "152157.906000", "152157.909000", "152157.911000", "152157.914000", "152157.916000", "152157.919000", "152157.921000", "152157.925000", "152157.927000", "152157.930000", "152157.932000", "152157.935000", "152157.937000", "152157.940000", "152157.942000", "152157.945000", "152157.947000", "152157.950000", "152157.952000", "152157.955000", "152157.957000", "152237.973000", "152237.975000", "152237.978000", "152237.980000", "152237.983000", "152237.985000", "152237.988000", "152237.990000", "152237.993000", "152237.995000", "152237.998000", "152238.003000", "152238.006000", "152238.008000", "152238.011000", "152238.013000", "152238.016000", "152238.018000", "152238.021000", "152238.023000", "152238.026000", "152238.028000", "152238.031000", "152238.034000", "152238.036000", "152238.038000", "152238.041000", "152238.043000", "152238.046000", "152238.048000", "152238.051000", "152238.053000", "152317.940000", "152317.942000", "152317.945000", "152317.948000", "152317.950000", "152317.953000", "152317.955000", "152317.958000", "152317.960000", "152317.963000", "152317.966000", "152317.968000", "152317.971000", "152317.973000", "152317.976000", "152317.978000", "152317.981000", "152317.983000", "152317.986000", "152317.988000", "152317.991000", "152317.994000", "152317.996000", "152318.000000", "152318.002000", "152318.005000", "152318.007000", "152357.941000", "152357.944000", "152357.947000", "152357.949000", "152357.952000", "152357.954000", "152357.957000", "152357.959000", "152357.962000", "152357.964000", "152357.967000", "152357.969000", "152357.972000", "152357.974000", "152357.977000", "152357.979000", "152357.982000", "152357.984000", "152357.987000", "152357.989000", "152357.992000", "152357.994000", "152357.997000", "152358.000000", "152358.003000", "152358.006000", "152358.008000", "152437.948000", "152437.951000", "152437.953000", "152437.956000", "152437.958000", "152437.961000", "152437.963000", "152437.966000", "152437.968000", "152437.971000", "152437.973000", "152437.976000", "152437.978000", "152437.981000", "152437.983000", "152437.986000", "152437.988000", "152437.991000", "152437.993000", "152437.996000", "152437.998000", "152438.002000", "152438.005000", "152438.007000", "152438.010000", "152438.012000", "152438.015000", "152517.951000", "152517.954000", "152517.956000", "152517.959000", "152517.961000", "152517.964000", "152517.966000", "152517.969000", "152517.971000", "152517.974000", "152517.976000", "152517.979000", "152517.981000", "152517.984000", "152517.986000", "152517.989000", "152517.991000", "152517.994000", "152517.996000", "152518.000000", "152518.003000", "152518.005000", "152518.008000", "152518.010000", "152518.012000", "152518.015000", "152518.017000", "152537.880000", "152537.883000", "152537.885000", "152537.888000", "152537.890000", "152537.893000", "152537.895000", "152537.898000", "152537.900000", "152537.903000", "152537.905000", "152537.908000", "152537.910000", "152617.968000", "152617.971000", "152617.974000", "152617.976000", "152617.979000", "152617.981000", "152617.984000", "152617.986000", "152617.989000", "152617.991000", "152617.994000", "152617.996000", "152618.000000", "152618.002000", "152618.005000", "152618.007000", "152618.010000", "152618.013000", "152618.015000", "152618.018000", "152618.020000", "152618.023000", "152618.025000", "152618.028000", "152618.030000", "152618.033000", "152618.035000", "152657.942000", "152657.945000", "152657.947000", "152657.950000", "152657.952000", "152657.955000", "152657.957000", "152657.960000", "152657.962000", "152657.965000", "152657.968000", "152657.970000", "152657.973000", "152657.975000", "152657.978000", "152657.980000", "152657.983000", "152657.985000", "152657.988000", "152657.990000", "152657.993000", "152657.995000", "152657.998000", "152658.001000", "152658.004000", "152658.006000", "152658.009000", "152732.264000", "152732.266000", "152732.269000", "152732.272000", "152732.274000", "152732.277000", "152732.279000", "152732.282000", "152732.284000", "152732.287000", "152732.290000", "152732.292000", "152732.295000", "152732.297000", "152732.300000", "152732.303000", "152732.305000", "152732.308000", "152732.310000", "152732.313000", "152732.315000", "152732.318000", "152732.320000"],
      "InstanceCreationTime": ["152057.922000", "152057.924000", "152057.927000", "152057.929000", "152057.932000", "152057.934000", "152057.937000", "152057.939000", "152057.942000", "152057.944000", "152057.947000", "152057.949000", "152057.955000", "152057.958000", "152057.960000", "152117.925000", "152117.928000", "152117.930000", "152117.933000", "152117.935000", "152117.938000", "152117.940000", "152117.943000", "152117.945000", "152117.948000", "152117.950000", "152117.952000", "152117.955000", "152117.957000", "152117.960000", "152117.962000", "152117.965000", "152117.967000", "152117.970000", "152117.972000", "152137.930000", "152137.932000", "152137.935000", "152137.937000", "152137.940000", "152137.942000", "152137.945000", "152137.947000", "152137.950000", "152137.952000", "152137.955000", "152137.957000", "152137.960000", "152137.962000", "152137.965000", "152137.967000", "152137.970000", "152137.977000", "152137.980000", "152137.982000", "152157.906000", "152157.909000", "152157.911000", "152157.914000", "152157.916000", "152157.919000", "152157.921000", "152157.925000", "152157.927000", "152157.930000", "152157.932000", "152157.935000", "152157.937000", "152157.940000", "152157.942000", "152157.945000", "152157.947000", "152157.950000", "152157.952000", "152157.955000", "152157.957000", "152237.973000", "152237.975000", "152237.978000", "152237.980000", "152237.983000", "152237.985000", "152237.988000", "152237.990000", "152237.993000", "152237.995000", "152237.998000", "152238.003000", "152238.006000", "152238.008000", "152238.011000", "152238.013000", "152238.016000", "152238.018000", "152238.021000", "152238.023000", "152238.026000", "152238.028000", "152238.031000", "152238.034000", "152238.036000", "152238.038000", "152238.041000", "152238.043000", "152238.046000", "152238.048000", "152238.051000", "152238.053000", "152317.940000", "152317.942000", "152317.945000", "152317.948000", "152317.950000", "152317.953000", "152317.955000", "152317.958000", "152317.960000", "152317.963000", "152317.966000", "152317.968000", "152317.971000", "152317.973000", "152317.976000", "152317.978000", "152317.981000", "152317.983000", "152317.986000", "152317.988000", "152317.991000", "152317.994000", "152317.996000", "152318.000000", "152318.002000", "152318.005000", "152318.007000", "152357.941000", "152357.944000", "152357.947000", "152357.949000", "152357.952000", "152357.954000", "152357.957000", "152357.959000", "152357.962000", "152357.964000", "152357.967000", "152357.969000", "152357.972000", "152357.974000", "152357.977000", "152357.979000", "152357.982000", "152357.984000", "152357.987000", "152357.989000", "152357.992000", "152357.994000", "152357.997000", "152358.000000", "152358.003000", "152358.006000", "152358.008000", "152437.948000", "152437.951000", "152437.953000", "152437.956000", "152437.958000", "152437.961000", "152437.963000", "152437.966000", "152437.968000", "152437.971000", "152437.973000", "152437.976000", "152437.978000", "152437.981000", "152437.983000", "152437.986000", "152437.988000", "152437.991000", "152437.993000", "152437.996000", "152437.998000", "152438.002000", "152438.005000", "152438.007000", "152438.010000", "152438.012000", "152438.015000", "152517.951000", "152517.954000", "152517.956000", "152517.959000", "152517.961000", "152517.964000", "152517.966000", "152517.969000", "152517.971000", "152517.974000", "152517.976000", "152517.979000", "152517.981000", "152517.984000", "152517.986000", "152517.989000", "152517.991000", "152517.994000", "152517.996000", "152518.000000", "152518.003000", "152518.005000", "152518.008000", "152518.010000", "152518.012000", "152518.015000", "152518.017000", "152537.880000", "152537.883000", "152537.885000", "152537.888000", "152537.890000", "152537.893000", "152537.895000", "152537.898000", "152537.900000", "152537.903000", "152537.905000", "152537.908000", "152537.910000", "152617.968000", "152617.971000", "152617.974000", "152617.976000", "152617.979000", "152617.981000", "152617.984000", "152617.986000", "152617.989000", "152617.991000", "152617.994000", "152617.996000", "152618.000000", "152618.002000", "152618.005000", "152618.007000", "152618.010000", "152618.013000", "152618.015000", "152618.018000", "152618.020000", "152618.023000", "152618.025000", "152618.028000", "152618.030000", "152618.033000", "152618.035000", "152657.942000", "152657.945000", "152657.947000", "152657.950000", "152657.952000", "152657.955000", "152657.957000", "152657.960000", "152657.962000", "152657.965000", "152657.968000", "152657.970000", "152657.973000", "152657.975000", "152657.978000", "152657.980000", "152657.983000", "152657.985000", "152657.988000", "152657.990000", "152657.993000", "152657.995000", "152657.998000", "152658.001000", "152658.004000", "152658.006000", "152658.009000", "152732.264000", "152732.266000", "152732.269000", "152732.272000", "152732.274000", "152732.277000", "152732.279000", "152732.282000", "152732.284000", "152732.287000", "152732.290000", "152732.292000", "152732.295000", "152732.297000", "152732.300000", "152732.303000", "152732.305000", "152732.308000", "152732.310000", "152732.313000", "152732.315000", "152732.318000", "152732.320000"],
      "InstanceNumber": [1, 2, 3, 4, 5, 6, 7, 8, 9, 10, 11, 12, 13, 14, 15, 16, 17, 18, 19, 20, 21, 22, 23, 24, 25, 26, 27, 28, 29, 30, 31, 32, 33, 34, 35, 36, 37, 38, 39, 40, 41, 42, 43, 44, 45, 46, 47, 48, 49, 50, 51, 52, 53, 54, 55, 56, 57, 58, 59, 60, 61, 62, 63, 64, 65, 66, 67, 68, 69, 70, 71, 72, 73, 74, 75, 76, 77, 78, 79, 80, 81, 82, 83, 84, 85, 86, 87, 88, 89, 90, 91, 92, 93, 94, 95, 96, 97, 98, 99, 100, 101, 102, 103, 104, 105, 106, 107, 108, 109, 110, 111, 112, 113, 114, 115, 116, 117, 118, 119, 120, 121, 122, 123, 124, 125, 126, 127, 128, 129, 130, 131, 132, 133, 134, 135, 136, 137, 138, 139, 140, 141, 142, 143, 144, 145, 146, 147, 148, 149, 150, 151, 152, 153, 154, 155, 156, 157, 158, 159, 160, 161, 162, 163, 164, 165, 166, 167, 168, 169, 170, 171, 172, 173, 174, 175, 176, 177, 178, 179, 180, 181, 182, 183, 184, 185, 186, 187, 188, 189, 190, 191, 192, 193, 194, 195, 196, 197, 198, 199, 200, 201, 202, 203, 204, 205, 206, 207, 208, 209, 210, 211, 212, 213, 214, 215, 216, 217, 218, 219, 220, 221, 222, 223, 224, 225, 226, 227, 228, 229, 230, 231, 232, 233, 234, 235, 236, 237, 238, 239, 240, 241, 242, 243, 244, 245, 246, 247, 248, 249, 250, 251, 252, 253, 254, 255, 256, 257, 258, 259, 260, 261, 262, 263, 264, 265, 266, 267, 268, 269, 270, 271, 272, 273, 274, 275, 276, 277, 278, 279, 280, 281, 282, 283, 284, 285, 286, 287, 288, 289, 290, 291, 292, 293, 294, 295, 296, 297, 298, 299, 300, 301, 302, 303, 304, 305, 306],
      "WindowCenter": [4806.0, 4806.0, 4806.0, 4802.0, 4802.0, 4804.0, 4800.0, 4782.0, 4780.0, 4782.0, 4808.0, 4812.0, 4806.0, 4808.0, 4784.0, 4808.0, 4810.0, 4810.0, 4812.0, 4810.0, 4806.0, 4780.0, 4802.0, 4804.0, 4810.0, 4812.0, 4790.0, 4814.0, 4808.0, 4810.0, 4808.0, 4806.0, 4810.0, 4808.0, 4792.0, 4822.0, 4818.0, 4810.0, 4806.0, 4808.0, 4804.0, 4810.0, 4812.0, 4822.0, 4820.0, 4820.0, 4810.0, 4834.0, 4814.0, 4834.0, 4814.0, 4816.0, 4812.0, 4810.0, 4784.0, 4808.0, 4810.0, 4808.0, 4810.0, 4810.0, 4810.0, 4804.0, 4810.0, 4808.0, 4808.0, 4804.0, 4806.0, 4804.0, 4806.0, 4806.0, 4806.0, 4806.0, 4806.0, 4804.0, 4808.0, 4808.0, 4808.0, 4812.0, 4806.0, 4808.0, 4806.0, 4806.0, 4808.0, 4808.0, 4810.0, 4808.0, 4808.0, 4814.0, 4814.0, 4812.0, 4806.0, 4804.0, 4780.0, 4778.0, 4806.0, 4810.0, 4810.0, 4812.0, 4810.0, 4812.0, 4810.0, 4814.0, 4812.0, 4812.0, 4818.0, 4814.0, 4808.0, 4828.0, 4806.0, 4808.0, 4784.0, 4808.0, 4810.0, 4810.0, 4808.0, 4808.0, 4806.0, 4806.0, 4784.0, 4806.0, 4806.0, 4810.0, 4812.0, 4810.0, 4806.0, 4806.0, 4810.0, 4820.0, 4816.0, 4816.0, 4814.0, 4818.0, 4836.0, 4810.0, 4812.0, 4814.0, 4820.0, 4816.0, 4816.0, 4836.0, 4836.0, 4836.0, 4810.0, 4818.0, 4790.0, 4814.0, 4814.0, 4828.0, 4814.0, 4814.0, 4812.0, 4814.0, 4812.0, 4838.0, 4810.0, 4812.0, 4818.0, 4816.0, 4832.0, 4814.0, 4816.0, 4814.0, 4818.0, 4812.0, 4816.0, 4812.0, 4812.0, 4816.0, 4814.0, 4814.0, 4836.0, 4814.0, 4816.0, 4812.0, 4812.0, 4812.0, 4810.0, 4812.0, 4836.0, 4812.0, 4810.0, 4816.0, 4810.0, 4814.0, 4814.0, 4816.0, 4812.0, 4810.0, 4818.0, 4814.0, 4820.0, 4814.0, 4814.0, 4808.0, 4814.0, 4808.0, 4810.0, 4814.0, 4812.0, 4810.0, 4806.0, 4786.0, 4816.0, 4814.0, 4814.0, 4814.0, 4832.0, 4838.0, 4810.0, 4812.0, 4782.0, 4802.0, 4806.0, 4808.0, 4814.0, 4814.0, 4812.0, 4816.0, 4790.0, 4812.0, 4808.0, 4788.0, 4790.0, 4814.0, 4792.0, 4812.0, 4818.0, 4810.0, 4818.0, 4810.0, 4806.0, 4812.0, 4830.0, 4808.0, 4810.0, 4808.0, 4808.0, 4808.0, 4808.0, 4782.0, 4784.0, 4810.0, 4816.0, 4812.0, 4812.0, 4810.0, 4838.0, 4810.0, 4810.0, 4812.0, 4780.0, 4780.0, 4804.0, 4832.0, 4810.0, 4834.0, 4812.0, 4834.0, 4836.0, 4806.0, 4784.0, 4802.0, 4782.0, 4812.0, 4810.0, 4834.0, 4812.0, 4834.0, 4812.0, 4812.0, 4778.0, 4814.0, 4794.0, 4782.0, 4832.0, 4810.0, 4830.0, 4832.0, 4816.0, 4820.0, 4810.0, 4812.0, 4812.0, 4810.0, 4812.0, 4806.0, 4812.0, 4812.0, 4810.0, 4812.0, 4814.0, 4808.0, 4814.0, 4808.0, 4806.0, 4808.0, 4810.0, 4786.0, 4784.0, 4810.0, 4832.0, 4810.0, 4834.0, 4832.0, 4804.0, 4784.0],
      "WindowWidth": [18614.0, 18622.0, 18622.0, 18618.0, 18620.0, 18620.0, 18616.0, 18580.0, 18578.0, 18568.0, 18612.0, 18608.0, 18608.0, 18610.0, 18580.0, 18610.0, 18616.0, 18626.0, 18620.0, 18602.0, 18614.0, 18584.0, 18614.0, 18612.0, 18622.0, 18616.0, 18576.0, 18612.0, 18614.0, 18624.0, 18624.0, 18624.0, 18630.0, 18614.0, 18560.0, 18592.0, 18602.0, 18622.0, 18612.0, 18618.0, 18608.0, 18618.0, 18620.0, 18608.0, 18602.0, 18606.0, 18616.0, 18654.0, 18626.0, 18656.0, 18622.0, 18618.0, 18614.0, 18622.0, 18580.0, 18630.0, 18626.0, 18620.0, 18624.0, 18628.0, 18622.0, 18616.0, 18618.0, 18618.0, 18610.0, 18626.0, 18626.0, 18620.0, 18620.0, 18622.0, 18620.0, 18622.0, 18620.0, 18620.0, 18616.0, 18620.0, 18626.0, 18630.0, 18622.0, 18624.0, 18624.0, 18626.0, 18626.0, 18628.0, 18630.0, 18622.0, 18616.0, 18626.0, 18628.0, 18628.0, 18616.0, 18616.0, 18578.0, 18582.0, 18620.0, 18614.0, 18626.0, 18630.0, 18622.0, 18624.0, 18620.0, 18606.0, 18612.0, 18622.0, 18614.0, 18612.0, 18620.0, 18652.0, 18618.0, 18624.0, 18582.0, 18616.0, 18624.0, 18626.0, 18624.0, 18620.0, 18620.0, 18614.0, 18580.0, 18620.0, 18622.0, 18628.0, 18628.0, 18630.0, 18620.0, 18624.0, 18612.0, 18612.0, 18612.0, 18626.0, 18616.0, 18624.0, 18656.0, 18622.0, 18622.0, 18628.0, 18612.0, 18610.0, 18628.0, 18654.0, 18654.0, 18658.0, 18616.0, 18580.0, 18568.0, 18632.0, 18628.0, 18640.0, 18616.0, 18620.0, 18624.0, 18626.0, 18624.0, 18658.0, 18608.0, 18612.0, 18620.0, 18626.0, 18654.0, 18628.0, 18628.0, 18626.0, 18626.0, 18616.0, 18622.0, 18622.0, 18614.0, 18610.0, 18622.0, 18624.0, 18658.0, 18616.0, 18624.0, 18620.0, 18628.0, 18624.0, 18606.0, 18620.0, 18662.0, 18616.0, 18622.0, 18622.0, 18620.0, 18620.0, 18626.0, 18630.0, 18624.0, 18618.0, 18628.0, 18606.0, 18602.0, 18604.0, 18614.0, 18620.0, 18624.0, 18612.0, 18626.0, 18624.0, 18622.0, 18610.0, 18608.0, 18580.0, 18614.0, 18610.0, 18618.0, 18622.0, 18660.0, 18658.0, 18628.0, 18626.0, 18570.0, 18604.0, 18606.0, 18618.0, 18622.0, 18612.0, 18614.0, 18608.0, 18578.0, 18610.0, 18612.0, 18580.0, 18578.0, 18604.0, 18580.0, 18610.0, 18616.0, 18622.0, 18606.0, 18622.0, 18616.0, 18618.0, 18662.0, 18622.0, 18624.0, 18624.0, 18612.0, 18616.0, 18612.0, 18572.0, 18570.0, 18614.0, 18630.0, 18622.0, 18620.0, 18626.0, 18658.0, 18620.0, 18616.0, 18600.0, 18574.0, 18574.0, 18614.0, 18662.0, 18620.0, 18654.0, 18632.0, 18662.0, 18658.0, 18614.0, 18560.0, 18610.0, 18574.0, 18634.0, 18628.0, 18658.0, 18628.0, 18656.0, 18630.0, 18626.0, 18568.0, 18590.0, 18560.0, 18572.0, 18658.0, 18622.0, 18634.0, 18650.0, 18616.0, 18604.0, 18606.0, 18616.0, 18620.0, 18604.0, 18614.0, 18612.0, 18626.0, 18626.0, 18622.0, 18618.0, 18622.0, 18624.0, 18608.0, 18614.0, 18626.0, 18626.0, 18624.0, 18576.0, 18564.0, 18624.0, 18660.0, 18630.0, 18656.0, 18660.0, 18614.0, 18568.0]
    },
    "slices": {}
  }
}