{
  "AcquisitionMatrixPE": 104,
  "AcquisitionNumber": 1,
  "AcquisitionTime": "15:51:59.442500",
  "BandwidthPerPixelPhaseEncode": 17.17,
  "BaseResolution": 104,
  "BodyPartExamined": "BRAIN",
  "CoilCombinationMethod": "Sum of Squares",
  "ConsistencyInfo": "N4_VE11C_LATEST_20160120",
  "ConversionSoftware": "dcm2niix",
  "ConversionSoftwareVersion": "v1.0.20220505",
  "DerivedVendorReportedEchoSpacing": 0.000560011,
  "DeviceSerialNumber": "167006",
  "DwellTime": 2.1e-06,
  "EchoTime": 0.037,
  "EchoTrainLength": 104,
  "EffectiveEchoSpacing": 0.000560011,
  "FlipAngle": 52,
  "HeudiconvVersion": "0.5.3.post811+g6206e14",
  "ImageComments": "Unaliased MB4/PE3/LB",
  "ImageOrientationPatientDICOM": [0.998303, 0.0150197, 0.0562623, 0.0149855, 0.867364, -0.497449],
  "ImageOrientationText": "Tra>Cor(-29.9)>Sag(3.2)",
  "ImageType": [
    "ORIGINAL",
    "PRIMARY",
    "M",
    "MB",
    "ND",
    "MOSAIC"
],
  "ImagingFrequency": 123.26,
  "InPlanePhaseEncodingDirectionDICOM": "COL",
  "InstitutionAddress": "Chemin Queen-Mary 4565,Montreal,District,CA,H3W 1W5",
  "InstitutionName": "IUGM",
  "InstitutionalDepartmentName": "Department",
  "MRAcquisitionType": "2D",
  "MagneticFieldStrength": 3,
  "Manufacturer": "Siemens",
  "ManufacturersModelName": "Prisma_fit",
  "MatrixCoilMode": "SENSE",
  "Modality": "MR",
  "MultibandAccelerationFactor": 4,
  "PartialFourier": 1,
  "PatientPosition": "HFS",
  "PercentPhaseFOV": 100,
  "PercentSampling": 100,
  "PhaseEncodingDirection": "j",
  "PhaseEncodingSteps": 104,
  "PhaseResolution": 1,
  "PixelBandwidth": 2290,
  "ProcedureStepDescription": "games^mario3",
  "ProtocolName": "func_task-mario3_run-04",
  "PulseSequenceDetails": "%CustomerSeq%\\cmrr_mbep2d_bold",
  "ReceiveCoilActiveElements": "HC1-7;NC1,2",
  "ReceiveCoilName": "HeadNeck_64",
  "ReconMatrixPE": 104,
  "RepetitionTime": 1.49,
  "SAR": 0.070332,
  "ScanOptions": "FS",
  "ScanningSequence": "EP",
  "SequenceName": "epfid2d1_104",
  "SequenceVariant": "SK\\SS",
  "SeriesDescription": "func_task-mario3_run-04",
  "SeriesNumber": 19,
  "ShimSetting": [619, -7183, -8858, 290, 25, -156, -61, 31],
  "SliceThickness": 2,
  "SliceTiming": [0, 0.7825, 0.0975, 0.88, 0.195, 0.98, 0.2925, 1.0775, 0.39, 1.175, 0.49, 1.2725, 0.5875, 1.37, 0.685, 0, 0.7825, 0.0975, 0.88, 0.195, 0.98, 0.2925, 1.0775, 0.39, 1.175, 0.49, 1.2725, 0.5875, 1.37, 0.685, 0, 0.7825, 0.0975, 0.88, 0.195, 0.98, 0.2925, 1.0775, 0.39, 1.175, 0.49, 1.2725, 0.5875, 1.37, 0.685, 0, 0.7825, 0.0975, 0.88, 0.195, 0.98, 0.2925, 1.0775, 0.39, 1.175, 0.49, 1.2725, 0.5875, 1.37, 0.685],
  "SoftwareVersions": "syngo MR E11",
  "SpacingBetweenSlices": 2,
  "StationName": "MRC35049",
  "TaskName": "mario3",
  "TotalReadoutTime": 0.0576811,
  "TxRefAmp": 301.694,
  "WipMemBlock": "f14b199c-e2c8-4b86-918e-17be75c73cce||Sequence: R017 ve11c/master r/75a17815+; Jun 28 2022 16:32:11 by eja",
  "dcmmeta_affine": [
    [-1.9966061115264893, 0.029971018433570862, 0.11254291981458664, 103.28376007080078],
    [-0.030039407312870026, 1.7347278594970703, -0.994895339012146, -49.20748519897461],
    [0.11252468079328537, 0.9948974251747131, 1.7313339710235596, -98.86970520019531],
    [0.0, 0.0, 0.0, 1.0]
],
  "dcmmeta_reorient_transform": [
    [0.0, -1.0, 0.0, 103.0],
    [1.0, 0.0, 0.0, 0.0],
    [0.0, 0.0, 1.0, 0.0],
    [0.0, 0.0, 0.0, 1.0]
],
  "dcmmeta_shape": [104, 104, 60, 373],
  "dcmmeta_slice_dim": 2,
  "dcmmeta_version": 0.6,
  "global": {
    "const": {
      "AcquisitionMatrix": [104, 0, 0, 104],
      "AngioFlag": "N",
      "BitsAllocated": 16,
      "BitsStored": 16,
      "BodyPartExamined": "BRAIN",
      "Columns": 832,
      "EchoNumbers": 1,
      "EchoTime": 37.0,
      "EchoTrainLength": 104,
      "FlipAngle": 52.0,
      "HighBit": 15,
      "ImageOrientationPatient": [0.99830303888915, 0.01501970319936, 0.05626234140598, 0.01498550947068, 0.86736395050446, -0.4974487027536],
      "ImagePositionPatient": [-844.04484051493, -771.84478755858, 324.78839663533],
      "ImageType": [
        "ORIGINAL",
        "PRIMARY",
        "M",
        "MB",
        "ND",
        "MOSAIC"
],
      "ImagedNucleus": "1H",
      "ImagingFrequency": 123.260233,
      "InPlanePhaseEncodingDirection": "COL",
      "MRAcquisitionType": "2D",
      "MagneticFieldStrength": 3.0,
      "Manufacturer": "SIEMENS",
      "ManufacturerModelName": "Prisma_fit",
      "Modality": "MR",
      "NumberOfAverages": 1.0,
      "NumberOfPhaseEncodingSteps": 104,
      "PercentPhaseFieldOfView": 100.0,
      "PercentSampling": 100.0,
      "PerformedProcedureStepStartTime": "143058.604000",
      "PhotometricInterpretation": "MONOCHROME2",
      "PixelBandwidth": 2290.0,
      "PixelRepresentation": 0,
      "PixelSpacing": [2.0, 2.0],
      "ProtocolName": "func_task-mario3_run-04",
      "RepetitionTime": 1490.0,
      "Rows": 832,
      "SAR": 0.0703320173411,
      "SamplesPerPixel": 1,
      "ScanOptions": "FS",
      "ScanningSequence": "EP",
      "SequenceName": "epfid2d1_104",
      "SequenceVariant": [
        "SK",
        "SS"
],
      "SeriesDescription": "func_task-mario3_run-04",
      "SeriesNumber": 19,
      "SeriesTime": "155317.835000",
      "SliceLocation": -55.298164441952,
      "SliceThickness": 2.0,
      "SmallestImagePixelValue": 0,
      "SoftwareVersions": "syngo MR E11",
      "SpacingBetweenSlices": 2.0000000250943,
      "SpecificCharacterSet": "ISO_IR 100",
      "StudyID": "1",
      "StudyTime": "143058.522000",
      "TransmitCoilName": "Body",
      "VariableFlipAngleFlag": "N",
      "WindowCenterWidthExplanation": "Algo1",
      "dBdt": 0.0},
    "slices": {}
  },
  "time": {
    "samples": {
      "AcquisitionNumber": [1, 2, 3, 4, 5, 6, 7, 8, 9, 10, 11, 12, 13, 14, 15, 16, 17, 18, 19, 20, 21, 22, 23, 24, 25, 26, 27, 28, 29, 30, 31, 32, 33, 34, 35, 36, 37, 38, 39, 40, 41, 42, 43, 44, 45, 46, 47, 48, 49, 50, 51, 52, 53, 54, 55, 56, 57, 58, 59, 60, 61, 62, 63, 64, 65, 66, 67, 68, 69, 70, 71, 72, 73, 74, 75, 76, 77, 78, 79, 80, 81, 82, 83, 84, 85, 86, 87, 88, 89, 90, 91, 92, 93, 94, 95, 96, 97, 98, 99, 100, 101, 102, 103, 104, 105, 106, 107, 108, 109, 110, 111, 112, 113, 114, 115, 116, 117, 118, 119, 120, 121, 122, 123, 124, 125, 126, 127, 128, 129, 130, 131, 132, 133, 134, 135, 136, 137, 138, 139, 140, 141, 142, 143, 144, 145, 146, 147, 148, 149, 150, 151, 152, 153, 154, 155, 156, 157, 158, 159, 160, 161, 162, 163, 164, 165, 166, 167, 168, 169, 170, 171, 172, 173, 174, 175, 176, 177, 178, 179, 180, 181, 182, 183, 184, 185, 186, 187, 188, 189, 190, 191, 192, 193, 194, 195, 196, 197, 198, 199, 200, 201, 202, 203, 204, 205, 206, 207, 208, 209, 210, 211, 212, 213, 214, 215, 216, 217, 218, 219, 220, 221, 222, 223, 224, 225, 226, 227, 228, 229, 230, 231, 232, 233, 234, 235, 236, 237, 238, 239, 240, 241, 242, 243, 244, 245, 246, 247, 248, 249, 250, 251, 252, 253, 254, 255, 256, 257, 258, 259, 260, 261, 262, 263, 264, 265, 266, 267, 268, 269, 270, 271, 272, 273, 274, 275, 276, 277, 278, 279, 280, 281, 282, 283, 284, 285, 286, 287, 288, 289, 290, 291, 292, 293, 294, 295, 296, 297, 298, 299, 300, 301, 302, 303, 304, 305, 306, 307, 308, 309, 310, 311, 312, 313, 314, 315, 316, 317, 318, 319, 320, 321, 322, 323, 324, 325, 326, 327, 328, 329, 330, 331, 332, 333, 334, 335, 336, 337, 338, 339, 340, 341, 342, 343, 344, 345, 346, 347, 348, 349, 350, 351, 352, 353, 354, 355, 356, 357, 358, 359, 360, 361, 362, 363, 364, 365, 366, 367, 368, 369, 370, 371, 372, 373],
      "AcquisitionTime": ["155159.442500", "155200.932500", "155202.422500", "155203.912500", "155205.402500", "155206.892500", "155208.382500", "155209.872500", "155211.362500", "155212.852500", "155214.342500", "155215.832500", "155217.322500", "155218.812500", "155220.302500", "155221.792500", "155223.282500", "155224.772500", "155226.262500", "155227.752500", "155229.242500", "155230.732500", "155232.222500", "155233.712500", "155235.202500", "155236.692500", "155238.182500", "155239.672500", "155241.162500", "155242.652500", "155244.142500", "155245.632500", "155247.122500", "155248.612500", "155250.102500", "155251.592500", "155253.082500", "155254.572500", "155256.062500", "155257.552500", "155259.042500", "155300.532500", "155302.022500", "155303.512500", "155305.002500", "155306.492500", "155307.982500", "155309.472500", "155310.962500", "155312.452500", "155313.942500", "155315.432500", "155316.922500", "155318.412500", "155319.902500", "155321.392500", "155322.882500", "155324.372500", "155325.862500", "155327.352500", "155328.842500", "155330.332500", "155331.822500", "155333.312500", "155334.802500", "155336.292500", "155337.782500", "155339.272500", "155340.762500", "155342.252500", "155343.742500", "155345.232500", "155346.722500", "155348.212500", "155349.702500", "155351.192500", "155352.682500", "155354.172500", "155355.662500", "155357.152500", "155358.642500", "155400.132500", "155401.622500", "155403.112500", "155404.602500", "155406.092500", "155407.582500", "155409.072500", "155410.562500", "155412.052500", "155413.542500", "155415.032500", "155416.522500", "155418.012500", "155419.502500", "155420.992500", "155422.482500", "155423.972500", "155425.462500", "155426.952500", "155428.442500", "155429.932500", "155431.422500", "155432.912500", "155434.402500", "155435.892500", "155437.382500", "155438.872500", "155440.362500", "155441.852500", "155443.342500", "155444.832500", "155446.322500", "155447.812500", "155449.302500", "155450.792500", "155452.282500", "155453.772500", "155455.262500", "155456.752500", "155458.242500", "155459.732500", "155501.222500", "155502.712500", "155504.202500", "155505.692500", "155507.182500", "155508.672500", "155510.162500", "155511.652500", "155513.142500", "155514.632500", "155516.122500", "155517.612500", "155519.102500", "155520.592500", "155522.082500", "155523.572500", "155525.062500", "155526.552500", "155528.042500", "155529.532500", "155531.022500", "155532.512500", "155534.002500", "155535.492500", "155536.982500", "155538.472500", "155539.962500", "155541.452500", "155542.942500", "155544.432500", "155545.922500", "155547.412500", "155548.902500", "155550.392500", "155551.882500", "155553.372500", "155554.862500", "155556.352500", "155557.842500", "155559.332500", "155600.822500", "155602.312500", "155603.802500", "155605.292500", "155606.782500", "155608.272500", "155609.762500", "155611.252500", "155612.742500", "155614.232500", "155615.722500", "155617.212500", "155618.702500", "155620.192500", "155621.682500", "155623.172500", "155624.662500", "155626.152500", "155627.642500", "155629.132500", "155630.622500", "155632.112500", "155633.602500", "155635.092500", "155636.582500", "155638.072500", "155639.562500", "155641.052500", "155642.542500", "155644.032500", "155645.522500", "155647.012500", "155648.502500", "155649.992500", "155651.482500", "155652.972500", "155654.462500", "155655.952500", "155657.442500", "155658.932500", "155700.422500", "155701.912500", "155703.402500", "155704.892500", "155706.382500", "155707.872500", "155709.362500", "155710.852500", "155712.342500", "155713.832500", "155715.322500", "155716.812500", "155718.302500", "155719.792500", "155721.282500", "155722.772500", "155724.262500", "155725.752500", "155727.242500", "155728.732500", "155730.222500", "155731.712500", "155733.202500", "155734.692500", "155736.182500", "155737.672500", "155739.162500", "155740.652500", "155742.142500", "155743.632500", "155745.122500", "155746.612500", "155748.102500", "155749.592500", "155751.082500", "155752.572500", "155754.062500", "155755.552500", "155757.042500", "155758.532500", "155800.022500", "155801.512500", "155803.002500", "155804.492500", "155805.982500", "155807.472500", "155808.962500", "155810.452500", "155811.942500", "155813.432500", "155814.922500", "155816.412500", "155817.902500", "155819.392500", "155820.882500", "155822.372500", "155823.862500", "155825.352500", "155826.842500", "155828.332500", "155829.822500", "155831.312500", "155832.802500", "155834.292500", "155835.782500", "155837.272500", "155838.762500", "155840.252500", "155841.742500", "155843.232500", "155844.722500", "155846.212500", "155847.702500", "155849.192500", "155850.682500", "155852.172500", "155853.662500", "155855.152500", "155856.642500", "155858.132500", "155859.622500", "155901.112500", "155902.602500", "155904.092500", "155905.582500", "155907.072500", "155908.562500", "155910.052500", "155911.542500", "155913.032500", "155914.522500", "155916.012500", "155917.502500", "155918.992500", "155920.482500", "155921.972500", "155923.462500", "155924.952500", "155926.442500", "155927.932500", "155929.422500", "155930.912500", "155932.402500", "155933.892500", "155935.382500", "155936.872500", "155938.362500", "155939.852500", "155941.342500", "155942.832500", "155944.322500", "155945.812500", "155947.302500", "155948.792500", "155950.282500", "155951.772500", "155953.262500", "155954.752500", "155956.242500", "155957.732500", "155959.222500", "160000.712500", "160002.202500", "160003.692500", "160005.182500", "160006.672500", "160008.162500", "160009.652500", "160011.142500", "160012.632500", "160014.122500", "160015.612500", "160017.102500", "160018.592500", "160020.082500", "160021.572500", "160023.062500", "160024.552500", "160026.042500", "160027.532500", "160029.022500", "160030.512500", "160032.002500", "160033.492500", "160034.982500", "160036.472500", "160037.962500", "160039.452500", "160040.942500", "160042.432500", "160043.922500", "160045.412500", "160046.902500", "160048.392500", "160049.882500", "160051.372500", "160052.862500", "160054.352500", "160055.842500", "160057.332500", "160058.822500", "160100.312500", "160101.802500", "160103.292500", "160104.782500", "160106.272500", "160107.762500", "160109.252500", "160110.742500", "160112.232500", "160113.722500"],
      "ContentTime": ["155317.839000", "155317.842000", "155317.846000", "155317.849000", "155317.852000", "155317.856000", "155317.859000", "155317.862000", "155317.866000", "155317.869000", "155317.872000", "155317.876000", "155317.879000", "155317.882000", "155317.886000", "155317.889000", "155317.892000", "155317.896000", "155317.899000", "155317.903000", "155317.906000", "155317.929000", "155317.933000", "155317.936000", "155317.940000", "155317.943000", "155317.947000", "155317.950000", "155317.954000", "155337.806000", "155337.810000", "155337.813000", "155337.817000", "155337.820000", "155337.823000", "155337.827000", "155337.830000", "155337.833000", "155337.837000", "155337.840000", "155337.843000", "155337.853000", "155337.856000", "155337.860000", "155337.863000", "155337.866000", "155337.870000", "155337.873000", "155337.876000", "155337.880000", "155357.806000", "155357.810000", "155357.813000", "155357.816000", "155357.820000", "155357.823000", "155357.831000", "155357.834000", "155357.838000", "155357.841000", "155357.845000", "155357.848000", "155357.851000", "155357.855000", "155357.858000", "155357.861000", "155357.865000", "155357.868000", "155357.871000", "155357.875000", "155417.806000", "155417.810000", "155417.813000", "155417.816000", "155417.820000", "155417.823000", "155417.826000", "155417.830000", "155417.833000", "155417.836000", "155417.840000", "155417.848000", "155417.852000", "155417.855000", "155417.858000", "155417.862000", "155417.865000", "155417.868000", "155417.872000", "155417.875000", "155457.806000", "155457.810000", "155457.813000", "155457.817000", "155457.820000", "155457.823000", "155457.827000", "155457.830000", "155457.834000", "155457.837000", "155457.840000", "155457.844000", "155457.847000", "155457.850000", "155457.854000", "155457.857000", "155457.860000", "155457.864000", "155457.867000", "155457.870000", "155457.874000", "155457.877000", "155457.881000", "155457.884000", "155457.887000", "155457.891000", "155457.894000", "155457.898000", "155457.901000", "155537.806000", "155537.810000", "155537.814000", "155537.818000", "155537.836000", "155537.839000", "155537.842000", "155537.846000", "155537.849000", "155537.853000", "155537.856000", "155537.859000", "155537.863000", "155537.866000", "155537.870000", "155537.873000", "155537.876000", "155537.880000", "155537.883000", "155537.886000", "155537.890000", "155537.893000", "155537.896000", "155537.900000", "155537.903000", "155537.906000", "155617.806000", "155617.810000", "155617.813000", "155617.817000", "155617.820000", "155617.823000", "155617.827000", "155617.830000", "155617.833000", "155617.837000", "155617.840000", "155617.844000", "155617.847000", "155617.850000", "155617.854000", "155617.857000", "155617.860000", "155617.864000", "155617.867000", "155617.870000", "155617.874000", "155617.877000", "155617.880000", "155617.884000", "155617.887000", "155617.890000", "155617.894000", "155657.805000", "155657.809000", "155657.812000", "155657.816000", "155657.819000", "155657.822000", "155657.825000", "155657.829000", "155657.832000", "155657.836000", "155657.840000", "155657.843000", "155657.847000", "155657.850000", "155657.853000", "155657.857000", "155657.860000", "155657.863000", "155657.867000", "155657.870000", "155657.873000", "155657.877000", "155657.880000", "155657.883000", "155657.887000", "155657.890000", "155657.893000", "155737.806000", "155737.810000", "155737.813000", "155737.817000", "155737.820000", "155737.823000", "155737.827000", "155737.830000", "155737.833000", "155737.837000", "155737.840000", "155737.843000", "155737.847000", "155737.850000", "155737.854000", "155737.857000", "155737.860000", "155737.864000", "155737.867000", "155737.870000", "155737.874000", "155737.877000", "155737.880000", "155737.884000", "155737.897000", "155737.900000", "155737.903000", "155817.806000", "155817.810000", "155817.813000", "155817.817000", "155817.820000", "155817.823000", "155817.826000", "155817.830000", "155817.833000", "155817.837000", "155817.840000", "155817.843000", "155817.846000", "155817.850000", "155817.853000", "155817.857000", "155817.860000", "155817.863000", "155817.867000", "155817.870000", "155817.873000", "155817.877000", "155817.880000", "155817.883000", "155817.887000", "155817.890000", "155817.893000", "155857.806000", "155857.810000", "155857.813000", "155857.817000", "155857.820000", "155857.823000", "155857.827000", "155857.830000", "155857.834000", "155857.837000", "155857.841000", "155857.844000", "155857.848000", "155857.851000", "155857.854000", "155857.858000", "155857.861000", "155857.864000", "155857.868000", "155857.871000", "155857.874000", "155857.878000", "155857.881000", "155857.885000", "155857.888000", "155857.891000", "155857.895000", "155937.806000", "155937.810000", "155937.813000", "155937.817000", "155937.820000", "155937.824000", "155937.827000", "155937.831000", "155937.834000", "155937.838000", "155937.842000", "155937.845000", "155937.849000", "155937.853000", "155937.856000", "155937.859000", "155937.863000", "155937.866000", "155937.870000", "155937.873000", "155937.876000", "155937.880000", "155937.883000", "155937.886000", "155937.889000", "155937.893000", "160017.806000", "160017.810000", "160017.813000", "160017.817000", "160017.820000", "160017.823000", "160017.827000", "160017.830000", "160017.834000", "160017.837000", "160017.840000", "160017.844000", "160017.847000", "160017.851000", "160017.854000", "160017.857000", "160017.861000", "160017.864000", "160017.867000", "160017.871000", "160017.874000", "160017.877000", "160017.881000", "160017.884000", "160017.887000", "160017.891000", "160017.894000", "160057.806000", "160057.810000", "160057.813000", "160057.817000", "160057.820000", "160057.823000", "160057.827000", "160057.830000", "160057.833000", "160057.837000", "160057.840000", "160057.843000", "160057.847000", "160057.850000", "160057.854000", "160057.857000", "160057.860000", "160057.863000", "160057.867000", "160057.870000", "160057.874000", "160057.877000", "160057.880000", "160057.884000", "160057.887000", "160057.890000", "160057.893000", "160117.285000", "160117.290000", "160117.293000", "160117.297000", "160117.300000", "160117.303000", "160117.307000", "160117.310000", "160117.314000", "160117.317000", "160117.320000", "160117.324000", "160117.327000"],
      "InstanceCreationTime": ["155317.839000", "155317.842000", "155317.846000", "155317.849000", "155317.852000", "155317.856000", "155317.859000", "155317.862000", "155317.866000", "155317.869000", "155317.872000", "155317.876000", "155317.879000", "155317.882000", "155317.886000", "155317.889000", "155317.892000", "155317.896000", "155317.899000", "155317.903000", "155317.906000", "155317.929000", "155317.933000", "155317.936000", "155317.940000", "155317.943000", "155317.947000", "155317.950000", "155317.954000", "155337.806000", "155337.810000", "155337.813000", "155337.817000", "155337.820000", "155337.823000", "155337.827000", "155337.830000", "155337.833000", "155337.837000", "155337.840000", "155337.843000", "155337.853000", "155337.856000", "155337.860000", "155337.863000", "155337.866000", "155337.870000", "155337.873000", "155337.876000", "155337.880000", "155357.806000", "155357.810000", "155357.813000", "155357.816000", "155357.820000", "155357.823000", "155357.831000", "155357.834000", "155357.838000", "155357.841000", "155357.845000", "155357.848000", "155357.851000", "155357.855000", "155357.858000", "155357.861000", "155357.865000", "155357.868000", "155357.871000", "155357.875000", "155417.806000", "155417.810000", "155417.813000", "155417.816000", "155417.820000", "155417.823000", "155417.826000", "155417.830000", "155417.833000", "155417.836000", "155417.840000", "155417.848000", "155417.852000", "155417.855000", "155417.858000", "155417.862000", "155417.865000", "155417.868000", "155417.872000", "155417.875000", "155457.806000", "155457.810000", "155457.813000", "155457.817000", "155457.820000", "155457.823000", "155457.827000", "155457.830000", "155457.834000", "155457.837000", "155457.840000", "155457.844000", "155457.847000", "155457.850000", "155457.854000", "155457.857000", "155457.860000", "155457.864000", "155457.867000", "155457.870000", "155457.874000", "155457.877000", "155457.881000", "155457.884000", "155457.887000", "155457.891000", "155457.894000", "155457.898000", "155457.901000", "155537.806000", "155537.810000", "155537.814000", "155537.818000", "155537.836000", "155537.839000", "155537.842000", "155537.846000", "155537.849000", "155537.853000", "155537.856000", "155537.859000", "155537.863000", "155537.866000", "155537.870000", "155537.873000", "155537.876000", "155537.880000", "155537.883000", "155537.886000", "155537.890000", "155537.893000", "155537.896000", "155537.900000", "155537.903000", "155537.906000", "155617.806000", "155617.810000", "155617.813000", "155617.817000", "155617.820000", "155617.823000", "155617.827000", "155617.830000", "155617.833000", "155617.837000", "155617.840000", "155617.844000", "155617.847000", "155617.850000", "155617.854000", "155617.857000", "155617.860000", "155617.864000", "155617.867000", "155617.870000", "155617.874000", "155617.877000", "155617.880000", "155617.884000", "155617.887000", "155617.890000", "155617.894000", "155657.805000", "155657.809000", "155657.812000", "155657.816000", "155657.819000", "155657.822000", "155657.825000", "155657.829000", "155657.832000", "155657.836000", "155657.840000", "155657.843000", "155657.847000", "155657.850000", "155657.853000", "155657.857000", "155657.860000", "155657.863000", "155657.867000", "155657.870000", "155657.873000", "155657.877000", "155657.880000", "155657.883000", "155657.887000", "155657.890000", "155657.893000", "155737.806000", "155737.810000", "155737.813000", "155737.817000", "155737.820000", "155737.823000", "155737.827000", "155737.830000", "155737.833000", "155737.837000", "155737.840000", "155737.843000", "155737.847000", "155737.850000", "155737.854000", "155737.857000", "155737.860000", "155737.864000", "155737.867000", "155737.870000", "155737.874000", "155737.877000", "155737.880000", "155737.884000", "155737.897000", "155737.900000", "155737.903000", "155817.806000", "155817.810000", "155817.813000", "155817.817000", "155817.820000", "155817.823000", "155817.826000", "155817.830000", "155817.833000", "155817.837000", "155817.840000", "155817.843000", "155817.846000", "155817.850000", "155817.853000", "155817.857000", "155817.860000", "155817.863000", "155817.867000", "155817.870000", "155817.873000", "155817.877000", "155817.880000", "155817.883000", "155817.887000", "155817.890000", "155817.893000", "155857.806000", "155857.810000", "155857.813000", "155857.817000", "155857.820000", "155857.823000", "155857.827000", "155857.830000", "155857.834000", "155857.837000", "155857.841000", "155857.844000", "155857.848000", "155857.851000", "155857.854000", "155857.858000", "155857.861000", "155857.864000", "155857.868000", "155857.871000", "155857.874000", "155857.878000", "155857.881000", "155857.885000", "155857.888000", "155857.891000", "155857.895000", "155937.806000", "155937.810000", "155937.813000", "155937.817000", "155937.820000", "155937.824000", "155937.827000", "155937.831000", "155937.834000", "155937.838000", "155937.842000", "155937.845000", "155937.849000", "155937.853000", "155937.856000", "155937.859000", "155937.863000", "155937.866000", "155937.870000", "155937.873000", "155937.876000", "155937.880000", "155937.883000", "155937.886000", "155937.889000", "155937.893000", "160017.806000", "160017.810000", "160017.813000", "160017.817000", "160017.820000", "160017.823000", "160017.827000", "160017.830000", "160017.834000", "160017.837000", "160017.840000", "160017.844000", "160017.847000", "160017.851000", "160017.854000", "160017.857000", "160017.861000", "160017.864000", "160017.867000", "160017.871000", "160017.874000", "160017.877000", "160017.881000", "160017.884000", "160017.887000", "160017.891000", "160017.894000", "160057.806000", "160057.810000", "160057.813000", "160057.817000", "160057.820000", "160057.823000", "160057.827000", "160057.830000", "160057.833000", "160057.837000", "160057.840000", "160057.843000", "160057.847000", "160057.850000", "160057.854000", "160057.857000", "160057.860000", "160057.863000", "160057.867000", "160057.870000", "160057.874000", "160057.877000", "160057.880000", "160057.884000", "160057.887000", "160057.890000", "160057.893000", "160117.285000", "160117.290000", "160117.293000", "160117.297000", "160117.300000", "160117.303000", "160117.307000", "160117.310000", "160117.314000", "160117.317000", "160117.320000", "160117.324000", "160117.327000"],
      "InstanceNumber": [1, 2, 3, 4, 5, 6, 7, 8, 9, 10, 11, 12, 13, 14, 15, 16, 17, 18, 19, 20, 21, 22, 23, 24, 25, 26, 27, 28, 29, 30, 31, 32, 33, 34, 35, 36, 37, 38, 39, 40, 41, 42, 43, 44, 45, 46, 47, 48, 49, 50, 51, 52, 53, 54, 55, 56, 57, 58, 59, 60, 61, 62, 63, 64, 65, 66, 67, 68, 69, 70, 71, 72, 73, 74, 75, 76, 77, 78, 79, 80, 81, 82, 83, 84, 85, 86, 87, 88, 89, 90, 91, 92, 93, 94, 95, 96, 97, 98, 99, 100, 101, 102, 103, 104, 105, 106, 107, 108, 109, 110, 111, 112, 113, 114, 115, 116, 117, 118, 119, 120, 121, 122, 123, 124, 125, 126, 127, 128, 129, 130, 131, 132, 133, 134, 135, 136, 137, 138, 139, 140, 141, 142, 143, 144, 145, 146, 147, 148, 149, 150, 151, 152, 153, 154, 155, 156, 157, 158, 159, 160, 161, 162, 163, 164, 165, 166, 167, 168, 169, 170, 171, 172, 173, 174, 175, 176, 177, 178, 179, 180, 181, 182, 183, 184, 185, 186, 187, 188, 189, 190, 191, 192, 193, 194, 195, 196, 197, 198, 199, 200, 201, 202, 203, 204, 205, 206, 207, 208, 209, 210, 211, 212, 213, 214, 215, 216, 217, 218, 219, 220, 221, 222, 223, 224, 225, 226, 227, 228, 229, 230, 231, 232, 233, 234, 235, 236, 237, 238, 239, 240, 241, 242, 243, 244, 245, 246, 247, 248, 249, 250, 251, 252, 253, 254, 255, 256, 257, 258, 259, 260, 261, 262, 263, 264, 265, 266, 267, 268, 269, 270, 271, 272, 273, 274, 275, 276, 277, 278, 279, 280, 281, 282, 283, 284, 285, 286, 287, 288, 289, 290, 291, 292, 293, 294, 295, 296, 297, 298, 299, 300, 301, 302, 303, 304, 305, 306, 307, 308, 309, 310, 311, 312, 313, 314, 315, 316, 317, 318, 319, 320, 321, 322, 323, 324, 325, 326, 327, 328, 329, 330, 331, 332, 333, 334, 335, 336, 337, 338, 339, 340, 341, 342, 343, 344, 345, 346, 347, 348, 349, 350, 351, 352, 353, 354, 355, 356, 357, 358, 359, 360, 361, 362, 363, 364, 365, 366, 367, 368, 369, 370, 371, 372, 373],
