{
  "AcquisitionMatrixPE": 104,
  "AcquisitionNumber": 1,
  "AcquisitionTime": "16:03:2.810000",
  "BandwidthPerPixelPhaseEncode": 17.17,
  "BaseResolution": 104,
  "BodyPartExamined": "BRAIN",
  "CoilCombinationMethod": "Sum of Squares",
  "ConsistencyInfo": "N4_VE11C_LATEST_20160120",
  "ConversionSoftware": "dcm2niix",
  "ConversionSoftwareVersion": "v1.0.20220505",
  "DerivedVendorReportedEchoSpacing": 0.000560011,
  "DeviceSerialNumber": "167006",
  "DwellTime": 2.1e-06,
  "EchoTime": 0.037,
  "EchoTime1": 0.037,
  "EchoTime2": 0.001,
  "EchoTrainLength": 104,
  "EffectiveEchoSpacing": 0.000560011,
  "FlipAngle": 52,
  "HeudiconvVersion": "0.5.3.post811+g6206e14",
  "ImageComments": "Unaliased MB4/PE3/LB",
  "ImageOrientationPatientDICOM": [0.998303, 0.0150197, 0.0562623, 0.0149855, 0.867364, -0.497449],
  "ImageOrientationText": "Tra>Cor(-29.9)>Sag(3.2)",
  "ImageType": [
    "ORIGINAL",
    "PRIMARY",
    "P",
    "MB",
    "ND",
    "MOSAIC",
    "PHASE"
],
  "ImagingFrequency": 123.26,
  "InPlanePhaseEncodingDirectionDICOM": "COL",
  "InstitutionAddress": "Chemin Queen-Mary 4565,Montreal,District,CA,H3W 1W5",
  "InstitutionName": "IUGM",
  "InstitutionalDepartmentName": "Department",
  "MRAcquisitionType": "2D",
  "MagneticFieldStrength": 3,
  "Manufacturer": "Siemens",
  "ManufacturersModelName": "Prisma_fit",
  "MatrixCoilMode": "SENSE",
  "Modality": "MR",
  "MultibandAccelerationFactor": 4,
  "PartialFourier": 1,
  "PatientPosition": "HFS",
  "PercentPhaseFOV": 100,
  "PercentSampling": 100,
  "PhaseEncodingDirection": "j",
  "PhaseEncodingSteps": 104,
  "PhaseResolution": 1,
  "PixelBandwidth": 2290,
  "ProcedureStepDescription": "games^mario3",
  "ProtocolName": "func_task-mario3_run-05",
  "PulseSequenceDetails": "%CustomerSeq%\\cmrr_mbep2d_bold",
  "ReceiveCoilActiveElements": "HC1-7;NC1,2",
  "ReceiveCoilName": "HeadNeck_64",
  "ReconMatrixPE": 104,
  "RepetitionTime": 1.49,
  "SAR": 0.070332,
  "ScanOptions": "FS",
  "ScanningSequence": "EP",
  "SequenceName": "epfid2d1_104",
  "SequenceVariant": "SK\\SS",
  "SeriesDescription": "func_task-mario3_run-05",
  "SeriesNumber": 23,
  "ShimSetting": [619, -7183, -8858, 290, 25, -156, -61, 31],
  "SliceThickness": 2,
  "SliceTiming": [0, 0.785, 0.1, 0.8825, 0.1975, 0.98, 0.295, 1.08, 0.3925, 1.1775, 0.49, 1.275, 0.59, 1.3725, 0.6875, 0, 0.785, 0.1, 0.8825, 0.1975, 0.98, 0.295, 1.08, 0.3925, 1.1775, 0.49, 1.275, 0.59, 1.3725, 0.6875, 0, 0.785, 0.1, 0.8825, 0.1975, 0.98, 0.295, 1.08, 0.3925, 1.1775, 0.49, 1.275, 0.59, 1.3725, 0.6875, 0, 0.785, 0.1, 0.8825, 0.1975, 0.98, 0.295, 1.08, 0.3925, 1.1775, 0.49, 1.275, 0.59, 1.3725, 0.6875],
  "SoftwareVersions": "syngo MR E11",
  "SpacingBetweenSlices": 2,
  "StationName": "MRC35049",
  "TaskName": "mario3",
  "TotalReadoutTime": 0.0576811,
  "TxRefAmp": 301.694,
  "WipMemBlock": "11aaeb0c-4633-436c-ae39-4b730435c44e||Sequence: R017 ve11c/master r/75a17815+; Jun 28 2022 16:32:11 by eja",
  "dcmmeta_affine": [
    [-1.9966061115264893, 0.029971018433570862, 0.11254291981458664, 103.28376007080078],
    [-0.030039407312870026, 1.7347278594970703, -0.994895339012146, -49.20748519897461],
    [0.11252468079328537, 0.9948974251747131, 1.7313339710235596, -98.86970520019531],
    [0.0, 0.0, 0.0, 1.0]
],
  "dcmmeta_reorient_transform": [
    [0.0, -1.0, 0.0, 103.0],
    [1.0, 0.0, 0.0, 0.0],
    [0.0, 0.0, 1.0, 0.0],
    [0.0, 0.0, 0.0, 1.0]
],
  "dcmmeta_shape": [104, 104, 60, 343],
  "dcmmeta_slice_dim": 2,
  "dcmmeta_version": 0.6,
  "global": {
    "const": {
      "AcquisitionMatrix": [104, 0, 0, 104],
      "AngioFlag": "N",
      "BitsAllocated": 16,
      "BitsStored": 16,
      "BodyPartExamined": "BRAIN",
      "Columns": 832,
      "EchoNumbers": 1,
      "EchoTime": 37.0,
      "EchoTrainLength": 104,
      "FlipAngle": 52.0,
      "HighBit": 15,
      "ImageOrientationPatient": [0.99830303888915, 0.01501970319936, 0.05626234140598, 0.01498550947068, 0.86736395050446, -0.4974487027536],
      "ImagePositionPatient": [-844.04484051493, -771.84478755858, 324.78839663533],
      "ImageType": [
        "ORIGINAL",
        "PRIMARY",
        "P",
        "MB",
        "ND",
        "MOSAIC"
],
      "ImagedNucleus": "1H",
      "ImagingFrequency": 123.260238,
      "InPlanePhaseEncodingDirection": "COL",
      "LargestImagePixelValue": 4095,
      "MRAcquisitionType": "2D",
      "MagneticFieldStrength": 3.0,
      "Manufacturer": "SIEMENS",
      "ManufacturerModelName": "Prisma_fit",
      "Modality": "MR",
      "NumberOfAverages": 1.0,
      "NumberOfPhaseEncodingSteps": 104,
      "PercentPhaseFieldOfView": 100.0,
      "PercentSampling": 100.0,
      "PerformedProcedureStepStartTime": "143058.604000",
      "PhotometricInterpretation": "MONOCHROME2",
      "PixelBandwidth": 2290.0,
      "PixelRepresentation": 0,
      "PixelSpacing": [2.0, 2.0],
      "ProtocolName": "func_task-mario3_run-05",
      "RepetitionTime": 1490.0,
      "RescaleIntercept": -4096.0,
      "RescaleSlope": 2.0,
      "RescaleType": "US",
      "Rows": 832,
      "SAR": 0.0703320173411,
      "SamplesPerPixel": 1,
      "ScanOptions": "FS",
      "ScanningSequence": "EP",
      "SequenceName": "epfid2d1_104",
      "SequenceVariant": [
        "SK",
        "SS"
],
      "SeriesDescription": "func_task-mario3_run-05",
      "SeriesNumber": 23,
      "SeriesTime": "160428.134000",
      "SliceLocation": -55.298164441952,
      "SliceThickness": 2.0,
      "SmallestImagePixelValue": 0,
      "SoftwareVersions": "syngo MR E11",
      "SpacingBetweenSlices": 2.0000000250943,
      "SpecificCharacterSet": "ISO_IR 100",
      "StudyID": "1",
      "StudyTime": "143058.522000",
      "TransmitCoilName": "Body",
      "VariableFlipAngleFlag": "N",
      "WindowCenterWidthExplanation": "Algo1",
      "dBdt": 0.0},
    "slices": {}
  },
  "time": {
    "samples": {
      "AcquisitionNumber": [1, 2, 3, 4, 5, 6, 7, 8, 9, 10, 11, 12, 13, 14, 15, 16, 17, 18, 19, 20, 21, 22, 23, 24, 25, 26, 27, 28, 29, 30, 31, 32, 33, 34, 35, 36, 37, 38, 39, 40, 41, 42, 43, 44, 45, 46, 47, 48, 49, 50, 51, 52, 53, 54, 55, 56, 57, 58, 59, 60, 61, 62, 63, 64, 65, 66, 67, 68, 69, 70, 71, 72, 73, 74, 75, 76, 77, 78, 79, 80, 81, 82, 83, 84, 85, 86, 87, 88, 89, 90, 91, 92, 93, 94, 95, 96, 97, 98, 99, 100, 101, 102, 103, 104, 105, 106, 107, 108, 109, 110, 111, 112, 113, 114, 115, 116, 117, 118, 119, 120, 121, 122, 123, 124, 125, 126, 127, 128, 129, 130, 131, 132, 133, 134, 135, 136, 137, 138, 139, 140, 141, 142, 143, 144, 145, 146, 147, 148, 149, 150, 151, 152, 153, 154, 155, 156, 157, 158, 159, 160, 161, 162, 163, 164, 165, 166, 167, 168, 169, 170, 171, 172, 173, 174, 175, 176, 177, 178, 179, 180, 181, 182, 183, 184, 185, 186, 187, 188, 189, 190, 191, 192, 193, 194, 195, 196, 197, 198, 199, 200, 201, 202, 203, 204, 205, 206, 207, 208, 209, 210, 211, 212, 213, 214, 215, 216, 217, 218, 219, 220, 221, 222, 223, 224, 225, 226, 227, 228, 229, 230, 231, 232, 233, 234, 235, 236, 237, 238, 239, 240, 241, 242, 243, 244, 245, 246, 247, 248, 249, 250, 251, 252, 253, 254, 255, 256, 257, 258, 259, 260, 261, 262, 263, 264, 265, 266, 267, 268, 269, 270, 271, 272, 273, 274, 275, 276, 277, 278, 279, 280, 281, 282, 283, 284, 285, 286, 287, 288, 289, 290, 291, 292, 293, 294, 295, 296, 297, 298, 299, 300, 301, 302, 303, 304, 305, 306, 307, 308, 309, 310, 311, 312, 313, 314, 315, 316, 317, 318, 319, 320, 321, 322, 323, 324, 325, 326, 327, 328, 329, 330, 331, 332, 333, 334, 335, 336, 337, 338, 339, 340, 341, 342, 343],
      "AcquisitionTime": ["160302.810000", "160304.300000", "160305.790000", "160307.280000", "160308.770000", "160310.260000", "160311.750000", "160313.240000", "160314.730000", "160316.220000", "160317.710000", "160319.200000", "160320.690000", "160322.180000", "160323.670000", "160325.160000", "160326.650000", "160328.140000", "160329.630000", "160331.120000", "160332.610000", "160334.100000", "160335.590000", "160337.080000", "160338.570000", "160340.060000", "160341.550000", "160343.040000", "160344.530000", "160346.020000", "160347.510000", "160349.000000", "160350.490000", "160351.980000", "160353.470000", "160354.960000", "160356.450000", "160357.940000", "160359.430000", "160400.920000", "160402.410000", "160403.900000", "160405.390000", "160406.880000", "160408.370000", "160409.860000", "160411.350000", "160412.840000", "160414.330000", "160415.820000", "160417.310000", "160418.800000", "160420.290000", "160421.780000", "160423.270000", "160424.760000", "160426.250000", "160427.740000", "160429.230000", "160430.720000", "160432.210000", "160433.700000", "160435.190000", "160436.680000", "160438.170000", "160439.660000", "160441.150000", "160442.640000", "160444.130000", "160445.620000", "160447.110000", "160448.600000", "160450.090000", "160451.580000", "160453.070000", "160454.560000", "160456.050000", "160457.540000", "160459.030000", "160500.520000", "160502.010000", "160503.500000", "160504.990000", "160506.480000", "160507.970000", "160509.460000", "160510.950000", "160512.440000", "160513.930000", "160515.420000", "160516.910000", "160518.400000", "160519.890000", "160521.380000", "160522.870000", "160524.360000", "160525.850000", "160527.340000", "160528.830000", "160530.320000", "160531.810000", "160533.300000", "160534.790000", "160536.280000", "160537.770000", "160539.260000", "160540.750000", "160542.240000", "160543.730000", "160545.220000", "160546.710000", "160548.200000", "160549.690000", "160551.180000", "160552.670000", "160554.160000", "160555.650000", "160557.140000", "160558.630000", "160600.120000", "160601.610000", "160603.100000", "160604.590000", "160606.080000", "160607.570000", "160609.060000", "160610.550000", "160612.040000", "160613.530000", "160615.020000", "160616.510000", "160618.000000", "160619.490000", "160620.980000", "160622.470000", "160623.960000", "160625.450000", "160626.940000", "160628.430000", "160629.920000", "160631.410000", "160632.900000", "160634.390000", "160635.880000", "160637.370000", "160638.860000", "160640.350000", "160641.840000", "160643.330000", "160644.820000", "160646.310000", "160647.800000", "160649.290000", "160650.780000", "160652.270000", "160653.760000", "160655.250000", "160656.740000", "160658.230000", "160659.720000", "160701.210000", "160702.700000", "160704.190000", "160705.680000", "160707.170000", "160708.660000", "160710.150000", "160711.640000", "160713.130000", "160714.620000", "160716.110000", "160717.600000", "160719.090000", "160720.580000", "160722.070000", "160723.560000", "160725.050000", "160726.540000", "160728.030000", "160729.520000", "160731.010000", "160732.500000", "160733.990000", "160735.480000", "160736.970000", "160738.460000", "160739.950000", "160741.440000", "160742.930000", "160744.420000", "160745.910000", "160747.400000", "160748.890000", "160750.380000", "160751.870000", "160753.360000", "160754.850000", "160756.340000", "160757.830000", "160759.320000", "160800.810000", "160802.300000", "160803.790000", "160805.280000", "160806.770000", "160808.260000", "160809.750000", "160811.240000", "160812.730000", "160814.220000", "160815.710000", "160817.200000", "160818.690000", "160820.180000", "160821.670000", "160823.160000", "160824.650000", "160826.140000", "160827.630000", "160829.120000", "160830.610000", "160832.100000", "160833.590000", "160835.080000", "160836.570000", "160838.060000", "160839.550000", "160841.040000", "160842.530000", "160844.020000", "160845.510000", "160847.000000", "160848.490000", "160849.980000", "160851.470000", "160852.960000", "160854.450000", "160855.940000", "160857.430000", "160858.920000", "160900.410000", "160901.900000", "160903.390000", "160904.880000", "160906.370000", "160907.860000", "160909.350000", "160910.840000", "160912.330000", "160913.820000", "160915.310000", "160916.800000", "160918.290000", "160919.780000", "160921.270000", "160922.760000", "160924.250000", "160925.740000", "160927.230000", "160928.720000", "160930.210000", "160931.700000", "160933.190000", "160934.680000", "160936.170000", "160937.660000", "160939.150000", "160940.640000", "160942.130000", "160943.620000", "160945.110000", "160946.600000", "160948.090000", "160949.580000", "160951.070000", "160952.560000", "160954.050000", "160955.540000", "160957.030000", "160958.520000", "161000.010000", "161001.500000", "161002.990000", "161004.480000", "161005.970000", "161007.460000", "161008.950000", "161010.440000", "161011.930000", "161013.420000", "161014.910000", "161016.400000", "161017.890000", "161019.380000", "161020.870000", "161022.360000", "161023.850000", "161025.340000", "161026.830000", "161028.320000", "161029.810000", "161031.300000", "161032.790000", "161034.280000", "161035.770000", "161037.260000", "161038.750000", "161040.240000", "161041.730000", "161043.220000", "161044.710000", "161046.200000", "161047.690000", "161049.180000", "161050.670000", "161052.160000", "161053.650000", "161055.140000", "161056.630000", "161058.120000", "161059.610000", "161101.100000", "161102.590000", "161104.080000", "161105.570000", "161107.060000", "161108.550000", "161110.040000", "161111.530000", "161113.020000", "161114.510000", "161116.000000", "161117.490000", "161118.980000", "161120.470000", "161121.960000", "161123.450000", "161124.940000", "161126.430000", "161127.920000", "161129.410000", "161130.900000", "161132.390000"],
      "ContentTime": ["160428.136000", "160428.139000", "160428.141000", "160428.144000", "160428.147000", "160428.149000", "160428.152000", "160428.154000", "160428.157000", "160428.159000", "160428.162000", "160428.164000", "160428.167000", "160428.169000", "160428.173000", "160428.176000", "160428.178000", "160428.181000", "160428.189000", "160428.192000", "160428.195000", "160428.198000", "160428.200000", "160428.203000", "160428.205000", "160428.208000", "160428.210000", "160428.213000", "160428.215000", "160428.218000", "160428.220000", "160428.223000", "160428.225000", "160428.228000", "160428.230000", "160428.233000", "160428.235000", "160448.036000", "160448.039000", "160448.041000", "160448.044000", "160448.046000", "160448.049000", "160448.051000", "160448.054000", "160448.056000", "160448.059000", "160448.061000", "160448.064000", "160448.066000", "160448.069000", "160448.072000", "160448.074000", "160448.077000", "160448.079000", "160448.082000", "160448.084000", "160508.047000", "160508.050000", "160508.052000", "160508.055000", "160508.057000", "160508.060000", "160508.062000", "160508.065000", "160508.067000", "160508.070000", "160508.072000", "160508.075000", "160508.077000", "160508.080000", "160508.082000", "160508.085000", "160508.087000", "160508.090000", "160508.093000", "160508.095000", "160508.098000", "160548.090000", "160548.093000", "160548.096000", "160548.098000", "160548.101000", "160548.103000", "160548.106000", "160548.108000", "160548.111000", "160548.113000", "160548.116000", "160548.118000", "160548.121000", "160548.123000", "160548.126000", "160548.128000", "160548.131000", "160548.133000", "160548.136000", "160548.138000", "160548.141000", "160548.143000", "160548.146000", "160548.148000", "160548.151000", "160548.154000", "160548.156000", "160548.159000", "160548.167000", "160548.169000", "160548.172000", "160548.174000", "160628.058000", "160628.061000", "160628.063000", "160628.066000", "160628.068000", "160628.071000", "160628.074000", "160628.076000", "160628.079000", "160628.081000", "160628.084000", "160628.086000", "160628.089000", "160628.091000", "160628.094000", "160628.096000", "160628.099000", "160628.101000", "160628.104000", "160628.106000", "160628.109000", "160628.112000", "160628.114000", "160628.117000", "160628.120000", "160628.122000", "160628.125000", "160708.059000", "160708.062000", "160708.065000", "160708.067000", "160708.070000", "160708.072000", "160708.075000", "160708.077000", "160708.080000", "160708.082000", "160708.085000", "160708.087000", "160708.090000", "160708.092000", "160708.095000", "160708.097000", "160708.100000", "160708.102000", "160708.105000", "160708.108000", "160708.110000", "160708.112000", "160708.115000", "160708.118000", "160708.120000", "160708.123000", "160708.125000", "160748.067000", "160748.070000", "160748.072000", "160748.075000", "160748.078000", "160748.080000", "160748.083000", "160748.085000", "160748.088000", "160748.090000", "160748.093000", "160748.095000", "160748.098000", "160748.100000", "160748.103000", "160748.105000", "160748.108000", "160748.110000", "160748.113000", "160748.115000", "160748.118000", "160748.120000", "160748.123000", "160748.125000", "160748.128000", "160748.130000", "160828.080000", "160828.083000", "160828.086000", "160828.088000", "160828.091000", "160828.093000", "160828.096000", "160828.098000", "160828.101000", "160828.104000", "160828.106000", "160828.109000", "160828.111000", "160828.114000", "160828.116000", "160828.119000", "160828.121000", "160828.124000", "160828.126000", "160828.129000", "160828.132000", "160828.134000", "160828.137000", "160828.139000", "160828.142000", "160828.144000", "160828.147000", "160908.059000", "160908.062000", "160908.065000", "160908.068000", "160908.070000", "160908.073000", "160908.075000", "160908.078000", "160908.080000", "160908.083000", "160908.086000", "160908.088000", "160908.091000", "160908.093000", "160908.096000", "160908.098000", "160908.101000", "160908.103000", "160908.106000", "160908.108000", "160908.111000", "160908.114000", "160908.116000", "160908.119000", "160908.121000", "160908.124000", "160908.126000", "160948.073000", "160948.075000", "160948.078000", "160948.081000", "160948.083000", "160948.086000", "160948.088000", "160948.091000", "160948.094000", "160948.096000", "160948.099000", "160948.101000", "160948.104000", "160948.107000", "160948.109000", "160948.111000", "160948.114000", "160948.117000", "160948.119000", "160948.122000", "160948.124000", "160948.127000", "160948.129000", "160948.132000", "160948.134000", "160948.137000", "160948.139000", "161028.059000", "161028.061000", "161028.064000", "161028.066000", "161028.069000", "161028.071000", "161028.074000", "161028.077000", "161028.079000", "161028.082000", "161028.084000", "161028.087000", "161028.089000", "161028.092000", "161028.094000", "161028.097000", "161028.099000", "161028.102000", "161028.104000", "161028.107000", "161028.109000", "161028.112000", "161028.114000", "161028.117000", "161028.119000", "161028.122000", "161028.124000", "161108.506000", "161108.509000", "161108.511000", "161108.514000", "161108.516000", "161108.519000", "161108.522000", "161108.524000", "161108.527000", "161108.529000", "161108.532000", "161108.534000", "161108.537000", "161108.539000", "161108.542000", "161108.545000", "161108.547000", "161108.550000", "161108.552000", "161108.555000", "161108.557000", "161108.560000", "161108.562000", "161108.565000", "161108.568000", "161108.570000", "161108.573000", "161135.846000", "161135.848000", "161135.851000", "161135.854000", "161135.856000", "161135.859000", "161135.861000", "161135.864000", "161135.866000", "161135.869000", "161135.872000", "161135.874000", "161135.877000", "161135.879000", "161135.882000", "161135.884000", "161135.887000", "161135.889000"],
      "InstanceCreationTime": ["160428.136000", "160428.139000", "160428.141000", "160428.144000", "160428.147000", "160428.149000", "160428.152000", "160428.154000", "160428.157000", "160428.159000", "160428.162000", "160428.164000", "160428.167000", "160428.169000", "160428.173000", "160428.176000", "160428.178000", "160428.181000", "160428.189000", "160428.192000", "160428.195000", "160428.198000", "160428.200000", "160428.203000", "160428.205000", "160428.208000", "160428.210000", "160428.213000", "160428.215000", "160428.218000", "160428.220000", "160428.223000", "160428.225000", "160428.228000", "160428.230000", "160428.233000", "160428.235000", "160448.036000", "160448.039000", "160448.041000", "160448.044000", "160448.046000", "160448.049000", "160448.051000", "160448.054000", "160448.056000", "160448.059000", "160448.061000", "160448.064000", "160448.066000", "160448.069000", "160448.072000", "160448.074000", "160448.077000", "160448.079000", "160448.082000", "160448.084000", "160508.047000", "160508.050000", "160508.052000", "160508.055000", "160508.057000", "160508.060000", "160508.062000", "160508.065000", "160508.067000", "160508.070000", "160508.072000", "160508.075000", "160508.077000", "160508.080000", "160508.082000", "160508.085000", "160508.087000", "160508.090000", "160508.093000", "160508.095000", "160508.098000", "160548.090000", "160548.093000", "160548.096000", "160548.098000", "160548.101000", "160548.103000", "160548.106000", "160548.108000", "160548.111000", "160548.113000", "160548.116000", "160548.118000", "160548.121000", "160548.123000", "160548.126000", "160548.128000", "160548.131000", "160548.133000", "160548.136000", "160548.138000", "160548.141000", "160548.143000", "160548.146000", "160548.148000", "160548.151000", "160548.154000", "160548.156000", "160548.159000", "160548.167000", "160548.169000", "160548.172000", "160548.174000", "160628.058000", "160628.061000", "160628.063000", "160628.066000", "160628.068000", "160628.071000", "160628.074000", "160628.076000", "160628.079000", "160628.081000", "160628.084000", "160628.086000", "160628.089000", "160628.091000", "160628.094000", "160628.096000", "160628.099000", "160628.101000", "160628.104000", "160628.106000", "160628.109000", "160628.112000", "160628.114000", "160628.117000", "160628.120000", "160628.122000", "160628.125000", "160708.059000", "160708.062000", "160708.065000", "160708.067000", "160708.070000", "160708.072000", "160708.075000", "160708.077000", "160708.080000", "160708.082000", "160708.085000", "160708.087000", "160708.090000", "160708.092000", "160708.095000", "160708.097000", "160708.100000", "160708.102000", "160708.105000", "160708.108000", "160708.110000", "160708.112000", "160708.115000", "160708.118000", "160708.120000", "160708.123000", "160708.125000", "160748.067000", "160748.070000", "160748.072000", "160748.075000", "160748.078000", "160748.080000", "160748.083000", "160748.085000", "160748.088000", "160748.090000", "160748.093000", "160748.095000", "160748.098000", "160748.100000", "160748.103000", "160748.105000", "160748.108000", "160748.110000", "160748.113000", "160748.115000", "160748.118000", "160748.120000", "160748.123000", "160748.125000", "160748.128000", "160748.130000", "160828.080000", "160828.083000", "160828.086000", "160828.088000", "160828.091000", "160828.093000", "160828.096000", "160828.098000", "160828.101000", "160828.104000", "160828.106000", "160828.109000", "160828.111000", "160828.114000", "160828.116000", "160828.119000", "160828.121000", "160828.124000", "160828.126000", "160828.129000", "160828.132000", "160828.134000", "160828.137000", "160828.139000", "160828.142000", "160828.144000", "160828.147000", "160908.059000", "160908.062000", "160908.065000", "160908.068000", "160908.070000", "160908.073000", "160908.075000", "160908.078000", "160908.080000", "160908.083000", "160908.086000", "160908.088000", "160908.091000", "160908.093000", "160908.096000", "160908.098000", "160908.101000", "160908.103000", "160908.106000", "160908.108000", "160908.111000", "160908.114000", "160908.116000", "160908.119000", "160908.121000", "160908.124000", "160908.126000", "160948.073000", "160948.075000", "160948.078000", "160948.081000", "160948.083000", "160948.086000", "160948.088000", "160948.091000", "160948.094000", "160948.096000", "160948.099000", "160948.101000", "160948.104000", "160948.107000", "160948.109000", "160948.111000", "160948.114000", "160948.117000", "160948.119000", "160948.122000", "160948.124000", "160948.127000", "160948.129000", "160948.132000", "160948.134000", "160948.137000", "160948.139000", "161028.059000", "161028.061000", "161028.064000", "161028.066000", "161028.069000", "161028.071000", "161028.074000", "161028.077000", "161028.079000", "161028.082000", "161028.084000", "161028.087000", "161028.089000", "161028.092000", "161028.094000", "161028.097000", "161028.099000", "161028.102000", "161028.104000", "161028.107000", "161028.109000", "161028.112000", "161028.114000", "161028.117000", "161028.119000", "161028.122000", "161028.124000", "161108.506000", "161108.509000", "161108.511000", "161108.514000", "161108.516000", "161108.519000", "161108.522000", "161108.524000", "161108.527000", "161108.529000", "161108.532000", "161108.534000", "161108.537000", "161108.539000", "161108.542000", "161108.545000", "161108.547000", "161108.550000", "161108.552000", "161108.555000", "161108.557000", "161108.560000", "161108.562000", "161108.565000", "161108.568000", "161108.570000", "161108.573000", "161135.846000", "161135.848000", "161135.851000", "161135.854000", "161135.856000", "161135.859000", "161135.861000", "161135.864000", "161135.866000", "161135.869000", "161135.872000", "161135.874000", "161135.877000", "161135.879000", "161135.882000", "161135.884000", "161135.887000", "161135.889000"],
      "InstanceNumber": [1, 2, 3, 4, 5, 6, 7, 8, 9, 10, 11, 12, 13, 14, 15, 16, 17, 18, 19, 20, 21, 22, 23, 24, 25, 26, 27, 28, 29, 30, 31, 32, 33, 34, 35, 36, 37, 38, 39, 40, 41, 42, 43, 44, 45, 46, 47, 48, 49, 50, 51, 52, 53, 54, 55, 56, 57, 58, 59, 60, 61, 62, 63, 64, 65, 66, 67, 68, 69, 70, 71, 72, 73, 74, 75, 76, 77, 78, 79, 80, 81, 82, 83, 84, 85, 86, 87, 88, 89, 90, 91, 92, 93, 94, 95, 96, 97, 98, 99, 100, 101, 102, 103, 104, 105, 106, 107, 108, 109, 110, 111, 112, 113, 114, 115, 116, 117, 118, 119, 120, 121, 122, 123, 124, 125, 126, 127, 128, 129, 130, 131, 132, 133, 134, 135, 136, 137, 138, 139, 140, 141, 142, 143, 144, 145, 146, 147, 148, 149, 150, 151, 152, 153, 154, 155, 156, 157, 158, 159, 160, 161, 162, 163, 164, 165, 166, 167, 168, 169, 170, 171, 172, 173, 174, 175, 176, 177, 178, 179, 180, 181, 182, 183, 184, 185, 186, 187, 188, 189, 190, 191, 192, 193, 194, 195, 196, 197, 198, 199, 200, 201, 202, 203, 204, 205, 206, 207, 208, 209, 210, 211, 212, 213, 214, 215, 216, 217, 218, 219, 220, 221, 222, 223, 224, 225, 226, 227, 228, 229, 230, 231, 232, 233, 234, 235, 236, 237, 238, 239, 240, 241, 242, 243, 244, 245, 246, 247, 248, 249, 250, 251, 252, 253, 254, 255, 256, 257, 258, 259, 260, 261, 262, 263, 264, 265, 266, 267, 268, 269, 270, 271, 272, 273, 274, 275, 276, 277, 278, 279, 280, 281, 282, 283, 284, 285, 286, 287, 288, 289, 290, 291, 292, 293, 294, 295, 296, 297, 298, 299, 300, 301, 302, 303, 304, 305, 306, 307, 308, 309, 310, 311, 312, 313, 314, 315, 316, 317, 318, 319, 320, 321, 322, 323, 324, 325, 326, 327, 328, 329, 330, 331, 332, 333, 334, 335, 336, 337, 338, 339, 340, 341, 342, 343],
      "WindowCenter": [4784.0, 4788.0, 4786.0, 4786.0, 4788.0, 4764.0, 4784.0, 4764.0, 4788.0, 4762.0, 4784.0, 4806.0, 4786.0, 4792.0, 4796.0, 4794.0, 4784.0, 4762.0, 4756.0, 4776.0, 4774.0, 4804.0, 4784.0, 4792.0, 4800.0, 4794.0, 4790.0, 4762.0, 4758.0, 4756.0, 4760.0, 4782.0, 4790.0, 4826.0, 4798.0, 4792.0, 4764.0, 4758.0, 4760.0, 4758.0, 4758.0, 4766.0, 4768.0, 4770.0, 4772.0, 4792.0, 4792.0, 4764.0, 4762.0, 4760.0, 4760.0, 4758.0, 4774.0, 4778.0, 4782.0, 4788.0, 4812.0, 4818.0, 4816.0, 4820.0, 4814.0, 4808.0, 4802.0, 4778.0, 4804.0, 4810.0, 4814.0, 4812.0, 4812.0, 4812.0, 4814.0, 4816.0, 4822.0, 4820.0, 4788.0, 4760.0, 4754.0, 4752.0, 4756.0, 4756.0, 4778.0, 4788.0, 4796.0, 4796.0, 4792.0, 4810.0, 4808.0, 4810.0, 4818.0, 4792.0, 4802.0, 4786.0, 4790.0, 4782.0, 4788.0, 4780.0, 4802.0, 4786.0, 4792.0, 4796.0, 4820.0, 4792.0, 4788.0, 4786.0, 4786.0, 4782.0, 4784.0, 4784.0, 4792.0, 4814.0, 4812.0, 4816.0, 4794.0, 4810.0, 4794.0, 4764.0, 4784.0, 4778.0, 4782.0, 4806.0, 4786.0, 4814.0, 4810.0, 4814.0, 4812.0, 4810.0, 4812.0, 4808.0, 4808.0, 4816.0, 4816.0, 4788.0, 4786.0, 4760.0, 4782.0, 4780.0, 4810.0, 4806.0, 4810.0, 4812.0, 4810.0, 4814.0, 4812.0, 4818.0, 4810.0, 4800.0, 4808.0, 4780.0, 4806.0, 4808.0, 4810.0, 4818.0, 4818.0, 4814.0, 4790.0, 4786.0, 4758.0, 4778.0, 4802.0, 4804.0, 4808.0, 4816.0, 4818.0, 4818.0, 4814.0, 4812.0, 4808.0, 4808.0, 4804.0, 4802.0, 4802.0, 4810.0, 4806.0, 4810.0, 4810.0, 4816.0, 4810.0, 4812.0, 4812.0, 4808.0, 4812.0, 4810.0, 4812.0, 4812.0, 4812.0, 4812.0, 4816.0, 4816.0, 4814.0, 4818.0, 4812.0, 4810.0, 4812.0, 4810.0, 4808.0, 4812.0, 4810.0, 4812.0, 4812.0, 4814.0, 4814.0, 4814.0, 4806.0, 4810.0, 4812.0, 4810.0, 4812.0, 4812.0, 4810.0, 4816.0, 4810.0, 4816.0, 4812.0, 4814.0, 4812.0, 4814.0, 4816.0, 4816.0, 4812.0, 4814.0, 4808.0, 4810.0, 4814.0, 4812.0, 4810.0, 4812.0, 4814.0, 4818.0, 4796.0, 4810.0, 4808.0, 4812.0, 4808.0, 4810.0, 4810.0, 4810.0, 4812.0, 4814.0, 4814.0, 4816.0, 4820.0, 4814.0, 4812.0, 4810.0, 4814.0, 4812.0, 4814.0, 4812.0, 4816.0, 4814.0, 4814.0, 4812.0, 4818.0, 4794.0, 4812.0, 4812.0, 4806.0, 4810.0, 4812.0, 4808.0, 4814.0, 4812.0, 4812.0, 4816.0, 4816.0, 4794.0, 4790.0, 4784.0, 4784.0, 4780.0, 4784.0, 4786.0, 4788.0, 4810.0, 4812.0, 4814.0, 4830.0, 4798.0, 4792.0, 4764.0, 4776.0, 4798.0, 4788.0, 4790.0, 4794.0, 4798.0, 4798.0, 4794.0, 4790.0, 4762.0, 4760.0, 4756.0, 4760.0, 4764.0, 4764.0, 4788.0, 4792.0, 4788.0, 4788.0, 4806.0, 4784.0, 4784.0, 4808.0, 4812.0, 4816.0, 4792.0, 4816.0, 4798.0, 4822.0, 4804.0, 4778.0, 4780.0, 4780.0, 4782.0, 4784.0, 4790.0, 4792.0, 4792.0, 4794.0, 4792.0, 4790.0, 4808.0, 4808.0, 4808.0, 4806.0, 4812.0, 4820.0, 4790.0, 4788.0, 4788.0, 4790.0, 4784.0, 4782.0, 4782.0, 4804.0, 4808.0, 4808.0, 4814.0, 4818.0, 4812.0, 4808.0, 4784.0, 4784.0],
