{
  "AcquisitionMatrixPE": 104,
  "AcquisitionNumber": 1,
  "AcquisitionTime": "15:30:1.130000",
  "BandwidthPerPixelPhaseEncode": 17.17,
  "BaseResolution": 104,
  "BodyPartExamined": "BRAIN",
  "CoilCombinationMethod": "Sum of Squares",
  "ConsistencyInfo": "N4_VE11C_LATEST_20160120",
  "ConversionSoftware": "dcm2niix",
  "ConversionSoftwareVersion": "v1.0.20220505",
  "DerivedVendorReportedEchoSpacing": 0.000560011,
  "DeviceSerialNumber": "167006",
  "DwellTime": 2.1e-06,
  "EchoTime": 0.037,
  "EchoTime1": 0.037,
  "EchoTime2": 0.001,
  "EchoTrainLength": 104,
  "EffectiveEchoSpacing": 0.000560011,
  "FlipAngle": 52,
  "HeudiconvVersion": "0.5.3.post811+g6206e14",
  "ImageComments": "Unaliased MB4/PE3/LB",
  "ImageOrientationPatientDICOM": [0.998303, 0.0150197, 0.0562623, 0.0149855, 0.867364, -0.497449],
  "ImageOrientationText": "Tra>Cor(-29.9)>Sag(3.2)",
  "ImageType": [
    "ORIGINAL",
    "PRIMARY",
    "P",
    "MB",
    "ND",
    "MOSAIC",
    "PHASE"
],
  "ImagingFrequency": 123.26,
  "InPlanePhaseEncodingDirectionDICOM": "COL",
  "InstitutionAddress": "Chemin Queen-Mary 4565,Montreal,District,CA,H3W 1W5",
  "InstitutionName": "IUGM",
  "InstitutionalDepartmentName": "Department",
  "MRAcquisitionType": "2D",
  "MagneticFieldStrength": 3,
  "Manufacturer": "Siemens",
  "ManufacturersModelName": "Prisma_fit",
  "MatrixCoilMode": "SENSE",
  "Modality": "MR",
  "MultibandAccelerationFactor": 4,
  "PartialFourier": 1,
  "PatientPosition": "HFS",
  "PercentPhaseFOV": 100,
  "PercentSampling": 100,
  "PhaseEncodingDirection": "j",
  "PhaseEncodingSteps": 104,
  "PhaseResolution": 1,
  "PixelBandwidth": 2290,
  "ProcedureStepDescription": "games^mario3",
  "ProtocolName": "func_task-mario3_run-02",
  "PulseSequenceDetails": "%CustomerSeq%\\cmrr_mbep2d_bold",
  "ReceiveCoilActiveElements": "HC1-7;NC1,2",
  "ReceiveCoilName": "HeadNeck_64",
  "ReconMatrixPE": 104,
  "RepetitionTime": 1.49,
  "SAR": 0.070332,
  "ScanOptions": "FS",
  "ScanningSequence": "EP",
  "SequenceName": "epfid2d1_104",
  "SequenceVariant": "SK\\SS",
  "SeriesDescription": "func_task-mario3_run-02",
  "SeriesNumber": 14,
  "ShimSetting": [619, -7183, -8858, 290, 25, -156, -61, 31],
  "SliceThickness": 2,
  "SliceTiming": [0, 0.785, 0.0975, 0.8825, 0.1975, 0.98, 0.295, 1.0775, 0.3925, 1.1775, 0.49, 1.275, 0.5875, 1.3725, 0.6875, 0, 0.785, 0.0975, 0.8825, 0.1975, 0.98, 0.295, 1.0775, 0.3925, 1.1775, 0.49, 1.275, 0.5875, 1.3725, 0.6875, 0, 0.785, 0.0975, 0.8825, 0.1975, 0.98, 0.295, 1.0775, 0.3925, 1.1775, 0.49, 1.275, 0.5875, 1.3725, 0.6875, 0, 0.785, 0.0975, 0.8825, 0.1975, 0.98, 0.295, 1.0775, 0.3925, 1.1775, 0.49, 1.275, 0.5875, 1.3725, 0.6875],
  "SoftwareVersions": "syngo MR E11",
  "SpacingBetweenSlices": 2,
  "StationName": "MRC35049",
  "TaskName": "mario3",
  "TotalReadoutTime": 0.0576811,
  "TxRefAmp": 301.694,
  "WipMemBlock": "5a023ff6-e3b2-4c1d-a8e6-6121dcafe0d6||Sequence: R017 ve11c/master r/75a17815+; Jun 28 2022 16:32:11 by eja",
  "dcmmeta_affine": [
    [-1.9966061115264893, 0.029971018433570862, 0.11254291981458664, 103.28376007080078],
    [-0.030039407312870026, 1.7347278594970703, -0.994895339012146, -49.20748519897461],
    [0.11252468079328537, 0.9948974251747131, 1.7313339710235596, -98.86970520019531],
    [0.0, 0.0, 0.0, 1.0]
],
  "dcmmeta_reorient_transform": [
    [0.0, -1.0, 0.0, 103.0],
    [1.0, 0.0, 0.0, 0.0],
    [0.0, 0.0, 1.0, 0.0],
    [0.0, 0.0, 0.0, 1.0]
],
  "dcmmeta_shape": [104, 104, 60, 329],
  "dcmmeta_slice_dim": 2,
  "dcmmeta_version": 0.6,
  "global": {
    "const": {
      "AcquisitionMatrix": [104, 0, 0, 104],
      "AngioFlag": "N",
      "BitsAllocated": 16,
      "BitsStored": 16,
      "BodyPartExamined": "BRAIN",
      "Columns": 832,
      "EchoNumbers": 1,
      "EchoTime": 37.0,
      "EchoTrainLength": 104,
      "FlipAngle": 52.0,
      "HighBit": 15,
      "ImageOrientationPatient": [0.99830303888915, 0.01501970319936, 0.05626234140598, 0.01498550947068, 0.86736395050446, -0.4974487027536],
      "ImagePositionPatient": [-844.04484051493, -771.84478755858, 324.78839663533],
      "ImageType": [
        "ORIGINAL",
        "PRIMARY",
        "P",
        "MB",
        "ND",
        "MOSAIC"
],
      "ImagedNucleus": "1H",
      "ImagingFrequency": 123.260224,
      "InPlanePhaseEncodingDirection": "COL",
      "LargestImagePixelValue": 4095,
      "MRAcquisitionType": "2D",
      "MagneticFieldStrength": 3.0,
      "Manufacturer": "SIEMENS",
      "ManufacturerModelName": "Prisma_fit",
      "Modality": "MR",
      "NumberOfAverages": 1.0,
      "NumberOfPhaseEncodingSteps": 104,
      "PercentPhaseFieldOfView": 100.0,
      "PercentSampling": 100.0,
      "PerformedProcedureStepStartTime": "143058.604000",
      "PhotometricInterpretation": "MONOCHROME2",
      "PixelBandwidth": 2290.0,
      "PixelRepresentation": 0,
      "PixelSpacing": [2.0, 2.0],
      "ProtocolName": "func_task-mario3_run-02",
      "RepetitionTime": 1490.0,
      "RescaleIntercept": -4096.0,
      "RescaleSlope": 2.0,
      "RescaleType": "US",
      "Rows": 832,
      "SAR": 0.0703320173411,
      "SamplesPerPixel": 1,
      "ScanOptions": "FS",
      "ScanningSequence": "EP",
      "SequenceName": "epfid2d1_104",
      "SequenceVariant": [
        "SK",
        "SS"
],
      "SeriesDescription": "func_task-mario3_run-02",
      "SeriesNumber": 14,
      "SeriesTime": "153128.144000",
      "SliceLocation": -55.298164441952,
      "SliceThickness": 2.0,
      "SmallestImagePixelValue": 0,
      "SoftwareVersions": "syngo MR E11",
      "SpacingBetweenSlices": 2.0000000250943,
      "SpecificCharacterSet": "ISO_IR 100",
      "StudyID": "1",
      "StudyTime": "143058.522000",
      "TransmitCoilName": "Body",
      "VariableFlipAngleFlag": "N",
      "WindowCenterWidthExplanation": "Algo1",
      "dBdt": 0.0},
    "slices": {}
  },
  "time": {
    "samples": {
      "AcquisitionNumber": [1, 2, 3, 4, 5, 6, 7, 8, 9, 10, 11, 12, 13, 14, 15, 16, 17, 18, 19, 20, 21, 22, 23, 24, 25, 26, 27, 28, 29, 30, 31, 32, 33, 34, 35, 36, 37, 38, 39, 40, 41, 42, 43, 44, 45, 46, 47, 48, 49, 50, 51, 52, 53, 54, 55, 56, 57, 58, 59, 60, 61, 62, 63, 64, 65, 66, 67, 68, 69, 70, 71, 72, 73, 74, 75, 76, 77, 78, 79, 80, 81, 82, 83, 84, 85, 86, 87, 88, 89, 90, 91, 92, 93, 94, 95, 96, 97, 98, 99, 100, 101, 102, 103, 104, 105, 106, 107, 108, 109, 110, 111, 112, 113, 114, 115, 116, 117, 118, 119, 120, 121, 122, 123, 124, 125, 126, 127, 128, 129, 130, 131, 132, 133, 134, 135, 136, 137, 138, 139, 140, 141, 142, 143, 144, 145, 146, 147, 148, 149, 150, 151, 152, 153, 154, 155, 156, 157, 158, 159, 160, 161, 162, 163, 164, 165, 166, 167, 168, 169, 170, 171, 172, 173, 174, 175, 176, 177, 178, 179, 180, 181, 182, 183, 184, 185, 186, 187, 188, 189, 190, 191, 192, 193, 194, 195, 196, 197, 198, 199, 200, 201, 202, 203, 204, 205, 206, 207, 208, 209, 210, 211, 212, 213, 214, 215, 216, 217, 218, 219, 220, 221, 222, 223, 224, 225, 226, 227, 228, 229, 230, 231, 232, 233, 234, 235, 236, 237, 238, 239, 240, 241, 242, 243, 244, 245, 246, 247, 248, 249, 250, 251, 252, 253, 254, 255, 256, 257, 258, 259, 260, 261, 262, 263, 264, 265, 266, 267, 268, 269, 270, 271, 272, 273, 274, 275, 276, 277, 278, 279, 280, 281, 282, 283, 284, 285, 286, 287, 288, 289, 290, 291, 292, 293, 294, 295, 296, 297, 298, 299, 300, 301, 302, 303, 304, 305, 306, 307, 308, 309, 310, 311, 312, 313, 314, 315, 316, 317, 318, 319, 320, 321, 322, 323, 324, 325, 326, 327, 328, 329],
      "AcquisitionTime": ["153001.130000", "153002.620000", "153004.110000", "153005.600000", "153007.090000", "153008.580000", "153010.070000", "153011.560000", "153013.050000", "153014.540000", "153016.030000", "153017.520000", "153019.010000", "153020.500000", "153021.990000", "153023.480000", "153024.970000", "153026.460000", "153027.950000", "153029.440000", "153030.930000", "153032.420000", "153033.910000", "153035.400000", "153036.890000", "153038.380000", "153039.870000", "153041.360000", "153042.850000", "153044.340000", "153045.830000", "153047.320000", "153048.810000", "153050.300000", "153051.790000", "153053.280000", "153054.770000", "153056.260000", "153057.750000", "153059.240000", "153100.730000", "153102.220000", "153103.710000", "153105.200000", "153106.690000", "153108.180000", "153109.670000", "153111.160000", "153112.650000", "153114.140000", "153115.630000", "153117.120000", "153118.610000", "153120.100000", "153121.590000", "153123.080000", "153124.570000", "153126.060000", "153127.550000", "153129.040000", "153130.530000", "153132.020000", "153133.510000", "153135.000000", "153136.490000", "153137.980000", "153139.470000", "153140.960000", "153142.450000", "153143.940000", "153145.430000", "153146.920000", "153148.410000", "153149.900000", "153151.390000", "153152.880000", "153154.370000", "153155.860000", "153157.350000", "153158.840000", "153200.330000", "153201.820000", "153203.310000", "153204.800000", "153206.290000", "153207.780000", "153209.270000", "153210.760000", "153212.250000", "153213.740000", "153215.230000", "153216.720000", "153218.210000", "153219.700000", "153221.190000", "153222.680000", "153224.170000", "153225.660000", "153227.150000", "153228.640000", "153230.130000", "153231.620000", "153233.110000", "153234.600000", "153236.090000", "153237.580000", "153239.070000", "153240.560000", "153242.050000", "153243.540000", "153245.030000", "153246.520000", "153248.010000", "153249.500000", "153250.990000", "153252.480000", "153253.970000", "153255.460000", "153256.950000", "153258.440000", "153259.930000", "153301.420000", "153302.910000", "153304.400000", "153305.890000", "153307.380000", "153308.870000", "153310.360000", "153311.850000", "153313.340000", "153314.830000", "153316.320000", "153317.810000", "153319.300000", "153320.790000", "153322.280000", "153323.770000", "153325.260000", "153326.750000", "153328.240000", "153329.730000", "153331.220000", "153332.710000", "153334.200000", "153335.690000", "153337.180000", "153338.670000", "153340.160000", "153341.650000", "153343.140000", "153344.630000", "153346.120000", "153347.610000", "153349.100000", "153350.590000", "153352.080000", "153353.570000", "153355.060000", "153356.550000", "153358.040000", "153359.530000", "153401.020000", "153402.510000", "153404.000000", "153405.490000", "153406.980000", "153408.470000", "153409.960000", "153411.450000", "153412.940000", "153414.430000", "153415.920000", "153417.410000", "153418.900000", "153420.390000", "153421.880000", "153423.370000", "153424.860000", "153426.350000", "153427.840000", "153429.330000", "153430.820000", "153432.310000", "153433.800000", "153435.290000", "153436.780000", "153438.270000", "153439.760000", "153441.250000", "153442.740000", "153444.230000", "153445.720000", "153447.210000", "153448.700000", "153450.190000", "153451.680000", "153453.170000", "153454.660000", "153456.150000", "153457.640000", "153459.130000", "153500.620000", "153502.110000", "153503.600000", "153505.090000", "153506.580000", "153508.070000", "153509.560000", "153511.050000", "153512.540000", "153514.030000", "153515.520000", "153517.010000", "153518.500000", "153519.990000", "153521.480000", "153522.970000", "153524.460000", "153525.950000", "153527.440000", "153528.930000", "153530.420000", "153531.910000", "153533.400000", "153534.890000", "153536.380000", "153537.870000", "153539.360000", "153540.850000", "153542.340000", "153543.830000", "153545.320000", "153546.810000", "153548.300000", "153549.790000", "153551.280000", "153552.770000", "153554.260000", "153555.750000", "153557.240000", "153558.730000", "153600.220000", "153601.710000", "153603.200000", "153604.690000", "153606.180000", "153607.670000", "153609.160000", "153610.650000", "153612.140000", "153613.630000", "153615.120000", "153616.610000", "153618.100000", "153619.590000", "153621.080000", "153622.570000", "153624.060000", "153625.550000", "153627.040000", "153628.530000", "153630.020000", "153631.510000", "153633.000000", "153634.490000", "153635.980000", "153637.470000", "153638.960000", "153640.450000", "153641.940000", "153643.430000", "153644.920000", "153646.410000", "153647.900000", "153649.390000", "153650.880000", "153652.370000", "153653.860000", "153655.350000", "153656.840000", "153658.330000", "153659.820000", "153701.310000", "153702.800000", "153704.290000", "153705.780000", "153707.270000", "153708.760000", "153710.250000", "153711.740000", "153713.230000", "153714.720000", "153716.210000", "153717.700000", "153719.190000", "153720.680000", "153722.170000", "153723.660000", "153725.150000", "153726.640000", "153728.130000", "153729.620000", "153731.110000", "153732.600000", "153734.090000", "153735.580000", "153737.070000", "153738.560000", "153740.050000", "153741.540000", "153743.030000", "153744.520000", "153746.010000", "153747.500000", "153748.990000", "153750.480000", "153751.970000", "153753.460000", "153754.950000", "153756.440000", "153757.930000", "153759.420000", "153800.910000", "153802.400000", "153803.890000", "153805.380000", "153806.870000", "153808.360000", "153809.850000"],
      "ContentTime": ["153128.146000", "153128.149000", "153128.152000", "153128.154000", "153128.157000", "153128.159000", "153128.162000", "153128.164000", "153128.167000", "153128.169000", "153128.172000", "153128.174000", "153128.177000", "153128.179000", "153128.182000", "153128.184000", "153128.187000", "153128.189000", "153128.192000", "153128.195000", "153128.197000", "153128.200000", "153128.202000", "153128.211000", "153128.214000", "153128.217000", "153128.219000", "153128.221000", "153128.224000", "153128.227000", "153128.229000", "153128.232000", "153128.234000", "153128.237000", "153128.239000", "153128.242000", "153128.244000", "153128.247000", "153148.645000", "153148.648000", "153148.651000", "153148.653000", "153148.656000", "153148.658000", "153148.661000", "153148.663000", "153148.666000", "153148.668000", "153148.671000", "153148.673000", "153148.676000", "153148.678000", "153148.681000", "153148.684000", "153148.686000", "153148.689000", "153148.691000", "153148.694000", "153208.028000", "153208.031000", "153208.034000", "153208.036000", "153208.039000", "153208.042000", "153208.045000", "153208.047000", "153208.050000", "153208.053000", "153208.056000", "153208.059000", "153208.062000", "153208.064000", "153208.067000", "153208.069000", "153208.072000", "153208.074000", "153208.077000", "153208.079000", "153228.044000", "153228.047000", "153228.049000", "153228.052000", "153228.054000", "153228.057000", "153228.060000", "153228.062000", "153228.065000", "153228.067000", "153228.070000", "153228.072000", "153228.075000", "153228.077000", "153228.080000", "153228.082000", "153228.085000", "153228.087000", "153228.090000", "153228.092000", "153308.064000", "153308.067000", "153308.070000", "153308.072000", "153308.075000", "153308.077000", "153308.080000", "153308.082000", "153308.085000", "153308.087000", "153308.090000", "153308.092000", "153308.095000", "153308.097000", "153308.100000", "153308.102000", "153308.105000", "153308.107000", "153308.110000", "153308.113000", "153308.115000", "153308.118000", "153308.120000", "153308.123000", "153308.125000", "153308.128000", "153308.130000", "153348.106000", "153348.109000", "153348.111000", "153348.114000", "153348.116000", "153348.119000", "153348.121000", "153348.124000", "153348.126000", "153348.129000", "153348.131000", "153348.134000", "153348.136000", "153348.139000", "153348.141000", "153348.144000", "153348.146000", "153348.149000", "153348.151000", "153348.154000", "153348.157000", "153348.159000", "153348.162000", "153348.164000", "153348.167000", "153348.169000", "153428.062000", "153428.065000", "153428.068000", "153428.070000", "153428.073000", "153428.075000", "153428.078000", "153428.080000", "153428.083000", "153428.085000", "153428.088000", "153428.090000", "153428.093000", "153428.095000", "153428.098000", "153428.100000", "153428.103000", "153428.105000", "153428.108000", "153428.111000", "153428.113000", "153428.116000", "153428.118000", "153428.121000", "153428.123000", "153428.126000", "153428.128000", "153508.070000", "153508.072000", "153508.075000", "153508.077000", "153508.080000", "153508.082000", "153508.085000", "153508.087000", "153508.090000", "153508.092000", "153508.095000", "153508.097000", "153508.100000", "153508.102000", "153508.115000", "153508.118000", "153508.120000", "153508.123000", "153508.125000", "153508.128000", "153508.130000", "153508.133000", "153508.135000", "153508.138000", "153508.140000", "153508.143000", "153508.145000", "153548.073000", "153548.075000", "153548.078000", "153548.081000", "153548.083000", "153548.086000", "153548.088000", "153548.091000", "153548.094000", "153548.096000", "153548.099000", "153548.101000", "153548.104000", "153548.106000", "153548.109000", "153548.111000", "153548.114000", "153548.116000", "153548.119000", "153548.121000", "153548.123000", "153548.126000", "153548.129000", "153548.131000", "153548.134000", "153548.136000", "153548.139000", "153628.063000", "153628.066000", "153628.069000", "153628.071000", "153628.074000", "153628.076000", "153628.079000", "153628.081000", "153628.084000", "153628.086000", "153628.089000", "153628.091000", "153628.094000", "153628.096000", "153628.099000", "153628.101000", "153628.104000", "153628.106000", "153628.109000", "153628.111000", "153628.114000", "153628.116000", "153628.119000", "153628.121000", "153628.124000", "153628.126000", "153628.129000", "153708.054000", "153708.057000", "153708.059000", "153708.062000", "153708.064000", "153708.067000", "153708.069000", "153708.072000", "153708.074000", "153708.077000", "153708.080000", "153708.082000", "153708.085000", "153708.087000", "153708.090000", "153708.092000", "153708.095000", "153708.097000", "153708.100000", "153708.102000", "153708.105000", "153708.107000", "153708.110000", "153708.112000", "153708.115000", "153708.117000", "153708.120000", "153748.068000", "153748.071000", "153748.074000", "153748.076000", "153748.079000", "153748.081000", "153748.084000", "153748.086000", "153748.089000", "153748.091000", "153748.094000", "153748.096000", "153748.099000", "153748.101000", "153748.104000", "153748.106000", "153748.109000", "153748.111000", "153748.114000", "153748.116000", "153748.119000", "153748.121000", "153748.124000", "153748.126000", "153748.129000", "153748.131000", "153748.134000", "153812.013000", "153812.016000", "153812.019000", "153812.021000", "153812.024000", "153812.026000", "153812.029000", "153812.032000", "153812.035000", "153812.037000", "153812.040000", "153812.042000", "153812.045000", "153812.047000", "153812.050000", "153812.053000"],
      "InstanceCreationTime": ["153128.146000", "153128.149000", "153128.152000", "153128.154000", "153128.157000", "153128.159000", "153128.162000", "153128.164000", "153128.167000", "153128.169000", "153128.172000", "153128.174000", "153128.177000", "153128.179000", "153128.182000", "153128.184000", "153128.187000", "153128.189000", "153128.192000", "153128.195000", "153128.197000", "153128.200000", "153128.202000", "153128.211000", "153128.214000", "153128.217000", "153128.219000", "153128.221000", "153128.224000", "153128.227000", "153128.229000", "153128.232000", "153128.234000", "153128.237000", "153128.239000", "153128.242000", "153128.244000", "153128.247000", "153148.645000", "153148.648000", "153148.651000", "153148.653000", "153148.656000", "153148.658000", "153148.661000", "153148.663000", "153148.666000", "153148.668000", "153148.671000", "153148.673000", "153148.676000", "153148.678000", "153148.681000", "153148.684000", "153148.686000", "153148.689000", "153148.691000", "153148.694000", "153208.028000", "153208.031000", "153208.034000", "153208.036000", "153208.039000", "153208.042000", "153208.045000", "153208.047000", "153208.050000", "153208.053000", "153208.056000", "153208.059000", "153208.062000", "153208.064000", "153208.067000", "153208.069000", "153208.072000", "153208.074000", "153208.077000", "153208.079000", "153228.044000", "153228.047000", "153228.049000", "153228.052000", "153228.054000", "153228.057000", "153228.060000", "153228.062000", "153228.065000", "153228.067000", "153228.070000", "153228.072000", "153228.075000", "153228.077000", "153228.080000", "153228.082000", "153228.085000", "153228.087000", "153228.090000", "153228.092000", "153308.064000", "153308.067000", "153308.070000", "153308.072000", "153308.075000", "153308.077000", "153308.080000", "153308.082000", "153308.085000", "153308.087000", "153308.090000", "153308.092000", "153308.095000", "153308.097000", "153308.100000", "153308.102000", "153308.105000", "153308.107000", "153308.110000", "153308.113000", "153308.115000", "153308.118000", "153308.120000", "153308.123000", "153308.125000", "153308.128000", "153308.130000", "153348.106000", "153348.109000", "153348.111000", "153348.114000", "153348.116000", "153348.119000", "153348.121000", "153348.124000", "153348.126000", "153348.129000", "153348.131000", "153348.134000", "153348.136000", "153348.139000", "153348.141000", "153348.144000", "153348.146000", "153348.149000", "153348.151000", "153348.154000", "153348.157000", "153348.159000", "153348.162000", "153348.164000", "153348.167000", "153348.169000", "153428.062000", "153428.065000", "153428.068000", "153428.070000", "153428.073000", "153428.075000", "153428.078000", "153428.080000", "153428.083000", "153428.085000", "153428.088000", "153428.090000", "153428.093000", "153428.095000", "153428.098000", "153428.100000", "153428.103000", "153428.105000", "153428.108000", "153428.111000", "153428.113000", "153428.116000", "153428.118000", "153428.121000", "153428.123000", "153428.126000", "153428.128000", "153508.070000", "153508.072000", "153508.075000", "153508.077000", "153508.080000", "153508.082000", "153508.085000", "153508.087000", "153508.090000", "153508.092000", "153508.095000", "153508.097000", "153508.100000", "153508.102000", "153508.115000", "153508.118000", "153508.120000", "153508.123000", "153508.125000", "153508.128000", "153508.130000", "153508.133000", "153508.135000", "153508.138000", "153508.140000", "153508.143000", "153508.145000", "153548.073000", "153548.075000", "153548.078000", "153548.081000", "153548.083000", "153548.086000", "153548.088000", "153548.091000", "153548.094000", "153548.096000", "153548.099000", "153548.101000", "153548.104000", "153548.106000", "153548.109000", "153548.111000", "153548.114000", "153548.116000", "153548.119000", "153548.121000", "153548.123000", "153548.126000", "153548.129000", "153548.131000", "153548.134000", "153548.136000", "153548.139000", "153628.063000", "153628.066000", "153628.069000", "153628.071000", "153628.074000", "153628.076000", "153628.079000", "153628.081000", "153628.084000", "153628.086000", "153628.089000", "153628.091000", "153628.094000", "153628.096000", "153628.099000", "153628.101000", "153628.104000", "153628.106000", "153628.109000", "153628.111000", "153628.114000", "153628.116000", "153628.119000", "153628.121000", "153628.124000", "153628.126000", "153628.129000", "153708.054000", "153708.057000", "153708.059000", "153708.062000", "153708.064000", "153708.067000", "153708.069000", "153708.072000", "153708.074000", "153708.077000", "153708.080000", "153708.082000", "153708.085000", "153708.087000", "153708.090000", "153708.092000", "153708.095000", "153708.097000", "153708.100000", "153708.102000", "153708.105000", "153708.107000", "153708.110000", "153708.112000", "153708.115000", "153708.117000", "153708.120000", "153748.068000", "153748.071000", "153748.074000", "153748.076000", "153748.079000", "153748.081000", "153748.084000", "153748.086000", "153748.089000", "153748.091000", "153748.094000", "153748.096000", "153748.099000", "153748.101000", "153748.104000", "153748.106000", "153748.109000", "153748.111000", "153748.114000", "153748.116000", "153748.119000", "153748.121000", "153748.124000", "153748.126000", "153748.129000", "153748.131000", "153748.134000", "153812.013000", "153812.016000", "153812.019000", "153812.021000", "153812.024000", "153812.026000", "153812.029000", "153812.032000", "153812.035000", "153812.037000", "153812.040000", "153812.042000", "153812.045000", "153812.047000", "153812.050000", "153812.053000"],
      "InstanceNumber": [1, 2, 3, 4, 5, 6, 7, 8, 9, 10, 11, 12, 13, 14, 15, 16, 17, 18, 19, 20, 21, 22, 23, 24, 25, 26, 27, 28, 29, 30, 31, 32, 33, 34, 35, 36, 37, 38, 39, 40, 41, 42, 43, 44, 45, 46, 47, 48, 49, 50, 51, 52, 53, 54, 55, 56, 57, 58, 59, 60, 61, 62, 63, 64, 65, 66, 67, 68, 69, 70, 71, 72, 73, 74, 75, 76, 77, 78, 79, 80, 81, 82, 83, 84, 85, 86, 87, 88, 89, 90, 91, 92, 93, 94, 95, 96, 97, 98, 99, 100, 101, 102, 103, 104, 105, 106, 107, 108, 109, 110, 111, 112, 113, 114, 115, 116, 117, 118, 119, 120, 121, 122, 123, 124, 125, 126, 127, 128, 129, 130, 131, 132, 133, 134, 135, 136, 137, 138, 139, 140, 141, 142, 143, 144, 145, 146, 147, 148, 149, 150, 151, 152, 153, 154, 155, 156, 157, 158, 159, 160, 161, 162, 163, 164, 165, 166, 167, 168, 169, 170, 171, 172, 173, 174, 175, 176, 177, 178, 179, 180, 181, 182, 183, 184, 185, 186, 187, 188, 189, 190, 191, 192, 193, 194, 195, 196, 197, 198, 199, 200, 201, 202, 203, 204, 205, 206, 207, 208, 209, 210, 211, 212, 213, 214, 215, 216, 217, 218, 219, 220, 221, 222, 223, 224, 225, 226, 227, 228, 229, 230, 231, 232, 233, 234, 235, 236, 237, 238, 239, 240, 241, 242, 243, 244, 245, 246, 247, 248, 249, 250, 251, 252, 253, 254, 255, 256, 257, 258, 259, 260, 261, 262, 263, 264, 265, 266, 267, 268, 269, 270, 271, 272, 273, 274, 275, 276, 277, 278, 279, 280, 281, 282, 283, 284, 285, 286, 287, 288, 289, 290, 291, 292, 293, 294, 295, 296, 297, 298, 299, 300, 301, 302, 303, 304, 305, 306, 307, 308, 309, 310, 311, 312, 313, 314, 315, 316, 317, 318, 319, 320, 321, 322, 323, 324, 325, 326, 327, 328, 329],
      "WindowCenter": [4808.0, 4806.0, 4810.0, 4806.0, 4808.0, 4808.0, 4808.0, 4812.0, 4810.0, 4808.0, 4812.0, 4812.0, 4810.0, 4808.0, 4812.0, 4810.0, 4806.0, 4808.0, 4810.0, 4810.0, 4814.0, 4810.0, 4808.0, 4808.0, 4808.0, 4810.0, 4808.0, 4810.0, 4810.0, 4808.0, 4804.0, 4806.0, 4806.0, 4808.0, 4806.0, 4808.0, 4810.0, 4808.0, 4808.0, 4810.0, 4792.0, 4812.0, 4786.0, 4782.0, 4780.0, 4808.0, 4804.0, 4806.0, 4806.0, 4806.0, 4806.0, 4808.0, 4808.0, 4788.0, 4808.0, 4830.0, 4804.0, 4802.0, 4800.0, 4804.0, 4830.0, 4804.0, 4778.0, 4776.0, 4796.0, 4818.0, 4816.0, 4784.0, 4778.0, 4774.0, 4776.0, 4778.0, 4784.0, 4816.0, 4812.0, 4810.0, 4808.0, 4808.0, 4810.0, 4818.0, 4814.0, 4788.0, 4762.0, 4758.0, 4782.0, 4786.0, 4806.0, 4810.0, 4808.0, 4816.0, 4812.0, 4812.0, 4808.0, 4810.0, 4808.0, 4810.0, 4812.0, 4816.0, 4812.0, 4808.0, 4808.0, 4814.0, 4812.0, 4814.0, 4812.0, 4808.0, 4812.0, 4810.0, 4808.0, 4812.0, 4808.0, 4810.0, 4810.0, 4814.0, 4812.0, 4814.0, 4814.0, 4810.0, 4808.0, 4808.0, 4810.0, 4806.0, 4810.0, 4810.0, 4810.0, 4830.0, 4810.0, 4792.0, 4810.0, 4810.0, 4806.0, 4806.0, 4808.0, 4812.0, 4808.0, 4810.0, 4788.0, 4828.0, 4796.0, 4790.0, 4762.0, 4784.0, 4782.0, 4804.0, 4804.0, 4830.0, 4812.0, 4788.0, 4824.0, 4826.0, 4820.0, 4790.0, 4784.0, 4778.0, 4780.0, 4798.0, 4804.0, 4808.0, 4808.0, 4810.0, 4786.0, 4784.0, 4810.0, 4810.0, 4814.0, 4804.0, 4802.0, 4802.0, 4806.0, 4812.0, 4812.0, 4808.0, 4788.0, 4812.0, 4808.0, 4814.0, 4808.0, 4804.0, 4804.0, 4804.0, 4812.0, 4818.0, 4816.0, 4814.0, 4812.0, 4814.0, 4810.0, 4808.0, 4812.0, 4812.0, 4790.0, 4810.0, 4810.0, 4810.0, 4812.0, 4808.0, 4812.0, 4812.0, 4808.0, 4808.0, 4810.0, 4814.0, 4818.0, 4818.0, 4796.0, 4804.0, 4806.0, 4824.0, 4806.0, 4808.0, 4784.0, 4804.0, 4784.0, 4808.0, 4814.0, 4810.0, 4810.0, 4810.0, 4810.0, 4810.0, 4808.0, 4790.0, 4780.0, 4806.0, 4808.0, 4808.0, 4810.0, 4810.0, 4810.0, 4812.0, 4808.0, 4810.0, 4810.0, 4810.0, 4810.0, 4810.0, 4810.0, 4808.0, 4810.0, 4812.0, 4820.0, 4796.0, 4788.0, 4804.0, 4804.0, 4802.0, 4804.0, 4808.0, 4810.0, 4810.0, 4810.0, 4810.0, 4808.0, 4810.0, 4812.0, 4810.0, 4808.0, 4808.0, 4808.0, 4812.0, 4808.0, 4808.0, 4808.0, 4808.0, 4814.0, 4812.0, 4808.0, 4808.0, 4812.0, 4810.0, 4812.0, 4788.0, 4788.0, 4788.0, 4786.0, 4782.0, 4786.0, 4806.0, 4808.0, 4812.0, 4818.0, 4818.0, 4792.0, 4790.0, 4784.0, 4802.0, 4804.0, 4804.0, 4808.0, 4806.0, 4808.0, 4810.0, 4812.0, 4790.0, 4816.0, 4796.0, 4786.0, 4810.0, 4788.0, 4786.0, 4786.0, 4786.0, 4764.0, 4790.0, 4806.0, 4786.0, 4782.0, 4790.0, 4790.0, 4786.0, 4784.0, 4806.0, 4808.0, 4816.0, 4826.0, 4820.0, 4802.0, 4798.0, 4806.0, 4788.0, 4826.0, 4794.0, 4808.0, 4806.0, 4800.0, 4800.0, 4802.0, 4810.0, 4810.0],
