{
  "AcquisitionMatrixPE": 104,
  "AcquisitionNumber": 1,
  "AcquisitionTime": "11:43:10.175000",
  "BandwidthPerPixelPhaseEncode": 17.17,
  "BaseResolution": 104,
  "BodyPartExamined": "BRAIN",
  "CoilCombinationMethod": "Sum of Squares",
  "ConsistencyInfo": "N4_VE11C_LATEST_20160120",
  "ConversionSoftware": "dcm2niix",
  "ConversionSoftwareVersion": "v1.0.20220505",
  "DerivedVendorReportedEchoSpacing": 0.000560011,
  "DeviceSerialNumber": "167006",
  "DwellTime": 2.1e-06,
  "EchoTime": 0.037,
  "EchoTrainLength": 104,
  "EffectiveEchoSpacing": 0.000560011,
  "FlipAngle": 52,
  "HeudiconvVersion": "0.5.3.post811+g6206e14",
  "ImageComments": "Unaliased MB4/PE3/LB",
  "ImageOrientationPatientDICOM": [0.992429, 0.117678, 0.0351625, -0.0992325, 0.936972, -0.335017],
  "ImageOrientationText": "Tra>Cor(-19.3)>Sag(4.2)",
  "ImageType": [
    "ORIGINAL",
    "PRIMARY",
    "M",
    "MB",
    "ND",
    "MOSAIC"
],
  "ImagingFrequency": 123.259,
  "InPlanePhaseEncodingDirectionDICOM": "COL",
  "InstitutionAddress": "Chemin Queen-Mary 4565,Montreal,District,CA,H3W 1W5",
  "InstitutionName": "IUGM",
  "InstitutionalDepartmentName": "Department",
  "MRAcquisitionType": "2D",
  "MagneticFieldStrength": 3,
  "Manufacturer": "Siemens",
  "ManufacturersModelName": "Prisma_fit",
  "MatrixCoilMode": "SENSE",
  "Modality": "MR",
  "MultibandAccelerationFactor": 4,
  "PartialFourier": 1,
  "PatientPosition": "HFS",
  "PercentPhaseFOV": 100,
  "PercentSampling": 100,
  "PhaseEncodingDirection": "j",
  "PhaseEncodingSteps": 104,
  "PhaseResolution": 1,
  "PixelBandwidth": 2290,
  "ProcedureStepDescription": "games^mario3",
  "ProtocolName": "func_task-mario3_run-01",
  "PulseSequenceDetails": "%CustomerSeq%\\cmrr_mbep2d_bold",
  "ReceiveCoilActiveElements": "HC1-7;NC1,2",
  "ReceiveCoilName": "HeadNeck_64",
  "ReconMatrixPE": 104,
  "RepetitionTime": 1.49,
  "SAR": 0.0614467,
  "ScanOptions": "FS",
  "ScanningSequence": "EP",
  "SequenceName": "epfid2d1_104",
  "SequenceVariant": "SK\\SS",
  "SeriesDescription": "func_task-mario3_run-01",
  "SeriesNumber": 10,
  "ShimSetting": [629, -7189, -8820, 646, 101, -1, -51, 12],
  "SliceThickness": 2,
  "SliceTiming": [0, 0.7825, 0.0975, 0.88, 0.195, 0.98, 0.2925, 1.0775, 0.39, 1.175, 0.49, 1.2725, 0.5875, 1.37, 0.685, 0, 0.7825, 0.0975, 0.88, 0.195, 0.98, 0.2925, 1.0775, 0.39, 1.175, 0.49, 1.2725, 0.5875, 1.37, 0.685, 0, 0.7825, 0.0975, 0.88, 0.195, 0.98, 0.2925, 1.0775, 0.39, 1.175, 0.49, 1.2725, 0.5875, 1.37, 0.685, 0, 0.7825, 0.0975, 0.88, 0.195, 0.98, 0.2925, 1.0775, 0.39, 1.175, 0.49, 1.2725, 0.5875, 1.37, 0.685],
  "SoftwareVersions": "syngo MR E11",
  "SpacingBetweenSlices": 2,
  "StationName": "MRC35049",
  "TaskName": "mario3",
  "TotalReadoutTime": 0.0576811,
  "TxRefAmp": 282.102,
  "WipMemBlock": "ca2d2a2a-b5fe-4f02-a07e-c4130739f328||Sequence: R017 ve11c/master r/75a17815+; Jun 28 2022 16:32:11 by eja",
  "dcmmeta_affine": [
    [-1.9848581552505493, -0.1984649896621704, 0.14474104344844818, 111.55570220947266],
    [-0.23535656929016113, 1.87394380569458, -0.6579830646514893, -48.20921325683594],
    [0.07032499462366104, 0.6700343489646912, 1.8831113576889038, -60.89922332763672],
    [0.0, 0.0, 0.0, 1.0]
],
  "dcmmeta_reorient_transform": [
    [0.0, -1.0, 0.0, 103.0],
    [1.0, 0.0, 0.0, 0.0],
    [0.0, 0.0, 1.0, 0.0],
    [0.0, 0.0, 0.0, 1.0]
],
  "dcmmeta_shape": [104, 104, 60, 299],
  "dcmmeta_slice_dim": 2,
  "dcmmeta_version": 0.6,
  "global": {
    "const": {
      "AcquisitionMatrix": [104, 0, 0, 104],
      "AngioFlag": "N",
      "BitsAllocated": 16,
      "BitsStored": 16,
      "BodyPartExamined": "BRAIN",
      "Columns": 832,
      "EchoNumbers": 1,
      "EchoTime": 37.0,
      "EchoTrainLength": 104,
      "FlipAngle": 52.0,
      "HighBit": 15,
      "ImageOrientationPatient": [0.99242905053973, 0.1176782838234, 0.03516249651528, -0.0992324922002, 0.93697192971058, -0.3350171867624],
      "ImagePositionPatient": [-741.36090055978, -912.59236022863, 226.40853229352],
      "ImageType": [
        "ORIGINAL",
        "PRIMARY",
        "M",
        "MB",
        "ND",
        "MOSAIC"
],
      "ImagedNucleus": "1H",
      "ImagingFrequency": 123.258818,
      "InPlanePhaseEncodingDirection": "COL",
      "MRAcquisitionType": "2D",
      "MagneticFieldStrength": 3.0,
      "Manufacturer": "SIEMENS",
      "ManufacturerModelName": "Prisma_fit",
      "Modality": "MR",
      "NumberOfAverages": 1.0,
      "NumberOfPhaseEncodingSteps": 104,
      "PercentPhaseFieldOfView": 100.0,
      "PercentSampling": 100.0,
      "PerformedProcedureStepStartTime": "113918.303000",
      "PhotometricInterpretation": "MONOCHROME2",
      "PixelBandwidth": 2290.0,
      "PixelRepresentation": 0,
      "PixelSpacing": [2.0, 2.0],
      "ProtocolName": "func_task-mario3_run-01",
      "RepetitionTime": 1490.0,
      "Rows": 832,
      "SAR": 0.06144671457434,
      "SamplesPerPixel": 1,
      "ScanOptions": "FS",
      "ScanningSequence": "EP",
      "SequenceName": "epfid2d1_104",
      "SequenceVariant": [
        "SK",
        "SS"
],
      "SeriesDescription": "func_task-mario3_run-01",
      "SeriesNumber": 10,
      "SeriesTime": "114418.857000",
      "SliceLocation": -33.406242085765,
      "SliceThickness": 2.0,
      "SmallestImagePixelValue": 0,
      "SoftwareVersions": "syngo MR E11",
      "SpacingBetweenSlices": 1.9999999542604,
      "SpecificCharacterSet": "ISO_IR 100",
      "StudyID": "1",
      "StudyTime": "113918.213000",
      "TransmitCoilName": "Body",
      "VariableFlipAngleFlag": "N",
      "WindowCenterWidthExplanation": "Algo1",
      "dBdt": 0.0},
    "slices": {}
  },
  "time": {
    "samples": {
      "AcquisitionNumber": [1, 2, 3, 4, 5, 6, 7, 8, 9, 10, 11, 12, 13, 14, 15, 16, 17, 18, 19, 20, 21, 22, 23, 24, 25, 26, 27, 28, 29, 30, 31, 32, 33, 34, 35, 36, 37, 38, 39, 40, 41, 42, 43, 44, 45, 46, 47, 48, 49, 50, 51, 52, 53, 54, 55, 56, 57, 58, 59, 60, 61, 62, 63, 64, 65, 66, 67, 68, 69, 70, 71, 72, 73, 74, 75, 76, 77, 78, 79, 80, 81, 82, 83, 84, 85, 86, 87, 88, 89, 90, 91, 92, 93, 94, 95, 96, 97, 98, 99, 100, 101, 102, 103, 104, 105, 106, 107, 108, 109, 110, 111, 112, 113, 114, 115, 116, 117, 118, 119, 120, 121, 122, 123, 124, 125, 126, 127, 128, 129, 130, 131, 132, 133, 134, 135, 136, 137, 138, 139, 140, 141, 142, 143, 144, 145, 146, 147, 148, 149, 150, 151, 152, 153, 154, 155, 156, 157, 158, 159, 160, 161, 162, 163, 164, 165, 166, 167, 168, 169, 170, 171, 172, 173, 174, 175, 176, 177, 178, 179, 180, 181, 182, 183, 184, 185, 186, 187, 188, 189, 190, 191, 192, 193, 194, 195, 196, 197, 198, 199, 200, 201, 202, 203, 204, 205, 206, 207, 208, 209, 210, 211, 212, 213, 214, 215, 216, 217, 218, 219, 220, 221, 222, 223, 224, 225, 226, 227, 228, 229, 230, 231, 232, 233, 234, 235, 236, 237, 238, 239, 240, 241, 242, 243, 244, 245, 246, 247, 248, 249, 250, 251, 252, 253, 254, 255, 256, 257, 258, 259, 260, 261, 262, 263, 264, 265, 266, 267, 268, 269, 270, 271, 272, 273, 274, 275, 276, 277, 278, 279, 280, 281, 282, 283, 284, 285, 286, 287, 288, 289, 290, 291, 292, 293, 294, 295, 296, 297, 298, 299],
      "AcquisitionTime": ["114310.175000", "114311.665000", "114313.155000", "114314.645000", "114316.135000", "114317.625000", "114319.115000", "114320.605000", "114322.095000", "114323.585000", "114325.075000", "114326.565000", "114328.055000", "114329.545000", "114331.035000", "114332.525000", "114334.015000", "114335.505000", "114336.995000", "114338.485000", "114339.975000", "114341.465000", "114342.955000", "114344.445000", "114345.935000", "114347.425000", "114348.915000", "114350.405000", "114351.895000", "114353.385000", "114354.875000", "114356.365000", "114357.855000", "114359.345000", "114400.835000", "114402.325000", "114403.815000", "114405.305000", "114406.795000", "114408.285000", "114409.775000", "114411.265000", "114412.755000", "114414.245000", "114415.735000", "114417.225000", "114418.715000", "114420.205000", "114421.695000", "114423.185000", "114424.675000", "114426.165000", "114427.655000", "114429.145000", "114430.635000", "114432.125000", "114433.615000", "114435.105000", "114436.595000", "114438.085000", "114439.575000", "114441.065000", "114442.555000", "114444.045000", "114445.535000", "114447.025000", "114448.515000", "114450.005000", "114451.495000", "114452.985000", "114454.475000", "114455.965000", "114457.455000", "114458.945000", "114500.435000", "114501.925000", "114503.415000", "114504.905000", "114506.395000", "114507.885000", "114509.375000", "114510.865000", "114512.355000", "114513.845000", "114515.335000", "114516.825000", "114518.315000", "114519.805000", "114521.295000", "114522.785000", "114524.275000", "114525.765000", "114527.255000", "114528.745000", "114530.235000", "114531.725000", "114533.215000", "114534.705000", "114536.195000", "114537.685000", "114539.175000", "114540.665000", "114542.155000", "114543.645000", "114545.135000", "114546.625000", "114548.115000", "114549.605000", "114551.095000", "114552.585000", "114554.075000", "114555.565000", "114557.055000", "114558.545000", "114600.035000", "114601.525000", "114603.015000", "114604.505000", "114605.995000", "114607.485000", "114608.975000", "114610.465000", "114611.955000", "114613.445000", "114614.935000", "114616.425000", "114617.915000", "114619.405000", "114620.895000", "114622.385000", "114623.875000", "114625.365000", "114626.855000", "114628.345000", "114629.835000", "114631.325000", "114632.815000", "114634.305000", "114635.795000", "114637.285000", "114638.775000", "114640.265000", "114641.755000", "114643.245000", "114644.735000", "114646.225000", "114647.715000", "114649.205000", "114650.695000", "114652.185000", "114653.675000", "114655.165000", "114656.655000", "114658.145000", "114659.635000", "114701.125000", "114702.615000", "114704.105000", "114705.595000", "114707.085000", "114708.575000", "114710.065000", "114711.555000", "114713.045000", "114714.535000", "114716.025000", "114717.515000", "114719.005000", "114720.495000", "114721.985000", "114723.475000", "114724.965000", "114726.455000", "114727.945000", "114729.435000", "114730.925000", "114732.415000", "114733.905000", "114735.395000", "114736.885000", "114738.375000", "114739.865000", "114741.355000", "114742.845000", "114744.335000", "114745.825000", "114747.315000", "114748.805000", "114750.295000", "114751.785000", "114753.275000", "114754.765000", "114756.255000", "114757.745000", "114759.235000", "114800.725000", "114802.215000", "114803.705000", "114805.195000", "114806.685000", "114808.175000", "114809.665000", "114811.155000", "114812.645000", "114814.135000", "114815.625000", "114817.115000", "114818.605000", "114820.095000", "114821.585000", "114823.075000", "114824.565000", "114826.055000", "114827.545000", "114829.035000", "114830.525000", "114832.015000", "114833.505000", "114834.995000", "114836.485000", "114837.975000", "114839.465000", "114840.955000", "114842.445000", "114843.935000", "114845.425000", "114846.915000", "114848.405000", "114849.895000", "114851.385000", "114852.875000", "114854.365000", "114855.855000", "114857.345000", "114858.835000", "114900.325000", "114901.815000", "114903.305000", "114904.795000", "114906.285000", "114907.775000", "114909.265000", "114910.755000", "114912.245000", "114913.735000", "114915.225000", "114916.715000", "114918.205000", "114919.695000", "114921.185000", "114922.675000", "114924.165000", "114925.655000", "114927.145000", "114928.635000", "114930.125000", "114931.615000", "114933.105000", "114934.595000", "114936.085000", "114937.575000", "114939.065000", "114940.555000", "114942.045000", "114943.535000", "114945.025000", "114946.515000", "114948.005000", "114949.495000", "114950.985000", "114952.475000", "114953.965000", "114955.455000", "114956.945000", "114958.435000", "114959.925000", "115001.415000", "115002.905000", "115004.395000", "115005.885000", "115007.375000", "115008.865000", "115010.355000", "115011.845000", "115013.335000", "115014.825000", "115016.315000", "115017.805000", "115019.295000", "115020.785000", "115022.275000", "115023.765000", "115025.255000", "115026.745000", "115028.235000", "115029.725000", "115031.215000", "115032.705000", "115034.195000"],
      "ContentTime": ["114418.860000", "114418.864000", "114418.868000", "114418.878000", "114418.882000", "114418.885000", "114418.900000", "114418.903000", "114418.906000", "114418.910000", "114418.913000", "114418.916000", "114418.920000", "114418.923000", "114418.927000", "114418.930000", "114418.933000", "114418.937000", "114418.946000", "114418.950000", "114438.823000", "114438.827000", "114438.830000", "114438.834000", "114438.837000", "114438.841000", "114438.844000", "114438.847000", "114438.851000", "114438.854000", "114438.857000", "114438.861000", "114438.864000", "114438.868000", "114438.872000", "114438.876000", "114438.879000", "114438.882000", "114438.886000", "114438.889000", "114458.823000", "114458.827000", "114458.830000", "114458.834000", "114458.837000", "114458.840000", "114458.844000", "114458.847000", "114458.851000", "114458.854000", "114458.857000", "114458.861000", "114458.880000", "114458.883000", "114458.887000", "114458.890000", "114458.894000", "114458.897000", "114458.901000", "114458.904000", "114518.822000", "114518.826000", "114518.829000", "114518.833000", "114518.845000", "114518.849000", "114518.852000", "114518.855000", "114518.862000", "114518.866000", "114518.869000", "114518.872000", "114518.876000", "114518.879000", "114518.883000", "114518.886000", "114518.890000", "114518.893000", "114518.896000", "114518.900000", "114558.823000", "114558.827000", "114558.831000", "114558.834000", "114558.838000", "114558.841000", "114558.844000", "114558.848000", "114558.851000", "114558.855000", "114558.858000", "114558.861000", "114558.865000", "114558.868000", "114558.878000", "114558.881000", "114558.885000", "114558.888000", "114558.892000", "114558.895000", "114558.899000", "114558.902000", "114558.906000", "114558.909000", "114558.913000", "114558.916000", "114558.920000", "114558.923000", "114558.926000", "114558.930000", "114558.933000", "114558.936000", "114638.823000", "114638.827000", "114638.830000", "114638.834000", "114638.837000", "114638.841000", "114638.844000", "114638.848000", "114638.857000", "114638.861000", "114638.864000", "114638.867000", "114638.871000", "114638.874000", "114638.878000", "114638.881000", "114638.885000", "114638.888000", "114638.891000", "114638.895000", "114638.898000", "114638.902000", "114638.905000", "114638.909000", "114638.912000", "114638.915000", "114638.919000", "114718.823000", "114718.827000", "114718.830000", "114718.834000", "114718.837000", "114718.841000", "114718.844000", "114718.847000", "114718.851000", "114718.854000", "114718.858000", "114718.861000", "114718.865000", "114718.868000", "114718.872000", "114718.875000", "114718.878000", "114718.882000", "114718.885000", "114718.889000", "114718.892000", "114718.896000", "114718.899000", "114718.902000", "114718.906000", "114718.909000", "114718.913000", "114758.822000", "114758.826000", "114758.830000", "114758.833000", "114758.837000", "114758.840000", "114758.843000", "114758.847000", "114758.850000", "114758.854000", "114758.857000", "114758.861000", "114758.864000", "114758.868000", "114758.871000", "114758.874000", "114758.878000", "114758.881000", "114758.885000", "114758.888000", "114758.892000", "114758.895000", "114758.898000", "114758.902000", "114758.905000", "114758.909000", "114758.912000", "114838.824000", "114838.827000", "114838.831000", "114838.834000", "114838.838000", "114838.841000", "114838.844000", "114838.848000", "114838.861000", "114838.864000", "114838.868000", "114838.871000", "114838.875000", "114838.878000", "114838.881000", "114838.885000", "114838.889000", "114838.893000", "114838.897000", "114838.902000", "114838.905000", "114838.909000", "114838.913000", "114838.917000", "114838.920000", "114838.923000", "114918.823000", "114918.827000", "114918.831000", "114918.834000", "114918.837000", "114918.841000", "114918.844000", "114918.848000", "114918.851000", "114918.855000", "114918.858000", "114918.861000", "114918.865000", "114918.868000", "114918.872000", "114918.875000", "114918.878000", "114918.882000", "114918.885000", "114918.889000", "114918.892000", "114918.895000", "114918.899000", "114918.902000", "114918.906000", "114918.909000", "114918.913000", "114958.822000", "114958.826000", "114958.829000", "114958.833000", "114958.836000", "114958.840000", "114958.843000", "114958.847000", "114958.850000", "114958.853000", "114958.857000", "114958.860000", "114958.864000", "114958.867000", "114958.870000", "114958.874000", "114958.877000", "114958.881000", "114958.884000", "114958.888000", "114958.891000", "114958.894000", "114958.898000", "114958.901000", "114958.905000", "114958.908000", "114958.911000", "115037.418000", "115037.421000", "115037.425000", "115037.428000", "115037.432000", "115037.435000", "115037.439000", "115037.442000", "115037.446000", "115037.449000", "115037.453000", "115037.456000", "115037.459000", "115037.463000", "115037.466000", "115037.470000", "115037.473000", "115037.477000", "115037.480000", "115037.484000", "115037.487000", "115037.516000", "115037.520000", "115037.524000", "115037.527000", "115037.531000"],
      "InstanceCreationTime": ["114418.860000", "114418.864000", "114418.868000", "114418.878000", "114418.882000", "114418.885000", "114418.900000", "114418.903000", "114418.906000", "114418.910000", "114418.913000", "114418.916000", "114418.920000", "114418.923000", "114418.927000", "114418.930000", "114418.933000", "114418.937000", "114418.946000", "114418.950000", "114438.823000", "114438.827000", "114438.830000", "114438.834000", "114438.837000", "114438.841000", "114438.844000", "114438.847000", "114438.851000", "114438.854000", "114438.857000", "114438.861000", "114438.864000", "114438.868000", "114438.872000", "114438.876000", "114438.879000", "114438.882000", "114438.886000", "114438.889000", "114458.823000", "114458.827000", "114458.830000", "114458.834000", "114458.837000", "114458.840000", "114458.844000", "114458.847000", "114458.851000", "114458.854000", "114458.857000", "114458.861000", "114458.880000", "114458.883000", "114458.887000", "114458.890000", "114458.894000", "114458.897000", "114458.901000", "114458.904000", "114518.822000", "114518.826000", "114518.829000", "114518.833000", "114518.845000", "114518.849000", "114518.852000", "114518.855000", "114518.862000", "114518.866000", "114518.869000", "114518.872000", "114518.876000", "114518.879000", "114518.883000", "114518.886000", "114518.890000", "114518.893000", "114518.896000", "114518.900000", "114558.823000", "114558.827000", "114558.831000", "114558.834000", "114558.838000", "114558.841000", "114558.844000", "114558.848000", "114558.851000", "114558.855000", "114558.858000", "114558.861000", "114558.865000", "114558.868000", "114558.878000", "114558.881000", "114558.885000", "114558.888000", "114558.892000", "114558.895000", "114558.899000", "114558.902000", "114558.906000", "114558.909000", "114558.913000", "114558.916000", "114558.920000", "114558.923000", "114558.926000", "114558.930000", "114558.933000", "114558.936000", "114638.823000", "114638.827000", "114638.830000", "114638.834000", "114638.837000", "114638.841000", "114638.844000", "114638.848000", "114638.857000", "114638.861000", "114638.864000", "114638.867000", "114638.871000", "114638.874000", "114638.878000", "114638.881000", "114638.885000", "114638.888000", "114638.891000", "114638.895000", "114638.898000", "114638.902000", "114638.905000", "114638.909000", "114638.912000", "114638.915000", "114638.919000", "114718.823000", "114718.827000", "114718.830000", "114718.834000", "114718.837000", "114718.841000", "114718.844000", "114718.847000", "114718.851000", "114718.854000", "114718.858000", "114718.861000", "114718.865000", "114718.868000", "114718.872000", "114718.875000", "114718.878000", "114718.882000", "114718.885000", "114718.889000", "114718.892000", "114718.896000", "114718.899000", "114718.902000", "114718.906000", "114718.909000", "114718.913000", "114758.822000", "114758.826000", "114758.830000", "114758.833000", "114758.837000", "114758.840000", "114758.843000", "114758.847000", "114758.850000", "114758.854000", "114758.857000", "114758.861000", "114758.864000", "114758.868000", "114758.871000", "114758.874000", "114758.878000", "114758.881000", "114758.885000", "114758.888000", "114758.892000", "114758.895000", "114758.898000", "114758.902000", "114758.905000", "114758.909000", "114758.912000", "114838.824000", "114838.827000", "114838.831000", "114838.834000", "114838.838000", "114838.841000", "114838.844000", "114838.848000", "114838.861000", "114838.864000", "114838.868000", "114838.871000", "114838.875000", "114838.878000", "114838.881000", "114838.885000", "114838.889000", "114838.893000", "114838.897000", "114838.902000", "114838.905000", "114838.909000", "114838.913000", "114838.917000", "114838.920000", "114838.923000", "114918.823000", "114918.827000", "114918.831000", "114918.834000", "114918.837000", "114918.841000", "114918.844000", "114918.848000", "114918.851000", "114918.855000", "114918.858000", "114918.861000", "114918.865000", "114918.868000", "114918.872000", "114918.875000", "114918.878000", "114918.882000", "114918.885000", "114918.889000", "114918.892000", "114918.895000", "114918.899000", "114918.902000", "114918.906000", "114918.909000", "114918.913000", "114958.822000", "114958.826000", "114958.829000", "114958.833000", "114958.836000", "114958.840000", "114958.843000", "114958.847000", "114958.850000", "114958.853000", "114958.857000", "114958.860000", "114958.864000", "114958.867000", "114958.870000", "114958.874000", "114958.877000", "114958.881000", "114958.884000", "114958.888000", "114958.891000", "114958.894000", "114958.898000", "114958.901000", "114958.905000", "114958.908000", "114958.911000", "115037.418000", "115037.421000", "115037.425000", "115037.428000", "115037.432000", "115037.435000", "115037.439000", "115037.442000", "115037.446000", "115037.449000", "115037.453000", "115037.456000", "115037.459000", "115037.463000", "115037.466000", "115037.470000", "115037.473000", "115037.477000", "115037.480000", "115037.484000", "115037.487000", "115037.516000", "115037.520000", "115037.524000", "115037.527000", "115037.531000"],
      "InstanceNumber": [1, 2, 3, 4, 5, 6, 7, 8, 9, 10, 11, 12, 13, 14, 15, 16, 17, 18, 19, 20, 21, 22, 23, 24, 25, 26, 27, 28, 29, 30, 31, 32, 33, 34, 35, 36, 37, 38, 39, 40, 41, 42, 43, 44, 45, 46, 47, 48, 49, 50, 51, 52, 53, 54, 55, 56, 57, 58, 59, 60, 61, 62, 63, 64, 65, 66, 67, 68, 69, 70, 71, 72, 73, 74, 75, 76, 77, 78, 79, 80, 81, 82, 83, 84, 85, 86, 87, 88, 89, 90, 91, 92, 93, 94, 95, 96, 97, 98, 99, 100, 101, 102, 103, 104, 105, 106, 107, 108, 109, 110, 111, 112, 113, 114, 115, 116, 117, 118, 119, 120, 121, 122, 123, 124, 125, 126, 127, 128, 129, 130, 131, 132, 133, 134, 135, 136, 137, 138, 139, 140, 141, 142, 143, 144, 145, 146, 147, 148, 149, 150, 151, 152, 153, 154, 155, 156, 157, 158, 159, 160, 161, 162, 163, 164, 165, 166, 167, 168, 169, 170, 171, 172, 173, 174, 175, 176, 177, 178, 179, 180, 181, 182, 183, 184, 185, 186, 187, 188, 189, 190, 191, 192, 193, 194, 195, 196, 197, 198, 199, 200, 201, 202, 203, 204, 205, 206, 207, 208, 209, 210, 211, 212, 213, 214, 215, 216, 217, 218, 219, 220, 221, 222, 223, 224, 225, 226, 227, 228, 229, 230, 231, 232, 233, 234, 235, 236, 237, 238, 239, 240, 241, 242, 243, 244, 245, 246, 247, 248, 249, 250, 251, 252, 253, 254, 255, 256, 257, 258, 259, 260, 261, 262, 263, 264, 265, 266, 267, 268, 269, 270, 271, 272, 273, 274, 275, 276, 277, 278, 279, 280, 281, 282, 283, 284, 285, 286, 287, 288, 289, 290, 291, 292, 293, 294, 295, 296, 297, 298, 299],
      "LargestImagePixelValue": [43689, 42017, 43411, 43739, 43075, 43361, 42779, 43090, 42157, 41075, 42358, 41747, 41590, 41148, 41316, 40767, 41268, 40987, 41672, 41351, 41866, 42920, 41141, 41155, 42410, 40644, 40731, 41381, 41362, 41598, 43031, 43917, 43689, 42595, 41284, 42691, 41922, 42734, 41172, 40837, 40548, 39817, 40919, 40159, 40719, 40009, 41011, 40584, 41043, 41126, 41113, 40748, 40797, 41042, 41365, 39885, 39545, 39615, 39858, 39993, 39845, 39680, 40118, 40435, 39798, 40051, 40856, 41092, 41946, 40782, 41557, 40573, 40008, 39275, 39748, 40009, 40264, 40877, 41313, 40038, 42404, 41909, 40876, 40471, 40520, 40031, 40731, 39988, 40564, 41225, 41388, 41528, 40876, 41298, 41373, 40203, 40009, 41123, 40543, 40830, 40498, 40131, 40088, 40000, 40154, 40100, 42711, 40808, 41718, 40827, 41102, 42651, 41623, 41453, 43001, 42729, 43157, 42767, 43810, 43079, 43215, 44106, 42829, 42552, 43623, 43557, 42337, 41602, 42536, 42948, 43483, 43130, 43279, 44015, 42865, 42732, 41817, 40968, 41387, 42547, 41130, 41868, 40480, 43667, 45225, 44187, 41852, 43096, 44210, 44692, 45523, 45750, 45881, 47032, 45984, 46206, 45472, 45265, 44535, 44818, 45061, 44275, 45133, 44268, 44325, 43782, 44204, 45760, 44606, 45266, 44926, 43141, 45212, 44207, 44797, 45101, 45190, 45784, 45235, 44735, 45767, 44366, 44562, 43805, 44691, 43778, 44427, 44085, 44403, 44057, 43781, 45497, 44353, 45186, 43764, 42959, 44283, 43891, 43716, 44548, 44414, 45416, 44215, 44041, 42906, 44309, 45458, 43827, 44284, 44974, 44479, 44580, 45983, 44019, 43621, 42561, 42441, 43717, 44762, 43862, 44471, 45000, 43619, 44339, 44685, 45160, 45007, 44716, 44363, 45318, 45010, 44607, 43563, 44917, 44285, 43951, 43120, 44293, 43900, 43399, 44547, 44238, 44397, 44291, 44071, 44696, 44567, 44005, 44199, 44086, 44023, 43638, 42664, 44012, 43683, 43969, 44357, 44370, 45210, 44732, 43643, 44908, 44371, 45156, 44932, 44593, 45149, 45334, 43007, 44060, 44635, 44180, 44413, 45401, 44547, 45835, 45642, 45793, 43260, 44144, 45017, 45291, 45727, 45643, 47098, 46491, 43598, 44862, 44229, 43422, 45445, 44431, 44848, 46266, 44248, 44962, 45920, 44176, 45301],
      "WindowCenter": [10416.0, 10347.0, 10336.0, 10344.0, 10347.0, 10362.0, 10363.0, 10377.0, 10383.0, 10393.0, 10422.0, 10410.0, 10403.0, 10382.0, 10375.0, 10375.0, 10397.0, 10385.0, 10390.0, 10380.0, 10401.0, 10415.0, 10393.0, 10390.0, 10397.0, 10356.0, 10353.0, 10342.0, 10356.0, 10364.0, 10394.0, 10402.0, 10399.0, 10400.0, 10375.0, 10364.0, 10341.0, 10364.0, 10352.0, 10359.0, 10346.0, 10334.0, 10332.0, 10308.0, 10315.0, 10306.0, 10347.0, 10360.0, 10385.0, 10375.0, 10345.0, 10342.0, 10349.0, 10349.0, 10355.0, 10343.0, 10347.0, 10354.0, 10355.0, 10337.0, 10318.0, 10305.0, 10309.0, 10349.0, 10352.0, 10358.0, 10351.0, 10341.0, 10342.0, 10329.0, 10343.0, 10345.0, 10335.0, 10342.0, 10360.0, 10342.0, 10319.0, 10312.0, 10307.0, 10305.0, 10336.0, 10330.0, 10322.0, 10308.0, 10310.0, 10300.0, 10314.0, 10324.0, 10342.0, 10363.0, 10374.0, 10371.0, 10360.0, 10356.0, 10357.0, 10356.0, 10375.0, 10406.0, 10394.0, 10394.0, 10386.0, 10355.0, 10343.0, 10342.0, 10324.0, 10322.0, 10356.0, 10343.0, 10357.0, 10335.0, 10333.0, 10357.0, 10337.0, 10342.0, 10345.0, 10336.0, 10339.0, 10342.0, 10355.0, 10345.0, 10354.0, 10365.0, 10347.0, 10339.0, 10356.0, 10376.0, 10375.0, 10384.0, 10379.0, 10365.0, 10380.0, 10373.0, 10381.0, 10383.0, 10358.0, 10346.0, 10329.0, 10327.0, 10342.0, 10354.0, 10335.0, 10351.0, 10346.0, 10352.0, 10380.0, 10346.0, 10351.0, 10385.0, 10392.0, 10395.0, 10400.0, 10389.0, 10368.0, 10395.0, 10393.0, 10403.0, 10405.0, 10394.0, 10370.0, 10384.0, 10393.0, 10378.0, 10389.0, 10365.0, 10379.0, 10369.0, 10385.0, 10403.0, 10400.0, 10409.0, 10400.0, 10386.0, 10397.0, 10374.0, 10388.0, 10388.0, 10387.0, 10400.0, 10381.0, 10372.0, 10365.0, 10351.0, 10360.0, 10363.0, 10385.0, 10374.0, 10380.0, 10371.0, 10378.0, 10366.0, 10374.0, 10387.0, 10382.0, 10397.0, 10370.0, 10364.0, 10367.0, 10349.0, 10349.0, 10363.0, 10369.0, 10393.0, 10383.0, 10383.0, 10354.0, 10369.0, 10371.0, 10364.0, 10383.0, 10387.0, 10382.0, 10373.0, 10399.0, 10373.0, 10381.0, 10372.0, 10385.0, 10390.0, 10380.0, 10365.0, 10373.0, 10398.0, 10384.0, 10400.0, 10413.0, 10401.0, 10373.0, 10362.0, 10339.0, 10363.0, 10376.0, 10395.0, 10401.0, 10382.0, 10387.0, 10360.0, 10358.0, 10358.0, 10341.0, 10343.0, 10353.0, 10365.0, 10371.0, 10365.0, 10374.0, 10381.0, 10382.0, 10363.0, 10367.0, 10363.0, 10371.0, 10377.0, 10373.0, 10391.0, 10381.0, 10384.0, 10380.0, 10383.0, 10386.0, 10377.0, 10370.0, 10364.0, 10363.0, 10387.0, 10388.0, 10392.0, 10390.0, 10360.0, 10347.0, 10365.0, 10353.0, 10339.0, 10345.0, 10372.0, 10381.0, 10402.0, 10395.0, 10386.0, 10369.0, 10382.0, 10412.0, 10427.0, 10419.0, 10401.0, 10395.0, 10367.0, 10366.0, 10386.0, 10371.0, 10376.0, 10392.0, 10361.0, 10375.0, 10383.0, 10352.0, 10365.0, 10361.0, 10340.0, 10369.0],
