{
  "AcquisitionMatrixPE": 104,
  "AcquisitionNumber": 1,
  "AcquisitionTime": "11:53:5.757500",
  "BandwidthPerPixelPhaseEncode": 17.17,
  "BaseResolution": 104,
  "BodyPartExamined": "BRAIN",
  "CoilCombinationMethod": "Sum of Squares",
  "ConsistencyInfo": "N4_VE11C_LATEST_20160120",
  "ConversionSoftware": "dcm2niix",
  "ConversionSoftwareVersion": "v1.0.20220505",
  "DerivedVendorReportedEchoSpacing": 0.000560011,
  "DeviceSerialNumber": "167006",
  "DwellTime": 2.1e-06,
  "EchoTime": 0.037,
  "EchoTrainLength": 104,
  "EffectiveEchoSpacing": 0.000560011,
  "FlipAngle": 52,
  "HeudiconvVersion": "0.5.3.post811+g6206e14",
  "ImageComments": "Unaliased MB4/PE3/LB",
  "ImageOrientationPatientDICOM": [0.992429, 0.117678, 0.0351625, -0.0992325, 0.936972, -0.335017],
  "ImageOrientationText": "Tra>Cor(-19.3)>Sag(4.2)",
  "ImageType": [
    "ORIGINAL",
    "PRIMARY",
    "M",
    "MB",
    "ND",
    "MOSAIC"
],
  "ImagingFrequency": 123.259,
  "InPlanePhaseEncodingDirectionDICOM": "COL",
  "InstitutionAddress": "Chemin Queen-Mary 4565,Montreal,District,CA,H3W 1W5",
  "InstitutionName": "IUGM",
  "InstitutionalDepartmentName": "Department",
  "MRAcquisitionType": "2D",
  "MagneticFieldStrength": 3,
  "Manufacturer": "Siemens",
  "ManufacturersModelName": "Prisma_fit",
  "MatrixCoilMode": "SENSE",
  "Modality": "MR",
  "MultibandAccelerationFactor": 4,
  "PartialFourier": 1,
  "PatientPosition": "HFS",
  "PercentPhaseFOV": 100,
  "PercentSampling": 100,
  "PhaseEncodingDirection": "j",
  "PhaseEncodingSteps": 104,
  "PhaseResolution": 1,
  "PixelBandwidth": 2290,
  "ProcedureStepDescription": "games^mario3",
  "ProtocolName": "func_task-mario3_run-02",
  "PulseSequenceDetails": "%CustomerSeq%\\cmrr_mbep2d_bold",
  "ReceiveCoilActiveElements": "HC1-7;NC1,2",
  "ReceiveCoilName": "HeadNeck_64",
  "ReconMatrixPE": 104,
  "RepetitionTime": 1.49,
  "SAR": 0.0614467,
  "ScanOptions": "FS",
  "ScanningSequence": "EP",
  "SequenceName": "epfid2d1_104",
  "SequenceVariant": "SK\\SS",
  "SeriesDescription": "func_task-mario3_run-02",
  "SeriesNumber": 13,
  "ShimSetting": [629, -7189, -8820, 646, 101, -1, -51, 12],
  "SliceThickness": 2,
  "SliceTiming": [0, 0.785, 0.1, 0.8825, 0.1975, 0.98, 0.295, 1.08, 0.3925, 1.1775, 0.49, 1.275, 0.59, 1.3725, 0.6875, 0, 0.785, 0.1, 0.8825, 0.1975, 0.98, 0.295, 1.08, 0.3925, 1.1775, 0.49, 1.275, 0.59, 1.3725, 0.6875, 0, 0.785, 0.1, 0.8825, 0.1975, 0.98, 0.295, 1.08, 0.3925, 1.1775, 0.49, 1.275, 0.59, 1.3725, 0.6875, 0, 0.785, 0.1, 0.8825, 0.1975, 0.98, 0.295, 1.08, 0.3925, 1.1775, 0.49, 1.275, 0.59, 1.3725, 0.6875],
  "SoftwareVersions": "syngo MR E11",
  "SpacingBetweenSlices": 2,
  "StationName": "MRC35049",
  "TaskName": "mario3",
  "TotalReadoutTime": 0.0576811,
  "TxRefAmp": 282.102,
  "WipMemBlock": "1616fbf7-e063-4743-b23e-409d0113c5bd||Sequence: R017 ve11c/master r/75a17815+; Jun 28 2022 16:32:11 by eja",
  "dcmmeta_affine": [
    [-1.9848581552505493, -0.1984649896621704, 0.14474104344844818, 111.55570220947266],
    [-0.23535656929016113, 1.87394380569458, -0.6579830646514893, -48.20921325683594],
    [0.07032499462366104, 0.6700343489646912, 1.8831113576889038, -60.89922332763672],
    [0.0, 0.0, 0.0, 1.0]
],
  "dcmmeta_reorient_transform": [
    [0.0, -1.0, 0.0, 103.0],
    [1.0, 0.0, 0.0, 0.0],
    [0.0, 0.0, 1.0, 0.0],
    [0.0, 0.0, 0.0, 1.0]
],
  "dcmmeta_shape": [104, 104, 60, 307],
  "dcmmeta_slice_dim": 2,
  "dcmmeta_version": 0.6,
  "global": {
    "const": {
      "AcquisitionMatrix": [104, 0, 0, 104],
      "AngioFlag": "N",
      "BitsAllocated": 16,
      "BitsStored": 16,
      "BodyPartExamined": "BRAIN",
      "Columns": 832,
      "EchoNumbers": 1,
      "EchoTime": 37.0,
      "EchoTrainLength": 104,
      "FlipAngle": 52.0,
      "HighBit": 15,
      "ImageOrientationPatient": [0.99242905053973, 0.1176782838234, 0.03516249651528, -0.0992324922002, 0.93697192971058, -0.3350171867624],
      "ImagePositionPatient": [-741.36090055978, -912.59236022863, 226.40853229352],
      "ImageType": [
        "ORIGINAL",
        "PRIMARY",
        "M",
        "MB",
        "ND",
        "MOSAIC"
],
      "ImagedNucleus": "1H",
      "ImagingFrequency": 123.258825,
      "InPlanePhaseEncodingDirection": "COL",
      "MRAcquisitionType": "2D",
      "MagneticFieldStrength": 3.0,
      "Manufacturer": "SIEMENS",
      "ManufacturerModelName": "Prisma_fit",
      "Modality": "MR",
      "NumberOfAverages": 1.0,
      "NumberOfPhaseEncodingSteps": 104,
      "PercentPhaseFieldOfView": 100.0,
      "PercentSampling": 100.0,
      "PerformedProcedureStepStartTime": "113918.303000",
      "PhotometricInterpretation": "MONOCHROME2",
      "PixelBandwidth": 2290.0,
      "PixelRepresentation": 0,
      "PixelSpacing": [2.0, 2.0],
      "ProtocolName": "func_task-mario3_run-02",
      "RepetitionTime": 1490.0,
      "Rows": 832,
      "SAR": 0.06144671457434,
      "SamplesPerPixel": 1,
      "ScanOptions": "FS",
      "ScanningSequence": "EP",
      "SequenceName": "epfid2d1_104",
      "SequenceVariant": [
        "SK",
        "SS"
],
      "SeriesDescription": "func_task-mario3_run-02",
      "SeriesNumber": 13,
      "SeriesTime": "115419.400000",
      "SliceLocation": -33.406242085765,
      "SliceThickness": 2.0,
      "SmallestImagePixelValue": 0,
      "SoftwareVersions": "syngo MR E11",
      "SpacingBetweenSlices": 1.9999999542604,
      "SpecificCharacterSet": "ISO_IR 100",
      "StudyID": "1",
      "StudyTime": "113918.213000",
      "TransmitCoilName": "Body",
      "VariableFlipAngleFlag": "N",
      "WindowCenterWidthExplanation": "Algo1",
      "dBdt": 0.0},
    "slices": {}
  },
  "time": {
    "samples": {
      "AcquisitionNumber": [1, 2, 3, 4, 5, 6, 7, 8, 9, 10, 11, 12, 13, 14, 15, 16, 17, 18, 19, 20, 21, 22, 23, 24, 25, 26, 27, 28, 29, 30, 31, 32, 33, 34, 35, 36, 37, 38, 39, 40, 41, 42, 43, 44, 45, 46, 47, 48, 49, 50, 51, 52, 53, 54, 55, 56, 57, 58, 59, 60, 61, 62, 63, 64, 65, 66, 67, 68, 69, 70, 71, 72, 73, 74, 75, 76, 77, 78, 79, 80, 81, 82, 83, 84, 85, 86, 87, 88, 89, 90, 91, 92, 93, 94, 95, 96, 97, 98, 99, 100, 101, 102, 103, 104, 105, 106, 107, 108, 109, 110, 111, 112, 113, 114, 115, 116, 117, 118, 119, 120, 121, 122, 123, 124, 125, 126, 127, 128, 129, 130, 131, 132, 133, 134, 135, 136, 137, 138, 139, 140, 141, 142, 143, 144, 145, 146, 147, 148, 149, 150, 151, 152, 153, 154, 155, 156, 157, 158, 159, 160, 161, 162, 163, 164, 165, 166, 167, 168, 169, 170, 171, 172, 173, 174, 175, 176, 177, 178, 179, 180, 181, 182, 183, 184, 185, 186, 187, 188, 189, 190, 191, 192, 193, 194, 195, 196, 197, 198, 199, 200, 201, 202, 203, 204, 205, 206, 207, 208, 209, 210, 211, 212, 213, 214, 215, 216, 217, 218, 219, 220, 221, 222, 223, 224, 225, 226, 227, 228, 229, 230, 231, 232, 233, 234, 235, 236, 237, 238, 239, 240, 241, 242, 243, 244, 245, 246, 247, 248, 249, 250, 251, 252, 253, 254, 255, 256, 257, 258, 259, 260, 261, 262, 263, 264, 265, 266, 267, 268, 269, 270, 271, 272, 273, 274, 275, 276, 277, 278, 279, 280, 281, 282, 283, 284, 285, 286, 287, 288, 289, 290, 291, 292, 293, 294, 295, 296, 297, 298, 299, 300, 301, 302, 303, 304, 305, 306, 307],
      "AcquisitionTime": ["115305.757500", "115307.247500", "115308.737500", "115310.227500", "115311.717500", "115313.207500", "115314.697500", "115316.187500", "115317.677500", "115319.167500", "115320.657500", "115322.147500", "115323.637500", "115325.127500", "115326.617500", "115328.107500", "115329.597500", "115331.087500", "115332.577500", "115334.067500", "115335.557500", "115337.047500", "115338.537500", "115340.027500", "115341.517500", "115343.007500", "115344.497500", "115345.987500", "115347.477500", "115348.967500", "115350.457500", "115351.947500", "115353.437500", "115354.927500", "115356.417500", "115357.907500", "115359.397500", "115400.887500", "115402.377500", "115403.867500", "115405.357500", "115406.847500", "115408.337500", "115409.827500", "115411.317500", "115412.807500", "115414.297500", "115415.787500", "115417.277500", "115418.767500", "115420.257500", "115421.747500", "115423.237500", "115424.727500", "115426.217500", "115427.707500", "115429.197500", "115430.687500", "115432.177500", "115433.667500", "115435.157500", "115436.647500", "115438.137500", "115439.627500", "115441.117500", "115442.607500", "115444.097500", "115445.587500", "115447.077500", "115448.567500", "115450.057500", "115451.547500", "115453.037500", "115454.527500", "115456.017500", "115457.507500", "115458.997500", "115500.487500", "115501.977500", "115503.467500", "115504.957500", "115506.447500", "115507.937500", "115509.427500", "115510.917500", "115512.407500", "115513.897500", "115515.387500", "115516.877500", "115518.367500", "115519.857500", "115521.347500", "115522.837500", "115524.327500", "115525.817500", "115527.307500", "115528.797500", "115530.287500", "115531.777500", "115533.267500", "115534.757500", "115536.247500", "115537.737500", "115539.227500", "115540.717500", "115542.207500", "115543.697500", "115545.187500", "115546.677500", "115548.167500", "115549.657500", "115551.147500", "115552.637500", "115554.127500", "115555.617500", "115557.107500", "115558.597500", "115600.087500", "115601.577500", "115603.067500", "115604.557500", "115606.047500", "115607.537500", "115609.027500", "115610.517500", "115612.007500", "115613.497500", "115614.987500", "115616.477500", "115617.967500", "115619.457500", "115620.947500", "115622.437500", "115623.927500", "115625.417500", "115626.907500", "115628.397500", "115629.887500", "115631.377500", "115632.867500", "115634.357500", "115635.847500", "115637.337500", "115638.827500", "115640.317500", "115641.807500", "115643.297500", "115644.787500", "115646.277500", "115647.767500", "115649.257500", "115650.747500", "115652.237500", "115653.727500", "115655.217500", "115656.707500", "115658.197500", "115659.687500", "115701.177500", "115702.667500", "115704.157500", "115705.647500", "115707.137500", "115708.627500", "115710.117500", "115711.607500", "115713.097500", "115714.587500", "115716.077500", "115717.567500", "115719.057500", "115720.547500", "115722.037500", "115723.527500", "115725.017500", "115726.507500", "115727.997500", "115729.487500", "115730.977500", "115732.467500", "115733.957500", "115735.447500", "115736.937500", "115738.427500", "115739.917500", "115741.407500", "115742.897500", "115744.387500", "115745.877500", "115747.367500", "115748.857500", "115750.347500", "115751.837500", "115753.327500", "115754.817500", "115756.307500", "115757.797500", "115759.287500", "115800.777500", "115802.267500", "115803.757500", "115805.247500", "115806.737500", "115808.227500", "115809.717500", "115811.207500", "115812.697500", "115814.187500", "115815.677500", "115817.167500", "115818.657500", "115820.147500", "115821.637500", "115823.127500", "115824.617500", "115826.107500", "115827.597500", "115829.087500", "115830.577500", "115832.067500", "115833.557500", "115835.047500", "115836.537500", "115838.027500", "115839.517500", "115841.007500", "115842.497500", "115843.987500", "115845.477500", "115846.967500", "115848.457500", "115849.947500", "115851.437500", "115852.927500", "115854.417500", "115855.907500", "115857.397500", "115858.887500", "115900.377500", "115901.867500", "115903.357500", "115904.847500", "115906.337500", "115907.827500", "115909.317500", "115910.807500", "115912.297500", "115913.787500", "115915.277500", "115916.767500", "115918.257500", "115919.747500", "115921.237500", "115922.727500", "115924.217500", "115925.707500", "115927.197500", "115928.687500", "115930.177500", "115931.667500", "115933.157500", "115934.647500", "115936.137500", "115937.627500", "115939.117500", "115940.607500", "115942.097500", "115943.587500", "115945.077500", "115946.567500", "115948.057500", "115949.547500", "115951.037500", "115952.527500", "115954.017500", "115955.507500", "115956.997500", "115958.487500", "115959.977500", "120001.467500", "120002.957500", "120004.447500", "120005.937500", "120007.427500", "120008.917500", "120010.407500", "120011.897500", "120013.387500", "120014.877500", "120016.367500", "120017.857500", "120019.347500", "120020.837500", "120022.327500", "120023.817500", "120025.307500", "120026.797500", "120028.287500", "120029.777500", "120031.267500", "120032.757500", "120034.247500", "120035.737500", "120037.227500", "120038.717500", "120040.207500", "120041.697500"],
      "ContentTime": ["115419.403000", "115419.407000", "115419.411000", "115419.414000", "115419.424000", "115419.427000", "115419.431000", "115419.434000", "115419.438000", "115419.441000", "115419.444000", "115419.448000", "115419.451000", "115419.455000", "115419.458000", "115419.461000", "115419.465000", "115419.468000", "115419.471000", "115419.475000", "115419.478000", "115419.482000", "115419.485000", "115439.367000", "115439.371000", "115439.374000", "115439.378000", "115439.381000", "115439.384000", "115439.388000", "115439.391000", "115439.395000", "115439.398000", "115439.402000", "115439.405000", "115439.408000", "115439.412000", "115439.415000", "115439.419000", "115439.422000", "115439.425000", "115439.429000", "115439.432000", "115459.369000", "115459.372000", "115459.376000", "115459.379000", "115459.383000", "115459.386000", "115459.389000", "115459.393000", "115459.396000", "115459.399000", "115459.403000", "115459.406000", "115459.410000", "115459.413000", "115459.416000", "115459.420000", "115459.423000", "115459.427000", "115459.430000", "115459.433000", "115519.368000", "115519.372000", "115519.375000", "115519.379000", "115519.382000", "115519.385000", "115519.389000", "115519.393000", "115519.398000", "115519.401000", "115519.405000", "115519.409000", "115519.413000", "115519.418000", "115519.422000", "115519.425000", "115519.430000", "115519.433000", "115519.437000", "115519.440000", "115539.383000", "115539.387000", "115539.390000", "115539.394000", "115539.397000", "115539.401000", "115539.404000", "115539.408000", "115539.411000", "115539.414000", "115539.418000", "115539.421000", "115539.425000", "115539.429000", "115539.432000", "115539.436000", "115539.439000", "115539.443000", "115539.446000", "115619.367000", "115619.371000", "115619.374000", "115619.378000", "115619.381000", "115619.385000", "115619.388000", "115619.391000", "115619.395000", "115619.398000", "115619.402000", "115619.405000", "115619.409000", "115619.412000", "115619.415000", "115619.419000", "115619.422000", "115619.426000", "115619.429000", "115619.432000", "115619.436000", "115619.439000", "115619.442000", "115619.446000", "115619.449000", "115619.453000", "115619.456000", "115659.367000", "115659.371000", "115659.374000", "115659.378000", "115659.381000", "115659.384000", "115659.388000", "115659.391000", "115659.395000", "115659.398000", "115659.402000", "115659.405000", "115659.409000", "115659.412000", "115659.415000", "115659.419000", "115659.422000", "115659.426000", "115659.429000", "115659.432000", "115659.436000", "115659.439000", "115659.443000", "115659.446000", "115659.450000", "115659.453000", "115659.457000", "115739.368000", "115739.372000", "115739.376000", "115739.379000", "115739.382000", "115739.386000", "115739.389000", "115739.393000", "115739.396000", "115739.400000", "115739.403000", "115739.406000", "115739.410000", "115739.413000", "115739.417000", "115739.420000", "115739.423000", "115739.427000", "115739.430000", "115739.434000", "115739.437000", "115739.441000", "115739.444000", "115739.447000", "115739.451000", "115739.454000", "115739.458000", "115819.367000", "115819.371000", "115819.374000", "115819.378000", "115819.381000", "115819.385000", "115819.388000", "115819.392000", "115819.395000", "115819.399000", "115819.402000", "115819.405000", "115819.409000", "115819.412000", "115819.416000", "115819.419000", "115819.422000", "115819.426000", "115819.429000", "115819.432000", "115819.436000", "115819.439000", "115819.443000", "115819.446000", "115819.449000", "115819.453000", "115819.456000", "115859.367000", "115859.371000", "115859.375000", "115859.378000", "115859.381000", "115859.385000", "115859.388000", "115859.392000", "115859.395000", "115859.399000", "115859.402000", "115859.406000", "115859.409000", "115859.413000", "115859.416000", "115859.419000", "115859.423000", "115859.427000", "115859.430000", "115859.433000", "115859.437000", "115859.440000", "115859.444000", "115859.447000", "115859.451000", "115859.454000", "115859.458000", "115939.368000", "115939.372000", "115939.375000", "115939.379000", "115939.383000", "115939.386000", "115939.389000", "115939.393000", "115939.396000", "115939.400000", "115939.403000", "115939.407000", "115939.410000", "115939.413000", "115939.417000", "115939.420000", "115939.424000", "115939.427000", "115939.431000", "115939.434000", "115939.438000", "115939.441000", "115939.444000", "115939.448000", "115939.452000", "115939.456000", "120019.367000", "120019.371000", "120019.374000", "120019.378000", "120019.381000", "120019.385000", "120019.388000", "120019.392000", "120019.395000", "120019.398000", "120019.402000", "120019.405000", "120019.409000", "120019.412000", "120019.415000", "120019.419000", "120019.422000", "120019.426000", "120019.443000", "120019.447000", "120019.450000", "120019.453000", "120019.457000", "120019.460000", "120019.463000", "120019.467000", "120019.470000", "120044.928000", "120044.932000", "120044.935000", "120044.939000", "120044.942000", "120044.946000", "120044.949000", "120044.952000", "120044.956000", "120044.960000", "120044.963000", "120044.967000", "120044.970000", "120044.973000", "120044.977000", "120044.980000", "120044.984000"],
      "InstanceCreationTime": ["115419.403000", "115419.407000", "115419.411000", "115419.414000", "115419.424000", "115419.427000", "115419.431000", "115419.434000", "115419.438000", "115419.441000", "115419.444000", "115419.448000", "115419.451000", "115419.455000", "115419.458000", "115419.461000", "115419.465000", "115419.468000", "115419.471000", "115419.475000", "115419.478000", "115419.482000", "115419.485000", "115439.367000", "115439.371000", "115439.374000", "115439.378000", "115439.381000", "115439.384000", "115439.388000", "115439.391000", "115439.395000", "115439.398000", "115439.402000", "115439.405000", "115439.408000", "115439.412000", "115439.415000", "115439.419000", "115439.422000", "115439.425000", "115439.429000", "115439.432000", "115459.369000", "115459.372000", "115459.376000", "115459.379000", "115459.383000", "115459.386000", "115459.389000", "115459.393000", "115459.396000", "115459.399000", "115459.403000", "115459.406000", "115459.410000", "115459.413000", "115459.416000", "115459.420000", "115459.423000", "115459.427000", "115459.430000", "115459.433000", "115519.368000", "115519.372000", "115519.375000", "115519.379000", "115519.382000", "115519.385000", "115519.389000", "115519.393000", "115519.398000", "115519.401000", "115519.405000", "115519.409000", "115519.413000", "115519.418000", "115519.422000", "115519.425000", "115519.430000", "115519.433000", "115519.437000", "115519.440000", "115539.383000", "115539.387000", "115539.390000", "115539.394000", "115539.397000", "115539.401000", "115539.404000", "115539.408000", "115539.411000", "115539.414000", "115539.418000", "115539.421000", "115539.425000", "115539.429000", "115539.432000", "115539.436000", "115539.439000", "115539.443000", "115539.446000", "115619.367000", "115619.371000", "115619.374000", "115619.378000", "115619.381000", "115619.385000", "115619.388000", "115619.391000", "115619.395000", "115619.398000", "115619.402000", "115619.405000", "115619.409000", "115619.412000", "115619.415000", "115619.419000", "115619.422000", "115619.426000", "115619.429000", "115619.432000", "115619.436000", "115619.439000", "115619.442000", "115619.446000", "115619.449000", "115619.453000", "115619.456000", "115659.367000", "115659.371000", "115659.374000", "115659.378000", "115659.381000", "115659.384000", "115659.388000", "115659.391000", "115659.395000", "115659.398000", "115659.402000", "115659.405000", "115659.409000", "115659.412000", "115659.415000", "115659.419000", "115659.422000", "115659.426000", "115659.429000", "115659.432000", "115659.436000", "115659.439000", "115659.443000", "115659.446000", "115659.450000", "115659.453000", "115659.457000", "115739.368000", "115739.372000", "115739.376000", "115739.379000", "115739.382000", "115739.386000", "115739.389000", "115739.393000", "115739.396000", "115739.400000", "115739.403000", "115739.406000", "115739.410000", "115739.413000", "115739.417000", "115739.420000", "115739.423000", "115739.427000", "115739.430000", "115739.434000", "115739.437000", "115739.441000", "115739.444000", "115739.447000", "115739.451000", "115739.454000", "115739.458000", "115819.367000", "115819.371000", "115819.374000", "115819.378000", "115819.381000", "115819.385000", "115819.388000", "115819.392000", "115819.395000", "115819.399000", "115819.402000", "115819.405000", "115819.409000", "115819.412000", "115819.416000", "115819.419000", "115819.422000", "115819.426000", "115819.429000", "115819.432000", "115819.436000", "115819.439000", "115819.443000", "115819.446000", "115819.449000", "115819.453000", "115819.456000", "115859.367000", "115859.371000", "115859.375000", "115859.378000", "115859.381000", "115859.385000", "115859.388000", "115859.392000", "115859.395000", "115859.399000", "115859.402000", "115859.406000", "115859.409000", "115859.413000", "115859.416000", "115859.419000", "115859.423000", "115859.427000", "115859.430000", "115859.433000", "115859.437000", "115859.440000", "115859.444000", "115859.447000", "115859.451000", "115859.454000", "115859.458000", "115939.368000", "115939.372000", "115939.375000", "115939.379000", "115939.383000", "115939.386000", "115939.389000", "115939.393000", "115939.396000", "115939.400000", "115939.403000", "115939.407000", "115939.410000", "115939.413000", "115939.417000", "115939.420000", "115939.424000", "115939.427000", "115939.431000", "115939.434000", "115939.438000", "115939.441000", "115939.444000", "115939.448000", "115939.452000", "115939.456000", "120019.367000", "120019.371000", "120019.374000", "120019.378000", "120019.381000", "120019.385000", "120019.388000", "120019.392000", "120019.395000", "120019.398000", "120019.402000", "120019.405000", "120019.409000", "120019.412000", "120019.415000", "120019.419000", "120019.422000", "120019.426000", "120019.443000", "120019.447000", "120019.450000", "120019.453000", "120019.457000", "120019.460000", "120019.463000", "120019.467000", "120019.470000", "120044.928000", "120044.932000", "120044.935000", "120044.939000", "120044.942000", "120044.946000", "120044.949000", "120044.952000", "120044.956000", "120044.960000", "120044.963000", "120044.967000", "120044.970000", "120044.973000", "120044.977000", "120044.980000", "120044.984000"],
      "InstanceNumber": [1, 2, 3, 4, 5, 6, 7, 8, 9, 10, 11, 12, 13, 14, 15, 16, 17, 18, 19, 20, 21, 22, 23, 24, 25, 26, 27, 28, 29, 30, 31, 32, 33, 34, 35, 36, 37, 38, 39, 40, 41, 42, 43, 44, 45, 46, 47, 48, 49, 50, 51, 52, 53, 54, 55, 56, 57, 58, 59, 60, 61, 62, 63, 64, 65, 66, 67, 68, 69, 70, 71, 72, 73, 74, 75, 76, 77, 78, 79, 80, 81, 82, 83, 84, 85, 86, 87, 88, 89, 90, 91, 92, 93, 94, 95, 96, 97, 98, 99, 100, 101, 102, 103, 104, 105, 106, 107, 108, 109, 110, 111, 112, 113, 114, 115, 116, 117, 118, 119, 120, 121, 122, 123, 124, 125, 126, 127, 128, 129, 130, 131, 132, 133, 134, 135, 136, 137, 138, 139, 140, 141, 142, 143, 144, 145, 146, 147, 148, 149, 150, 151, 152, 153, 154, 155, 156, 157, 158, 159, 160, 161, 162, 163, 164, 165, 166, 167, 168, 169, 170, 171, 172, 173, 174, 175, 176, 177, 178, 179, 180, 181, 182, 183, 184, 185, 186, 187, 188, 189, 190, 191, 192, 193, 194, 195, 196, 197, 198, 199, 200, 201, 202, 203, 204, 205, 206, 207, 208, 209, 210, 211, 212, 213, 214, 215, 216, 217, 218, 219, 220, 221, 222, 223, 224, 225, 226, 227, 228, 229, 230, 231, 232, 233, 234, 235, 236, 237, 238, 239, 240, 241, 242, 243, 244, 245, 246, 247, 248, 249, 250, 251, 252, 253, 254, 255, 256, 257, 258, 259, 260, 261, 262, 263, 264, 265, 266, 267, 268, 269, 270, 271, 272, 273, 274, 275, 276, 277, 278, 279, 280, 281, 282, 283, 284, 285, 286, 287, 288, 289, 290, 291, 292, 293, 294, 295, 296, 297, 298, 299, 300, 301, 302, 303, 304, 305, 306, 307],
      "LargestImagePixelValue": [47653, 46456, 47052, 46139, 45555, 45118, 45692, 45301, 45513, 44514, 44071, 43018, 42617, 43218, 41703, 41920, 41641, 41637, 41683, 41224, 41386, 41519, 41264, 41000, 41010, 40667, 40894, 40786, 40954, 40619, 41042, 41290, 41534, 41069, 41961, 41958, 42158, 42226, 41760, 42252, 42365, 42131, 41725, 41485, 41876, 42283, 42026, 42265, 42233, 41695, 41753, 43097, 42701, 41997, 41437, 41160, 40951, 41434, 41151, 41117, 40561, 41086, 41027, 41245, 40681, 41010, 41127, 40817, 40914, 40210, 40632, 40288, 40594, 41199, 40896, 41177, 42020, 41757, 42084, 41447, 41328, 42885, 41537, 41586, 41092, 41768, 41588, 41635, 40854, 41255, 41099, 41166, 40375, 41687, 41156, 41587, 40705, 40689, 40585, 41398, 40469, 41006, 40765, 42773, 41867, 40829, 41191, 41260, 41719, 41145, 41376, 42594, 42217, 42882, 43753, 43354, 43255, 42152, 41452, 41910, 40341, 41460, 41631, 41768, 41683, 40783, 41817, 41242, 40990, 41666, 41894, 42568, 42215, 43228, 42543, 43466, 43568, 44073, 44473, 43707, 45097, 44139, 45340, 44818, 44348, 42832, 43356, 42672, 43484, 44195, 43919, 44932, 43639, 43636, 43426, 42772, 43482, 41959, 42543, 42493, 42050, 42953, 43901, 44473, 43819, 43877, 43978, 43210, 45021, 43584, 43191, 42675, 42731, 41847, 42849, 42485, 42156, 42647, 43010, 42831, 40788, 42918, 42024, 41481, 41894, 42442, 41795, 41129, 41706, 41452, 42374, 40896, 41658, 42336, 43069, 44714, 43669, 50117, 45121, 42077, 42704, 44547, 44992, 43095, 42064, 42763, 42302, 41375, 40499, 42042, 40352, 40385, 40681, 41231, 38931, 38900, 40877, 39306, 39977, 41949, 41072, 41530, 41464, 41376, 40325, 42240, 42014, 42807, 41367, 41414, 40468, 40155, 40034, 39618, 38961, 39403, 39085, 40700, 39154, 38658, 38894, 39121, 40750, 38739, 40523, 39084, 41092, 40832, 39783, 41231, 40860, 40194, 40440, 40561, 40846, 39042, 39713, 38306, 39511, 39922, 38543, 40152, 39282, 39564, 40333, 39670, 40916, 39806, 42038, 42017, 42187, 41789, 41961, 42002, 41198, 42814, 41740, 42948, 42615, 41938, 42451, 42015, 42097, 41943, 41447, 42159, 41456, 42246, 41355, 42792, 39982, 39810, 40253, 41392, 41074, 40064, 40794, 40752, 40161, 39168, 39428, 39475, 39137, 38502, 38895, 38730, 38584],
      "WindowCenter": [10462.0, 10408.0, 10412.0, 10411.0, 10406.0, 10397.0, 10418.0, 10413.0, 10423.0, 10403.0, 10393.0, 10374.0, 10373.0, 10394.0, 10391.0, 10413.0, 10400.0, 10391.0, 10373.0, 10356.0, 10355.0, 10364.0, 10390.0, 10396.0, 10387.0, 10378.0, 10368.0, 10368.0, 10364.0, 10367.0, 10369.0, 10380.0, 10384.0, 10392.0, 10389.0, 10388.0, 10376.0, 10364.0, 10379.0, 10394.0, 10403.0, 10396.0, 10390.0, 10385.0, 10380.0, 10393.0, 10382.0, 10378.0, 10388.0, 10376.0, 10358.0, 10380.0, 10353.0, 10335.0, 10320.0, 10332.0, 10356.0, 10363.0, 10362.0, 10347.0, 10341.0, 10352.0, 10362.0, 10368.0, 10382.0, 10375.0, 10374.0, 10357.0, 10362.0, 10341.0, 10356.0, 10359.0, 10349.0, 10360.0, 10341.0, 10334.0, 10358.0, 10361.0, 10378.0, 10359.0, 10350.0, 10359.0, 10365.0, 10373.0, 10362.0, 10377.0, 10367.0, 10373.0, 10352.0, 10359.0, 10363.0, 10359.0, 10359.0, 10367.0, 10385.0, 10380.0, 10358.0, 10355.0, 10348.0, 10342.0, 10338.0, 10351.0, 10350.0, 10361.0, 10344.0, 10342.0, 10360.0, 10356.0, 10345.0, 10345.0, 10345.0, 10344.0, 10352.0, 10358.0, 10360.0, 10356.0, 10353.0, 10360.0, 10376.0, 10386.0, 10357.0, 10365.0, 10340.0, 10349.0, 10359.0, 10358.0, 10378.0, 10365.0, 10339.0, 10348.0, 10346.0, 10360.0, 10363.0, 10372.0, 10361.0, 10369.0, 10370.0, 10378.0, 10384.0, 10379.0, 10382.0, 10373.0, 10369.0, 10359.0, 10356.0, 10361.0, 10373.0, 10384.0, 10402.0, 10380.0, 10369.0, 10355.0, 10352.0, 10368.0, 10371.0, 10378.0, 10380.0, 10373.0, 10368.0, 10369.0, 10371.0, 10366.0, 10376.0, 10372.0, 10364.0, 10344.0, 10340.0, 10337.0, 10352.0, 10351.0, 10345.0, 10340.0, 10355.0, 10328.0, 10323.0, 10326.0, 10336.0, 10353.0, 10355.0, 10343.0, 10308.0, 10322.0, 10317.0, 10322.0, 10360.0, 10377.0, 10371.0, 10339.0, 10326.0, 10324.0, 10328.0, 10352.0, 10346.0, 10379.0, 10384.0, 10381.0, 10378.0, 10437.0, 10392.0, 10362.0, 10360.0, 10375.0, 10357.0, 10314.0, 10310.0, 10331.0, 10327.0, 10322.0, 10303.0, 10304.0, 10284.0, 10281.0, 10287.0, 10302.0, 10307.0, 10309.0, 10325.0, 10308.0, 10315.0, 10335.0, 10332.0, 10370.0, 10376.0, 10372.0, 10335.0, 10315.0, 10341.0, 10326.0, 10337.0, 10333.0, 10303.0, 10292.0, 10279.0, 10273.0, 10276.0, 10282.0, 10287.0, 10295.0, 10286.0, 10279.0, 10295.0, 10288.0, 10320.0, 10317.0, 10345.0, 10321.0, 10332.0, 10323.0, 10286.0, 10298.0, 10309.0, 10316.0, 10343.0, 10353.0, 10353.0, 10327.0, 10314.0, 10310.0, 10312.0, 10338.0, 10314.0, 10321.0, 10309.0, 10299.0, 10313.0, 10299.0, 10316.0, 10307.0, 10328.0, 10323.0, 10320.0, 10330.0, 10321.0, 10322.0, 10308.0, 10322.0, 10323.0, 10338.0, 10351.0, 10333.0, 10343.0, 10324.0, 10326.0, 10327.0, 10323.0, 10356.0, 10351.0, 10356.0, 10336.0, 10341.0, 10318.0, 10322.0, 10324.0, 10348.0, 10324.0, 10293.0, 10292.0, 10303.0, 10307.0, 10285.0, 10279.0, 10290.0, 10275.0, 10248.0, 10261.0, 10273.0, 10274.0],
