{
  "AcquisitionMatrixPE": 104,
  "AcquisitionNumber": 1,
  "AcquisitionTime": "14:19:1.915000",
  "BandwidthPerPixelPhaseEncode": 17.17,
  "BaseResolution": 104,
  "BodyPartExamined": "BRAIN",
  "CoilCombinationMethod": "Sum of Squares",
  "ConsistencyInfo": "N4_VE11C_LATEST_20160120",
  "ConversionSoftware": "dcm2niix",
  "ConversionSoftwareVersion": "v1.0.20220505",
  "DerivedVendorReportedEchoSpacing": 0.000560011,
  "DeviceSerialNumber": "167006",
  "DwellTime": 2.1e-06,
  "EchoTime": 0.037,
  "EchoTrainLength": 104,
  "EffectiveEchoSpacing": 0.000560011,
  "FlipAngle": 52,
  "HeudiconvVersion": "0.5.3.post811+g6206e14",
  "ImageComments": "Unaliased MB4/PE3/LB",
  "ImageOrientationPatientDICOM": [0.99992, 0.0059029, 0.0111662, -0.00296681, 0.969104, -0.246634],
  "ImageOrientationText": "Tra>Cor(-14.3)>Sag(0.7)",
  "ImageType": [
    "ORIGINAL",
    "PRIMARY",
    "M",
    "MB",
    "ND",
    "MOSAIC"
],
  "ImagingFrequency": 123.26,
  "InPlanePhaseEncodingDirectionDICOM": "COL",
  "InstitutionAddress": "Chemin Queen-Mary 4565,Montreal,District,CA,H3W 1W5",
  "InstitutionName": "IUGM",
  "InstitutionalDepartmentName": "Department",
  "MRAcquisitionType": "2D",
  "MagneticFieldStrength": 3,
  "Manufacturer": "Siemens",
  "ManufacturersModelName": "Prisma_fit",
  "MatrixCoilMode": "SENSE",
  "Modality": "MR",
  "MultibandAccelerationFactor": 4,
  "PartialFourier": 1,
  "PatientPosition": "HFS",
  "PercentPhaseFOV": 100,
  "PercentSampling": 100,
  "PhaseEncodingDirection": "j",
  "PhaseEncodingSteps": 104,
  "PhaseResolution": 1,
  "PixelBandwidth": 2290,
  "ProcedureStepDescription": "games^mario3",
  "ProtocolName": "func_task-mario3_run-04",
  "PulseSequenceDetails": "%CustomerSeq%\\cmrr_mbep2d_bold",
  "ReceiveCoilActiveElements": "HC1-7;NC1,2",
  "ReceiveCoilName": "HeadNeck_64",
  "ReconMatrixPE": 104,
  "RepetitionTime": 1.49,
  "SAR": 0.0711433,
  "ScanOptions": "FS",
  "ScanningSequence": "EP",
  "SequenceName": "epfid2d1_104",
  "SequenceVariant": "SK\\SS",
  "SeriesDescription": "func_task-mario3_run-04",
  "SeriesNumber": 19,
  "ShimSetting": [616, -7224, -8757, 695, 52, -3, 29, -25],
  "SliceThickness": 2,
  "SliceTiming": [0, 0.7825, 0.0975, 0.88, 0.195, 0.98, 0.2925, 1.0775, 0.39, 1.175, 0.49, 1.2725, 0.5875, 1.37, 0.685, 0, 0.7825, 0.0975, 0.88, 0.195, 0.98, 0.2925, 1.0775, 0.39, 1.175, 0.49, 1.2725, 0.5875, 1.37, 0.685, 0, 0.7825, 0.0975, 0.88, 0.195, 0.98, 0.2925, 1.0775, 0.39, 1.175, 0.49, 1.2725, 0.5875, 1.37, 0.685, 0, 0.7825, 0.0975, 0.88, 0.195, 0.98, 0.2925, 1.0775, 0.39, 1.175, 0.49, 1.2725, 0.5875, 1.37, 0.685],
  "SoftwareVersions": "syngo MR E11",
  "SpacingBetweenSlices": 2,
  "StationName": "MRC35049",
  "TaskName": "mario3",
  "TotalReadoutTime": 0.0576811,
  "TxRefAmp": 262.346,
  "WipMemBlock": "08ccd776-715a-4325-89ac-428182ae3724||Sequence: R017 ve11c/master r/75a17815+; Jun 28 2022 16:32:11 by eja",
  "dcmmeta_affine": [
    [-1.999840497970581, -0.005933612119406462, 0.024554096162319183, 108.77191925048828],
    [-0.011805800721049309, 1.9382084608078003, -0.493161678314209, -74.79946899414062],
    [0.022332364693284035, 0.4932672679424286, 1.9380888938903809, -53.7884521484375],
    [0.0, 0.0, 0.0, 1.0]
],
  "dcmmeta_reorient_transform": [
    [0.0, -1.0, 0.0, 103.0],
    [1.0, 0.0, 0.0, 0.0],
    [0.0, 0.0, 1.0, 0.0],
    [0.0, 0.0, 0.0, 1.0]
],
  "dcmmeta_shape": [104, 104, 60, 487],
  "dcmmeta_slice_dim": 2,
  "dcmmeta_version": 0.6,
  "global": {
    "const": {
      "AcquisitionMatrix": [104, 0, 0, 104],
      "AngioFlag": "N",
      "BitsAllocated": 16,
      "BitsStored": 16,
      "BodyPartExamined": "BRAIN",
      "Columns": 832,
      "EchoNumbers": 1,
      "EchoTime": 37.0,
      "EchoTrainLength": 104,
      "FlipAngle": 52.0,
      "HighBit": 15,
      "ImageOrientationPatient": [0.99992023289195, 0.00590290013589, 0.01116618212697, -0.0029668060989, 0.96910424881603, -0.2466336412339],
      "ImagePositionPatient": [-833.9428516663, -834.6412087007, 168.43838688395],
      "ImageType": [
        "ORIGINAL",
        "PRIMARY",
        "M",
        "MB",
        "ND",
        "MOSAIC"
],
      "ImagedNucleus": "1H",
      "ImagingFrequency": 123.260267,
      "InPlanePhaseEncodingDirection": "COL",
      "MRAcquisitionType": "2D",
      "MagneticFieldStrength": 3.0,
      "Manufacturer": "SIEMENS",
      "ManufacturerModelName": "Prisma_fit",
      "Modality": "MR",
      "NumberOfAverages": 1.0,
      "NumberOfPhaseEncodingSteps": 104,
      "PercentPhaseFieldOfView": 100.0,
      "PercentSampling": 100.0,
      "PerformedProcedureStepStartTime": "135021.407000",
      "PhotometricInterpretation": "MONOCHROME2",
      "PixelBandwidth": 2290.0,
      "PixelRepresentation": 0,
      "PixelSpacing": [2.0, 2.0],
      "ProtocolName": "func_task-mario3_run-04",
      "RepetitionTime": 1490.0,
      "Rows": 832,
      "SAR": 0.07114325490746,
      "SamplesPerPixel": 1,
      "ScanOptions": "FS",
      "ScanningSequence": "EP",
      "SequenceName": "epfid2d1_104",
      "SequenceVariant": [
        "SK",
        "SS"
],
      "SeriesDescription": "func_task-mario3_run-04",
      "SeriesNumber": 19,
      "SeriesTime": "142026.507000",
      "SliceLocation": -32.34388826241,
      "SliceThickness": 2.0,
      "SmallestImagePixelValue": 0,
      "SoftwareVersions": "syngo MR E11",
      "SpacingBetweenSlices": 2.0000000351483,
      "SpecificCharacterSet": "ISO_IR 100",
      "StudyID": "1",
      "StudyTime": "135021.338000",
      "TransmitCoilName": "Body",
      "VariableFlipAngleFlag": "N",
      "WindowCenterWidthExplanation": "Algo1",
      "dBdt": 0.0},
    "slices": {}
  },
  "time": {
    "samples": {
      "AcquisitionNumber": [1, 2, 3, 4, 5, 6, 7, 8, 9, 10, 11, 12, 13, 14, 15, 16, 17, 18, 19, 20, 21, 22, 23, 24, 25, 26, 27, 28, 29, 30, 31, 32, 33, 34, 35, 36, 37, 38, 39, 40, 41, 42, 43, 44, 45, 46, 47, 48, 49, 50, 51, 52, 53, 54, 55, 56, 57, 58, 59, 60, 61, 62, 63, 64, 65, 66, 67, 68, 69, 70, 71, 72, 73, 74, 75, 76, 77, 78, 79, 80, 81, 82, 83, 84, 85, 86, 87, 88, 89, 90, 91, 92, 93, 94, 95, 96, 97, 98, 99, 100, 101, 102, 103, 104, 105, 106, 107, 108, 109, 110, 111, 112, 113, 114, 115, 116, 117, 118, 119, 120, 121, 122, 123, 124, 125, 126, 127, 128, 129, 130, 131, 132, 133, 134, 135, 136, 137, 138, 139, 140, 141, 142, 143, 144, 145, 146, 147, 148, 149, 150, 151, 152, 153, 154, 155, 156, 157, 158, 159, 160, 161, 162, 163, 164, 165, 166, 167, 168, 169, 170, 171, 172, 173, 174, 175, 176, 177, 178, 179, 180, 181, 182, 183, 184, 185, 186, 187, 188, 189, 190, 191, 192, 193, 194, 195, 196, 197, 198, 199, 200, 201, 202, 203, 204, 205, 206, 207, 208, 209, 210, 211, 212, 213, 214, 215, 216, 217, 218, 219, 220, 221, 222, 223, 224, 225, 226, 227, 228, 229, 230, 231, 232, 233, 234, 235, 236, 237, 238, 239, 240, 241, 242, 243, 244, 245, 246, 247, 248, 249, 250, 251, 252, 253, 254, 255, 256, 257, 258, 259, 260, 261, 262, 263, 264, 265, 266, 267, 268, 269, 270, 271, 272, 273, 274, 275, 276, 277, 278, 279, 280, 281, 282, 283, 284, 285, 286, 287, 288, 289, 290, 291, 292, 293, 294, 295, 296, 297, 298, 299, 300, 301, 302, 303, 304, 305, 306, 307, 308, 309, 310, 311, 312, 313, 314, 315, 316, 317, 318, 319, 320, 321, 322, 323, 324, 325, 326, 327, 328, 329, 330, 331, 332, 333, 334, 335, 336, 337, 338, 339, 340, 341, 342, 343, 344, 345, 346, 347, 348, 349, 350, 351, 352, 353, 354, 355, 356, 357, 358, 359, 360, 361, 362, 363, 364, 365, 366, 367, 368, 369, 370, 371, 372, 373, 374, 375, 376, 377, 378, 379, 380, 381, 382, 383, 384, 385, 386, 387, 388, 389, 390, 391, 392, 393, 394, 395, 396, 397, 398, 399, 400, 401, 402, 403, 404, 405, 406, 407, 408, 409, 410, 411, 412, 413, 414, 415, 416, 417, 418, 419, 420, 421, 422, 423, 424, 425, 426, 427, 428, 429, 430, 431, 432, 433, 434, 435, 436, 437, 438, 439, 440, 441, 442, 443, 444, 445, 446, 447, 448, 449, 450, 451, 452, 453, 454, 455, 456, 457, 458, 459, 460, 461, 462, 463, 464, 465, 466, 467, 468, 469, 470, 471, 472, 473, 474, 475, 476, 477, 478, 479, 480, 481, 482, 483, 484, 485, 486, 487],
      "AcquisitionTime": ["141901.915000", "141903.405000", "141904.895000", "141906.385000", "141907.875000", "141909.365000", "141910.855000", "141912.345000", "141913.835000", "141915.325000", "141916.815000", "141918.305000", "141919.795000", "141921.285000", "141922.775000", "141924.265000", "141925.755000", "141927.245000", "141928.735000", "141930.225000", "141931.715000", "141933.205000", "141934.695000", "141936.185000", "141937.675000", "141939.165000", "141940.655000", "141942.145000", "141943.635000", "141945.125000", "141946.615000", "141948.105000", "141949.595000", "141951.085000", "141952.575000", "141954.065000", "141955.555000", "141957.045000", "141958.535000", "142000.025000", "142001.515000", "142003.005000", "142004.495000", "142005.985000", "142007.475000", "142008.965000", "142010.455000", "142011.945000", "142013.435000", "142014.925000", "142016.415000", "142017.905000", "142019.395000", "142020.885000", "142022.375000", "142023.865000", "142025.355000", "142026.845000", "142028.335000", "142029.825000", "142031.315000", "142032.805000", "142034.295000", "142035.785000", "142037.275000", "142038.765000", "142040.255000", "142041.745000", "142043.235000", "142044.725000", "142046.215000", "142047.705000", "142049.195000", "142050.685000", "142052.175000", "142053.665000", "142055.155000", "142056.645000", "142058.135000", "142059.625000", "142101.115000", "142102.605000", "142104.095000", "142105.585000", "142107.075000", "142108.565000", "142110.055000", "142111.545000", "142113.035000", "142114.525000", "142116.015000", "142117.505000", "142118.995000", "142120.485000", "142121.975000", "142123.465000", "142124.955000", "142126.445000", "142127.935000", "142129.425000", "142130.915000", "142132.405000", "142133.895000", "142135.385000", "142136.875000", "142138.365000", "142139.855000", "142141.345000", "142142.835000", "142144.325000", "142145.815000", "142147.305000", "142148.795000", "142150.285000", "142151.775000", "142153.265000", "142154.755000", "142156.245000", "142157.735000", "142159.225000", "142200.715000", "142202.205000", "142203.695000", "142205.185000", "142206.675000", "142208.165000", "142209.655000", "142211.145000", "142212.635000", "142214.125000", "142215.615000", "142217.105000", "142218.595000", "142220.085000", "142221.575000", "142223.065000", "142224.555000", "142226.045000", "142227.535000", "142229.025000", "142230.515000", "142232.005000", "142233.495000", "142234.985000", "142236.475000", "142237.965000", "142239.455000", "142240.945000", "142242.435000", "142243.925000", "142245.415000", "142246.905000", "142248.395000", "142249.885000", "142251.375000", "142252.865000", "142254.355000", "142255.845000", "142257.335000", "142258.825000", "142300.315000", "142301.805000", "142303.295000", "142304.785000", "142306.275000", "142307.765000", "142309.255000", "142310.745000", "142312.235000", "142313.725000", "142315.215000", "142316.705000", "142318.195000", "142319.685000", "142321.175000", "142322.665000", "142324.155000", "142325.645000", "142327.135000", "142328.625000", "142330.115000", "142331.605000", "142333.095000", "142334.585000", "142336.075000", "142337.565000", "142339.055000", "142340.545000", "142342.035000", "142343.525000", "142345.015000", "142346.505000", "142347.995000", "142349.485000", "142350.975000", "142352.465000", "142353.955000", "142355.445000", "142356.935000", "142358.425000", "142359.915000", "142401.405000", "142402.895000", "142404.385000", "142405.875000", "142407.365000", "142408.855000", "142410.345000", "142411.835000", "142413.325000", "142414.815000", "142416.305000", "142417.795000", "142419.285000", "142420.775000", "142422.265000", "142423.755000", "142425.245000", "142426.735000", "142428.225000", "142429.715000", "142431.205000", "142432.695000", "142434.185000", "142435.675000", "142437.165000", "142438.655000", "142440.145000", "142441.635000", "142443.125000", "142444.615000", "142446.105000", "142447.595000", "142449.085000", "142450.575000", "142452.065000", "142453.555000", "142455.045000", "142456.535000", "142458.025000", "142459.515000", "142501.005000", "142502.495000", "142503.985000", "142505.475000", "142506.965000", "142508.455000", "142509.945000", "142511.435000", "142512.925000", "142514.415000", "142515.905000", "142517.395000", "142518.885000", "142520.375000", "142521.865000", "142523.355000", "142524.845000", "142526.335000", "142527.825000", "142529.315000", "142530.805000", "142532.295000", "142533.785000", "142535.275000", "142536.765000", "142538.255000", "142539.745000", "142541.235000", "142542.725000", "142544.215000", "142545.705000", "142547.195000", "142548.685000", "142550.175000", "142551.665000", "142553.155000", "142554.645000", "142556.135000", "142557.625000", "142559.115000", "142600.605000", "142602.095000", "142603.585000", "142605.075000", "142606.565000", "142608.055000", "142609.545000", "142611.035000", "142612.525000", "142614.015000", "142615.505000", "142616.995000", "142618.485000", "142619.975000", "142621.465000", "142622.955000", "142624.445000", "142625.935000", "142627.425000", "142628.915000", "142630.405000", "142631.895000", "142633.385000", "142634.875000", "142636.365000", "142637.855000", "142639.345000", "142640.835000", "142642.325000", "142643.815000", "142645.305000", "142646.795000", "142648.285000", "142649.775000", "142651.265000", "142652.755000", "142654.245000", "142655.735000", "142657.225000", "142658.715000", "142700.205000", "142701.695000", "142703.185000", "142704.675000", "142706.165000", "142707.655000", "142709.145000", "142710.635000", "142712.125000", "142713.615000", "142715.105000", "142716.595000", "142718.085000", "142719.575000", "142721.065000", "142722.555000", "142724.045000", "142725.535000", "142727.025000", "142728.515000", "142730.005000", "142731.495000", "142732.985000", "142734.475000", "142735.965000", "142737.455000", "142738.945000", "142740.435000", "142741.925000", "142743.415000", "142744.905000", "142746.395000", "142747.885000", "142749.375000", "142750.865000", "142752.355000", "142753.845000", "142755.335000", "142756.825000", "142758.315000", "142759.805000", "142801.295000", "142802.785000", "142804.275000", "142805.765000", "142807.255000", "142808.745000", "142810.235000", "142811.725000", "142813.215000", "142814.705000", "142816.195000", "142817.685000", "142819.175000", "142820.665000", "142822.155000", "142823.645000", "142825.135000", "142826.625000", "142828.115000", "142829.605000", "142831.095000", "142832.585000", "142834.075000", "142835.565000", "142837.055000", "142838.545000", "142840.035000", "142841.525000", "142843.015000", "142844.505000", "142845.995000", "142847.485000", "142848.975000", "142850.465000", "142851.955000", "142853.445000", "142854.935000", "142856.425000", "142857.915000", "142859.405000", "142900.895000", "142902.385000", "142903.875000", "142905.365000", "142906.855000", "142908.345000", "142909.835000", "142911.325000", "142912.815000", "142914.305000", "142915.795000", "142917.285000", "142918.775000", "142920.265000", "142921.755000", "142923.245000", "142924.735000", "142926.225000", "142927.715000", "142929.205000", "142930.695000", "142932.185000", "142933.675000", "142935.165000", "142936.655000", "142938.145000", "142939.635000", "142941.125000", "142942.615000", "142944.105000", "142945.595000", "142947.085000", "142948.575000", "142950.065000", "142951.555000", "142953.045000", "142954.535000", "142956.025000", "142957.515000", "142959.005000", "143000.495000", "143001.985000", "143003.475000", "143004.965000", "143006.455000", "143007.945000", "143009.435000", "143010.925000", "143012.415000", "143013.905000", "143015.395000", "143016.885000", "143018.375000", "143019.865000", "143021.355000", "143022.845000", "143024.335000", "143025.825000", "143027.315000", "143028.805000", "143030.295000", "143031.785000", "143033.275000", "143034.765000", "143036.255000", "143037.745000", "143039.235000", "143040.725000", "143042.215000", "143043.705000", "143045.195000", "143046.685000", "143048.175000", "143049.665000", "143051.155000", "143052.645000", "143054.135000", "143055.625000", "143057.115000", "143058.605000", "143100.095000", "143101.585000", "143103.075000", "143104.565000", "143106.055000"],
      "ContentTime": ["142026.510000", "142026.514000", "142026.517000", "142026.521000", "142026.524000", "142026.527000", "142026.530000", "142026.534000", "142026.537000", "142026.540000", "142026.543000", "142026.547000", "142026.550000", "142026.553000", "142026.557000", "142026.560000", "142026.563000", "142026.566000", "142026.570000", "142026.573000", "142026.576000", "142026.579000", "142026.583000", "142026.586000", "142026.589000", "142026.592000", "142026.596000", "142026.606000", "142026.609000", "142026.613000", "142026.616000", "142026.619000", "142026.622000", "142026.626000", "142026.629000", "142026.632000", "142046.480000", "142046.484000", "142046.487000", "142046.490000", "142046.493000", "142046.497000", "142046.500000", "142046.503000", "142046.506000", "142046.516000", "142046.520000", "142046.523000", "142046.526000", "142046.529000", "142046.533000", "142046.536000", "142046.539000", "142046.543000", "142046.546000", "142046.549000", "142106.480000", "142106.484000", "142106.487000", "142106.490000", "142106.493000", "142106.497000", "142106.500000", "142106.503000", "142106.506000", "142106.510000", "142106.513000", "142106.516000", "142106.520000", "142106.523000", "142106.527000", "142106.531000", "142106.535000", "142106.538000", "142106.542000", "142106.545000", "142126.480000", "142126.484000", "142126.488000", "142126.492000", "142126.496000", "142126.499000", "142126.502000", "142126.506000", "142126.509000", "142126.513000", "142126.516000", "142126.519000", "142126.523000", "142126.526000", "142126.529000", "142126.533000", "142126.536000", "142126.539000", "142126.543000", "142126.546000", "142206.480000", "142206.484000", "142206.487000", "142206.491000", "142206.500000", "142206.504000", "142206.507000", "142206.510000", "142206.518000", "142206.521000", "142206.524000", "142206.527000", "142206.531000", "142206.534000", "142206.537000", "142206.541000", "142206.544000", "142206.547000", "142206.551000", "142206.554000", "142206.557000", "142206.561000", "142206.564000", "142206.567000", "142206.570000", "142206.574000", "142206.577000", "142246.480000", "142246.484000", "142246.487000", "142246.490000", "142246.494000", "142246.497000", "142246.500000", "142246.504000", "142246.507000", "142246.510000", "142246.514000", "142246.517000", "142246.520000", "142246.524000", "142246.541000", "142246.544000", "142246.547000", "142246.551000", "142246.554000", "142246.557000", "142246.560000", "142246.564000", "142246.567000", "142246.570000", "142246.574000", "142246.577000", "142246.580000", "142326.480000", "142326.484000", "142326.487000", "142326.490000", "142326.494000", "142326.497000", "142326.500000", "142326.504000", "142326.507000", "142326.510000", "142326.514000", "142326.517000", "142326.520000", "142326.523000", "142326.527000", "142326.530000", "142326.533000", "142326.537000", "142326.540000", "142326.543000", "142326.547000", "142326.550000", "142326.553000", "142326.557000", "142326.560000", "142326.563000", "142326.567000", "142346.480000", "142346.484000", "142346.487000", "142346.490000", "142346.494000", "142346.497000", "142346.500000", "142346.504000", "142346.507000", "142346.510000", "142346.513000", "142346.517000", "142346.520000", "142426.480000", "142426.484000", "142426.487000", "142426.491000", "142426.494000", "142426.498000", "142426.501000", "142426.504000", "142426.507000", "142426.511000", "142426.514000", "142426.517000", "142426.521000", "142426.524000", "142426.527000", "142426.531000", "142426.534000", "142426.537000", "142426.541000", "142426.544000", "142426.547000", "142426.551000", "142426.554000", "142426.557000", "142426.560000", "142426.564000", "142426.567000", "142506.480000", "142506.484000", "142506.487000", "142506.491000", "142506.494000", "142506.498000", "142506.501000", "142506.505000", "142506.508000", "142506.512000", "142506.515000", "142506.518000", "142506.522000", "142506.525000", "142506.528000", "142506.532000", "142506.535000", "142506.538000", "142506.551000", "142506.555000", "142506.558000", "142506.562000", "142506.565000", "142506.568000", "142506.572000", "142506.575000", "142506.578000", "142546.480000", "142546.484000", "142546.487000", "142546.491000", "142546.494000", "142546.497000", "142546.500000", "142546.504000", "142546.507000", "142546.510000", "142546.514000", "142546.517000", "142546.521000", "142546.524000", "142546.527000", "142546.530000", "142546.534000", "142546.537000", "142546.540000", "142546.544000", "142546.547000", "142546.550000", "142546.554000", "142546.557000", "142546.560000", "142546.563000", "142546.567000", "142626.480000", "142626.484000", "142626.487000", "142626.491000", "142626.494000", "142626.497000", "142626.501000", "142626.504000", "142626.507000", "142626.511000", "142626.514000", "142626.517000", "142626.521000", "142626.524000", "142626.527000", "142626.531000", "142626.534000", "142626.538000", "142626.541000", "142626.544000", "142626.547000", "142626.551000", "142626.554000", "142626.557000", "142626.561000", "142626.564000", "142626.567000", "142706.480000", "142706.484000", "142706.487000", "142706.491000", "142706.494000", "142706.498000", "142706.501000", "142706.505000", "142706.508000", "142706.511000", "142706.514000", "142706.518000", "142706.521000", "142706.524000", "142706.528000", "142706.531000", "142706.535000", "142706.538000", "142706.541000", "142706.544000", "142706.548000", "142706.551000", "142706.554000", "142706.558000", "142706.561000", "142706.564000", "142706.567000", "142746.480000", "142746.484000", "142746.487000", "142746.491000", "142746.494000", "142746.498000", "142746.501000", "142746.504000", "142746.508000", "142746.511000", "142746.514000", "142746.518000", "142746.521000", "142746.524000", "142746.528000", "142746.531000", "142746.534000", "142746.538000", "142746.541000", "142746.544000", "142746.548000", "142746.553000", "142746.556000", "142746.561000", "142746.566000", "142746.570000", "142826.480000", "142826.484000", "142826.488000", "142826.491000", "142826.494000", "142826.498000", "142826.501000", "142826.504000", "142826.508000", "142826.511000", "142826.514000", "142826.517000", "142826.521000", "142826.526000", "142826.529000", "142826.533000", "142826.536000", "142826.539000", "142826.543000", "142826.546000", "142826.549000", "142826.553000", "142826.556000", "142826.559000", "142826.563000", "142826.566000", "142826.570000", "142906.480000", "142906.484000", "142906.487000", "142906.491000", "142906.494000", "142906.497000", "142906.501000", "142906.504000", "142906.507000", "142906.511000", "142906.514000", "142906.517000", "142906.521000", "142906.524000", "142906.527000", "142906.531000", "142906.534000", "142906.537000", "142906.540000", "142906.544000", "142906.547000", "142906.550000", "142906.553000", "142906.557000", "142906.560000", "142906.563000", "142906.567000", "142946.480000", "142946.484000", "142946.487000", "142946.491000", "142946.494000", "142946.497000", "142946.501000", "142946.504000", "142946.507000", "142946.511000", "142946.514000", "142946.518000", "142946.535000", "142946.539000", "142946.543000", "142946.546000", "142946.549000", "142946.553000", "142946.556000", "142946.560000", "142946.563000", "142946.566000", "142946.570000", "142946.573000", "142946.576000", "142946.580000", "142946.583000", "143026.480000", "143026.484000", "143026.487000", "143026.491000", "143026.494000", "143026.497000", "143026.500000", "143026.504000", "143026.508000", "143026.511000", "143026.514000", "143026.518000", "143026.528000", "143026.531000", "143026.535000", "143026.538000", "143026.541000", "143026.545000", "143026.548000", "143026.551000", "143026.556000", "143026.559000", "143026.562000", "143026.566000", "143026.569000", "143026.572000", "143026.576000", "143106.480000", "143106.484000", "143106.487000", "143106.491000", "143106.494000", "143106.498000", "143106.501000", "143106.504000", "143106.507000", "143106.511000", "143106.514000", "143106.517000", "143106.521000", "143106.524000", "143106.527000", "143106.531000", "143106.534000", "143106.537000", "143106.541000", "143106.544000", "143106.547000", "143106.551000", "143106.554000", "143106.557000", "143106.561000", "143106.564000", "143106.567000", "143108.419000"],
