{
  "AcquisitionMatrixPE": 104,
  "AcquisitionNumber": 1,
  "AcquisitionTime": "13:53:20.670000",
  "BandwidthPerPixelPhaseEncode": 17.17,
  "BaseResolution": 104,
  "BodyPartExamined": "BRAIN",
  "CoilCombinationMethod": "Sum of Squares",
  "ConsistencyInfo": "N4_VE11C_LATEST_20160120",
  "ConversionSoftware": "dcm2niix",
  "ConversionSoftwareVersion": "v1.0.20220505",
  "DerivedVendorReportedEchoSpacing": 0.000560011,
  "DeviceSerialNumber": "167006",
  "DwellTime": 2.1e-06,
  "EchoTime": 0.037,
  "EchoTrainLength": 104,
  "EffectiveEchoSpacing": 0.000560011,
  "FlipAngle": 52,
  "HeudiconvVersion": "0.5.3.post811+g6206e14",
  "ImageComments": "Unaliased MB4/PE3/LB",
  "ImageOrientationPatientDICOM": [0.99992, 0.0059029, 0.0111662, -0.00296681, 0.969104, -0.246634],
  "ImageOrientationText": "Tra>Cor(-14.3)>Sag(0.7)",
  "ImageType": [
    "ORIGINAL",
    "PRIMARY",
    "M",
    "MB",
    "ND",
    "MOSAIC"
],
  "ImagingFrequency": 123.26,
  "InPlanePhaseEncodingDirectionDICOM": "COL",
  "InstitutionAddress": "Chemin Queen-Mary 4565,Montreal,District,CA,H3W 1W5",
  "InstitutionName": "IUGM",
  "InstitutionalDepartmentName": "Department",
  "MRAcquisitionType": "2D",
  "MagneticFieldStrength": 3,
  "Manufacturer": "Siemens",
  "ManufacturersModelName": "Prisma_fit",
  "MatrixCoilMode": "SENSE",
  "Modality": "MR",
  "MultibandAccelerationFactor": 4,
  "PartialFourier": 1,
  "PatientPosition": "HFS",
  "PercentPhaseFOV": 100,
  "PercentSampling": 100,
  "PhaseEncodingDirection": "j",
  "PhaseEncodingSteps": 104,
  "PhaseResolution": 1,
  "PixelBandwidth": 2290,
  "ProcedureStepDescription": "games^mario3",
  "ProtocolName": "func_task-mario3_run-01",
  "PulseSequenceDetails": "%CustomerSeq%\\cmrr_mbep2d_bold",
  "ReceiveCoilActiveElements": "HC1-7;NC1,2",
  "ReceiveCoilName": "HeadNeck_64",
  "ReconMatrixPE": 104,
  "RepetitionTime": 1.49,
  "SAR": 0.0711433,
  "ScanOptions": "FS",
  "ScanningSequence": "EP",
  "SequenceName": "epfid2d1_104",
  "SequenceVariant": "SK\\SS",
  "SeriesDescription": "func_task-mario3_run-01",
  "SeriesNumber": 10,
  "ShimSetting": [616, -7224, -8757, 695, 52, -3, 29, -25],
  "SliceThickness": 2,
  "SliceTiming": [0, 0.785, 0.0975, 0.8825, 0.1975, 0.98, 0.295, 1.0775, 0.3925, 1.175, 0.49, 1.275, 0.5875, 1.3725, 0.6875, 0, 0.785, 0.0975, 0.8825, 0.1975, 0.98, 0.295, 1.0775, 0.3925, 1.175, 0.49, 1.275, 0.5875, 1.3725, 0.6875, 0, 0.785, 0.0975, 0.8825, 0.1975, 0.98, 0.295, 1.0775, 0.3925, 1.175, 0.49, 1.275, 0.5875, 1.3725, 0.6875, 0, 0.785, 0.0975, 0.8825, 0.1975, 0.98, 0.295, 1.0775, 0.3925, 1.175, 0.49, 1.275, 0.5875, 1.3725, 0.6875],
  "SoftwareVersions": "syngo MR E11",
  "SpacingBetweenSlices": 2,
  "StationName": "MRC35049",
  "TaskName": "mario3",
  "TotalReadoutTime": 0.0576811,
  "TxRefAmp": 262.346,
  "WipMemBlock": "d0d9b96d-93c7-45c1-9c7a-0488ac10702f||Sequence: R017 ve11c/master r/75a17815+; Jun 28 2022 16:32:11 by eja",
  "dcmmeta_affine": [
    [-1.999840497970581, -0.005933612119406462, 0.024554096162319183, 108.77191925048828],
    [-0.011805800721049309, 1.9382084608078003, -0.493161678314209, -74.79946899414062],
    [0.022332364693284035, 0.4932672679424286, 1.9380888938903809, -53.7884521484375],
    [0.0, 0.0, 0.0, 1.0]
],
  "dcmmeta_reorient_transform": [
    [0.0, -1.0, 0.0, 103.0],
    [1.0, 0.0, 0.0, 0.0],
    [0.0, 0.0, 1.0, 0.0],
    [0.0, 0.0, 0.0, 1.0]
],
  "dcmmeta_shape": [104, 104, 60, 310],
  "dcmmeta_slice_dim": 2,
  "dcmmeta_version": 0.6,
  "global": {
    "const": {
      "AcquisitionMatrix": [104, 0, 0, 104],
      "AngioFlag": "N",
      "BitsAllocated": 16,
      "BitsStored": 16,
      "BodyPartExamined": "BRAIN",
      "Columns": 832,
      "EchoNumbers": 1,
      "EchoTime": 37.0,
      "EchoTrainLength": 104,
      "FlipAngle": 52.0,
      "HighBit": 15,
      "ImageOrientationPatient": [0.99992023289195, 0.00590290013589, 0.01116618212697, -0.0029668060989, 0.96910424881603, -0.2466336412339],
      "ImagePositionPatient": [-833.9428516663, -834.6412087007, 168.43838688395],
      "ImageType": [
        "ORIGINAL",
        "PRIMARY",
        "M",
        "MB",
        "ND",
        "MOSAIC"
],
      "ImagedNucleus": "1H",
      "ImagingFrequency": 123.260254,
      "InPlanePhaseEncodingDirection": "COL",
      "MRAcquisitionType": "2D",
      "MagneticFieldStrength": 3.0,
      "Manufacturer": "SIEMENS",
      "ManufacturerModelName": "Prisma_fit",
      "Modality": "MR",
      "NumberOfAverages": 1.0,
      "NumberOfPhaseEncodingSteps": 104,
      "PercentPhaseFieldOfView": 100.0,
      "PercentSampling": 100.0,
      "PerformedProcedureStepStartTime": "135021.407000",
      "PhotometricInterpretation": "MONOCHROME2",
      "PixelBandwidth": 2290.0,
      "PixelRepresentation": 0,
      "PixelSpacing": [2.0, 2.0],
      "ProtocolName": "func_task-mario3_run-01",
      "RepetitionTime": 1490.0,
      "Rows": 832,
      "SAR": 0.07114325490746,
      "SamplesPerPixel": 1,
      "ScanOptions": "FS",
      "ScanningSequence": "EP",
      "SequenceName": "epfid2d1_104",
      "SequenceVariant": [
        "SK",
        "SS"
],
      "SeriesDescription": "func_task-mario3_run-01",
      "SeriesNumber": 10,
      "SeriesTime": "135426.539000",
      "SliceLocation": -32.34388826241,
      "SliceThickness": 2.0,
      "SmallestImagePixelValue": 0,
      "SoftwareVersions": "syngo MR E11",
      "SpacingBetweenSlices": 2.0000000351483,
      "SpecificCharacterSet": "ISO_IR 100",
      "StudyID": "1",
      "StudyTime": "135021.338000",
      "TransmitCoilName": "Body",
      "VariableFlipAngleFlag": "N",
      "WindowCenterWidthExplanation": "Algo1",
      "dBdt": 0.0},
    "slices": {}
  },
  "time": {
    "samples": {
      "AcquisitionNumber": [1, 2, 3, 4, 5, 6, 7, 8, 9, 10, 11, 12, 13, 14, 15, 16, 17, 18, 19, 20, 21, 22, 23, 24, 25, 26, 27, 28, 29, 30, 31, 32, 33, 34, 35, 36, 37, 38, 39, 40, 41, 42, 43, 44, 45, 46, 47, 48, 49, 50, 51, 52, 53, 54, 55, 56, 57, 58, 59, 60, 61, 62, 63, 64, 65, 66, 67, 68, 69, 70, 71, 72, 73, 74, 75, 76, 77, 78, 79, 80, 81, 82, 83, 84, 85, 86, 87, 88, 89, 90, 91, 92, 93, 94, 95, 96, 97, 98, 99, 100, 101, 102, 103, 104, 105, 106, 107, 108, 109, 110, 111, 112, 113, 114, 115, 116, 117, 118, 119, 120, 121, 122, 123, 124, 125, 126, 127, 128, 129, 130, 131, 132, 133, 134, 135, 136, 137, 138, 139, 140, 141, 142, 143, 144, 145, 146, 147, 148, 149, 150, 151, 152, 153, 154, 155, 156, 157, 158, 159, 160, 161, 162, 163, 164, 165, 166, 167, 168, 169, 170, 171, 172, 173, 174, 175, 176, 177, 178, 179, 180, 181, 182, 183, 184, 185, 186, 187, 188, 189, 190, 191, 192, 193, 194, 195, 196, 197, 198, 199, 200, 201, 202, 203, 204, 205, 206, 207, 208, 209, 210, 211, 212, 213, 214, 215, 216, 217, 218, 219, 220, 221, 222, 223, 224, 225, 226, 227, 228, 229, 230, 231, 232, 233, 234, 235, 236, 237, 238, 239, 240, 241, 242, 243, 244, 245, 246, 247, 248, 249, 250, 251, 252, 253, 254, 255, 256, 257, 258, 259, 260, 261, 262, 263, 264, 265, 266, 267, 268, 269, 270, 271, 272, 273, 274, 275, 276, 277, 278, 279, 280, 281, 282, 283, 284, 285, 286, 287, 288, 289, 290, 291, 292, 293, 294, 295, 296, 297, 298, 299, 300, 301, 302, 303, 304, 305, 306, 307, 308, 309, 310],
      "AcquisitionTime": ["135320.670000", "135322.160000", "135323.650000", "135325.140000", "135326.630000", "135328.120000", "135329.610000", "135331.100000", "135332.590000", "135334.080000", "135335.570000", "135337.060000", "135338.550000", "135340.040000", "135341.530000", "135343.020000", "135344.510000", "135346.000000", "135347.490000", "135348.980000", "135350.470000", "135351.960000", "135353.450000", "135354.940000", "135356.430000", "135357.920000", "135359.410000", "135400.900000", "135402.390000", "135403.880000", "135405.370000", "135406.860000", "135408.350000", "135409.840000", "135411.330000", "135412.820000", "135414.310000", "135415.800000", "135417.290000", "135418.780000", "135420.270000", "135421.760000", "135423.250000", "135424.740000", "135426.230000", "135427.720000", "135429.210000", "135430.700000", "135432.190000", "135433.680000", "135435.170000", "135436.660000", "135438.150000", "135439.640000", "135441.130000", "135442.620000", "135444.110000", "135445.600000", "135447.090000", "135448.580000", "135450.070000", "135451.560000", "135453.050000", "135454.540000", "135456.030000", "135457.520000", "135459.010000", "135500.500000", "135501.990000", "135503.480000", "135504.970000", "135506.460000", "135507.950000", "135509.440000", "135510.930000", "135512.420000", "135513.910000", "135515.400000", "135516.890000", "135518.380000", "135519.870000", "135521.360000", "135522.850000", "135524.340000", "135525.830000", "135527.320000", "135528.810000", "135530.300000", "135531.790000", "135533.280000", "135534.770000", "135536.260000", "135537.750000", "135539.240000", "135540.730000", "135542.220000", "135543.710000", "135545.200000", "135546.690000", "135548.180000", "135549.670000", "135551.160000", "135552.650000", "135554.140000", "135555.630000", "135557.120000", "135558.610000", "135600.100000", "135601.590000", "135603.080000", "135604.570000", "135606.060000", "135607.550000", "135609.040000", "135610.530000", "135612.020000", "135613.510000", "135615.000000", "135616.490000", "135617.980000", "135619.470000", "135620.960000", "135622.450000", "135623.940000", "135625.430000", "135626.920000", "135628.410000", "135629.900000", "135631.390000", "135632.880000", "135634.370000", "135635.860000", "135637.350000", "135638.840000", "135640.330000", "135641.820000", "135643.310000", "135644.800000", "135646.290000", "135647.780000", "135649.270000", "135650.760000", "135652.250000", "135653.740000", "135655.230000", "135656.720000", "135658.210000", "135659.700000", "135701.190000", "135702.680000", "135704.170000", "135705.660000", "135707.150000", "135708.640000", "135710.130000", "135711.620000", "135713.110000", "135714.600000", "135716.090000", "135717.580000", "135719.070000", "135720.560000", "135722.050000", "135723.540000", "135725.030000", "135726.520000", "135728.010000", "135729.500000", "135730.990000", "135732.480000", "135733.970000", "135735.460000", "135736.950000", "135738.440000", "135739.930000", "135741.420000", "135742.910000", "135744.400000", "135745.890000", "135747.380000", "135748.870000", "135750.360000", "135751.850000", "135753.340000", "135754.830000", "135756.320000", "135757.810000", "135759.300000", "135800.790000", "135802.280000", "135803.770000", "135805.260000", "135806.750000", "135808.240000", "135809.730000", "135811.220000", "135812.710000", "135814.200000", "135815.690000", "135817.180000", "135818.670000", "135820.160000", "135821.650000", "135823.140000", "135824.630000", "135826.120000", "135827.610000", "135829.100000", "135830.590000", "135832.080000", "135833.570000", "135835.060000", "135836.550000", "135838.040000", "135839.530000", "135841.020000", "135842.510000", "135844.000000", "135845.490000", "135846.980000", "135848.470000", "135849.960000", "135851.450000", "135852.940000", "135854.430000", "135855.920000", "135857.410000", "135858.900000", "135900.390000", "135901.880000", "135903.370000", "135904.860000", "135906.350000", "135907.840000", "135909.330000", "135910.820000", "135912.310000", "135913.800000", "135915.290000", "135916.780000", "135918.270000", "135919.760000", "135921.250000", "135922.740000", "135924.230000", "135925.720000", "135927.210000", "135928.700000", "135930.190000", "135931.680000", "135933.170000", "135934.660000", "135936.150000", "135937.640000", "135939.130000", "135940.620000", "135942.110000", "135943.600000", "135945.090000", "135946.580000", "135948.070000", "135949.560000", "135951.050000", "135952.540000", "135954.030000", "135955.520000", "135957.010000", "135958.500000", "135959.990000", "140001.480000", "140002.970000", "140004.460000", "140005.950000", "140007.440000", "140008.930000", "140010.420000", "140011.910000", "140013.400000", "140014.890000", "140016.380000", "140017.870000", "140019.360000", "140020.850000", "140022.340000", "140023.830000", "140025.320000", "140026.810000", "140028.300000", "140029.790000", "140031.280000", "140032.770000", "140034.260000", "140035.750000", "140037.240000", "140038.730000", "140040.220000", "140041.710000", "140043.200000", "140044.690000", "140046.180000", "140047.670000", "140049.160000", "140050.650000", "140052.140000", "140053.630000", "140055.120000", "140056.610000", "140058.100000", "140059.590000", "140101.080000"],
      "ContentTime": ["135426.542000", "135426.546000", "135426.559000", "135426.562000", "135426.565000", "135426.569000", "135426.572000", "135426.575000", "135426.579000", "135426.582000", "135426.585000", "135426.588000", "135426.592000", "135426.595000", "135426.598000", "135426.601000", "135426.605000", "135426.608000", "135446.480000", "135446.484000", "135446.487000", "135446.490000", "135446.493000", "135446.497000", "135446.500000", "135446.512000", "135446.516000", "135446.519000", "135446.530000", "135446.533000", "135446.537000", "135446.540000", "135446.543000", "135446.546000", "135446.549000", "135446.553000", "135446.556000", "135446.559000", "135506.480000", "135506.484000", "135506.487000", "135506.490000", "135506.493000", "135506.497000", "135506.500000", "135506.503000", "135506.506000", "135506.510000", "135506.513000", "135506.516000", "135506.520000", "135506.523000", "135506.527000", "135506.530000", "135506.533000", "135506.537000", "135506.540000", "135506.550000", "135526.480000", "135526.484000", "135526.487000", "135526.490000", "135526.494000", "135526.497000", "135526.500000", "135526.504000", "135526.507000", "135526.510000", "135526.513000", "135526.516000", "135526.520000", "135526.523000", "135526.526000", "135526.529000", "135526.533000", "135526.536000", "135526.539000", "135526.542000", "135606.479000", "135606.483000", "135606.486000", "135606.490000", "135606.493000", "135606.497000", "135606.500000", "135606.503000", "135606.506000", "135606.510000", "135606.513000", "135606.516000", "135606.519000", "135606.523000", "135606.526000", "135606.529000", "135606.532000", "135606.536000", "135606.539000", "135606.542000", "135606.545000", "135606.549000", "135606.552000", "135606.555000", "135606.559000", "135606.562000", "135606.565000", "135606.568000", "135606.572000", "135606.575000", "135606.578000", "135606.582000", "135606.585000", "135646.480000", "135646.484000", "135646.487000", "135646.490000", "135646.494000", "135646.497000", "135646.500000", "135646.504000", "135646.507000", "135646.510000", "135646.514000", "135646.517000", "135646.520000", "135646.523000", "135646.527000", "135646.530000", "135646.533000", "135646.536000", "135646.540000", "135646.543000", "135646.546000", "135646.550000", "135646.558000", "135646.561000", "135646.565000", "135646.568000", "135726.480000", "135726.484000", "135726.487000", "135726.490000", "135726.494000", "135726.497000", "135726.500000", "135726.503000", "135726.507000", "135726.510000", "135726.513000", "135726.516000", "135726.520000", "135726.523000", "135726.526000", "135726.530000", "135726.533000", "135726.536000", "135726.539000", "135726.543000", "135726.546000", "135726.550000", "135726.553000", "135726.556000", "135726.560000", "135726.563000", "135726.566000", "135806.480000", "135806.484000", "135806.487000", "135806.491000", "135806.494000", "135806.497000", "135806.501000", "135806.504000", "135806.507000", "135806.511000", "135806.514000", "135806.517000", "135806.520000", "135806.524000", "135806.527000", "135806.530000", "135806.533000", "135806.537000", "135806.540000", "135806.543000", "135806.547000", "135806.550000", "135806.553000", "135806.556000", "135806.560000", "135806.563000", "135806.566000", "135846.480000", "135846.484000", "135846.487000", "135846.491000", "135846.494000", "135846.497000", "135846.501000", "135846.504000", "135846.507000", "135846.510000", "135846.514000", "135846.517000", "135846.520000", "135846.524000", "135846.527000", "135846.530000", "135846.534000", "135846.544000", "135846.556000", "135846.559000", "135846.562000", "135846.566000", "135846.569000", "135846.572000", "135846.576000", "135846.579000", "135846.582000", "135926.480000", "135926.484000", "135926.487000", "135926.490000", "135926.494000", "135926.497000", "135926.500000", "135926.504000", "135926.507000", "135926.510000", "135926.514000", "135926.517000", "135926.520000", "135926.523000", "135926.527000", "135926.530000", "135926.533000", "135926.537000", "135926.540000", "135926.543000", "135926.547000", "135926.558000", "135926.562000", "135926.565000", "135926.568000", "135926.572000", "135926.575000", "140006.480000", "140006.484000", "140006.487000", "140006.491000", "140006.494000", "140006.497000", "140006.500000", "140006.504000", "140006.507000", "140006.510000", "140006.513000", "140006.517000", "140006.520000", "140006.523000", "140006.526000", "140006.530000", "140006.533000", "140006.536000", "140006.540000", "140006.543000", "140006.546000", "140006.549000", "140006.553000", "140006.556000", "140006.559000", "140006.563000", "140006.566000", "140046.479000", "140046.483000", "140046.486000", "140046.490000", "140046.493000", "140046.497000", "140046.500000", "140046.503000", "140046.507000", "140046.510000", "140046.513000", "140046.517000", "140046.520000", "140046.523000", "140046.526000", "140046.530000", "140046.533000", "140046.536000", "140046.540000", "140046.543000", "140046.546000", "140046.549000", "140046.563000", "140046.568000", "140046.573000", "140046.578000", "140103.036000", "140103.040000", "140103.043000", "140103.046000", "140103.050000", "140103.054000", "140103.057000", "140103.061000", "140103.064000", "140103.067000", "140103.070000", "140103.074000"],
      "InstanceCreationTime": ["135426.542000", "135426.546000", "135426.559000", "135426.562000", "135426.565000", "135426.569000", "135426.572000", "135426.575000", "135426.579000", "135426.582000", "135426.585000", "135426.588000", "135426.592000", "135426.595000", "135426.598000", "135426.601000", "135426.605000", "135426.608000", "135446.480000", "135446.484000", "135446.487000", "135446.490000", "135446.493000", "135446.497000", "135446.500000", "135446.512000", "135446.516000", "135446.519000", "135446.530000", "135446.533000", "135446.537000", "135446.540000", "135446.543000", "135446.546000", "135446.549000", "135446.553000", "135446.556000", "135446.559000", "135506.480000", "135506.484000", "135506.487000", "135506.490000", "135506.493000", "135506.497000", "135506.500000", "135506.503000", "135506.506000", "135506.510000", "135506.513000", "135506.516000", "135506.520000", "135506.523000", "135506.527000", "135506.530000", "135506.533000", "135506.537000", "135506.540000", "135506.550000", "135526.480000", "135526.484000", "135526.487000", "135526.490000", "135526.494000", "135526.497000", "135526.500000", "135526.504000", "135526.507000", "135526.510000", "135526.513000", "135526.516000", "135526.520000", "135526.523000", "135526.526000", "135526.529000", "135526.533000", "135526.536000", "135526.539000", "135526.542000", "135606.479000", "135606.483000", "135606.486000", "135606.490000", "135606.493000", "135606.497000", "135606.500000", "135606.503000", "135606.506000", "135606.510000", "135606.513000", "135606.516000", "135606.519000", "135606.523000", "135606.526000", "135606.529000", "135606.532000", "135606.536000", "135606.539000", "135606.542000", "135606.545000", "135606.549000", "135606.552000", "135606.555000", "135606.559000", "135606.562000", "135606.565000", "135606.568000", "135606.572000", "135606.575000", "135606.578000", "135606.582000", "135606.585000", "135646.480000", "135646.484000", "135646.487000", "135646.490000", "135646.494000", "135646.497000", "135646.500000", "135646.504000", "135646.507000", "135646.510000", "135646.514000", "135646.517000", "135646.520000", "135646.523000", "135646.527000", "135646.530000", "135646.533000", "135646.536000", "135646.540000", "135646.543000", "135646.546000", "135646.550000", "135646.558000", "135646.561000", "135646.565000", "135646.568000", "135726.480000", "135726.484000", "135726.487000", "135726.490000", "135726.494000", "135726.497000", "135726.500000", "135726.503000", "135726.507000", "135726.510000", "135726.513000", "135726.516000", "135726.520000", "135726.523000", "135726.526000", "135726.530000", "135726.533000", "135726.536000", "135726.539000", "135726.543000", "135726.546000", "135726.550000", "135726.553000", "135726.556000", "135726.560000", "135726.563000", "135726.566000", "135806.480000", "135806.484000", "135806.487000", "135806.491000", "135806.494000", "135806.497000", "135806.501000", "135806.504000", "135806.507000", "135806.511000", "135806.514000", "135806.517000", "135806.520000", "135806.524000", "135806.527000", "135806.530000", "135806.533000", "135806.537000", "135806.540000", "135806.543000", "135806.547000", "135806.550000", "135806.553000", "135806.556000", "135806.560000", "135806.563000", "135806.566000", "135846.480000", "135846.484000", "135846.487000", "135846.491000", "135846.494000", "135846.497000", "135846.501000", "135846.504000", "135846.507000", "135846.510000", "135846.514000", "135846.517000", "135846.520000", "135846.524000", "135846.527000", "135846.530000", "135846.534000", "135846.544000", "135846.556000", "135846.559000", "135846.562000", "135846.566000", "135846.569000", "135846.572000", "135846.576000", "135846.579000", "135846.582000", "135926.480000", "135926.484000", "135926.487000", "135926.490000", "135926.494000", "135926.497000", "135926.500000", "135926.504000", "135926.507000", "135926.510000", "135926.514000", "135926.517000", "135926.520000", "135926.523000", "135926.527000", "135926.530000", "135926.533000", "135926.537000", "135926.540000", "135926.543000", "135926.547000", "135926.558000", "135926.562000", "135926.565000", "135926.568000", "135926.572000", "135926.575000", "140006.480000", "140006.484000", "140006.487000", "140006.491000", "140006.494000", "140006.497000", "140006.500000", "140006.504000", "140006.507000", "140006.510000", "140006.513000", "140006.517000", "140006.520000", "140006.523000", "140006.526000", "140006.530000", "140006.533000", "140006.536000", "140006.540000", "140006.543000", "140006.546000", "140006.549000", "140006.553000", "140006.556000", "140006.559000", "140006.563000", "140006.566000", "140046.479000", "140046.483000", "140046.486000", "140046.490000", "140046.493000", "140046.497000", "140046.500000", "140046.503000", "140046.507000", "140046.510000", "140046.513000", "140046.517000", "140046.520000", "140046.523000", "140046.526000", "140046.530000", "140046.533000", "140046.536000", "140046.540000", "140046.543000", "140046.546000", "140046.549000", "140046.563000", "140046.568000", "140046.573000", "140046.578000", "140103.036000", "140103.040000", "140103.043000", "140103.046000", "140103.050000", "140103.054000", "140103.057000", "140103.061000", "140103.064000", "140103.067000", "140103.070000", "140103.074000"],
      "InstanceNumber": [1, 2, 3, 4, 5, 6, 7, 8, 9, 10, 11, 12, 13, 14, 15, 16, 17, 18, 19, 20, 21, 22, 23, 24, 25, 26, 27, 28, 29, 30, 31, 32, 33, 34, 35, 36, 37, 38, 39, 40, 41, 42, 43, 44, 45, 46, 47, 48, 49, 50, 51, 52, 53, 54, 55, 56, 57, 58, 59, 60, 61, 62, 63, 64, 65, 66, 67, 68, 69, 70, 71, 72, 73, 74, 75, 76, 77, 78, 79, 80, 81, 82, 83, 84, 85, 86, 87, 88, 89, 90, 91, 92, 93, 94, 95, 96, 97, 98, 99, 100, 101, 102, 103, 104, 105, 106, 107, 108, 109, 110, 111, 112, 113, 114, 115, 116, 117, 118, 119, 120, 121, 122, 123, 124, 125, 126, 127, 128, 129, 130, 131, 132, 133, 134, 135, 136, 137, 138, 139, 140, 141, 142, 143, 144, 145, 146, 147, 148, 149, 150, 151, 152, 153, 154, 155, 156, 157, 158, 159, 160, 161, 162, 163, 164, 165, 166, 167, 168, 169, 170, 171, 172, 173, 174, 175, 176, 177, 178, 179, 180, 181, 182, 183, 184, 185, 186, 187, 188, 189, 190, 191, 192, 193, 194, 195, 196, 197, 198, 199, 200, 201, 202, 203, 204, 205, 206, 207, 208, 209, 210, 211, 212, 213, 214, 215, 216, 217, 218, 219, 220, 221, 222, 223, 224, 225, 226, 227, 228, 229, 230, 231, 232, 233, 234, 235, 236, 237, 238, 239, 240, 241, 242, 243, 244, 245, 246, 247, 248, 249, 250, 251, 252, 253, 254, 255, 256, 257, 258, 259, 260, 261, 262, 263, 264, 265, 266, 267, 268, 269, 270, 271, 272, 273, 274, 275, 276, 277, 278, 279, 280, 281, 282, 283, 284, 285, 286, 287, 288, 289, 290, 291, 292, 293, 294, 295, 296, 297, 298, 299, 300, 301, 302, 303, 304, 305, 306, 307, 308, 309, 310],
      "LargestImagePixelValue": [40528, 39948, 39363, 38686, 38768, 38932, 38756, 39065, 39173, 39132, 38889, 38741, 39149, 39134, 39017, 38374, 38637, 38671, 39031, 39013, 38676, 39164, 38545, 38917, 38937, 38574, 38428, 38951, 38833, 38719, 38708, 38944, 39016, 38735, 38709, 38784, 38528, 38821, 39062, 38436, 38509, 38674, 38370, 38505, 38822, 38863, 38389, 38691, 38704, 39309, 39049, 39234, 38696, 38697, 38864, 39037, 38584, 38019, 38390, 38454, 39005, 38429, 38758, 38413, 38586, 38797, 38919, 38720, 38960, 38652, 38829, 38856, 38950, 38907, 39159, 39189, 39040, 38841, 39074, 39201, 38430, 38540, 38922, 39357, 39164, 38606, 39076, 38971, 38543, 39154, 38116, 38054, 38224, 37940, 38324, 38232, 38566, 38711, 38972, 38625, 39133, 39202, 38703, 38472, 38479, 38507, 38800, 38744, 38347, 38598, 38652, 38572, 38518, 38547, 37793, 38204, 38578, 38726, 38856, 38807, 38799, 38033, 38444, 38679, 38193, 38175, 38300, 38383, 38501, 38635, 38416, 38751, 38695, 38788, 38504, 38462, 38213, 37861, 38992, 38173, 38400, 38402, 38585, 38433, 38511, 38289, 38047, 38129, 38290, 38708, 38560, 38977, 38329, 39374, 38921, 38783, 38648, 38263, 38965, 38335, 38369, 38228, 38264, 38670, 38555, 38480, 38836, 38733, 38069, 38589, 38246, 38778, 38639, 38515, 38555, 37882, 37716, 38320, 38209, 39471, 38421, 38307, 38331, 38577, 38889, 38436, 38526, 38813, 38936, 38440, 38735, 38464, 38163, 37780, 38365, 37742, 38075, 37833, 38614, 38394, 38946, 38319, 38819, 38555, 38807, 38558, 38155, 38822, 38674, 38181, 38629, 38357, 38290, 38433, 38228, 38537, 38457, 38487, 38691, 38049, 37974, 38468, 38034, 38649, 37804, 39187, 38180, 38154, 38591, 38185, 38107, 38012, 38321, 38615, 38239, 38515, 37917, 38335, 38283, 38355, 38591, 38621, 38600, 38650, 38662, 38621, 38785, 37620, 38461, 38041, 38324, 38166, 38107, 38466, 38866, 38352, 38339, 37636, 37941, 38871, 38832, 38983, 38522, 38219, 38437, 38352, 38307, 38251, 37835, 38267, 38171, 38772, 38325, 38742, 37935, 38173, 37770, 38552, 38346, 38735, 38645, 39034, 38231, 38368, 37885, 38097, 38546, 38199, 38063, 38263, 38807, 38490, 38444, 38200, 38180, 38365, 39115, 38269, 37781, 37700, 38330, 37576, 37695, 37697, 37764, 38229, 38144, 38002, 38433, 38378],
      "WindowCenter": [10227.0, 10161.0, 10131.0, 10128.0, 10145.0, 10161.0, 10162.0, 10168.0, 10170.0, 10194.0, 10220.0, 10221.0, 10217.0, 10204.0, 10193.0, 10182.0, 10164.0, 10136.0, 10134.0, 10142.0, 10152.0, 10146.0, 10144.0, 10149.0, 10173.0, 10171.0, 10173.0, 10166.0, 10139.0, 10152.0, 10145.0, 10143.0, 10157.0, 10150.0, 10167.0, 10147.0, 10125.0, 10117.0, 10106.0, 10107.0, 10133.0, 10148.0, 10150.0, 10151.0, 10153.0, 10190.0, 10196.0, 10196.0, 10171.0, 10158.0, 10150.0, 10163.0, 10158.0, 10157.0, 10171.0, 10181.0, 10203.0, 10197.0, 10189.0, 10170.0, 10155.0, 10148.0, 10158.0, 10175.0, 10177.0, 10177.0, 10175.0, 10159.0, 10182.0, 10177.0, 10178.0, 10143.0, 10116.0, 10128.0, 10135.0, 10148.0, 10165.0, 10158.0, 10174.0, 10176.0, 10186.0, 10179.0, 10165.0, 10173.0, 10171.0, 10172.0, 10170.0, 10187.0, 10188.0, 10191.0, 10200.0, 10172.0, 10165.0, 10146.0, 10125.0, 10115.0, 10154.0, 10174.0, 10175.0, 10167.0, 10172.0, 10170.0, 10196.0, 10176.0, 10175.0, 10168.0, 10159.0, 10147.0, 10131.0, 10143.0, 10149.0, 10115.0, 10180.0, 10189.0, 10168.0, 10180.0, 10131.0, 10144.0, 10143.0, 10163.0, 10161.0, 10157.0, 10172.0, 10166.0, 10159.0, 10125.0, 10131.0, 10140.0, 10147.0, 10152.0, 10137.0, 10176.0, 10174.0, 10183.0, 10184.0, 10163.0, 10169.0, 10162.0, 10169.0, 10166.0, 10149.0, 10166.0, 10164.0, 10155.0, 10154.0, 10161.0, 10165.0, 10172.0, 10174.0, 10175.0, 10146.0, 10165.0, 10147.0, 10151.0, 10142.0, 10136.0, 10142.0, 10143.0, 10140.0, 10151.0, 10144.0, 10153.0, 10136.0, 10151.0, 10153.0, 10146.0, 10162.0, 10169.0, 10154.0, 10201.0, 10206.0, 10215.0, 10205.0, 10191.0, 10165.0, 10139.0, 10153.0, 10190.0, 10172.0, 10187.0, 10146.0, 10121.0, 10129.0, 10142.0, 10139.0, 10135.0, 10149.0, 10159.0, 10170.0, 10175.0, 10179.0, 10157.0, 10150.0, 10148.0, 10224.0, 10211.0, 10183.0, 10144.0, 10106.0, 10075.0, 10091.0, 10082.0, 10126.0, 10137.0, 10136.0, 10138.0, 10142.0, 10157.0, 10133.0, 10185.0, 10183.0, 10172.0, 10152.0, 10124.0, 10114.0, 10130.0, 10144.0, 10165.0, 10157.0, 10151.0, 10140.0, 10140.0, 10140.0, 10151.0, 10132.0, 10140.0, 10129.0, 10148.0, 10160.0, 10149.0, 10142.0, 10120.0, 10138.0, 10143.0, 10122.0, 10109.0, 10121.0, 10144.0, 10174.0, 10167.0, 10150.0, 10112.0, 10103.0, 10121.0, 10138.0, 10168.0, 10178.0, 10132.0, 10148.0, 10116.0, 10128.0, 10120.0, 10127.0, 10148.0, 10153.0, 10139.0, 10136.0, 10119.0, 10156.0, 10164.0, 10182.0, 10154.0, 10127.0, 10090.0, 10094.0, 10101.0, 10120.0, 10121.0, 10113.0, 10108.0, 10112.0, 10140.0, 10149.0, 10183.0, 10166.0, 10166.0, 10134.0, 10149.0, 10131.0, 10158.0, 10165.0, 10142.0, 10115.0, 10091.0, 10102.0, 10115.0, 10118.0, 10098.0, 10077.0, 10062.0, 10059.0, 10076.0, 10097.0, 10159.0, 10132.0, 10117.0, 10103.0, 10080.0, 10074.0, 10067.0, 10097.0, 10104.0, 10094.0, 10089.0, 10082.0, 10098.0, 10117.0, 10133.0, 10133.0, 10133.0],
