{
  "AcquisitionMatrixPE": 104,
  "AcquisitionNumber": 1,
  "AcquisitionTime": "14:09:36.067500",
  "BandwidthPerPixelPhaseEncode": 17.17,
  "BaseResolution": 104,
  "BodyPartExamined": "BRAIN",
  "CoilCombinationMethod": "Sum of Squares",
  "ConsistencyInfo": "N4_VE11C_LATEST_20160120",
  "ConversionSoftware": "dcm2niix",
  "ConversionSoftwareVersion": "v1.0.20220505",
  "DerivedVendorReportedEchoSpacing": 0.000560011,
  "DeviceSerialNumber": "167006",
  "DwellTime": 2.1e-06,
  "EchoTime": 0.037,
  "EchoTime1": 0.037,
  "EchoTime2": 0.001,
  "EchoTrainLength": 104,
  "EffectiveEchoSpacing": 0.000560011,
  "FlipAngle": 52,
  "HeudiconvVersion": "0.5.3.post811+g6206e14",
  "ImageComments": "Unaliased MB4/PE3/LB",
  "ImageOrientationPatientDICOM": [0.99992, 0.0059029, 0.0111662, -0.00296681, 0.969104, -0.246634],
  "ImageOrientationText": "Tra>Cor(-14.3)>Sag(0.7)",
  "ImageType": [
    "ORIGINAL",
    "PRIMARY",
    "P",
    "MB",
    "ND",
    "MOSAIC",
    "PHASE"
],
  "ImagingFrequency": 123.26,
  "InPlanePhaseEncodingDirectionDICOM": "COL",
  "InstitutionAddress": "Chemin Queen-Mary 4565,Montreal,District,CA,H3W 1W5",
  "InstitutionName": "IUGM",
  "InstitutionalDepartmentName": "Department",
  "MRAcquisitionType": "2D",
  "MagneticFieldStrength": 3,
  "Manufacturer": "Siemens",
  "ManufacturersModelName": "Prisma_fit",
  "MatrixCoilMode": "SENSE",
  "Modality": "MR",
  "MultibandAccelerationFactor": 4,
  "PartialFourier": 1,
  "PatientPosition": "HFS",
  "PercentPhaseFOV": 100,
  "PercentSampling": 100,
  "PhaseEncodingDirection": "j",
  "PhaseEncodingSteps": 104,
  "PhaseResolution": 1,
  "PixelBandwidth": 2290,
  "ProcedureStepDescription": "games^mario3",
  "ProtocolName": "func_task-mario3_run-03",
  "PulseSequenceDetails": "%CustomerSeq%\\cmrr_mbep2d_bold",
  "ReceiveCoilActiveElements": "HC1-7;NC1,2",
  "ReceiveCoilName": "HeadNeck_64",
  "ReconMatrixPE": 104,
  "RepetitionTime": 1.49,
  "SAR": 0.0711433,
  "ScanOptions": "FS",
  "ScanningSequence": "EP",
  "SequenceName": "epfid2d1_104",
  "SequenceVariant": "SK\\SS",
  "SeriesDescription": "func_task-mario3_run-03",
  "SeriesNumber": 17,
  "ShimSetting": [616, -7224, -8757, 695, 52, -3, 29, -25],
  "SliceThickness": 2,
  "SliceTiming": [0, 0.785, 0.0975, 0.8825, 0.195, 0.98, 0.295, 1.0775, 0.3925, 1.175, 0.49, 1.275, 0.5875, 1.3725, 0.685, 0, 0.785, 0.0975, 0.8825, 0.195, 0.98, 0.295, 1.0775, 0.3925, 1.175, 0.49, 1.275, 0.5875, 1.3725, 0.685, 0, 0.785, 0.0975, 0.8825, 0.195, 0.98, 0.295, 1.0775, 0.3925, 1.175, 0.49, 1.275, 0.5875, 1.3725, 0.685, 0, 0.785, 0.0975, 0.8825, 0.195, 0.98, 0.295, 1.0775, 0.3925, 1.175, 0.49, 1.275, 0.5875, 1.3725, 0.685],
  "SoftwareVersions": "syngo MR E11",
  "SpacingBetweenSlices": 2,
  "StationName": "MRC35049",
  "TaskName": "mario3",
  "TotalReadoutTime": 0.0576811,
  "TxRefAmp": 262.346,
  "WipMemBlock": "60d2223b-b749-4da4-a1ce-1c55c8d2f994||Sequence: R017 ve11c/master r/75a17815+; Jun 28 2022 16:32:11 by eja",
  "dcmmeta_affine": [
    [-1.999840497970581, -0.005933612119406462, 0.024554096162319183, 108.77191925048828],
    [-0.011805800721049309, 1.9382084608078003, -0.493161678314209, -74.79946899414062],
    [0.022332364693284035, 0.4932672679424286, 1.9380888938903809, -53.7884521484375],
    [0.0, 0.0, 0.0, 1.0]
],
  "dcmmeta_reorient_transform": [
    [0.0, -1.0, 0.0, 103.0],
    [1.0, 0.0, 0.0, 0.0],
    [0.0, 0.0, 1.0, 0.0],
    [0.0, 0.0, 0.0, 1.0]
],
  "dcmmeta_shape": [104, 104, 60, 325],
  "dcmmeta_slice_dim": 2,
  "dcmmeta_version": 0.6,
  "global": {
    "const": {
      "AcquisitionMatrix": [104, 0, 0, 104],
      "AngioFlag": "N",
      "BitsAllocated": 16,
      "BitsStored": 16,
      "BodyPartExamined": "BRAIN",
      "Columns": 832,
      "EchoNumbers": 1,
      "EchoTime": 37.0,
      "EchoTrainLength": 104,
      "FlipAngle": 52.0,
      "HighBit": 15,
      "ImageOrientationPatient": [0.99992023289195, 0.00590290013589, 0.01116618212697, -0.0029668060989, 0.96910424881603, -0.2466336412339],
      "ImagePositionPatient": [-833.9428516663, -834.6412087007, 168.43838688395],
      "ImageType": [
        "ORIGINAL",
        "PRIMARY",
        "P",
        "MB",
        "ND",
        "MOSAIC"
],
      "ImagedNucleus": "1H",
      "ImagingFrequency": 123.260263,
      "InPlanePhaseEncodingDirection": "COL",
      "LargestImagePixelValue": 4095,
      "MRAcquisitionType": "2D",
      "MagneticFieldStrength": 3.0,
      "Manufacturer": "SIEMENS",
      "ManufacturerModelName": "Prisma_fit",
      "Modality": "MR",
      "NumberOfAverages": 1.0,
      "NumberOfPhaseEncodingSteps": 104,
      "PercentPhaseFieldOfView": 100.0,
      "PercentSampling": 100.0,
      "PerformedProcedureStepStartTime": "135021.407000",
      "PhotometricInterpretation": "MONOCHROME2",
      "PixelBandwidth": 2290.0,
      "PixelRepresentation": 0,
      "PixelSpacing": [2.0, 2.0],
      "ProtocolName": "func_task-mario3_run-03",
      "RepetitionTime": 1490.0,
      "RescaleIntercept": -4096.0,
      "RescaleSlope": 2.0,
      "RescaleType": "US",
      "Rows": 832,
      "SAR": 0.07114325490746,
      "SamplesPerPixel": 1,
      "ScanOptions": "FS",
      "ScanningSequence": "EP",
      "SequenceName": "epfid2d1_104",
      "SequenceVariant": [
        "SK",
        "SS"
],
      "SeriesDescription": "func_task-mario3_run-03",
      "SeriesNumber": 17,
      "SeriesTime": "141100.579000",
      "SliceLocation": -32.34388826241,
      "SliceThickness": 2.0,
      "SmallestImagePixelValue": 0,
      "SoftwareVersions": "syngo MR E11",
      "SpacingBetweenSlices": 2.0000000351483,
      "SpecificCharacterSet": "ISO_IR 100",
      "StudyID": "1",
      "StudyTime": "135021.338000",
      "TransmitCoilName": "Body",
      "VariableFlipAngleFlag": "N",
      "WindowCenterWidthExplanation": "Algo1",
      "dBdt": 0.0},
    "slices": {}
  },
  "time": {
    "samples": {
      "AcquisitionNumber": [1, 2, 3, 4, 5, 6, 7, 8, 9, 10, 11, 12, 13, 14, 15, 16, 17, 18, 19, 20, 21, 22, 23, 24, 25, 26, 27, 28, 29, 30, 31, 32, 33, 34, 35, 36, 37, 38, 39, 40, 41, 42, 43, 44, 45, 46, 47, 48, 49, 50, 51, 52, 53, 54, 55, 56, 57, 58, 59, 60, 61, 62, 63, 64, 65, 66, 67, 68, 69, 70, 71, 72, 73, 74, 75, 76, 77, 78, 79, 80, 81, 82, 83, 84, 85, 86, 87, 88, 89, 90, 91, 92, 93, 94, 95, 96, 97, 98, 99, 100, 101, 102, 103, 104, 105, 106, 107, 108, 109, 110, 111, 112, 113, 114, 115, 116, 117, 118, 119, 120, 121, 122, 123, 124, 125, 126, 127, 128, 129, 130, 131, 132, 133, 134, 135, 136, 137, 138, 139, 140, 141, 142, 143, 144, 145, 146, 147, 148, 149, 150, 151, 152, 153, 154, 155, 156, 157, 158, 159, 160, 161, 162, 163, 164, 165, 166, 167, 168, 169, 170, 171, 172, 173, 174, 175, 176, 177, 178, 179, 180, 181, 182, 183, 184, 185, 186, 187, 188, 189, 190, 191, 192, 193, 194, 195, 196, 197, 198, 199, 200, 201, 202, 203, 204, 205, 206, 207, 208, 209, 210, 211, 212, 213, 214, 215, 216, 217, 218, 219, 220, 221, 222, 223, 224, 225, 226, 227, 228, 229, 230, 231, 232, 233, 234, 235, 236, 237, 238, 239, 240, 241, 242, 243, 244, 245, 246, 247, 248, 249, 250, 251, 252, 253, 254, 255, 256, 257, 258, 259, 260, 261, 262, 263, 264, 265, 266, 267, 268, 269, 270, 271, 272, 273, 274, 275, 276, 277, 278, 279, 280, 281, 282, 283, 284, 285, 286, 287, 288, 289, 290, 291, 292, 293, 294, 295, 296, 297, 298, 299, 300, 301, 302, 303, 304, 305, 306, 307, 308, 309, 310, 311, 312, 313, 314, 315, 316, 317, 318, 319, 320, 321, 322, 323, 324, 325],
      "AcquisitionTime": ["140936.067500", "140937.557500", "140939.047500", "140940.537500", "140942.027500", "140943.517500", "140945.007500", "140946.497500", "140947.987500", "140949.477500", "140950.967500", "140952.457500", "140953.947500", "140955.437500", "140956.927500", "140958.417500", "140959.907500", "141001.397500", "141002.887500", "141004.377500", "141005.867500", "141007.357500", "141008.847500", "141010.337500", "141011.827500", "141013.317500", "141014.807500", "141016.297500", "141017.787500", "141019.277500", "141020.767500", "141022.257500", "141023.747500", "141025.237500", "141026.727500", "141028.217500", "141029.707500", "141031.197500", "141032.687500", "141034.177500", "141035.667500", "141037.157500", "141038.647500", "141040.137500", "141041.627500", "141043.117500", "141044.607500", "141046.097500", "141047.587500", "141049.077500", "141050.567500", "141052.057500", "141053.547500", "141055.037500", "141056.527500", "141058.017500", "141059.507500", "141100.997500", "141102.487500", "141103.977500", "141105.467500", "141106.957500", "141108.447500", "141109.937500", "141111.427500", "141112.917500", "141114.407500", "141115.897500", "141117.387500", "141118.877500", "141120.367500", "141121.857500", "141123.347500", "141124.837500", "141126.327500", "141127.817500", "141129.307500", "141130.797500", "141132.287500", "141133.777500", "141135.267500", "141136.757500", "141138.247500", "141139.737500", "141141.227500", "141142.717500", "141144.207500", "141145.697500", "141147.187500", "141148.677500", "141150.167500", "141151.657500", "141153.147500", "141154.637500", "141156.127500", "141157.617500", "141159.107500", "141200.597500", "141202.087500", "141203.577500", "141205.067500", "141206.557500", "141208.047500", "141209.537500", "141211.027500", "141212.517500", "141214.007500", "141215.497500", "141216.987500", "141218.477500", "141219.967500", "141221.457500", "141222.947500", "141224.437500", "141225.927500", "141227.417500", "141228.907500", "141230.397500", "141231.887500", "141233.377500", "141234.867500", "141236.357500", "141237.847500", "141239.337500", "141240.827500", "141242.317500", "141243.807500", "141245.297500", "141246.787500", "141248.277500", "141249.767500", "141251.257500", "141252.747500", "141254.237500", "141255.727500", "141257.217500", "141258.707500", "141300.197500", "141301.687500", "141303.177500", "141304.667500", "141306.157500", "141307.647500", "141309.137500", "141310.627500", "141312.117500", "141313.607500", "141315.097500", "141316.587500", "141318.077500", "141319.567500", "141321.057500", "141322.547500", "141324.037500", "141325.527500", "141327.017500", "141328.507500", "141329.997500", "141331.487500", "141332.977500", "141334.467500", "141335.957500", "141337.447500", "141338.937500", "141340.427500", "141341.917500", "141343.407500", "141344.897500", "141346.387500", "141347.877500", "141349.367500", "141350.857500", "141352.347500", "141353.837500", "141355.327500", "141356.817500", "141358.307500", "141359.797500", "141401.287500", "141402.777500", "141404.267500", "141405.757500", "141407.247500", "141408.737500", "141410.227500", "141411.717500", "141413.207500", "141414.697500", "141416.187500", "141417.677500", "141419.167500", "141420.657500", "141422.147500", "141423.637500", "141425.127500", "141426.617500", "141428.107500", "141429.597500", "141431.087500", "141432.577500", "141434.067500", "141435.557500", "141437.047500", "141438.537500", "141440.027500", "141441.517500", "141443.007500", "141444.497500", "141445.987500", "141447.477500", "141448.967500", "141450.457500", "141451.947500", "141453.437500", "141454.927500", "141456.417500", "141457.907500", "141459.397500", "141500.887500", "141502.377500", "141503.867500", "141505.357500", "141506.847500", "141508.337500", "141509.827500", "141511.317500", "141512.807500", "141514.297500", "141515.787500", "141517.277500", "141518.767500", "141520.257500", "141521.747500", "141523.237500", "141524.727500", "141526.217500", "141527.707500", "141529.197500", "141530.687500", "141532.177500", "141533.667500", "141535.157500", "141536.647500", "141538.137500", "141539.627500", "141541.117500", "141542.607500", "141544.097500", "141545.587500", "141547.077500", "141548.567500", "141550.057500", "141551.547500", "141553.037500", "141554.527500", "141556.017500", "141557.507500", "141558.997500", "141600.487500", "141601.977500", "141603.467500", "141604.957500", "141606.447500", "141607.937500", "141609.427500", "141610.917500", "141612.407500", "141613.897500", "141615.387500", "141616.877500", "141618.367500", "141619.857500", "141621.347500", "141622.837500", "141624.327500", "141625.817500", "141627.307500", "141628.797500", "141630.287500", "141631.777500", "141633.267500", "141634.757500", "141636.247500", "141637.737500", "141639.227500", "141640.717500", "141642.207500", "141643.697500", "141645.187500", "141646.677500", "141648.167500", "141649.657500", "141651.147500", "141652.637500", "141654.127500", "141655.617500", "141657.107500", "141658.597500", "141700.087500", "141701.577500", "141703.067500", "141704.557500", "141706.047500", "141707.537500", "141709.027500", "141710.517500", "141712.007500", "141713.497500", "141714.987500", "141716.477500", "141717.967500", "141719.457500", "141720.947500", "141722.437500", "141723.927500", "141725.417500", "141726.907500", "141728.397500", "141729.887500", "141731.377500", "141732.867500", "141734.357500", "141735.847500", "141737.337500", "141738.827500"],
      "ContentTime": ["141100.581000", "141100.584000", "141100.586000", "141100.588000", "141100.591000", "141100.604000", "141100.606000", "141100.609000", "141100.611000", "141100.614000", "141100.616000", "141100.619000", "141100.621000", "141100.624000", "141100.626000", "141100.629000", "141100.631000", "141100.634000", "141100.636000", "141100.639000", "141100.641000", "141100.644000", "141100.646000", "141100.649000", "141100.651000", "141100.654000", "141100.656000", "141100.659000", "141100.661000", "141100.664000", "141100.666000", "141100.674000", "141100.676000", "141100.679000", "141100.681000", "141120.498000", "141120.501000", "141120.503000", "141120.506000", "141120.509000", "141120.511000", "141120.513000", "141120.516000", "141120.519000", "141120.521000", "141120.524000", "141120.526000", "141120.528000", "141120.531000", "141120.533000", "141120.536000", "141120.538000", "141120.541000", "141120.543000", "141120.546000", "141140.485000", "141140.488000", "141140.491000", "141140.493000", "141140.496000", "141140.498000", "141140.501000", "141140.504000", "141140.506000", "141140.509000", "141140.511000", "141140.514000", "141140.517000", "141140.519000", "141140.522000", "141140.524000", "141140.527000", "141140.529000", "141140.532000", "141140.535000", "141200.473000", "141200.476000", "141200.479000", "141200.481000", "141200.484000", "141200.486000", "141200.489000", "141200.491000", "141200.494000", "141200.496000", "141200.504000", "141200.507000", "141200.511000", "141200.513000", "141200.516000", "141200.518000", "141200.522000", "141200.524000", "141200.527000", "141200.530000", "141240.527000", "141240.530000", "141240.532000", "141240.535000", "141240.537000", "141240.540000", "141240.542000", "141240.545000", "141240.547000", "141240.550000", "141240.560000", "141240.563000", "141240.565000", "141240.567000", "141240.570000", "141240.573000", "141240.575000", "141240.578000", "141240.580000", "141240.583000", "141240.585000", "141240.588000", "141240.590000", "141240.593000", "141240.595000", "141240.610000", "141240.612000", "141240.615000", "141320.536000", "141320.539000", "141320.541000", "141320.544000", "141320.548000", "141320.551000", "141320.553000", "141320.556000", "141320.558000", "141320.561000", "141320.564000", "141320.566000", "141320.569000", "141320.571000", "141320.574000", "141320.577000", "141320.579000", "141320.582000", "141320.584000", "141320.587000", "141320.589000", "141320.592000", "141320.594000", "141320.597000", "141320.599000", "141320.602000", "141320.604000", "141340.460000", "141340.462000", "141340.465000", "141340.467000", "141340.470000", "141340.472000", "141340.475000", "141340.477000", "141340.480000", "141340.482000", "141340.485000", "141340.487000", "141340.490000", "141420.514000", "141420.517000", "141420.519000", "141420.522000", "141420.524000", "141420.527000", "141420.529000", "141420.532000", "141420.535000", "141420.537000", "141420.540000", "141420.542000", "141420.545000", "141420.548000", "141420.550000", "141420.553000", "141420.555000", "141420.558000", "141420.560000", "141420.563000", "141420.565000", "141420.568000", "141420.570000", "141420.572000", "141420.575000", "141420.578000", "141420.580000", "141501.024000", "141501.026000", "141501.029000", "141501.032000", "141501.034000", "141501.036000", "141501.039000", "141501.042000", "141501.044000", "141501.047000", "141501.049000", "141501.052000", "141501.054000", "141501.057000", "141501.059000", "141501.062000", "141501.064000", "141501.067000", "141501.069000", "141501.072000", "141501.074000", "141501.077000", "141501.079000", "141501.082000", "141501.084000", "141501.087000", "141501.089000", "141540.536000", "141540.539000", "141540.541000", "141540.544000", "141540.546000", "141540.549000", "141540.551000", "141540.554000", "141540.556000", "141540.559000", "141540.561000", "141540.564000", "141540.567000", "141540.569000", "141540.572000", "141540.574000", "141540.577000", "141540.579000", "141540.582000", "141540.584000", "141540.587000", "141540.589000", "141540.592000", "141540.594000", "141540.597000", "141540.599000", "141540.602000", "141620.509000", "141620.512000", "141620.515000", "141620.517000", "141620.520000", "141620.531000", "141620.533000", "141620.536000", "141620.538000", "141620.541000", "141620.543000", "141620.546000", "141620.548000", "141620.551000", "141620.553000", "141620.556000", "141620.558000", "141620.561000", "141620.563000", "141620.566000", "141620.568000", "141620.571000", "141620.573000", "141620.576000", "141620.578000", "141620.581000", "141620.583000", "141700.523000", "141700.526000", "141700.529000", "141700.531000", "141700.534000", "141700.536000", "141700.539000", "141700.541000", "141700.543000", "141700.546000", "141700.548000", "141700.551000", "141700.553000", "141700.556000", "141700.558000", "141700.561000", "141700.563000", "141700.566000", "141700.568000", "141700.571000", "141700.573000", "141700.576000", "141700.578000", "141700.581000", "141700.583000", "141700.586000", "141740.506000", "141740.509000", "141740.512000", "141740.514000", "141740.517000", "141740.519000", "141740.522000", "141740.524000", "141740.527000", "141740.529000", "141740.532000", "141740.534000", "141740.537000", "141740.539000", "141740.542000", "141740.544000", "141740.547000", "141740.549000", "141740.552000", "141740.554000", "141740.557000", "141740.559000", "141740.562000", "141740.564000", "141740.567000", "141740.569000", "141740.572000", "141741.942000"],
      "InstanceCreationTime": ["141100.581000", "141100.584000", "141100.586000", "141100.588000", "141100.591000", "141100.604000", "141100.606000", "141100.609000", "141100.611000", "141100.614000", "141100.616000", "141100.619000", "141100.621000", "141100.624000", "141100.626000", "141100.629000", "141100.631000", "141100.634000", "141100.636000", "141100.639000", "141100.641000", "141100.644000", "141100.646000", "141100.649000", "141100.651000", "141100.654000", "141100.656000", "141100.659000", "141100.661000", "141100.664000", "141100.666000", "141100.674000", "141100.676000", "141100.679000", "141100.681000", "141120.498000", "141120.501000", "141120.503000", "141120.506000", "141120.509000", "141120.511000", "141120.513000", "141120.516000", "141120.519000", "141120.521000", "141120.524000", "141120.526000", "141120.528000", "141120.531000", "141120.533000", "141120.536000", "141120.538000", "141120.541000", "141120.543000", "141120.546000", "141140.485000", "141140.488000", "141140.491000", "141140.493000", "141140.496000", "141140.498000", "141140.501000", "141140.504000", "141140.506000", "141140.509000", "141140.511000", "141140.514000", "141140.517000", "141140.519000", "141140.522000", "141140.524000", "141140.527000", "141140.529000", "141140.532000", "141140.535000", "141200.473000", "141200.476000", "141200.479000", "141200.481000", "141200.484000", "141200.486000", "141200.489000", "141200.491000", "141200.494000", "141200.496000", "141200.504000", "141200.507000", "141200.511000", "141200.513000", "141200.516000", "141200.518000", "141200.522000", "141200.524000", "141200.527000", "141200.530000", "141240.527000", "141240.530000", "141240.532000", "141240.535000", "141240.537000", "141240.540000", "141240.542000", "141240.545000", "141240.547000", "141240.550000", "141240.560000", "141240.563000", "141240.565000", "141240.567000", "141240.570000", "141240.573000", "141240.575000", "141240.578000", "141240.580000", "141240.583000", "141240.585000", "141240.588000", "141240.590000", "141240.593000", "141240.595000", "141240.610000", "141240.612000", "141240.615000", "141320.536000", "141320.539000", "141320.541000", "141320.544000", "141320.548000", "141320.551000", "141320.553000", "141320.556000", "141320.558000", "141320.561000", "141320.564000", "141320.566000", "141320.569000", "141320.571000", "141320.574000", "141320.577000", "141320.579000", "141320.582000", "141320.584000", "141320.587000", "141320.589000", "141320.592000", "141320.594000", "141320.597000", "141320.599000", "141320.602000", "141320.604000", "141340.460000", "141340.462000", "141340.465000", "141340.467000", "141340.470000", "141340.472000", "141340.475000", "141340.477000", "141340.480000", "141340.482000", "141340.485000", "141340.487000", "141340.490000", "141420.514000", "141420.517000", "141420.519000", "141420.522000", "141420.524000", "141420.527000", "141420.529000", "141420.532000", "141420.535000", "141420.537000", "141420.540000", "141420.542000", "141420.545000", "141420.548000", "141420.550000", "141420.553000", "141420.555000", "141420.558000", "141420.560000", "141420.563000", "141420.565000", "141420.568000", "141420.570000", "141420.572000", "141420.575000", "141420.578000", "141420.580000", "141501.024000", "141501.026000", "141501.029000", "141501.032000", "141501.034000", "141501.036000", "141501.039000", "141501.042000", "141501.044000", "141501.047000", "141501.049000", "141501.052000", "141501.054000", "141501.057000", "141501.059000", "141501.062000", "141501.064000", "141501.067000", "141501.069000", "141501.072000", "141501.074000", "141501.077000", "141501.079000", "141501.082000", "141501.084000", "141501.087000", "141501.089000", "141540.536000", "141540.539000", "141540.541000", "141540.544000", "141540.546000", "141540.549000", "141540.551000", "141540.554000", "141540.556000", "141540.559000", "141540.561000", "141540.564000", "141540.567000", "141540.569000", "141540.572000", "141540.574000", "141540.577000", "141540.579000", "141540.582000", "141540.584000", "141540.587000", "141540.589000", "141540.592000", "141540.594000", "141540.597000", "141540.599000", "141540.602000", "141620.509000", "141620.512000", "141620.515000", "141620.517000", "141620.520000", "141620.531000", "141620.533000", "141620.536000", "141620.538000", "141620.541000", "141620.543000", "141620.546000", "141620.548000", "141620.551000", "141620.553000", "141620.556000", "141620.558000", "141620.561000", "141620.563000", "141620.566000", "141620.568000", "141620.571000", "141620.573000", "141620.576000", "141620.578000", "141620.581000", "141620.583000", "141700.523000", "141700.526000", "141700.529000", "141700.531000", "141700.534000", "141700.536000", "141700.539000", "141700.541000", "141700.543000", "141700.546000", "141700.548000", "141700.551000", "141700.553000", "141700.556000", "141700.558000", "141700.561000", "141700.563000", "141700.566000", "141700.568000", "141700.571000", "141700.573000", "141700.576000", "141700.578000", "141700.581000", "141700.583000", "141700.586000", "141740.506000", "141740.509000", "141740.512000", "141740.514000", "141740.517000", "141740.519000", "141740.522000", "141740.524000", "141740.527000", "141740.529000", "141740.532000", "141740.534000", "141740.537000", "141740.539000", "141740.542000", "141740.544000", "141740.547000", "141740.549000", "141740.552000", "141740.554000", "141740.557000", "141740.559000", "141740.562000", "141740.564000", "141740.567000", "141740.569000", "141740.572000", "141741.942000"],
      "InstanceNumber": [1, 2, 3, 4, 5, 6, 7, 8, 9, 10, 11, 12, 13, 14, 15, 16, 17, 18, 19, 20, 21, 22, 23, 24, 25, 26, 27, 28, 29, 30, 31, 32, 33, 34, 35, 36, 37, 38, 39, 40, 41, 42, 43, 44, 45, 46, 47, 48, 49, 50, 51, 52, 53, 54, 55, 56, 57, 58, 59, 60, 61, 62, 63, 64, 65, 66, 67, 68, 69, 70, 71, 72, 73, 74, 75, 76, 77, 78, 79, 80, 81, 82, 83, 84, 85, 86, 87, 88, 89, 90, 91, 92, 93, 94, 95, 96, 97, 98, 99, 100, 101, 102, 103, 104, 105, 106, 107, 108, 109, 110, 111, 112, 113, 114, 115, 116, 117, 118, 119, 120, 121, 122, 123, 124, 125, 126, 127, 128, 129, 130, 131, 132, 133, 134, 135, 136, 137, 138, 139, 140, 141, 142, 143, 144, 145, 146, 147, 148, 149, 150, 151, 152, 153, 154, 155, 156, 157, 158, 159, 160, 161, 162, 163, 164, 165, 166, 167, 168, 169, 170, 171, 172, 173, 174, 175, 176, 177, 178, 179, 180, 181, 182, 183, 184, 185, 186, 187, 188, 189, 190, 191, 192, 193, 194, 195, 196, 197, 198, 199, 200, 201, 202, 203, 204, 205, 206, 207, 208, 209, 210, 211, 212, 213, 214, 215, 216, 217, 218, 219, 220, 221, 222, 223, 224, 225, 226, 227, 228, 229, 230, 231, 232, 233, 234, 235, 236, 237, 238, 239, 240, 241, 242, 243, 244, 245, 246, 247, 248, 249, 250, 251, 252, 253, 254, 255, 256, 257, 258, 259, 260, 261, 262, 263, 264, 265, 266, 267, 268, 269, 270, 271, 272, 273, 274, 275, 276, 277, 278, 279, 280, 281, 282, 283, 284, 285, 286, 287, 288, 289, 290, 291, 292, 293, 294, 295, 296, 297, 298, 299, 300, 301, 302, 303, 304, 305, 306, 307, 308, 309, 310, 311, 312, 313, 314, 315, 316, 317, 318, 319, 320, 321, 322, 323, 324, 325],
      "WindowCenter": [4856.0, 4856.0, 4854.0, 4856.0, 4856.0, 4856.0, 4854.0, 4856.0, 4858.0, 4854.0, 4854.0, 4856.0, 4856.0, 4854.0, 4856.0, 4856.0, 4854.0, 4832.0, 4856.0, 4858.0, 4854.0, 4856.0, 4836.0, 4854.0, 4854.0, 4854.0, 4858.0, 4856.0, 4854.0, 4858.0, 4858.0, 4856.0, 4832.0, 4856.0, 4854.0, 4856.0, 4856.0, 4832.0, 4856.0, 4854.0, 4854.0, 4852.0, 4830.0, 4854.0, 4834.0, 4826.0, 4830.0, 4834.0, 4858.0, 4856.0, 4832.0, 4830.0, 4852.0, 4854.0, 4854.0, 4832.0, 4856.0, 4834.0, 4836.0, 4856.0, 4858.0, 4854.0, 4858.0, 4858.0, 4856.0, 4856.0, 4856.0, 4858.0, 4834.0, 4862.0, 4836.0, 4834.0, 4858.0, 4856.0, 4858.0, 4854.0, 4834.0, 4856.0, 4856.0, 4854.0, 4834.0, 4860.0, 4858.0, 4860.0, 4858.0, 4862.0, 4856.0, 4856.0, 4856.0, 4856.0, 4856.0, 4856.0, 4854.0, 4858.0, 4834.0, 4858.0, 4834.0, 4858.0, 4858.0, 4858.0, 4858.0, 4856.0, 4856.0, 4852.0, 4856.0, 4854.0, 4852.0, 4830.0, 4856.0, 4856.0, 4854.0, 4856.0, 4856.0, 4856.0, 4856.0, 4856.0, 4856.0, 4860.0, 4856.0, 4832.0, 4858.0, 4856.0, 4858.0, 4856.0, 4858.0, 4856.0, 4834.0, 4856.0, 4832.0, 4858.0, 4832.0, 4832.0, 4858.0, 4858.0, 4860.0, 4836.0, 4858.0, 4858.0, 4836.0, 4860.0, 4862.0, 4860.0, 4860.0, 4862.0, 4834.0, 4856.0, 4860.0, 4858.0, 4864.0, 4862.0, 4858.0, 4860.0, 4858.0, 4862.0, 4860.0, 4858.0, 4858.0, 4860.0, 4858.0, 4856.0, 4858.0, 4858.0, 4858.0, 4860.0, 4860.0, 4858.0, 4860.0, 4856.0, 4858.0, 4860.0, 4860.0, 4858.0, 4858.0, 4858.0, 4862.0, 4858.0, 4858.0, 4858.0, 4854.0, 4854.0, 4856.0, 4858.0, 4858.0, 4858.0, 4856.0, 4858.0, 4862.0, 4858.0, 4860.0, 4858.0, 4856.0, 4830.0, 4836.0, 4860.0, 4856.0, 4862.0, 4860.0, 4860.0, 4858.0, 4860.0, 4858.0, 4860.0, 4858.0, 4860.0, 4858.0, 4856.0, 4858.0, 4862.0, 4860.0, 4856.0, 4858.0, 4858.0, 4860.0, 4864.0, 4860.0, 4856.0, 4860.0, 4832.0, 4860.0, 4856.0, 4858.0, 4860.0, 4860.0, 4858.0, 4856.0, 4834.0, 4830.0, 4860.0, 4860.0, 4860.0, 4858.0, 4856.0, 4856.0, 4860.0, 4858.0, 4860.0, 4860.0, 4858.0, 4858.0, 4858.0, 4860.0, 4860.0, 4858.0, 4856.0, 4858.0, 4856.0, 4860.0, 4858.0, 4858.0, 4860.0, 4858.0, 4858.0, 4858.0, 4856.0, 4832.0, 4858.0, 4854.0, 4856.0, 4862.0, 4858.0, 4856.0, 4834.0, 4832.0, 4834.0, 4836.0, 4858.0, 4856.0, 4854.0, 4856.0, 4858.0, 4860.0, 4856.0, 4858.0, 4836.0, 4862.0, 4860.0, 4862.0, 4860.0, 4856.0, 4854.0, 4858.0, 4858.0, 4856.0, 4854.0, 4862.0, 4860.0, 4860.0, 4860.0, 4860.0, 4858.0, 4854.0, 4828.0, 4856.0, 4832.0, 4860.0, 4858.0, 4860.0, 4858.0, 4860.0, 4858.0, 4858.0, 4860.0, 4858.0, 4834.0, 4834.0, 4856.0, 4858.0, 4856.0, 4856.0, 4860.0, 4858.0, 4856.0, 4828.0, 4856.0, 4832.0, 4834.0, 4856.0, 4834.0, 4856.0, 4858.0, 4832.0, 4854.0, 4832.0, 4858.0, 4856.0],
