{
  "AcquisitionMatrixPE": 104,
  "AcquisitionNumber": 1,
  "AcquisitionTime": "14:09:36.067500",
  "BandwidthPerPixelPhaseEncode": 17.17,
  "BaseResolution": 104,
  "BodyPartExamined": "BRAIN",
  "CoilCombinationMethod": "Sum of Squares",
  "ConsistencyInfo": "N4_VE11C_LATEST_20160120",
  "ConversionSoftware": "dcm2niix",
  "ConversionSoftwareVersion": "v1.0.20220505",
  "DerivedVendorReportedEchoSpacing": 0.000560011,
  "DeviceSerialNumber": "167006",
  "DwellTime": 2.1e-06,
  "EchoTime": 0.037,
  "EchoTrainLength": 104,
  "EffectiveEchoSpacing": 0.000560011,
  "FlipAngle": 52,
  "HeudiconvVersion": "0.5.3.post811+g6206e14",
  "ImageComments": "Unaliased MB4/PE3/LB",
  "ImageOrientationPatientDICOM": [0.99992, 0.0059029, 0.0111662, -0.00296681, 0.969104, -0.246634],
  "ImageOrientationText": "Tra>Cor(-14.3)>Sag(0.7)",
  "ImageType": [
    "ORIGINAL",
    "PRIMARY",
    "M",
    "MB",
    "ND",
    "MOSAIC"
],
  "ImagingFrequency": 123.26,
  "InPlanePhaseEncodingDirectionDICOM": "COL",
  "InstitutionAddress": "Chemin Queen-Mary 4565,Montreal,District,CA,H3W 1W5",
  "InstitutionName": "IUGM",
  "InstitutionalDepartmentName": "Department",
  "MRAcquisitionType": "2D",
  "MagneticFieldStrength": 3,
  "Manufacturer": "Siemens",
  "ManufacturersModelName": "Prisma_fit",
  "MatrixCoilMode": "SENSE",
  "Modality": "MR",
  "MultibandAccelerationFactor": 4,
  "PartialFourier": 1,
  "PatientPosition": "HFS",
  "PercentPhaseFOV": 100,
  "PercentSampling": 100,
  "PhaseEncodingDirection": "j",
  "PhaseEncodingSteps": 104,
  "PhaseResolution": 1,
  "PixelBandwidth": 2290,
  "ProcedureStepDescription": "games^mario3",
  "ProtocolName": "func_task-mario3_run-03",
  "PulseSequenceDetails": "%CustomerSeq%\\cmrr_mbep2d_bold",
  "ReceiveCoilActiveElements": "HC1-7;NC1,2",
  "ReceiveCoilName": "HeadNeck_64",
  "ReconMatrixPE": 104,
  "RepetitionTime": 1.49,
  "SAR": 0.0711433,
  "ScanOptions": "FS",
  "ScanningSequence": "EP",
  "SequenceName": "epfid2d1_104",
  "SequenceVariant": "SK\\SS",
  "SeriesDescription": "func_task-mario3_run-03",
  "SeriesNumber": 16,
  "ShimSetting": [616, -7224, -8757, 695, 52, -3, 29, -25],
  "SliceThickness": 2,
  "SliceTiming": [0, 0.785, 0.0975, 0.8825, 0.195, 0.98, 0.295, 1.0775, 0.3925, 1.175, 0.49, 1.275, 0.5875, 1.3725, 0.685, 0, 0.785, 0.0975, 0.8825, 0.195, 0.98, 0.295, 1.0775, 0.3925, 1.175, 0.49, 1.275, 0.5875, 1.3725, 0.685, 0, 0.785, 0.0975, 0.8825, 0.195, 0.98, 0.295, 1.0775, 0.3925, 1.175, 0.49, 1.275, 0.5875, 1.3725, 0.685, 0, 0.785, 0.0975, 0.8825, 0.195, 0.98, 0.295, 1.0775, 0.3925, 1.175, 0.49, 1.275, 0.5875, 1.3725, 0.685],
  "SoftwareVersions": "syngo MR E11",
  "SpacingBetweenSlices": 2,
  "StationName": "MRC35049",
  "TaskName": "mario3",
  "TotalReadoutTime": 0.0576811,
  "TxRefAmp": 262.346,
  "WipMemBlock": "60d2223b-b749-4da4-a1ce-1c55c8d2f994||Sequence: R017 ve11c/master r/75a17815+; Jun 28 2022 16:32:11 by eja",
  "dcmmeta_affine": [
    [-1.999840497970581, -0.005933612119406462, 0.024554096162319183, 108.77191925048828],
    [-0.011805800721049309, 1.9382084608078003, -0.493161678314209, -74.79946899414062],
    [0.022332364693284035, 0.4932672679424286, 1.9380888938903809, -53.7884521484375],
    [0.0, 0.0, 0.0, 1.0]
],
  "dcmmeta_reorient_transform": [
    [0.0, -1.0, 0.0, 103.0],
    [1.0, 0.0, 0.0, 0.0],
    [0.0, 0.0, 1.0, 0.0],
    [0.0, 0.0, 0.0, 1.0]
],
  "dcmmeta_shape": [104, 104, 60, 325],
  "dcmmeta_slice_dim": 2,
  "dcmmeta_version": 0.6,
  "global": {
    "const": {
      "AcquisitionMatrix": [104, 0, 0, 104],
      "AngioFlag": "N",
      "BitsAllocated": 16,
      "BitsStored": 16,
      "BodyPartExamined": "BRAIN",
      "Columns": 832,
      "EchoNumbers": 1,
      "EchoTime": 37.0,
      "EchoTrainLength": 104,
      "FlipAngle": 52.0,
      "HighBit": 15,
      "ImageOrientationPatient": [0.99992023289195, 0.00590290013589, 0.01116618212697, -0.0029668060989, 0.96910424881603, -0.2466336412339],
      "ImagePositionPatient": [-833.9428516663, -834.6412087007, 168.43838688395],
      "ImageType": [
        "ORIGINAL",
        "PRIMARY",
        "M",
        "MB",
        "ND",
        "MOSAIC"
],
      "ImagedNucleus": "1H",
      "ImagingFrequency": 123.260263,
      "InPlanePhaseEncodingDirection": "COL",
      "MRAcquisitionType": "2D",
      "MagneticFieldStrength": 3.0,
      "Manufacturer": "SIEMENS",
      "ManufacturerModelName": "Prisma_fit",
      "Modality": "MR",
      "NumberOfAverages": 1.0,
      "NumberOfPhaseEncodingSteps": 104,
      "PercentPhaseFieldOfView": 100.0,
      "PercentSampling": 100.0,
      "PerformedProcedureStepStartTime": "135021.407000",
      "PhotometricInterpretation": "MONOCHROME2",
      "PixelBandwidth": 2290.0,
      "PixelRepresentation": 0,
      "PixelSpacing": [2.0, 2.0],
      "ProtocolName": "func_task-mario3_run-03",
      "RepetitionTime": 1490.0,
      "Rows": 832,
      "SAR": 0.07114325490746,
      "SamplesPerPixel": 1,
      "ScanOptions": "FS",
      "ScanningSequence": "EP",
      "SequenceName": "epfid2d1_104",
      "SequenceVariant": [
        "SK",
        "SS"
],
      "SeriesDescription": "func_task-mario3_run-03",
      "SeriesNumber": 16,
      "SeriesTime": "141100.402000",
      "SliceLocation": -32.34388826241,
      "SliceThickness": 2.0,
      "SmallestImagePixelValue": 0,
      "SoftwareVersions": "syngo MR E11",
      "SpacingBetweenSlices": 2.0000000351483,
      "SpecificCharacterSet": "ISO_IR 100",
      "StudyID": "1",
      "StudyTime": "135021.338000",
      "TransmitCoilName": "Body",
      "VariableFlipAngleFlag": "N",
      "WindowCenterWidthExplanation": "Algo1",
      "dBdt": 0.0},
    "slices": {}
  },
  "time": {
    "samples": {
      "AcquisitionNumber": [1, 2, 3, 4, 5, 6, 7, 8, 9, 10, 11, 12, 13, 14, 15, 16, 17, 18, 19, 20, 21, 22, 23, 24, 25, 26, 27, 28, 29, 30, 31, 32, 33, 34, 35, 36, 37, 38, 39, 40, 41, 42, 43, 44, 45, 46, 47, 48, 49, 50, 51, 52, 53, 54, 55, 56, 57, 58, 59, 60, 61, 62, 63, 64, 65, 66, 67, 68, 69, 70, 71, 72, 73, 74, 75, 76, 77, 78, 79, 80, 81, 82, 83, 84, 85, 86, 87, 88, 89, 90, 91, 92, 93, 94, 95, 96, 97, 98, 99, 100, 101, 102, 103, 104, 105, 106, 107, 108, 109, 110, 111, 112, 113, 114, 115, 116, 117, 118, 119, 120, 121, 122, 123, 124, 125, 126, 127, 128, 129, 130, 131, 132, 133, 134, 135, 136, 137, 138, 139, 140, 141, 142, 143, 144, 145, 146, 147, 148, 149, 150, 151, 152, 153, 154, 155, 156, 157, 158, 159, 160, 161, 162, 163, 164, 165, 166, 167, 168, 169, 170, 171, 172, 173, 174, 175, 176, 177, 178, 179, 180, 181, 182, 183, 184, 185, 186, 187, 188, 189, 190, 191, 192, 193, 194, 195, 196, 197, 198, 199, 200, 201, 202, 203, 204, 205, 206, 207, 208, 209, 210, 211, 212, 213, 214, 215, 216, 217, 218, 219, 220, 221, 222, 223, 224, 225, 226, 227, 228, 229, 230, 231, 232, 233, 234, 235, 236, 237, 238, 239, 240, 241, 242, 243, 244, 245, 246, 247, 248, 249, 250, 251, 252, 253, 254, 255, 256, 257, 258, 259, 260, 261, 262, 263, 264, 265, 266, 267, 268, 269, 270, 271, 272, 273, 274, 275, 276, 277, 278, 279, 280, 281, 282, 283, 284, 285, 286, 287, 288, 289, 290, 291, 292, 293, 294, 295, 296, 297, 298, 299, 300, 301, 302, 303, 304, 305, 306, 307, 308, 309, 310, 311, 312, 313, 314, 315, 316, 317, 318, 319, 320, 321, 322, 323, 324, 325],
      "AcquisitionTime": ["140936.067500", "140937.557500", "140939.047500", "140940.537500", "140942.027500", "140943.517500", "140945.007500", "140946.497500", "140947.987500", "140949.477500", "140950.967500", "140952.457500", "140953.947500", "140955.437500", "140956.927500", "140958.417500", "140959.907500", "141001.397500", "141002.887500", "141004.377500", "141005.867500", "141007.357500", "141008.847500", "141010.337500", "141011.827500", "141013.317500", "141014.807500", "141016.297500", "141017.787500", "141019.277500", "141020.767500", "141022.257500", "141023.747500", "141025.237500", "141026.727500", "141028.217500", "141029.707500", "141031.197500", "141032.687500", "141034.177500", "141035.667500", "141037.157500", "141038.647500", "141040.137500", "141041.627500", "141043.117500", "141044.607500", "141046.097500", "141047.587500", "141049.077500", "141050.567500", "141052.057500", "141053.547500", "141055.037500", "141056.527500", "141058.017500", "141059.507500", "141100.997500", "141102.487500", "141103.977500", "141105.467500", "141106.957500", "141108.447500", "141109.937500", "141111.427500", "141112.917500", "141114.407500", "141115.897500", "141117.387500", "141118.877500", "141120.367500", "141121.857500", "141123.347500", "141124.837500", "141126.327500", "141127.817500", "141129.307500", "141130.797500", "141132.287500", "141133.777500", "141135.267500", "141136.757500", "141138.247500", "141139.737500", "141141.227500", "141142.717500", "141144.207500", "141145.697500", "141147.187500", "141148.677500", "141150.167500", "141151.657500", "141153.147500", "141154.637500", "141156.127500", "141157.617500", "141159.107500", "141200.597500", "141202.087500", "141203.577500", "141205.067500", "141206.557500", "141208.047500", "141209.537500", "141211.027500", "141212.517500", "141214.007500", "141215.497500", "141216.987500", "141218.477500", "141219.967500", "141221.457500", "141222.947500", "141224.437500", "141225.927500", "141227.417500", "141228.907500", "141230.397500", "141231.887500", "141233.377500", "141234.867500", "141236.357500", "141237.847500", "141239.337500", "141240.827500", "141242.317500", "141243.807500", "141245.297500", "141246.787500", "141248.277500", "141249.767500", "141251.257500", "141252.747500", "141254.237500", "141255.727500", "141257.217500", "141258.707500", "141300.197500", "141301.687500", "141303.177500", "141304.667500", "141306.157500", "141307.647500", "141309.137500", "141310.627500", "141312.117500", "141313.607500", "141315.097500", "141316.587500", "141318.077500", "141319.567500", "141321.057500", "141322.547500", "141324.037500", "141325.527500", "141327.017500", "141328.507500", "141329.997500", "141331.487500", "141332.977500", "141334.467500", "141335.957500", "141337.447500", "141338.937500", "141340.427500", "141341.917500", "141343.407500", "141344.897500", "141346.387500", "141347.877500", "141349.367500", "141350.857500", "141352.347500", "141353.837500", "141355.327500", "141356.817500", "141358.307500", "141359.797500", "141401.287500", "141402.777500", "141404.267500", "141405.757500", "141407.247500", "141408.737500", "141410.227500", "141411.717500", "141413.207500", "141414.697500", "141416.187500", "141417.677500", "141419.167500", "141420.657500", "141422.147500", "141423.637500", "141425.127500", "141426.617500", "141428.107500", "141429.597500", "141431.087500", "141432.577500", "141434.067500", "141435.557500", "141437.047500", "141438.537500", "141440.027500", "141441.517500", "141443.007500", "141444.497500", "141445.987500", "141447.477500", "141448.967500", "141450.457500", "141451.947500", "141453.437500", "141454.927500", "141456.417500", "141457.907500", "141459.397500", "141500.887500", "141502.377500", "141503.867500", "141505.357500", "141506.847500", "141508.337500", "141509.827500", "141511.317500", "141512.807500", "141514.297500", "141515.787500", "141517.277500", "141518.767500", "141520.257500", "141521.747500", "141523.237500", "141524.727500", "141526.217500", "141527.707500", "141529.197500", "141530.687500", "141532.177500", "141533.667500", "141535.157500", "141536.647500", "141538.137500", "141539.627500", "141541.117500", "141542.607500", "141544.097500", "141545.587500", "141547.077500", "141548.567500", "141550.057500", "141551.547500", "141553.037500", "141554.527500", "141556.017500", "141557.507500", "141558.997500", "141600.487500", "141601.977500", "141603.467500", "141604.957500", "141606.447500", "141607.937500", "141609.427500", "141610.917500", "141612.407500", "141613.897500", "141615.387500", "141616.877500", "141618.367500", "141619.857500", "141621.347500", "141622.837500", "141624.327500", "141625.817500", "141627.307500", "141628.797500", "141630.287500", "141631.777500", "141633.267500", "141634.757500", "141636.247500", "141637.737500", "141639.227500", "141640.717500", "141642.207500", "141643.697500", "141645.187500", "141646.677500", "141648.167500", "141649.657500", "141651.147500", "141652.637500", "141654.127500", "141655.617500", "141657.107500", "141658.597500", "141700.087500", "141701.577500", "141703.067500", "141704.557500", "141706.047500", "141707.537500", "141709.027500", "141710.517500", "141712.007500", "141713.497500", "141714.987500", "141716.477500", "141717.967500", "141719.457500", "141720.947500", "141722.437500", "141723.927500", "141725.417500", "141726.907500", "141728.397500", "141729.887500", "141731.377500", "141732.867500", "141734.357500", "141735.847500", "141737.337500", "141738.827500"],
      "ContentTime": ["141100.406000", "141100.409000", "141100.413000", "141100.416000", "141100.419000", "141100.423000", "141100.426000", "141100.437000", "141100.440000", "141100.443000", "141100.446000", "141100.450000", "141100.453000", "141100.462000", "141100.465000", "141100.469000", "141100.472000", "141100.475000", "141100.478000", "141100.482000", "141100.485000", "141100.489000", "141100.492000", "141100.495000", "141100.498000", "141100.502000", "141100.505000", "141100.508000", "141100.511000", "141100.515000", "141100.518000", "141100.521000", "141100.524000", "141100.528000", "141100.531000", "141120.373000", "141120.377000", "141120.380000", "141120.397000", "141120.400000", "141120.403000", "141120.406000", "141120.410000", "141120.413000", "141120.416000", "141120.419000", "141120.423000", "141120.426000", "141120.429000", "141120.433000", "141120.436000", "141120.439000", "141120.442000", "141120.446000", "141120.449000", "141140.372000", "141140.376000", "141140.379000", "141140.382000", "141140.386000", "141140.389000", "141140.392000", "141140.395000", "141140.399000", "141140.402000", "141140.405000", "141140.409000", "141140.412000", "141140.415000", "141140.418000", "141140.422000", "141140.425000", "141140.428000", "141140.432000", "141140.435000", "141200.372000", "141200.376000", "141200.379000", "141200.382000", "141200.385000", "141200.389000", "141200.392000", "141200.395000", "141200.398000", "141200.402000", "141200.405000", "141200.408000", "141200.412000", "141200.415000", "141200.418000", "141200.422000", "141200.426000", "141200.430000", "141200.433000", "141200.437000", "141240.372000", "141240.376000", "141240.379000", "141240.382000", "141240.385000", "141240.389000", "141240.392000", "141240.395000", "141240.399000", "141240.402000", "141240.405000", "141240.408000", "141240.412000", "141240.415000", "141240.418000", "141240.421000", "141240.439000", "141240.443000", "141240.446000", "141240.449000", "141240.453000", "141240.456000", "141240.459000", "141240.462000", "141240.466000", "141240.469000", "141240.472000", "141240.475000", "141320.373000", "141320.398000", "141320.402000", "141320.405000", "141320.408000", "141320.411000", "141320.415000", "141320.418000", "141320.421000", "141320.424000", "141320.427000", "141320.431000", "141320.434000", "141320.437000", "141320.441000", "141320.444000", "141320.447000", "141320.450000", "141320.454000", "141320.457000", "141320.460000", "141320.464000", "141320.467000", "141320.470000", "141320.473000", "141320.477000", "141320.480000", "141340.373000", "141340.377000", "141340.380000", "141340.383000", "141340.387000", "141340.390000", "141340.393000", "141340.397000", "141340.400000", "141340.403000", "141340.420000", "141340.424000", "141340.427000", "141420.372000", "141420.376000", "141420.379000", "141420.382000", "141420.386000", "141420.389000", "141420.392000", "141420.395000", "141420.399000", "141420.402000", "141420.405000", "141420.408000", "141420.412000", "141420.415000", "141420.418000", "141420.422000", "141420.425000", "141420.428000", "141420.431000", "141420.435000", "141420.438000", "141420.441000", "141420.445000", "141420.448000", "141420.451000", "141420.455000", "141420.458000", "141500.372000", "141500.376000", "141500.379000", "141500.382000", "141500.386000", "141500.389000", "141500.392000", "141500.396000", "141500.399000", "141500.402000", "141500.406000", "141500.409000", "141500.429000", "141500.432000", "141500.436000", "141500.439000", "141500.442000", "141500.445000", "141500.449000", "141500.452000", "141500.455000", "141500.459000", "141500.462000", "141500.465000", "141500.468000", "141500.472000", "141500.475000", "141540.373000", "141540.377000", "141540.380000", "141540.384000", "141540.387000", "141540.390000", "141540.394000", "141540.397000", "141540.400000", "141540.403000", "141540.407000", "141540.410000", "141540.413000", "141540.417000", "141540.420000", "141540.423000", "141540.427000", "141540.430000", "141540.433000", "141540.437000", "141540.440000", "141540.443000", "141540.447000", "141540.450000", "141540.453000", "141540.456000", "141540.460000", "141620.372000", "141620.376000", "141620.379000", "141620.382000", "141620.386000", "141620.389000", "141620.392000", "141620.395000", "141620.399000", "141620.402000", "141620.405000", "141620.409000", "141620.412000", "141620.415000", "141620.419000", "141620.422000", "141620.425000", "141620.428000", "141620.432000", "141620.435000", "141620.438000", "141620.442000", "141620.445000", "141620.448000", "141620.452000", "141620.455000", "141620.458000", "141700.372000", "141700.376000", "141700.379000", "141700.382000", "141700.386000", "141700.389000", "141700.392000", "141700.395000", "141700.399000", "141700.402000", "141700.406000", "141700.409000", "141700.412000", "141700.416000", "141700.419000", "141700.422000", "141700.425000", "141700.429000", "141700.432000", "141700.435000", "141700.438000", "141700.442000", "141700.445000", "141700.458000", "141700.462000", "141700.465000", "141740.372000", "141740.376000", "141740.379000", "141740.383000", "141740.387000", "141740.391000", "141740.394000", "141740.398000", "141740.402000", "141740.405000", "141740.408000", "141740.412000", "141740.415000", "141740.418000", "141740.421000", "141740.425000", "141740.428000", "141740.432000", "141740.435000", "141740.438000", "141740.441000", "141740.445000", "141740.448000", "141740.451000", "141740.455000", "141740.458000", "141740.461000", "141741.917000"],
      "InstanceCreationTime": ["141100.406000", "141100.409000", "141100.413000", "141100.416000", "141100.419000", "141100.423000", "141100.426000", "141100.437000", "141100.440000", "141100.443000", "141100.446000", "141100.450000", "141100.453000", "141100.462000", "141100.465000", "141100.469000", "141100.472000", "141100.475000", "141100.478000", "141100.482000", "141100.485000", "141100.489000", "141100.492000", "141100.495000", "141100.498000", "141100.502000", "141100.505000", "141100.508000", "141100.511000", "141100.515000", "141100.518000", "141100.521000", "141100.524000", "141100.528000", "141100.531000", "141120.373000", "141120.377000", "141120.380000", "141120.397000", "141120.400000", "141120.403000", "141120.406000", "141120.410000", "141120.413000", "141120.416000", "141120.419000", "141120.423000", "141120.426000", "141120.429000", "141120.433000", "141120.436000", "141120.439000", "141120.442000", "141120.446000", "141120.449000", "141140.372000", "141140.376000", "141140.379000", "141140.382000", "141140.386000", "141140.389000", "141140.392000", "141140.395000", "141140.399000", "141140.402000", "141140.405000", "141140.409000", "141140.412000", "141140.415000", "141140.418000", "141140.422000", "141140.425000", "141140.428000", "141140.432000", "141140.435000", "141200.372000", "141200.376000", "141200.379000", "141200.382000", "141200.385000", "141200.389000", "141200.392000", "141200.395000", "141200.398000", "141200.402000", "141200.405000", "141200.408000", "141200.412000", "141200.415000", "141200.418000", "141200.422000", "141200.426000", "141200.430000", "141200.433000", "141200.437000", "141240.372000", "141240.376000", "141240.379000", "141240.382000", "141240.385000", "141240.389000", "141240.392000", "141240.395000", "141240.399000", "141240.402000", "141240.405000", "141240.408000", "141240.412000", "141240.415000", "141240.418000", "141240.421000", "141240.439000", "141240.443000", "141240.446000", "141240.449000", "141240.453000", "141240.456000", "141240.459000", "141240.462000", "141240.466000", "141240.469000", "141240.472000", "141240.475000", "141320.373000", "141320.398000", "141320.402000", "141320.405000", "141320.408000", "141320.411000", "141320.415000", "141320.418000", "141320.421000", "141320.424000", "141320.427000", "141320.431000", "141320.434000", "141320.437000", "141320.441000", "141320.444000", "141320.447000", "141320.450000", "141320.454000", "141320.457000", "141320.460000", "141320.464000", "141320.467000", "141320.470000", "141320.473000", "141320.477000", "141320.480000", "141340.373000", "141340.377000", "141340.380000", "141340.383000", "141340.387000", "141340.390000", "141340.393000", "141340.397000", "141340.400000", "141340.403000", "141340.420000", "141340.424000", "141340.427000", "141420.372000", "141420.376000", "141420.379000", "141420.382000", "141420.386000", "141420.389000", "141420.392000", "141420.395000", "141420.399000", "141420.402000", "141420.405000", "141420.408000", "141420.412000", "141420.415000", "141420.418000", "141420.422000", "141420.425000", "141420.428000", "141420.431000", "141420.435000", "141420.438000", "141420.441000", "141420.445000", "141420.448000", "141420.451000", "141420.455000", "141420.458000", "141500.372000", "141500.376000", "141500.379000", "141500.382000", "141500.386000", "141500.389000", "141500.392000", "141500.396000", "141500.399000", "141500.402000", "141500.406000", "141500.409000", "141500.429000", "141500.432000", "141500.436000", "141500.439000", "141500.442000", "141500.445000", "141500.449000", "141500.452000", "141500.455000", "141500.459000", "141500.462000", "141500.465000", "141500.468000", "141500.472000", "141500.475000", "141540.373000", "141540.377000", "141540.380000", "141540.384000", "141540.387000", "141540.390000", "141540.394000", "141540.397000", "141540.400000", "141540.403000", "141540.407000", "141540.410000", "141540.413000", "141540.417000", "141540.420000", "141540.423000", "141540.427000", "141540.430000", "141540.433000", "141540.437000", "141540.440000", "141540.443000", "141540.447000", "141540.450000", "141540.453000", "141540.456000", "141540.460000", "141620.372000", "141620.376000", "141620.379000", "141620.382000", "141620.386000", "141620.389000", "141620.392000", "141620.395000", "141620.399000", "141620.402000", "141620.405000", "141620.409000", "141620.412000", "141620.415000", "141620.419000", "141620.422000", "141620.425000", "141620.428000", "141620.432000", "141620.435000", "141620.438000", "141620.442000", "141620.445000", "141620.448000", "141620.452000", "141620.455000", "141620.458000", "141700.372000", "141700.376000", "141700.379000", "141700.382000", "141700.386000", "141700.389000", "141700.392000", "141700.395000", "141700.399000", "141700.402000", "141700.406000", "141700.409000", "141700.412000", "141700.416000", "141700.419000", "141700.422000", "141700.425000", "141700.429000", "141700.432000", "141700.435000", "141700.438000", "141700.442000", "141700.445000", "141700.458000", "141700.462000", "141700.465000", "141740.372000", "141740.376000", "141740.379000", "141740.383000", "141740.387000", "141740.391000", "141740.394000", "141740.398000", "141740.402000", "141740.405000", "141740.408000", "141740.412000", "141740.415000", "141740.418000", "141740.421000", "141740.425000", "141740.428000", "141740.432000", "141740.435000", "141740.438000", "141740.441000", "141740.445000", "141740.448000", "141740.451000", "141740.455000", "141740.458000", "141740.461000", "141741.917000"],
      "InstanceNumber": [1, 2, 3, 4, 5, 6, 7, 8, 9, 10, 11, 12, 13, 14, 15, 16, 17, 18, 19, 20, 21, 22, 23, 24, 25, 26, 27, 28, 29, 30, 31, 32, 33, 34, 35, 36, 37, 38, 39, 40, 41, 42, 43, 44, 45, 46, 47, 48, 49, 50, 51, 52, 53, 54, 55, 56, 57, 58, 59, 60, 61, 62, 63, 64, 65, 66, 67, 68, 69, 70, 71, 72, 73, 74, 75, 76, 77, 78, 79, 80, 81, 82, 83, 84, 85, 86, 87, 88, 89, 90, 91, 92, 93, 94, 95, 96, 97, 98, 99, 100, 101, 102, 103, 104, 105, 106, 107, 108, 109, 110, 111, 112, 113, 114, 115, 116, 117, 118, 119, 120, 121, 122, 123, 124, 125, 126, 127, 128, 129, 130, 131, 132, 133, 134, 135, 136, 137, 138, 139, 140, 141, 142, 143, 144, 145, 146, 147, 148, 149, 150, 151, 152, 153, 154, 155, 156, 157, 158, 159, 160, 161, 162, 163, 164, 165, 166, 167, 168, 169, 170, 171, 172, 173, 174, 175, 176, 177, 178, 179, 180, 181, 182, 183, 184, 185, 186, 187, 188, 189, 190, 191, 192, 193, 194, 195, 196, 197, 198, 199, 200, 201, 202, 203, 204, 205, 206, 207, 208, 209, 210, 211, 212, 213, 214, 215, 216, 217, 218, 219, 220, 221, 222, 223, 224, 225, 226, 227, 228, 229, 230, 231, 232, 233, 234, 235, 236, 237, 238, 239, 240, 241, 242, 243, 244, 245, 246, 247, 248, 249, 250, 251, 252, 253, 254, 255, 256, 257, 258, 259, 260, 261, 262, 263, 264, 265, 266, 267, 268, 269, 270, 271, 272, 273, 274, 275, 276, 277, 278, 279, 280, 281, 282, 283, 284, 285, 286, 287, 288, 289, 290, 291, 292, 293, 294, 295, 296, 297, 298, 299, 300, 301, 302, 303, 304, 305, 306, 307, 308, 309, 310, 311, 312, 313, 314, 315, 316, 317, 318, 319, 320, 321, 322, 323, 324, 325],
      "LargestImagePixelValue": [41661, 40241, 39540, 39591, 39360, 39552, 39022, 39421, 39311, 38973, 38630, 39044, 39040, 39694, 39937, 39056, 39044, 38849, 39320, 38902, 38804, 38573, 38078, 38887, 38700, 38814, 38414, 38602, 38943, 39633, 39522, 39351, 39270, 39024, 38941, 39164, 39039, 39246, 39244, 39737, 40120, 39398, 38500, 37612, 37757, 37950, 37771, 39095, 38981, 38402, 38932, 39528, 39128, 38503, 38799, 38239, 38691, 38596, 38485, 38409, 39150, 39227, 39776, 39050, 40024, 39634, 39354, 39306, 38634, 38729, 39057, 38676, 39318, 38846, 39163, 39450, 39851, 40340, 40182, 40235, 39812, 39805, 40028, 40252, 40036, 39566, 39163, 38279, 38600, 39855, 39684, 39941, 40276, 40130, 39699, 39863, 39493, 39683, 39166, 39598, 39914, 40087, 39396, 38475, 38372, 39484, 39520, 39279, 40043, 40189, 40645, 40461, 40385, 39955, 40104, 39946, 39743, 40081, 40259, 39962, 39967, 39900, 40108, 39782, 39841, 40439, 41071, 40496, 40307, 41038, 40177, 39834, 40138, 39669, 39284, 39075, 38742, 39333, 39139, 39814, 40131, 39080, 39814, 38918, 38982, 40849, 40045, 40417, 39046, 38617, 38262, 38551, 38384, 40301, 39401, 38861, 38518, 38641, 38475, 39008, 38468, 38536, 39117, 38903, 39519, 38126, 38643, 38612, 38830, 38022, 38090, 38407, 38165, 38370, 38836, 38899, 38947, 39206, 39990, 39409, 39345, 39908, 40512, 39871, 39958, 39615, 40225, 40227, 39682, 39492, 39597, 39691, 39799, 39022, 39122, 38964, 39077, 39760, 39629, 39864, 39236, 38955, 39566, 39413, 38896, 39864, 39023, 38285, 38210, 39080, 38898, 38578, 38659, 38759, 38615, 39422, 38949, 38813, 39487, 39418, 39633, 39084, 39657, 39305, 38548, 39793, 40279, 40407, 40401, 38793, 39191, 38758, 39125, 38861, 38870, 38562, 39097, 38799, 38886, 38993, 39440, 38542, 38675, 38055, 38262, 38488, 38467, 39216, 38659, 38237, 38267, 38488, 38718, 39503, 39139, 38996, 39435, 39433, 38922, 39016, 39010, 38151, 39566, 38844, 38297, 37961, 39392, 39545, 39908, 38691, 39704, 39299, 38953, 39282, 40065, 39295, 38772, 39995, 39583, 38848, 38583, 39121, 39349, 39299, 37963, 39830, 39467, 38635, 39609, 38786, 39912, 37892, 37938, 38619, 38699, 38624, 38937, 38399, 38204, 38409, 38521, 39067, 38412, 38775, 38780, 38673, 38310, 37964, 38128, 37687, 37761, 39596, 38068, 38643, 39005, 38911, 37182, 38052, 38584, 37629, 37213, 38160, 38363, 37596, 37336],
