{
  "AcquisitionMatrixPE": 104,
  "AcquisitionNumber": 1,
  "AcquisitionTime": "13:53:20.670000",
  "BandwidthPerPixelPhaseEncode": 17.17,
  "BaseResolution": 104,
  "BodyPartExamined": "BRAIN",
  "CoilCombinationMethod": "Sum of Squares",
  "ConsistencyInfo": "N4_VE11C_LATEST_20160120",
  "ConversionSoftware": "dcm2niix",
  "ConversionSoftwareVersion": "v1.0.20220505",
  "DerivedVendorReportedEchoSpacing": 0.000560011,
  "DeviceSerialNumber": "167006",
  "DwellTime": 2.1e-06,
  "EchoTime": 0.037,
  "EchoTime1": 0.037,
  "EchoTime2": 0.001,
  "EchoTrainLength": 104,
  "EffectiveEchoSpacing": 0.000560011,
  "FlipAngle": 52,
  "HeudiconvVersion": "0.5.3.post811+g6206e14",
  "ImageComments": "Unaliased MB4/PE3/LB",
  "ImageOrientationPatientDICOM": [0.99992, 0.0059029, 0.0111662, -0.00296681, 0.969104, -0.246634],
  "ImageOrientationText": "Tra>Cor(-14.3)>Sag(0.7)",
  "ImageType": [
    "ORIGINAL",
    "PRIMARY",
    "P",
    "MB",
    "ND",
    "MOSAIC",
    "PHASE"
],
  "ImagingFrequency": 123.26,
  "InPlanePhaseEncodingDirectionDICOM": "COL",
  "InstitutionAddress": "Chemin Queen-Mary 4565,Montreal,District,CA,H3W 1W5",
  "InstitutionName": "IUGM",
  "InstitutionalDepartmentName": "Department",
  "MRAcquisitionType": "2D",
  "MagneticFieldStrength": 3,
  "Manufacturer": "Siemens",
  "ManufacturersModelName": "Prisma_fit",
  "MatrixCoilMode": "SENSE",
  "Modality": "MR",
  "MultibandAccelerationFactor": 4,
  "PartialFourier": 1,
  "PatientPosition": "HFS",
  "PercentPhaseFOV": 100,
  "PercentSampling": 100,
  "PhaseEncodingDirection": "j",
  "PhaseEncodingSteps": 104,
  "PhaseResolution": 1,
  "PixelBandwidth": 2290,
  "ProcedureStepDescription": "games^mario3",
  "ProtocolName": "func_task-mario3_run-01",
  "PulseSequenceDetails": "%CustomerSeq%\\cmrr_mbep2d_bold",
  "ReceiveCoilActiveElements": "HC1-7;NC1,2",
  "ReceiveCoilName": "HeadNeck_64",
  "ReconMatrixPE": 104,
  "RepetitionTime": 1.49,
  "SAR": 0.0711433,
  "ScanOptions": "FS",
  "ScanningSequence": "EP",
  "SequenceName": "epfid2d1_104",
  "SequenceVariant": "SK\\SS",
  "SeriesDescription": "func_task-mario3_run-01",
  "SeriesNumber": 11,
  "ShimSetting": [616, -7224, -8757, 695, 52, -3, 29, -25],
  "SliceThickness": 2,
  "SliceTiming": [0, 0.785, 0.0975, 0.8825, 0.1975, 0.98, 0.295, 1.0775, 0.3925, 1.175, 0.49, 1.275, 0.5875, 1.3725, 0.6875, 0, 0.785, 0.0975, 0.8825, 0.1975, 0.98, 0.295, 1.0775, 0.3925, 1.175, 0.49, 1.275, 0.5875, 1.3725, 0.6875, 0, 0.785, 0.0975, 0.8825, 0.1975, 0.98, 0.295, 1.0775, 0.3925, 1.175, 0.49, 1.275, 0.5875, 1.3725, 0.6875, 0, 0.785, 0.0975, 0.8825, 0.1975, 0.98, 0.295, 1.0775, 0.3925, 1.175, 0.49, 1.275, 0.5875, 1.3725, 0.6875],
  "SoftwareVersions": "syngo MR E11",
  "SpacingBetweenSlices": 2,
  "StationName": "MRC35049",
  "TaskName": "mario3",
  "TotalReadoutTime": 0.0576811,
  "TxRefAmp": 262.346,
  "WipMemBlock": "d0d9b96d-93c7-45c1-9c7a-0488ac10702f||Sequence: R017 ve11c/master r/75a17815+; Jun 28 2022 16:32:11 by eja",
  "dcmmeta_affine": [
    [-1.999840497970581, -0.005933612119406462, 0.024554096162319183, 108.77191925048828],
    [-0.011805800721049309, 1.9382084608078003, -0.493161678314209, -74.79946899414062],
    [0.022332364693284035, 0.4932672679424286, 1.9380888938903809, -53.7884521484375],
    [0.0, 0.0, 0.0, 1.0]
],
  "dcmmeta_reorient_transform": [
    [0.0, -1.0, 0.0, 103.0],
    [1.0, 0.0, 0.0, 0.0],
    [0.0, 0.0, 1.0, 0.0],
    [0.0, 0.0, 0.0, 1.0]
],
  "dcmmeta_shape": [104, 104, 60, 310],
  "dcmmeta_slice_dim": 2,
  "dcmmeta_version": 0.6,
  "global": {
    "const": {
      "AcquisitionMatrix": [104, 0, 0, 104],
      "AngioFlag": "N",
      "BitsAllocated": 16,
      "BitsStored": 16,
      "BodyPartExamined": "BRAIN",
      "Columns": 832,
      "EchoNumbers": 1,
      "EchoTime": 37.0,
      "EchoTrainLength": 104,
      "FlipAngle": 52.0,
      "HighBit": 15,
      "ImageOrientationPatient": [0.99992023289195, 0.00590290013589, 0.01116618212697, -0.0029668060989, 0.96910424881603, -0.2466336412339],
      "ImagePositionPatient": [-833.9428516663, -834.6412087007, 168.43838688395],
      "ImageType": [
        "ORIGINAL",
        "PRIMARY",
        "P",
        "MB",
        "ND",
        "MOSAIC"
],
      "ImagedNucleus": "1H",
      "ImagingFrequency": 123.260254,
      "InPlanePhaseEncodingDirection": "COL",
      "LargestImagePixelValue": 4095,
      "MRAcquisitionType": "2D",
      "MagneticFieldStrength": 3.0,
      "Manufacturer": "SIEMENS",
      "ManufacturerModelName": "Prisma_fit",
      "Modality": "MR",
      "NumberOfAverages": 1.0,
      "NumberOfPhaseEncodingSteps": 104,
      "PercentPhaseFieldOfView": 100.0,
      "PercentSampling": 100.0,
      "PerformedProcedureStepStartTime": "135021.407000",
      "PhotometricInterpretation": "MONOCHROME2",
      "PixelBandwidth": 2290.0,
      "PixelRepresentation": 0,
      "PixelSpacing": [2.0, 2.0],
      "ProtocolName": "func_task-mario3_run-01",
      "RepetitionTime": 1490.0,
      "RescaleIntercept": -4096.0,
      "RescaleSlope": 2.0,
      "RescaleType": "US",
      "Rows": 832,
      "SAR": 0.07114325490746,
      "SamplesPerPixel": 1,
      "ScanOptions": "FS",
      "ScanningSequence": "EP",
      "SequenceName": "epfid2d1_104",
      "SequenceVariant": [
        "SK",
        "SS"
],
      "SeriesDescription": "func_task-mario3_run-01",
      "SeriesNumber": 11,
      "SeriesTime": "135426.673000",
      "SliceLocation": -32.34388826241,
      "SliceThickness": 2.0,
      "SmallestImagePixelValue": 0,
      "SoftwareVersions": "syngo MR E11",
      "SpacingBetweenSlices": 2.0000000351483,
      "SpecificCharacterSet": "ISO_IR 100",
      "StudyID": "1",
      "StudyTime": "135021.338000",
      "TransmitCoilName": "Body",
      "VariableFlipAngleFlag": "N",
      "WindowCenterWidthExplanation": "Algo1",
      "dBdt": 0.0},
    "slices": {}
  },
  "time": {
    "samples": {
      "AcquisitionNumber": [1, 2, 3, 4, 5, 6, 7, 8, 9, 10, 11, 12, 13, 14, 15, 16, 17, 18, 19, 20, 21, 22, 23, 24, 25, 26, 27, 28, 29, 30, 31, 32, 33, 34, 35, 36, 37, 38, 39, 40, 41, 42, 43, 44, 45, 46, 47, 48, 49, 50, 51, 52, 53, 54, 55, 56, 57, 58, 59, 60, 61, 62, 63, 64, 65, 66, 67, 68, 69, 70, 71, 72, 73, 74, 75, 76, 77, 78, 79, 80, 81, 82, 83, 84, 85, 86, 87, 88, 89, 90, 91, 92, 93, 94, 95, 96, 97, 98, 99, 100, 101, 102, 103, 104, 105, 106, 107, 108, 109, 110, 111, 112, 113, 114, 115, 116, 117, 118, 119, 120, 121, 122, 123, 124, 125, 126, 127, 128, 129, 130, 131, 132, 133, 134, 135, 136, 137, 138, 139, 140, 141, 142, 143, 144, 145, 146, 147, 148, 149, 150, 151, 152, 153, 154, 155, 156, 157, 158, 159, 160, 161, 162, 163, 164, 165, 166, 167, 168, 169, 170, 171, 172, 173, 174, 175, 176, 177, 178, 179, 180, 181, 182, 183, 184, 185, 186, 187, 188, 189, 190, 191, 192, 193, 194, 195, 196, 197, 198, 199, 200, 201, 202, 203, 204, 205, 206, 207, 208, 209, 210, 211, 212, 213, 214, 215, 216, 217, 218, 219, 220, 221, 222, 223, 224, 225, 226, 227, 228, 229, 230, 231, 232, 233, 234, 235, 236, 237, 238, 239, 240, 241, 242, 243, 244, 245, 246, 247, 248, 249, 250, 251, 252, 253, 254, 255, 256, 257, 258, 259, 260, 261, 262, 263, 264, 265, 266, 267, 268, 269, 270, 271, 272, 273, 274, 275, 276, 277, 278, 279, 280, 281, 282, 283, 284, 285, 286, 287, 288, 289, 290, 291, 292, 293, 294, 295, 296, 297, 298, 299, 300, 301, 302, 303, 304, 305, 306, 307, 308, 309, 310],
      "AcquisitionTime": ["135320.670000", "135322.160000", "135323.650000", "135325.140000", "135326.630000", "135328.120000", "135329.610000", "135331.100000", "135332.590000", "135334.080000", "135335.570000", "135337.060000", "135338.550000", "135340.040000", "135341.530000", "135343.020000", "135344.510000", "135346.000000", "135347.490000", "135348.980000", "135350.470000", "135351.960000", "135353.450000", "135354.940000", "135356.430000", "135357.920000", "135359.410000", "135400.900000", "135402.390000", "135403.880000", "135405.370000", "135406.860000", "135408.350000", "135409.840000", "135411.330000", "135412.820000", "135414.310000", "135415.800000", "135417.290000", "135418.780000", "135420.270000", "135421.760000", "135423.250000", "135424.740000", "135426.230000", "135427.720000", "135429.210000", "135430.700000", "135432.190000", "135433.680000", "135435.170000", "135436.660000", "135438.150000", "135439.640000", "135441.130000", "135442.620000", "135444.110000", "135445.600000", "135447.090000", "135448.580000", "135450.070000", "135451.560000", "135453.050000", "135454.540000", "135456.030000", "135457.520000", "135459.010000", "135500.500000", "135501.990000", "135503.480000", "135504.970000", "135506.460000", "135507.950000", "135509.440000", "135510.930000", "135512.420000", "135513.910000", "135515.400000", "135516.890000", "135518.380000", "135519.870000", "135521.360000", "135522.850000", "135524.340000", "135525.830000", "135527.320000", "135528.810000", "135530.300000", "135531.790000", "135533.280000", "135534.770000", "135536.260000", "135537.750000", "135539.240000", "135540.730000", "135542.220000", "135543.710000", "135545.200000", "135546.690000", "135548.180000", "135549.670000", "135551.160000", "135552.650000", "135554.140000", "135555.630000", "135557.120000", "135558.610000", "135600.100000", "135601.590000", "135603.080000", "135604.570000", "135606.060000", "135607.550000", "135609.040000", "135610.530000", "135612.020000", "135613.510000", "135615.000000", "135616.490000", "135617.980000", "135619.470000", "135620.960000", "135622.450000", "135623.940000", "135625.430000", "135626.920000", "135628.410000", "135629.900000", "135631.390000", "135632.880000", "135634.370000", "135635.860000", "135637.350000", "135638.840000", "135640.330000", "135641.820000", "135643.310000", "135644.800000", "135646.290000", "135647.780000", "135649.270000", "135650.760000", "135652.250000", "135653.740000", "135655.230000", "135656.720000", "135658.210000", "135659.700000", "135701.190000", "135702.680000", "135704.170000", "135705.660000", "135707.150000", "135708.640000", "135710.130000", "135711.620000", "135713.110000", "135714.600000", "135716.090000", "135717.580000", "135719.070000", "135720.560000", "135722.050000", "135723.540000", "135725.030000", "135726.520000", "135728.010000", "135729.500000", "135730.990000", "135732.480000", "135733.970000", "135735.460000", "135736.950000", "135738.440000", "135739.930000", "135741.420000", "135742.910000", "135744.400000", "135745.890000", "135747.380000", "135748.870000", "135750.360000", "135751.850000", "135753.340000", "135754.830000", "135756.320000", "135757.810000", "135759.300000", "135800.790000", "135802.280000", "135803.770000", "135805.260000", "135806.750000", "135808.240000", "135809.730000", "135811.220000", "135812.710000", "135814.200000", "135815.690000", "135817.180000", "135818.670000", "135820.160000", "135821.650000", "135823.140000", "135824.630000", "135826.120000", "135827.610000", "135829.100000", "135830.590000", "135832.080000", "135833.570000", "135835.060000", "135836.550000", "135838.040000", "135839.530000", "135841.020000", "135842.510000", "135844.000000", "135845.490000", "135846.980000", "135848.470000", "135849.960000", "135851.450000", "135852.940000", "135854.430000", "135855.920000", "135857.410000", "135858.900000", "135900.390000", "135901.880000", "135903.370000", "135904.860000", "135906.350000", "135907.840000", "135909.330000", "135910.820000", "135912.310000", "135913.800000", "135915.290000", "135916.780000", "135918.270000", "135919.760000", "135921.250000", "135922.740000", "135924.230000", "135925.720000", "135927.210000", "135928.700000", "135930.190000", "135931.680000", "135933.170000", "135934.660000", "135936.150000", "135937.640000", "135939.130000", "135940.620000", "135942.110000", "135943.600000", "135945.090000", "135946.580000", "135948.070000", "135949.560000", "135951.050000", "135952.540000", "135954.030000", "135955.520000", "135957.010000", "135958.500000", "135959.990000", "140001.480000", "140002.970000", "140004.460000", "140005.950000", "140007.440000", "140008.930000", "140010.420000", "140011.910000", "140013.400000", "140014.890000", "140016.380000", "140017.870000", "140019.360000", "140020.850000", "140022.340000", "140023.830000", "140025.320000", "140026.810000", "140028.300000", "140029.790000", "140031.280000", "140032.770000", "140034.260000", "140035.750000", "140037.240000", "140038.730000", "140040.220000", "140041.710000", "140043.200000", "140044.690000", "140046.180000", "140047.670000", "140049.160000", "140050.650000", "140052.140000", "140053.630000", "140055.120000", "140056.610000", "140058.100000", "140059.590000", "140101.080000"],
      "ContentTime": ["135426.675000", "135426.678000", "135426.680000", "135426.683000", "135426.685000", "135426.688000", "135426.690000", "135426.693000", "135426.695000", "135426.698000", "135426.700000", "135426.703000", "135426.705000", "135426.708000", "135426.710000", "135426.712000", "135426.715000", "135426.717000", "135446.621000", "135446.624000", "135446.627000", "135446.629000", "135446.631000", "135446.634000", "135446.636000", "135446.639000", "135446.641000", "135446.644000", "135446.646000", "135446.649000", "135446.651000", "135446.654000", "135446.656000", "135446.659000", "135446.661000", "135446.663000", "135446.666000", "135446.668000", "135506.586000", "135506.589000", "135506.591000", "135506.594000", "135506.596000", "135506.599000", "135506.601000", "135506.604000", "135506.606000", "135506.609000", "135506.611000", "135506.614000", "135506.616000", "135506.618000", "135506.621000", "135506.623000", "135506.626000", "135506.628000", "135506.631000", "135506.633000", "135526.602000", "135526.605000", "135526.608000", "135526.610000", "135526.613000", "135526.615000", "135526.618000", "135526.620000", "135526.623000", "135526.625000", "135526.628000", "135526.630000", "135526.633000", "135526.635000", "135526.638000", "135526.640000", "135526.643000", "135526.645000", "135526.648000", "135526.650000", "135606.661000", "135606.664000", "135606.667000", "135606.669000", "135606.671000", "135606.674000", "135606.676000", "135606.679000", "135606.681000", "135606.684000", "135606.686000", "135606.689000", "135606.691000", "135606.694000", "135606.696000", "135606.699000", "135606.701000", "135606.703000", "135606.706000", "135606.708000", "135606.711000", "135606.713000", "135606.716000", "135606.718000", "135606.721000", "135606.723000", "135606.726000", "135606.728000", "135606.731000", "135606.733000", "135606.736000", "135606.738000", "135646.630000", "135646.633000", "135646.635000", "135646.638000", "135646.648000", "135646.651000", "135646.653000", "135646.656000", "135646.658000", "135646.661000", "135646.663000", "135646.666000", "135646.668000", "135646.671000", "135646.673000", "135646.676000", "135646.679000", "135646.682000", "135646.684000", "135646.689000", "135646.693000", "135646.697000", "135646.700000", "135646.703000", "135646.705000", "135646.708000", "135646.710000", "135726.626000", "135726.629000", "135726.631000", "135726.634000", "135726.637000", "135726.639000", "135726.641000", "135726.644000", "135726.646000", "135726.649000", "135726.651000", "135726.664000", "135726.667000", "135726.669000", "135726.672000", "135726.674000", "135726.677000", "135726.679000", "135726.682000", "135726.684000", "135726.687000", "135726.689000", "135726.691000", "135726.694000", "135726.696000", "135726.706000", "135726.708000", "135806.633000", "135806.636000", "135806.639000", "135806.641000", "135806.644000", "135806.646000", "135806.649000", "135806.651000", "135806.654000", "135806.656000", "135806.659000", "135806.661000", "135806.664000", "135806.667000", "135806.669000", "135806.671000", "135806.674000", "135806.677000", "135806.679000", "135806.682000", "135806.684000", "135806.687000", "135806.689000", "135806.692000", "135806.694000", "135806.697000", "135806.699000", "135846.637000", "135846.640000", "135846.643000", "135846.645000", "135846.648000", "135846.650000", "135846.653000", "135846.655000", "135846.658000", "135846.660000", "135846.663000", "135846.665000", "135846.668000", "135846.670000", "135846.673000", "135846.675000", "135846.678000", "135846.680000", "135846.683000", "135846.685000", "135846.688000", "135846.690000", "135846.693000", "135846.696000", "135846.699000", "135846.701000", "135846.704000", "135926.628000", "135926.631000", "135926.633000", "135926.636000", "135926.638000", "135926.641000", "135926.643000", "135926.646000", "135926.648000", "135926.651000", "135926.653000", "135926.656000", "135926.658000", "135926.661000", "135926.663000", "135926.666000", "135926.668000", "135926.671000", "135926.673000", "135926.676000", "135926.678000", "135926.681000", "135926.683000", "135926.686000", "135926.688000", "135926.691000", "135926.693000", "140006.620000", "140006.622000", "140006.625000", "140006.627000", "140006.630000", "140006.632000", "140006.635000", "140006.637000", "140006.640000", "140006.642000", "140006.645000", "140006.647000", "140006.650000", "140006.652000", "140006.655000", "140006.657000", "140006.660000", "140006.662000", "140006.665000", "140006.667000", "140006.669000", "140006.672000", "140006.674000", "140006.677000", "140006.679000", "140006.682000", "140006.684000", "140046.633000", "140046.636000", "140046.639000", "140046.641000", "140046.649000", "140046.652000", "140046.654000", "140046.657000", "140046.659000", "140046.662000", "140046.664000", "140046.667000", "140046.669000", "140046.672000", "140046.674000", "140046.677000", "140046.679000", "140046.682000", "140046.684000", "140046.687000", "140046.689000", "140046.692000", "140046.694000", "140046.697000", "140046.699000", "140046.702000", "140103.119000", "140103.122000", "140103.126000", "140103.128000", "140103.131000", "140103.134000", "140103.137000", "140103.140000", "140103.142000", "140103.145000", "140103.148000", "140103.151000"],
      "InstanceCreationTime": ["135426.675000", "135426.678000", "135426.680000", "135426.683000", "135426.685000", "135426.688000", "135426.690000", "135426.693000", "135426.695000", "135426.698000", "135426.700000", "135426.703000", "135426.705000", "135426.708000", "135426.710000", "135426.712000", "135426.715000", "135426.717000", "135446.621000", "135446.624000", "135446.627000", "135446.629000", "135446.631000", "135446.634000", "135446.636000", "135446.639000", "135446.641000", "135446.644000", "135446.646000", "135446.649000", "135446.651000", "135446.654000", "135446.656000", "135446.659000", "135446.661000", "135446.663000", "135446.666000", "135446.668000", "135506.586000", "135506.589000", "135506.591000", "135506.594000", "135506.596000", "135506.599000", "135506.601000", "135506.604000", "135506.606000", "135506.609000", "135506.611000", "135506.614000", "135506.616000", "135506.618000", "135506.621000", "135506.623000", "135506.626000", "135506.628000", "135506.631000", "135506.633000", "135526.602000", "135526.605000", "135526.608000", "135526.610000", "135526.613000", "135526.615000", "135526.618000", "135526.620000", "135526.623000", "135526.625000", "135526.628000", "135526.630000", "135526.633000", "135526.635000", "135526.638000", "135526.640000", "135526.643000", "135526.645000", "135526.648000", "135526.650000", "135606.661000", "135606.664000", "135606.667000", "135606.669000", "135606.671000", "135606.674000", "135606.676000", "135606.679000", "135606.681000", "135606.684000", "135606.686000", "135606.689000", "135606.691000", "135606.694000", "135606.696000", "135606.699000", "135606.701000", "135606.703000", "135606.706000", "135606.708000", "135606.711000", "135606.713000", "135606.716000", "135606.718000", "135606.721000", "135606.723000", "135606.726000", "135606.728000", "135606.731000", "135606.733000", "135606.736000", "135606.738000", "135646.630000", "135646.633000", "135646.635000", "135646.638000", "135646.648000", "135646.651000", "135646.653000", "135646.656000", "135646.658000", "135646.661000", "135646.663000", "135646.666000", "135646.668000", "135646.671000", "135646.673000", "135646.676000", "135646.679000", "135646.682000", "135646.684000", "135646.689000", "135646.693000", "135646.697000", "135646.700000", "135646.703000", "135646.705000", "135646.708000", "135646.710000", "135726.626000", "135726.629000", "135726.631000", "135726.634000", "135726.637000", "135726.639000", "135726.641000", "135726.644000", "135726.646000", "135726.649000", "135726.651000", "135726.664000", "135726.667000", "135726.669000", "135726.672000", "135726.674000", "135726.677000", "135726.679000", "135726.682000", "135726.684000", "135726.687000", "135726.689000", "135726.691000", "135726.694000", "135726.696000", "135726.706000", "135726.708000", "135806.633000", "135806.636000", "135806.639000", "135806.641000", "135806.644000", "135806.646000", "135806.649000", "135806.651000", "135806.654000", "135806.656000", "135806.659000", "135806.661000", "135806.664000", "135806.667000", "135806.669000", "135806.671000", "135806.674000", "135806.677000", "135806.679000", "135806.682000", "135806.684000", "135806.687000", "135806.689000", "135806.692000", "135806.694000", "135806.697000", "135806.699000", "135846.637000", "135846.640000", "135846.643000", "135846.645000", "135846.648000", "135846.650000", "135846.653000", "135846.655000", "135846.658000", "135846.660000", "135846.663000", "135846.665000", "135846.668000", "135846.670000", "135846.673000", "135846.675000", "135846.678000", "135846.680000", "135846.683000", "135846.685000", "135846.688000", "135846.690000", "135846.693000", "135846.696000", "135846.699000", "135846.701000", "135846.704000", "135926.628000", "135926.631000", "135926.633000", "135926.636000", "135926.638000", "135926.641000", "135926.643000", "135926.646000", "135926.648000", "135926.651000", "135926.653000", "135926.656000", "135926.658000", "135926.661000", "135926.663000", "135926.666000", "135926.668000", "135926.671000", "135926.673000", "135926.676000", "135926.678000", "135926.681000", "135926.683000", "135926.686000", "135926.688000", "135926.691000", "135926.693000", "140006.620000", "140006.622000", "140006.625000", "140006.627000", "140006.630000", "140006.632000", "140006.635000", "140006.637000", "140006.640000", "140006.642000", "140006.645000", "140006.647000", "140006.650000", "140006.652000", "140006.655000", "140006.657000", "140006.660000", "140006.662000", "140006.665000", "140006.667000", "140006.669000", "140006.672000", "140006.674000", "140006.677000", "140006.679000", "140006.682000", "140006.684000", "140046.633000", "140046.636000", "140046.639000", "140046.641000", "140046.649000", "140046.652000", "140046.654000", "140046.657000", "140046.659000", "140046.662000", "140046.664000", "140046.667000", "140046.669000", "140046.672000", "140046.674000", "140046.677000", "140046.679000", "140046.682000", "140046.684000", "140046.687000", "140046.689000", "140046.692000", "140046.694000", "140046.697000", "140046.699000", "140046.702000", "140103.119000", "140103.122000", "140103.126000", "140103.128000", "140103.131000", "140103.134000", "140103.137000", "140103.140000", "140103.142000", "140103.145000", "140103.148000", "140103.151000"],
      "InstanceNumber": [1, 2, 3, 4, 5, 6, 7, 8, 9, 10, 11, 12, 13, 14, 15, 16, 17, 18, 19, 20, 21, 22, 23, 24, 25, 26, 27, 28, 29, 30, 31, 32, 33, 34, 35, 36, 37, 38, 39, 40, 41, 42, 43, 44, 45, 46, 47, 48, 49, 50, 51, 52, 53, 54, 55, 56, 57, 58, 59, 60, 61, 62, 63, 64, 65, 66, 67, 68, 69, 70, 71, 72, 73, 74, 75, 76, 77, 78, 79, 80, 81, 82, 83, 84, 85, 86, 87, 88, 89, 90, 91, 92, 93, 94, 95, 96, 97, 98, 99, 100, 101, 102, 103, 104, 105, 106, 107, 108, 109, 110, 111, 112, 113, 114, 115, 116, 117, 118, 119, 120, 121, 122, 123, 124, 125, 126, 127, 128, 129, 130, 131, 132, 133, 134, 135, 136, 137, 138, 139, 140, 141, 142, 143, 144, 145, 146, 147, 148, 149, 150, 151, 152, 153, 154, 155, 156, 157, 158, 159, 160, 161, 162, 163, 164, 165, 166, 167, 168, 169, 170, 171, 172, 173, 174, 175, 176, 177, 178, 179, 180, 181, 182, 183, 184, 185, 186, 187, 188, 189, 190, 191, 192, 193, 194, 195, 196, 197, 198, 199, 200, 201, 202, 203, 204, 205, 206, 207, 208, 209, 210, 211, 212, 213, 214, 215, 216, 217, 218, 219, 220, 221, 222, 223, 224, 225, 226, 227, 228, 229, 230, 231, 232, 233, 234, 235, 236, 237, 238, 239, 240, 241, 242, 243, 244, 245, 246, 247, 248, 249, 250, 251, 252, 253, 254, 255, 256, 257, 258, 259, 260, 261, 262, 263, 264, 265, 266, 267, 268, 269, 270, 271, 272, 273, 274, 275, 276, 277, 278, 279, 280, 281, 282, 283, 284, 285, 286, 287, 288, 289, 290, 291, 292, 293, 294, 295, 296, 297, 298, 299, 300, 301, 302, 303, 304, 305, 306, 307, 308, 309, 310],
      "WindowCenter": [4854.0, 4828.0, 4854.0, 4826.0, 4852.0, 4852.0, 4854.0, 4854.0, 4854.0, 4854.0, 4854.0, 4852.0, 4854.0, 4858.0, 4850.0, 4856.0, 4854.0, 4828.0, 4856.0, 4854.0, 4828.0, 4854.0, 4854.0, 4854.0, 4856.0, 4854.0, 4854.0, 4856.0, 4854.0, 4856.0, 4858.0, 4854.0, 4854.0, 4854.0, 4854.0, 4854.0, 4856.0, 4856.0, 4854.0, 4854.0, 4854.0, 4854.0, 4852.0, 4850.0, 4854.0, 4830.0, 4856.0, 4858.0, 4856.0, 4852.0, 4854.0, 4828.0, 4852.0, 4854.0, 4852.0, 4854.0, 4854.0, 4852.0, 4856.0, 4830.0, 4856.0, 4850.0, 4850.0, 4854.0, 4854.0, 4854.0, 4854.0, 4852.0, 4858.0, 4852.0, 4854.0, 4854.0, 4830.0, 4852.0, 4852.0, 4854.0, 4856.0, 4856.0, 4852.0, 4856.0, 4856.0, 4852.0, 4856.0, 4850.0, 4852.0, 4852.0, 4854.0, 4856.0, 4854.0, 4854.0, 4856.0, 4854.0, 4858.0, 4856.0, 4852.0, 4852.0, 4856.0, 4854.0, 4854.0, 4854.0, 4852.0, 4854.0, 4832.0, 4854.0, 4854.0, 4854.0, 4854.0, 4852.0, 4852.0, 4854.0, 4854.0, 4854.0, 4852.0, 4854.0, 4856.0, 4856.0, 4854.0, 4856.0, 4854.0, 4856.0, 4854.0, 4850.0, 4850.0, 4854.0, 4856.0, 4856.0, 4854.0, 4852.0, 4852.0, 4852.0, 4852.0, 4852.0, 4854.0, 4858.0, 4856.0, 4858.0, 4852.0, 4856.0, 4852.0, 4850.0, 4850.0, 4850.0, 4854.0, 4854.0, 4856.0, 4856.0, 4856.0, 4856.0, 4854.0, 4854.0, 4858.0, 4856.0, 4854.0, 4852.0, 4858.0, 4850.0, 4856.0, 4852.0, 4832.0, 4854.0, 4852.0, 4856.0, 4854.0, 4854.0, 4856.0, 4854.0, 4852.0, 4856.0, 4854.0, 4858.0, 4854.0, 4854.0, 4852.0, 4856.0, 4856.0, 4854.0, 4854.0, 4852.0, 4856.0, 4854.0, 4854.0, 4854.0, 4854.0, 4856.0, 4854.0, 4852.0, 4854.0, 4852.0, 4854.0, 4858.0, 4856.0, 4856.0, 4854.0, 4852.0, 4850.0, 4854.0, 4856.0, 4856.0, 4854.0, 4854.0, 4856.0, 4854.0, 4856.0, 4852.0, 4850.0, 4852.0, 4854.0, 4862.0, 4860.0, 4856.0, 4858.0, 4880.0, 4854.0, 4854.0, 4854.0, 4850.0, 4854.0, 4854.0, 4856.0, 4858.0, 4856.0, 4856.0, 4856.0, 4856.0, 4858.0, 4858.0, 4856.0, 4856.0, 4856.0, 4856.0, 4860.0, 4854.0, 4856.0, 4856.0, 4858.0, 4856.0, 4856.0, 4856.0, 4856.0, 4852.0, 4854.0, 4856.0, 4854.0, 4858.0, 4854.0, 4856.0, 4856.0, 4860.0, 4858.0, 4856.0, 4858.0, 4858.0, 4854.0, 4854.0, 4854.0, 4856.0, 4856.0, 4856.0, 4858.0, 4858.0, 4860.0, 4860.0, 4856.0, 4860.0, 4852.0, 4856.0, 4854.0, 4860.0, 4856.0, 4860.0, 4852.0, 4856.0, 4858.0, 4860.0, 4858.0, 4856.0, 4858.0, 4882.0, 4854.0, 4856.0, 4860.0, 4856.0, 4858.0, 4860.0, 4858.0, 4862.0, 4858.0, 4856.0, 4856.0, 4856.0, 4854.0, 4850.0, 4880.0, 4854.0, 4856.0, 4858.0, 4854.0, 4852.0, 4852.0, 4852.0, 4854.0, 4854.0, 4848.0, 4852.0, 4852.0, 4852.0, 4858.0, 4856.0, 4856.0, 4828.0],
