{
  "AcquisitionMatrixPE": 104,
  "AcquisitionNumber": 1,
  "AcquisitionTime": "19:21:28.387500",
  "BandwidthPerPixelPhaseEncode": 17.17,
  "BaseResolution": 104,
  "BodyPartExamined": "BRAIN",
  "CoilCombinationMethod": "Sum of Squares",
  "ConsistencyInfo": "N4_VE11C_LATEST_20160120",
  "ConversionSoftware": "dcm2niix",
  "ConversionSoftwareVersion": "v1.0.20220505",
  "DerivedVendorReportedEchoSpacing": 0.000560011,
  "DeviceSerialNumber": "167006",
  "DwellTime": 2.1e-06,
  "EchoTime": 0.037,
  "EchoTrainLength": 104,
  "EffectiveEchoSpacing": 0.000560011,
  "FlipAngle": 52,
  "HeudiconvVersion": "0.5.3.post811+g6206e14",
  "ImageComments": "Unaliased MB4/PE3/LB",
  "ImageOrientationPatientDICOM": [0.999758, -0.0113229, 0.0188841, 0.0176254, 0.925581, -0.37814],
  "ImageOrientationText": "Tra>Cor(-22.2)>Sag(0.8)",
  "ImageType": [
    "ORIGINAL",
    "PRIMARY",
    "M",
    "MB",
    "ND",
    "MOSAIC"
],
  "ImagingFrequency": 123.259,
  "InPlanePhaseEncodingDirectionDICOM": "COL",
  "InstitutionAddress": "Chemin Queen-Mary 4565,Montreal,District,CA,H3W 1W5",
  "InstitutionName": "IUGM",
  "InstitutionalDepartmentName": "Department",
  "MRAcquisitionType": "2D",
  "MagneticFieldStrength": 3,
  "Manufacturer": "Siemens",
  "ManufacturersModelName": "Prisma_fit",
  "MatrixCoilMode": "SENSE",
  "Modality": "MR",
  "MultibandAccelerationFactor": 4,
  "PartialFourier": 1,
  "PatientPosition": "HFS",
  "PercentPhaseFOV": 100,
  "PercentSampling": 100,
  "PhaseEncodingDirection": "j",
  "PhaseEncodingSteps": 104,
  "PhaseResolution": 1,
  "PixelBandwidth": 2290,
  "ProcedureStepDescription": "games^mario3",
  "ProtocolName": "func_task-mario3_run-04",
  "PulseSequenceDetails": "%CustomerSeq%\\cmrr_mbep2d_bold",
  "ReceiveCoilActiveElements": "HC1-7;NC1,2",
  "ReceiveCoilName": "HeadNeck_64",
  "ReconMatrixPE": 104,
  "RepetitionTime": 1.49,
  "SAR": 0.0488992,
  "ScanOptions": "FS",
  "ScanningSequence": "EP",
  "SequenceName": "epfid2d1_104",
  "SequenceVariant": "SK\\SS",
  "SeriesDescription": "func_task-mario3_run-04",
  "SeriesNumber": 19,
  "ShimSetting": [581, -7286, -8780, 451, 0, -324, -29, 101],
  "SliceThickness": 2,
  "SliceTiming": [0, 0.7825, 0.0975, 0.88, 0.195, 0.98, 0.2925, 1.0775, 0.39, 1.175, 0.49, 1.2725, 0.5875, 1.37, 0.685, 0, 0.7825, 0.0975, 0.88, 0.195, 0.98, 0.2925, 1.0775, 0.39, 1.175, 0.49, 1.2725, 0.5875, 1.37, 0.685, 0, 0.7825, 0.0975, 0.88, 0.195, 0.98, 0.2925, 1.0775, 0.39, 1.175, 0.49, 1.2725, 0.5875, 1.37, 0.685, 0, 0.7825, 0.0975, 0.88, 0.195, 0.98, 0.2925, 1.0775, 0.39, 1.175, 0.49, 1.2725, 0.5875, 1.37, 0.685],
  "SoftwareVersions": "syngo MR E11",
  "SpacingBetweenSlices": 2,
  "StationName": "MRC35049",
  "TaskName": "mario3",
  "TotalReadoutTime": 0.0576811,
  "TxRefAmp": 252.799,
  "WipMemBlock": "a21a22c2-b05f-4d6d-b528-aed23bc8125b||Sequence: R017 ve11c/master r/75a17815+; Jun 28 2022 16:32:11 by eja",
  "dcmmeta_affine": [
    [-1.999515175819397, 0.035250816494226456, 0.02639419212937355, 101.39836883544922],
    [0.022645890712738037, 1.8511611223220825, -0.7567625641822815, -69.7623062133789],
    [0.037768200039863586, 0.756280243396759, 1.8511115312576294, -57.14202880859375],
    [0.0, 0.0, 0.0, 1.0]
],
  "dcmmeta_reorient_transform": [
    [0.0, -1.0, 0.0, 103.0],
    [1.0, 0.0, 0.0, 0.0],
    [0.0, 0.0, 1.0, 0.0],
    [0.0, 0.0, 0.0, 1.0]
],
  "dcmmeta_shape": [104, 104, 60, 456],
  "dcmmeta_slice_dim": 2,
  "dcmmeta_version": 0.6,
  "global": {
    "const": {
      "AcquisitionMatrix": [104, 0, 0, 104],
      "AngioFlag": "N",
      "BitsAllocated": 16,
      "BitsStored": 16,
      "BodyPartExamined": "BRAIN",
      "Columns": 832,
      "EchoNumbers": 1,
      "EchoTime": 37.0,
      "EchoTrainLength": 104,
      "FlipAngle": 52.0,
      "HighBit": 15,
      "ImageOrientationPatient": [0.99975756144118, -0.0113229456562, 0.01888410026599, 0.01762540758539, 0.92558057015621, -0.3781401237065],
      "ImagePositionPatient": [-845.68400194041, -786.48683889956, 282.2932215092],
      "ImageType": [
        "ORIGINAL",
        "PRIMARY",
        "M",
        "MB",
        "ND",
        "MOSAIC"
],
      "ImagedNucleus": "1H",
      "ImagingFrequency": 123.258725,
      "InPlanePhaseEncodingDirection": "COL",
      "MRAcquisitionType": "2D",
      "MagneticFieldStrength": 3.0,
      "Manufacturer": "SIEMENS",
      "ManufacturerModelName": "Prisma_fit",
      "Modality": "MR",
      "NumberOfAverages": 1.0,
      "NumberOfPhaseEncodingSteps": 104,
      "PercentPhaseFieldOfView": 100.0,
      "PercentSampling": 100.0,
      "PerformedProcedureStepStartTime": "184920.807000",
      "PhotometricInterpretation": "MONOCHROME2",
      "PixelBandwidth": 2290.0,
      "PixelRepresentation": 0,
      "PixelSpacing": [2.0, 2.0],
      "ProtocolName": "func_task-mario3_run-04",
      "RepetitionTime": 1490.0,
      "Rows": 832,
      "SAR": 0.04889920429772,
      "SamplesPerPixel": 1,
      "ScanOptions": "FS",
      "ScanningSequence": "EP",
      "SequenceName": "epfid2d1_104",
      "SequenceVariant": [
        "SK",
        "SS"
],
      "SeriesDescription": "func_task-mario3_run-04",
      "SeriesNumber": 19,
      "SeriesTime": "192252.795000",
      "SliceLocation": -25.153216874449,
      "SliceThickness": 2.0,
      "SmallestImagePixelValue": 0,
      "SoftwareVersions": "syngo MR E11",
      "SpacingBetweenSlices": 1.9999999933647,
      "SpecificCharacterSet": "ISO_IR 100",
      "StudyID": "1",
      "StudyTime": "184920.749000",
      "TransmitCoilName": "Body",
      "VariableFlipAngleFlag": "N",
      "WindowCenterWidthExplanation": "Algo1",
      "dBdt": 0.0},
    "slices": {}
  },
  "time": {
    "samples": {
      "AcquisitionNumber": [1, 2, 3, 4, 5, 6, 7, 8, 9, 10, 11, 12, 13, 14, 15, 16, 17, 18, 19, 20, 21, 22, 23, 24, 25, 26, 27, 28, 29, 30, 31, 32, 33, 34, 35, 36, 37, 38, 39, 40, 41, 42, 43, 44, 45, 46, 47, 48, 49, 50, 51, 52, 53, 54, 55, 56, 57, 58, 59, 60, 61, 62, 63, 64, 65, 66, 67, 68, 69, 70, 71, 72, 73, 74, 75, 76, 77, 78, 79, 80, 81, 82, 83, 84, 85, 86, 87, 88, 89, 90, 91, 92, 93, 94, 95, 96, 97, 98, 99, 100, 101, 102, 103, 104, 105, 106, 107, 108, 109, 110, 111, 112, 113, 114, 115, 116, 117, 118, 119, 120, 121, 122, 123, 124, 125, 126, 127, 128, 129, 130, 131, 132, 133, 134, 135, 136, 137, 138, 139, 140, 141, 142, 143, 144, 145, 146, 147, 148, 149, 150, 151, 152, 153, 154, 155, 156, 157, 158, 159, 160, 161, 162, 163, 164, 165, 166, 167, 168, 169, 170, 171, 172, 173, 174, 175, 176, 177, 178, 179, 180, 181, 182, 183, 184, 185, 186, 187, 188, 189, 190, 191, 192, 193, 194, 195, 196, 197, 198, 199, 200, 201, 202, 203, 204, 205, 206, 207, 208, 209, 210, 211, 212, 213, 214, 215, 216, 217, 218, 219, 220, 221, 222, 223, 224, 225, 226, 227, 228, 229, 230, 231, 232, 233, 234, 235, 236, 237, 238, 239, 240, 241, 242, 243, 244, 245, 246, 247, 248, 249, 250, 251, 252, 253, 254, 255, 256, 257, 258, 259, 260, 261, 262, 263, 264, 265, 266, 267, 268, 269, 270, 271, 272, 273, 274, 275, 276, 277, 278, 279, 280, 281, 282, 283, 284, 285, 286, 287, 288, 289, 290, 291, 292, 293, 294, 295, 296, 297, 298, 299, 300, 301, 302, 303, 304, 305, 306, 307, 308, 309, 310, 311, 312, 313, 314, 315, 316, 317, 318, 319, 320, 321, 322, 323, 324, 325, 326, 327, 328, 329, 330, 331, 332, 333, 334, 335, 336, 337, 338, 339, 340, 341, 342, 343, 344, 345, 346, 347, 348, 349, 350, 351, 352, 353, 354, 355, 356, 357, 358, 359, 360, 361, 362, 363, 364, 365, 366, 367, 368, 369, 370, 371, 372, 373, 374, 375, 376, 377, 378, 379, 380, 381, 382, 383, 384, 385, 386, 387, 388, 389, 390, 391, 392, 393, 394, 395, 396, 397, 398, 399, 400, 401, 402, 403, 404, 405, 406, 407, 408, 409, 410, 411, 412, 413, 414, 415, 416, 417, 418, 419, 420, 421, 422, 423, 424, 425, 426, 427, 428, 429, 430, 431, 432, 433, 434, 435, 436, 437, 438, 439, 440, 441, 442, 443, 444, 445, 446, 447, 448, 449, 450, 451, 452, 453, 454, 455, 456],
      "AcquisitionTime": ["192128.387500", "192129.877500", "192131.367500", "192132.857500", "192134.347500", "192135.837500", "192137.327500", "192138.817500", "192140.307500", "192141.797500", "192143.287500", "192144.777500", "192146.267500", "192147.757500", "192149.247500", "192150.737500", "192152.227500", "192153.717500", "192155.207500", "192156.697500", "192158.187500", "192159.677500", "192201.167500", "192202.657500", "192204.147500", "192205.637500", "192207.127500", "192208.617500", "192210.107500", "192211.597500", "192213.087500", "192214.577500", "192216.067500", "192217.557500", "192219.047500", "192220.537500", "192222.027500", "192223.517500", "192225.007500", "192226.497500", "192227.987500", "192229.477500", "192230.967500", "192232.457500", "192233.947500", "192235.437500", "192236.927500", "192238.417500", "192239.907500", "192241.397500", "192242.887500", "192244.377500", "192245.867500", "192247.357500", "192248.847500", "192250.337500", "192251.827500", "192253.317500", "192254.807500", "192256.297500", "192257.787500", "192259.277500", "192300.767500", "192302.257500", "192303.747500", "192305.237500", "192306.727500", "192308.217500", "192309.707500", "192311.197500", "192312.687500", "192314.177500", "192315.667500", "192317.157500", "192318.647500", "192320.137500", "192321.627500", "192323.117500", "192324.607500", "192326.097500", "192327.587500", "192329.077500", "192330.567500", "192332.057500", "192333.547500", "192335.037500", "192336.527500", "192338.017500", "192339.507500", "192340.997500", "192342.487500", "192343.977500", "192345.467500", "192346.957500", "192348.447500", "192349.937500", "192351.427500", "192352.917500", "192354.407500", "192355.897500", "192357.387500", "192358.877500", "192400.367500", "192401.857500", "192403.347500", "192404.837500", "192406.327500", "192407.817500", "192409.307500", "192410.797500", "192412.287500", "192413.777500", "192415.267500", "192416.757500", "192418.247500", "192419.737500", "192421.227500", "192422.717500", "192424.207500", "192425.697500", "192427.187500", "192428.677500", "192430.167500", "192431.657500", "192433.147500", "192434.637500", "192436.127500", "192437.617500", "192439.107500", "192440.597500", "192442.087500", "192443.577500", "192445.067500", "192446.557500", "192448.047500", "192449.537500", "192451.027500", "192452.517500", "192454.007500", "192455.497500", "192456.987500", "192458.477500", "192459.967500", "192501.457500", "192502.947500", "192504.437500", "192505.927500", "192507.417500", "192508.907500", "192510.397500", "192511.887500", "192513.377500", "192514.867500", "192516.357500", "192517.847500", "192519.337500", "192520.827500", "192522.317500", "192523.807500", "192525.297500", "192526.787500", "192528.277500", "192529.767500", "192531.257500", "192532.747500", "192534.237500", "192535.727500", "192537.217500", "192538.707500", "192540.197500", "192541.687500", "192543.177500", "192544.667500", "192546.157500", "192547.647500", "192549.137500", "192550.627500", "192552.117500", "192553.607500", "192555.097500", "192556.587500", "192558.077500", "192559.567500", "192601.057500", "192602.547500", "192604.037500", "192605.527500", "192607.017500", "192608.507500", "192609.997500", "192611.487500", "192612.977500", "192614.467500", "192615.957500", "192617.447500", "192618.937500", "192620.427500", "192621.917500", "192623.407500", "192624.897500", "192626.387500", "192627.877500", "192629.367500", "192630.857500", "192632.347500", "192633.837500", "192635.327500", "192636.817500", "192638.307500", "192639.797500", "192641.287500", "192642.777500", "192644.267500", "192645.757500", "192647.247500", "192648.737500", "192650.227500", "192651.717500", "192653.207500", "192654.697500", "192656.187500", "192657.677500", "192659.167500", "192700.657500", "192702.147500", "192703.637500", "192705.127500", "192706.617500", "192708.107500", "192709.597500", "192711.087500", "192712.577500", "192714.067500", "192715.557500", "192717.047500", "192718.537500", "192720.027500", "192721.517500", "192723.007500", "192724.497500", "192725.987500", "192727.477500", "192728.967500", "192730.457500", "192731.947500", "192733.437500", "192734.927500", "192736.417500", "192737.907500", "192739.397500", "192740.887500", "192742.377500", "192743.867500", "192745.357500", "192746.847500", "192748.337500", "192749.827500", "192751.317500", "192752.807500", "192754.297500", "192755.787500", "192757.277500", "192758.767500", "192800.257500", "192801.747500", "192803.237500", "192804.727500", "192806.217500", "192807.707500", "192809.197500", "192810.687500", "192812.177500", "192813.667500", "192815.157500", "192816.647500", "192818.137500", "192819.627500", "192821.117500", "192822.607500", "192824.097500", "192825.587500", "192827.077500", "192828.567500", "192830.057500", "192831.547500", "192833.037500", "192834.527500", "192836.017500", "192837.507500", "192838.997500", "192840.487500", "192841.977500", "192843.467500", "192844.957500", "192846.447500", "192847.937500", "192849.427500", "192850.917500", "192852.407500", "192853.897500", "192855.387500", "192856.877500", "192858.367500", "192859.857500", "192901.347500", "192902.837500", "192904.327500", "192905.817500", "192907.307500", "192908.797500", "192910.287500", "192911.777500", "192913.267500", "192914.757500", "192916.247500", "192917.737500", "192919.227500", "192920.717500", "192922.207500", "192923.697500", "192925.187500", "192926.677500", "192928.167500", "192929.657500", "192931.147500", "192932.637500", "192934.127500", "192935.617500", "192937.107500", "192938.597500", "192940.087500", "192941.577500", "192943.067500", "192944.557500", "192946.047500", "192947.537500", "192949.027500", "192950.517500", "192952.007500", "192953.497500", "192954.987500", "192956.477500", "192957.967500", "192959.457500", "193000.947500", "193002.437500", "193003.927500", "193005.417500", "193006.907500", "193008.397500", "193009.887500", "193011.377500", "193012.867500", "193014.357500", "193015.847500", "193017.337500", "193018.827500", "193020.317500", "193021.807500", "193023.297500", "193024.787500", "193026.277500", "193027.767500", "193029.257500", "193030.747500", "193032.237500", "193033.727500", "193035.217500", "193036.707500", "193038.197500", "193039.687500", "193041.177500", "193042.667500", "193044.157500", "193045.647500", "193047.137500", "193048.627500", "193050.117500", "193051.607500", "193053.097500", "193054.587500", "193056.077500", "193057.567500", "193059.057500", "193100.547500", "193102.037500", "193103.527500", "193105.017500", "193106.507500", "193107.997500", "193109.487500", "193110.977500", "193112.467500", "193113.957500", "193115.447500", "193116.937500", "193118.427500", "193119.917500", "193121.407500", "193122.897500", "193124.387500", "193125.877500", "193127.367500", "193128.857500", "193130.347500", "193131.837500", "193133.327500", "193134.817500", "193136.307500", "193137.797500", "193139.287500", "193140.777500", "193142.267500", "193143.757500", "193145.247500", "193146.737500", "193148.227500", "193149.717500", "193151.207500", "193152.697500", "193154.187500", "193155.677500", "193157.167500", "193158.657500", "193200.147500", "193201.637500", "193203.127500", "193204.617500", "193206.107500", "193207.597500", "193209.087500", "193210.577500", "193212.067500", "193213.557500", "193215.047500", "193216.537500", "193218.027500", "193219.517500", "193221.007500", "193222.497500", "193223.987500", "193225.477500", "193226.967500", "193228.457500", "193229.947500", "193231.437500", "193232.927500", "193234.417500", "193235.907500", "193237.397500", "193238.887500", "193240.377500", "193241.867500", "193243.357500", "193244.847500", "193246.337500"],
      "ContentTime": ["192252.798000", "192252.801000", "192252.805000", "192252.808000", "192252.811000", "192252.814000", "192252.818000", "192252.821000", "192252.824000", "192252.828000", "192252.831000", "192252.834000", "192252.838000", "192252.841000", "192252.847000", "192252.850000", "192252.854000", "192252.857000", "192252.866000", "192252.869000", "192252.872000", "192252.876000", "192252.879000", "192252.882000", "192252.886000", "192252.889000", "192252.892000", "192252.895000", "192252.899000", "192252.902000", "192252.906000", "192252.909000", "192252.912000", "192252.915000", "192252.919000", "192252.922000", "192312.759000", "192312.763000", "192312.766000", "192312.770000", "192312.773000", "192312.776000", "192312.779000", "192312.783000", "192312.791000", "192312.795000", "192312.798000", "192312.801000", "192312.804000", "192312.812000", "192312.815000", "192312.819000", "192312.822000", "192312.825000", "192312.829000", "192312.832000", "192332.759000", "192332.763000", "192332.767000", "192332.772000", "192332.776000", "192332.779000", "192332.783000", "192332.786000", "192332.789000", "192332.793000", "192332.796000", "192332.799000", "192332.803000", "192332.806000", "192332.809000", "192332.812000", "192332.816000", "192332.819000", "192332.822000", "192332.826000", "192352.759000", "192352.763000", "192352.766000", "192352.945000", "192352.949000", "192352.952000", "192352.955000", "192352.958000", "192352.962000", "192352.965000", "192352.969000", "192352.972000", "192352.976000", "192352.979000", "192352.982000", "192352.985000", "192352.989000", "192352.992000", "192352.995000", "192353.000000", "192432.760000", "192432.764000", "192432.767000", "192432.770000", "192432.774000", "192432.777000", "192432.780000", "192432.783000", "192432.800000", "192432.803000", "192432.807000", "192432.810000", "192432.813000", "192432.817000", "192432.820000", "192432.823000", "192432.827000", "192432.830000", "192432.833000", "192432.836000", "192432.840000", "192432.843000", "192432.846000", "192432.850000", "192432.853000", "192432.856000", "192432.860000", "192512.760000", "192512.764000", "192512.767000", "192512.770000", "192512.774000", "192512.777000", "192512.780000", "192512.784000", "192512.787000", "192512.790000", "192512.793000", "192512.797000", "192512.800000", "192512.803000", "192512.813000", "192512.816000", "192512.819000", "192512.823000", "192512.826000", "192512.829000", "192512.833000", "192512.836000", "192512.840000", "192512.843000", "192512.846000", "192512.849000", "192512.853000", "192552.759000", "192552.763000", "192552.766000", "192552.770000", "192552.773000", "192552.776000", "192552.780000", "192552.783000", "192552.786000", "192552.789000", "192552.793000", "192552.796000", "192552.799000", "192552.803000", "192552.806000", "192552.809000", "192552.813000", "192552.816000", "192552.819000", "192552.822000", "192552.826000", "192552.829000", "192552.832000", "192552.835000", "192552.839000", "192552.842000", "192552.845000", "192632.759000", "192632.763000", "192632.767000", "192632.770000", "192632.773000", "192632.777000", "192632.780000", "192632.783000", "192632.786000", "192632.790000", "192632.793000", "192632.796000", "192632.800000", "192632.803000", "192632.807000", "192632.810000", "192632.813000", "192632.817000", "192632.820000", "192632.823000", "192632.826000", "192632.831000", "192632.834000", "192632.837000", "192632.841000", "192632.844000", "192712.760000", "192712.764000", "192712.767000", "192712.771000", "192712.774000", "192712.777000", "192712.781000", "192712.784000", "192712.787000", "192712.790000", "192712.794000", "192712.797000", "192712.800000", "192712.804000", "192712.807000", "192712.810000", "192712.814000", "192712.817000", "192712.820000", "192712.824000", "192712.827000", "192712.830000", "192712.833000", "192712.837000", "192712.840000", "192712.843000", "192712.847000", "192752.759000", "192752.763000", "192752.766000", "192752.811000", "192752.814000", "192752.817000", "192752.821000", "192752.824000", "192752.827000", "192752.830000", "192752.834000", "192752.837000", "192752.840000", "192752.844000", "192752.847000", "192752.850000", "192752.854000", "192752.857000", "192752.861000", "192752.864000", "192752.867000", "192752.871000", "192752.874000", "192752.877000", "192752.880000", "192752.884000", "192752.887000", "192832.759000", "192832.763000", "192832.766000", "192832.790000", "192832.794000", "192832.797000", "192832.800000", "192832.804000", "192832.807000", "192832.810000", "192832.814000", "192832.817000", "192832.820000", "192832.824000", "192832.827000", "192832.830000", "192832.833000", "192832.837000", "192832.840000", "192832.843000", "192832.847000", "192832.850000", "192832.853000", "192832.856000", "192832.860000", "192832.863000", "192832.866000", "192912.760000", "192912.764000", "192912.767000", "192912.811000", "192912.814000", "192912.817000", "192912.821000", "192912.824000", "192912.828000", "192912.839000", "192912.843000", "192912.846000", "192912.850000", "192912.853000", "192912.856000", "192912.860000", "192912.864000", "192912.867000", "192912.870000", "192912.874000", "192912.877000", "192912.881000", "192912.884000", "192912.888000", "192912.891000", "192912.895000", "192912.898000", "192952.760000", "192952.764000", "192952.767000", "192952.771000", "192952.774000", "192952.777000", "192952.780000", "192952.784000", "192952.787000", "192952.791000", "192952.794000", "192952.797000", "192952.800000", "192952.804000", "192952.807000", "192952.810000", "192952.814000", "192952.817000", "192952.820000", "192952.824000", "192952.827000", "192952.830000", "192952.834000", "192952.837000", "192952.840000", "192952.843000", "192952.847000", "193032.759000", "193032.763000", "193032.766000", "193032.770000", "193032.773000", "193032.777000", "193032.780000", "193032.783000", "193032.787000", "193032.790000", "193032.793000", "193032.796000", "193032.800000", "193032.803000", "193032.807000", "193032.810000", "193032.813000", "193032.816000", "193032.820000", "193032.823000", "193032.826000", "193032.830000", "193032.833000", "193032.836000", "193032.840000", "193032.843000", "193112.759000", "193112.763000", "193112.766000", "193112.769000", "193112.773000", "193112.776000", "193112.780000", "193112.783000", "193112.786000", "193112.789000", "193112.793000", "193112.796000", "193112.799000", "193112.803000", "193112.806000", "193112.809000", "193112.813000", "193112.816000", "193112.819000", "193112.822000", "193112.826000", "193112.843000", "193112.846000", "193112.849000", "193112.853000", "193112.856000", "193112.859000", "193152.761000", "193152.764000", "193152.767000", "193152.771000", "193152.774000", "193152.777000", "193152.781000", "193152.784000", "193152.787000", "193152.791000", "193152.794000", "193152.797000", "193152.801000", "193152.804000", "193152.807000", "193152.810000", "193152.814000", "193152.817000", "193152.820000", "193152.824000", "193152.827000", "193152.830000", "193152.834000", "193152.837000", "193152.840000", "193152.844000", "193152.847000", "193232.759000", "193232.763000", "193232.766000", "193232.770000", "193232.773000", "193232.776000", "193232.780000", "193232.783000", "193232.786000", "193232.790000", "193232.793000", "193232.796000", "193232.800000", "193232.803000", "193232.806000", "193232.809000", "193232.813000", "193232.816000", "193232.819000", "193232.823000", "193232.826000", "193232.829000", "193232.832000", "193232.836000", "193232.839000", "193232.842000", "193232.846000", "193249.738000", "193249.742000", "193249.745000", "193249.749000", "193249.752000", "193249.755000", "193249.759000", "193249.762000", "193249.775000", "193249.778000", "193249.781000"],
