{
  "AcquisitionMatrixPE": 104,
  "AcquisitionNumber": 1,
  "AcquisitionTime": "19:34:12.000000",
  "BandwidthPerPixelPhaseEncode": 17.17,
  "BaseResolution": 104,
  "BodyPartExamined": "BRAIN",
  "CoilCombinationMethod": "Sum of Squares",
  "ConsistencyInfo": "N4_VE11C_LATEST_20160120",
  "ConversionSoftware": "dcm2niix",
  "ConversionSoftwareVersion": "v1.0.20220505",
  "DerivedVendorReportedEchoSpacing": 0.000560011,
  "DeviceSerialNumber": "167006",
  "DwellTime": 2.1e-06,
  "EchoTime": 0.037,
  "EchoTime1": 0.037,
  "EchoTime2": 0.001,
  "EchoTrainLength": 104,
  "EffectiveEchoSpacing": 0.000560011,
  "FlipAngle": 52,
  "HeudiconvVersion": "0.5.3.post811+g6206e14",
  "ImageComments": "Unaliased MB4/PE3/LB",
  "ImageOrientationPatientDICOM": [0.999758, -0.0113229, 0.0188841, 0.0176254, 0.925581, -0.37814],
  "ImageOrientationText": "Tra>Cor(-22.2)>Sag(0.8)",
  "ImageType": [
    "ORIGINAL",
    "PRIMARY",
    "P",
    "MB",
    "ND",
    "MOSAIC",
    "PHASE"
],
  "ImagingFrequency": 123.259,
  "InPlanePhaseEncodingDirectionDICOM": "COL",
  "InstitutionAddress": "Chemin Queen-Mary 4565,Montreal,District,CA,H3W 1W5",
  "InstitutionName": "IUGM",
  "InstitutionalDepartmentName": "Department",
  "MRAcquisitionType": "2D",
  "MagneticFieldStrength": 3,
  "Manufacturer": "Siemens",
  "ManufacturersModelName": "Prisma_fit",
  "MatrixCoilMode": "SENSE",
  "Modality": "MR",
  "MultibandAccelerationFactor": 4,
  "PartialFourier": 1,
  "PatientPosition": "HFS",
  "PercentPhaseFOV": 100,
  "PercentSampling": 100,
  "PhaseEncodingDirection": "j",
  "PhaseEncodingSteps": 104,
  "PhaseResolution": 1,
  "PixelBandwidth": 2290,
  "ProcedureStepDescription": "games^mario3",
  "ProtocolName": "func_task-mario3_run-05",
  "PulseSequenceDetails": "%CustomerSeq%\\cmrr_mbep2d_bold",
  "ReceiveCoilActiveElements": "HC1-7;NC1,2",
  "ReceiveCoilName": "HeadNeck_64",
  "ReconMatrixPE": 104,
  "RepetitionTime": 1.49,
  "SAR": 0.0488992,
  "ScanOptions": "FS",
  "ScanningSequence": "EP",
  "SequenceName": "epfid2d1_104",
  "SequenceVariant": "SK\\SS",
  "SeriesDescription": "func_task-mario3_run-05",
  "SeriesNumber": 23,
  "ShimSetting": [581, -7286, -8780, 451, 0, -324, -29, 101],
  "SliceThickness": 2,
  "SliceTiming": [0, 0.785, 0.1, 0.8825, 0.1975, 0.98, 0.295, 1.08, 0.3925, 1.1775, 0.49, 1.275, 0.59, 1.3725, 0.6875, 0, 0.785, 0.1, 0.8825, 0.1975, 0.98, 0.295, 1.08, 0.3925, 1.1775, 0.49, 1.275, 0.59, 1.3725, 0.6875, 0, 0.785, 0.1, 0.8825, 0.1975, 0.98, 0.295, 1.08, 0.3925, 1.1775, 0.49, 1.275, 0.59, 1.3725, 0.6875, 0, 0.785, 0.1, 0.8825, 0.1975, 0.98, 0.295, 1.08, 0.3925, 1.1775, 0.49, 1.275, 0.59, 1.3725, 0.6875],
  "SoftwareVersions": "syngo MR E11",
  "SpacingBetweenSlices": 2,
  "StationName": "MRC35049",
  "TaskName": "mario3",
  "TotalReadoutTime": 0.0576811,
  "TxRefAmp": 252.799,
  "WipMemBlock": "09a24fc3-4c5a-4b82-9357-f4feb7b90136||Sequence: R017 ve11c/master r/75a17815+; Jun 28 2022 16:32:11 by eja",
  "dcmmeta_affine": [
    [-1.999515175819397, 0.035250816494226456, 0.02639419212937355, 101.39836883544922],
    [0.022645890712738037, 1.8511611223220825, -0.7567625641822815, -69.7623062133789],
    [0.037768200039863586, 0.756280243396759, 1.8511115312576294, -57.14202880859375],
    [0.0, 0.0, 0.0, 1.0]
],
  "dcmmeta_reorient_transform": [
    [0.0, -1.0, 0.0, 103.0],
    [1.0, 0.0, 0.0, 0.0],
    [0.0, 0.0, 1.0, 0.0],
    [0.0, 0.0, 0.0, 1.0]
],
  "dcmmeta_shape": [104, 104, 60, 316],
  "dcmmeta_slice_dim": 2,
  "dcmmeta_version": 0.6,
  "global": {
    "const": {
      "AcquisitionMatrix": [104, 0, 0, 104],
      "AngioFlag": "N",
      "BitsAllocated": 16,
      "BitsStored": 16,
      "BodyPartExamined": "BRAIN",
      "Columns": 832,
      "EchoNumbers": 1,
      "EchoTime": 37.0,
      "EchoTrainLength": 104,
      "FlipAngle": 52.0,
      "HighBit": 15,
      "ImageOrientationPatient": [0.99975756144118, -0.0113229456562, 0.01888410026599, 0.01762540758539, 0.92558057015621, -0.3781401237065],
      "ImagePositionPatient": [-845.68400194041, -786.48683889956, 282.2932215092],
      "ImageType": [
        "ORIGINAL",
        "PRIMARY",
        "P",
        "MB",
        "ND",
        "MOSAIC"
],
      "ImagedNucleus": "1H",
      "ImagingFrequency": 123.258726,
      "InPlanePhaseEncodingDirection": "COL",
      "LargestImagePixelValue": 4095,
      "MRAcquisitionType": "2D",
      "MagneticFieldStrength": 3.0,
      "Manufacturer": "SIEMENS",
      "ManufacturerModelName": "Prisma_fit",
      "Modality": "MR",
      "NumberOfAverages": 1.0,
      "NumberOfPhaseEncodingSteps": 104,
      "PercentPhaseFieldOfView": 100.0,
      "PercentSampling": 100.0,
      "PerformedProcedureStepStartTime": "184920.807000",
      "PhotometricInterpretation": "MONOCHROME2",
      "PixelBandwidth": 2290.0,
      "PixelRepresentation": 0,
      "PixelSpacing": [2.0, 2.0],
      "ProtocolName": "func_task-mario3_run-05",
      "RepetitionTime": 1490.0,
      "RescaleIntercept": -4096.0,
      "RescaleSlope": 2.0,
      "RescaleType": "US",
      "Rows": 832,
      "SAR": 0.04889920429772,
      "SamplesPerPixel": 1,
      "ScanOptions": "FS",
      "ScanningSequence": "EP",
      "SequenceName": "epfid2d1_104",
      "SequenceVariant": [
        "SK",
        "SS"
],
      "SeriesDescription": "func_task-mario3_run-05",
      "SeriesNumber": 23,
      "SeriesTime": "193538.641000",
      "SliceLocation": -25.153216874449,
      "SliceThickness": 2.0,
      "SmallestImagePixelValue": 0,
      "SoftwareVersions": "syngo MR E11",
      "SpacingBetweenSlices": 1.9999999933647,
      "SpecificCharacterSet": "ISO_IR 100",
      "StudyID": "1",
      "StudyTime": "184920.749000",
      "TransmitCoilName": "Body",
      "VariableFlipAngleFlag": "N",
      "WindowCenterWidthExplanation": "Algo1",
      "dBdt": 0.0},
    "slices": {}
  },
  "time": {
    "samples": {
      "AcquisitionNumber": [1, 2, 3, 4, 5, 6, 7, 8, 9, 10, 11, 12, 13, 14, 15, 16, 17, 18, 19, 20, 21, 22, 23, 24, 25, 26, 27, 28, 29, 30, 31, 32, 33, 34, 35, 36, 37, 38, 39, 40, 41, 42, 43, 44, 45, 46, 47, 48, 49, 50, 51, 52, 53, 54, 55, 56, 57, 58, 59, 60, 61, 62, 63, 64, 65, 66, 67, 68, 69, 70, 71, 72, 73, 74, 75, 76, 77, 78, 79, 80, 81, 82, 83, 84, 85, 86, 87, 88, 89, 90, 91, 92, 93, 94, 95, 96, 97, 98, 99, 100, 101, 102, 103, 104, 105, 106, 107, 108, 109, 110, 111, 112, 113, 114, 115, 116, 117, 118, 119, 120, 121, 122, 123, 124, 125, 126, 127, 128, 129, 130, 131, 132, 133, 134, 135, 136, 137, 138, 139, 140, 141, 142, 143, 144, 145, 146, 147, 148, 149, 150, 151, 152, 153, 154, 155, 156, 157, 158, 159, 160, 161, 162, 163, 164, 165, 166, 167, 168, 169, 170, 171, 172, 173, 174, 175, 176, 177, 178, 179, 180, 181, 182, 183, 184, 185, 186, 187, 188, 189, 190, 191, 192, 193, 194, 195, 196, 197, 198, 199, 200, 201, 202, 203, 204, 205, 206, 207, 208, 209, 210, 211, 212, 213, 214, 215, 216, 217, 218, 219, 220, 221, 222, 223, 224, 225, 226, 227, 228, 229, 230, 231, 232, 233, 234, 235, 236, 237, 238, 239, 240, 241, 242, 243, 244, 245, 246, 247, 248, 249, 250, 251, 252, 253, 254, 255, 256, 257, 258, 259, 260, 261, 262, 263, 264, 265, 266, 267, 268, 269, 270, 271, 272, 273, 274, 275, 276, 277, 278, 279, 280, 281, 282, 283, 284, 285, 286, 287, 288, 289, 290, 291, 292, 293, 294, 295, 296, 297, 298, 299, 300, 301, 302, 303, 304, 305, 306, 307, 308, 309, 310, 311, 312, 313, 314, 315, 316],
      "AcquisitionTime": ["193412.000000", "193413.490000", "193414.980000", "193416.470000", "193417.960000", "193419.450000", "193420.940000", "193422.430000", "193423.920000", "193425.410000", "193426.900000", "193428.390000", "193429.880000", "193431.370000", "193432.860000", "193434.350000", "193435.840000", "193437.330000", "193438.820000", "193440.310000", "193441.800000", "193443.290000", "193444.780000", "193446.270000", "193447.760000", "193449.250000", "193450.740000", "193452.230000", "193453.720000", "193455.210000", "193456.700000", "193458.190000", "193459.680000", "193501.170000", "193502.660000", "193504.150000", "193505.640000", "193507.130000", "193508.620000", "193510.110000", "193511.600000", "193513.090000", "193514.580000", "193516.070000", "193517.560000", "193519.050000", "193520.540000", "193522.030000", "193523.520000", "193525.010000", "193526.500000", "193527.990000", "193529.480000", "193530.970000", "193532.460000", "193533.950000", "193535.440000", "193536.930000", "193538.420000", "193539.910000", "193541.400000", "193542.890000", "193544.380000", "193545.870000", "193547.360000", "193548.850000", "193550.340000", "193551.830000", "193553.320000", "193554.810000", "193556.300000", "193557.790000", "193559.280000", "193600.770000", "193602.260000", "193603.750000", "193605.240000", "193606.730000", "193608.220000", "193609.710000", "193611.200000", "193612.690000", "193614.180000", "193615.670000", "193617.160000", "193618.650000", "193620.140000", "193621.630000", "193623.120000", "193624.610000", "193626.100000", "193627.590000", "193629.080000", "193630.570000", "193632.060000", "193633.550000", "193635.040000", "193636.530000", "193638.020000", "193639.510000", "193641.000000", "193642.490000", "193643.980000", "193645.470000", "193646.960000", "193648.450000", "193649.940000", "193651.430000", "193652.920000", "193654.410000", "193655.900000", "193657.390000", "193658.880000", "193700.370000", "193701.860000", "193703.350000", "193704.840000", "193706.330000", "193707.820000", "193709.310000", "193710.800000", "193712.290000", "193713.780000", "193715.270000", "193716.760000", "193718.250000", "193719.740000", "193721.230000", "193722.720000", "193724.210000", "193725.700000", "193727.190000", "193728.680000", "193730.170000", "193731.660000", "193733.150000", "193734.640000", "193736.130000", "193737.620000", "193739.110000", "193740.600000", "193742.090000", "193743.580000", "193745.070000", "193746.560000", "193748.050000", "193749.540000", "193751.030000", "193752.520000", "193754.010000", "193755.500000", "193756.990000", "193758.480000", "193759.970000", "193801.460000", "193802.950000", "193804.440000", "193805.930000", "193807.420000", "193808.910000", "193810.400000", "193811.890000", "193813.380000", "193814.870000", "193816.360000", "193817.850000", "193819.340000", "193820.830000", "193822.320000", "193823.810000", "193825.300000", "193826.790000", "193828.280000", "193829.770000", "193831.260000", "193832.750000", "193834.240000", "193835.730000", "193837.220000", "193838.710000", "193840.200000", "193841.690000", "193843.180000", "193844.670000", "193846.160000", "193847.650000", "193849.140000", "193850.630000", "193852.120000", "193853.610000", "193855.100000", "193856.590000", "193858.080000", "193859.570000", "193901.060000", "193902.550000", "193904.040000", "193905.530000", "193907.020000", "193908.510000", "193910.000000", "193911.490000", "193912.980000", "193914.470000", "193915.960000", "193917.450000", "193918.940000", "193920.430000", "193921.920000", "193923.410000", "193924.900000", "193926.390000", "193927.880000", "193929.370000", "193930.860000", "193932.350000", "193933.840000", "193935.330000", "193936.820000", "193938.310000", "193939.800000", "193941.290000", "193942.780000", "193944.270000", "193945.760000", "193947.250000", "193948.740000", "193950.230000", "193951.720000", "193953.210000", "193954.700000", "193956.190000", "193957.680000", "193959.170000", "194000.660000", "194002.150000", "194003.640000", "194005.130000", "194006.620000", "194008.110000", "194009.600000", "194011.090000", "194012.580000", "194014.070000", "194015.560000", "194017.050000", "194018.540000", "194020.030000", "194021.520000", "194023.010000", "194024.500000", "194025.990000", "194027.480000", "194028.970000", "194030.460000", "194031.950000", "194033.440000", "194034.930000", "194036.420000", "194037.910000", "194039.400000", "194040.890000", "194042.380000", "194043.870000", "194045.360000", "194046.850000", "194048.340000", "194049.830000", "194051.320000", "194052.810000", "194054.300000", "194055.790000", "194057.280000", "194058.770000", "194100.260000", "194101.750000", "194103.240000", "194104.730000", "194106.220000", "194107.710000", "194109.200000", "194110.690000", "194112.180000", "194113.670000", "194115.160000", "194116.650000", "194118.140000", "194119.630000", "194121.120000", "194122.610000", "194124.100000", "194125.590000", "194127.080000", "194128.570000", "194130.060000", "194131.550000", "194133.040000", "194134.530000", "194136.020000", "194137.510000", "194139.000000", "194140.490000", "194141.980000", "194143.470000", "194144.960000", "194146.450000", "194147.940000", "194149.430000", "194150.920000", "194152.410000", "194153.900000", "194155.390000", "194156.880000", "194158.370000", "194159.860000", "194201.350000"],
      "ContentTime": ["193538.643000", "193538.646000", "193538.648000", "193538.651000", "193538.653000", "193538.656000", "193538.658000", "193538.661000", "193538.663000", "193538.666000", "193538.668000", "193538.670000", "193538.673000", "193538.675000", "193538.678000", "193538.680000", "193538.683000", "193538.685000", "193538.688000", "193538.690000", "193538.693000", "193538.695000", "193538.697000", "193538.700000", "193538.702000", "193538.705000", "193538.707000", "193538.710000", "193538.712000", "193538.715000", "193538.717000", "193538.720000", "193538.722000", "193538.725000", "193538.727000", "193538.730000", "193538.732000", "193558.508000", "193558.511000", "193558.514000", "193558.516000", "193558.519000", "193558.521000", "193558.524000", "193558.526000", "193558.528000", "193558.531000", "193558.533000", "193558.536000", "193558.538000", "193558.541000", "193558.543000", "193558.546000", "193558.548000", "193558.551000", "193558.553000", "193558.556000", "193618.501000", "193618.503000", "193618.506000", "193618.508000", "193618.511000", "193618.513000", "193618.516000", "193618.518000", "193618.521000", "193618.523000", "193618.525000", "193618.528000", "193618.530000", "193618.533000", "193618.535000", "193618.538000", "193618.540000", "193618.543000", "193618.545000", "193618.548000", "193638.512000", "193638.514000", "193638.517000", "193638.519000", "193638.522000", "193638.524000", "193638.527000", "193638.529000", "193638.532000", "193638.534000", "193638.537000", "193638.539000", "193638.542000", "193638.544000", "193638.546000", "193638.559000", "193638.561000", "193638.564000", "193638.567000", "193638.569000", "193718.559000", "193718.562000", "193718.564000", "193718.567000", "193718.569000", "193718.572000", "193718.574000", "193718.577000", "193718.579000", "193718.582000", "193718.584000", "193718.587000", "193718.589000", "193718.592000", "193718.594000", "193718.597000", "193718.599000", "193718.602000", "193718.604000", "193718.607000", "193718.609000", "193718.612000", "193718.614000", "193718.625000", "193718.627000", "193718.630000", "193718.632000", "193758.550000", "193758.553000", "193758.555000", "193758.558000", "193758.560000", "193758.563000", "193758.565000", "193758.568000", "193758.571000", "193758.573000", "193758.576000", "193758.578000", "193758.580000", "193758.583000", "193758.585000", "193758.588000", "193758.590000", "193758.593000", "193758.595000", "193758.598000", "193758.600000", "193758.603000", "193758.605000", "193758.608000", "193758.610000", "193758.613000", "193758.615000", "193838.581000", "193838.584000", "193838.586000", "193838.589000", "193838.591000", "193838.594000", "193838.596000", "193838.599000", "193838.601000", "193838.604000", "193838.606000", "193838.609000", "193838.611000", "193838.614000", "193838.616000", "193838.619000", "193838.621000", "193838.623000", "193838.626000", "193838.628000", "193838.631000", "193838.633000", "193838.636000", "193838.638000", "193838.641000", "193838.643000", "193838.646000", "193918.560000", "193918.562000", "193918.565000", "193918.575000", "193918.577000", "193918.580000", "193918.582000", "193918.585000", "193918.587000", "193918.590000", "193918.592000", "193918.595000", "193918.597000", "193918.600000", "193918.602000", "193918.605000", "193918.607000", "193918.610000", "193918.612000", "193918.615000", "193918.617000", "193918.620000", "193918.622000", "193918.625000", "193918.627000", "193918.630000", "193918.632000", "193958.557000", "193958.560000", "193958.562000", "193958.565000", "193958.567000", "193958.570000", "193958.572000", "193958.575000", "193958.577000", "193958.580000", "193958.582000", "193958.585000", "193958.587000", "193958.590000", "193958.592000", "193958.594000", "193958.597000", "193958.599000", "193958.602000", "193958.604000", "193958.607000", "193958.609000", "193958.612000", "193958.614000", "193958.617000", "193958.619000", "193958.622000", "194038.553000", "194038.556000", "194038.558000", "194038.561000", "194038.571000", "194038.573000", "194038.576000", "194038.578000", "194038.581000", "194038.584000", "194038.586000", "194038.589000", "194038.591000", "194038.594000", "194038.596000", "194038.599000", "194038.602000", "194038.604000", "194038.607000", "194038.609000", "194038.612000", "194038.614000", "194038.617000", "194038.619000", "194038.622000", "194038.624000", "194118.533000", "194118.535000", "194118.538000", "194118.540000", "194118.543000", "194118.545000", "194118.548000", "194118.550000", "194118.553000", "194118.555000", "194118.558000", "194118.561000", "194118.563000", "194118.566000", "194118.568000", "194118.571000", "194118.573000", "194118.576000", "194118.578000", "194118.581000", "194118.583000", "194118.586000", "194118.588000", "194118.591000", "194118.593000", "194118.596000", "194118.598000", "194158.563000", "194158.566000", "194158.569000", "194158.571000", "194158.574000", "194158.576000", "194158.579000", "194158.581000", "194158.583000", "194158.586000", "194158.588000", "194158.591000", "194158.593000", "194158.596000", "194158.598000", "194158.601000", "194158.603000", "194158.606000", "194158.608000", "194158.611000", "194158.613000", "194158.616000", "194158.618000", "194158.621000", "194158.623000", "194158.626000", "194158.628000", "194203.766000", "194203.769000", "194203.772000", "194203.774000"],
      "InstanceCreationTime": ["193538.643000", "193538.646000", "193538.648000", "193538.651000", "193538.653000", "193538.656000", "193538.658000", "193538.661000", "193538.663000", "193538.666000", "193538.668000", "193538.670000", "193538.673000", "193538.675000", "193538.678000", "193538.680000", "193538.683000", "193538.685000", "193538.688000", "193538.690000", "193538.693000", "193538.695000", "193538.697000", "193538.700000", "193538.702000", "193538.705000", "193538.707000", "193538.710000", "193538.712000", "193538.715000", "193538.717000", "193538.720000", "193538.722000", "193538.725000", "193538.727000", "193538.730000", "193538.732000", "193558.508000", "193558.511000", "193558.514000", "193558.516000", "193558.519000", "193558.521000", "193558.524000", "193558.526000", "193558.528000", "193558.531000", "193558.533000", "193558.536000", "193558.538000", "193558.541000", "193558.543000", "193558.546000", "193558.548000", "193558.551000", "193558.553000", "193558.556000", "193618.501000", "193618.503000", "193618.506000", "193618.508000", "193618.511000", "193618.513000", "193618.516000", "193618.518000", "193618.521000", "193618.523000", "193618.525000", "193618.528000", "193618.530000", "193618.533000", "193618.535000", "193618.538000", "193618.540000", "193618.543000", "193618.545000", "193618.548000", "193638.512000", "193638.514000", "193638.517000", "193638.519000", "193638.522000", "193638.524000", "193638.527000", "193638.529000", "193638.532000", "193638.534000", "193638.537000", "193638.539000", "193638.542000", "193638.544000", "193638.546000", "193638.559000", "193638.561000", "193638.564000", "193638.567000", "193638.569000", "193718.559000", "193718.562000", "193718.564000", "193718.567000", "193718.569000", "193718.572000", "193718.574000", "193718.577000", "193718.579000", "193718.582000", "193718.584000", "193718.587000", "193718.589000", "193718.592000", "193718.594000", "193718.597000", "193718.599000", "193718.602000", "193718.604000", "193718.607000", "193718.609000", "193718.612000", "193718.614000", "193718.625000", "193718.627000", "193718.630000", "193718.632000", "193758.550000", "193758.553000", "193758.555000", "193758.558000", "193758.560000", "193758.563000", "193758.565000", "193758.568000", "193758.571000", "193758.573000", "193758.576000", "193758.578000", "193758.580000", "193758.583000", "193758.585000", "193758.588000", "193758.590000", "193758.593000", "193758.595000", "193758.598000", "193758.600000", "193758.603000", "193758.605000", "193758.608000", "193758.610000", "193758.613000", "193758.615000", "193838.581000", "193838.584000", "193838.586000", "193838.589000", "193838.591000", "193838.594000", "193838.596000", "193838.599000", "193838.601000", "193838.604000", "193838.606000", "193838.609000", "193838.611000", "193838.614000", "193838.616000", "193838.619000", "193838.621000", "193838.623000", "193838.626000", "193838.628000", "193838.631000", "193838.633000", "193838.636000", "193838.638000", "193838.641000", "193838.643000", "193838.646000", "193918.560000", "193918.562000", "193918.565000", "193918.575000", "193918.577000", "193918.580000", "193918.582000", "193918.585000", "193918.587000", "193918.590000", "193918.592000", "193918.595000", "193918.597000", "193918.600000", "193918.602000", "193918.605000", "193918.607000", "193918.610000", "193918.612000", "193918.615000", "193918.617000", "193918.620000", "193918.622000", "193918.625000", "193918.627000", "193918.630000", "193918.632000", "193958.557000", "193958.560000", "193958.562000", "193958.565000", "193958.567000", "193958.570000", "193958.572000", "193958.575000", "193958.577000", "193958.580000", "193958.582000", "193958.585000", "193958.587000", "193958.590000", "193958.592000", "193958.594000", "193958.597000", "193958.599000", "193958.602000", "193958.604000", "193958.607000", "193958.609000", "193958.612000", "193958.614000", "193958.617000", "193958.619000", "193958.622000", "194038.553000", "194038.556000", "194038.558000", "194038.561000", "194038.571000", "194038.573000", "194038.576000", "194038.578000", "194038.581000", "194038.584000", "194038.586000", "194038.589000", "194038.591000", "194038.594000", "194038.596000", "194038.599000", "194038.602000", "194038.604000", "194038.607000", "194038.609000", "194038.612000", "194038.614000", "194038.617000", "194038.619000", "194038.622000", "194038.624000", "194118.533000", "194118.535000", "194118.538000", "194118.540000", "194118.543000", "194118.545000", "194118.548000", "194118.550000", "194118.553000", "194118.555000", "194118.558000", "194118.561000", "194118.563000", "194118.566000", "194118.568000", "194118.571000", "194118.573000", "194118.576000", "194118.578000", "194118.581000", "194118.583000", "194118.586000", "194118.588000", "194118.591000", "194118.593000", "194118.596000", "194118.598000", "194158.563000", "194158.566000", "194158.569000", "194158.571000", "194158.574000", "194158.576000", "194158.579000", "194158.581000", "194158.583000", "194158.586000", "194158.588000", "194158.591000", "194158.593000", "194158.596000", "194158.598000", "194158.601000", "194158.603000", "194158.606000", "194158.608000", "194158.611000", "194158.613000", "194158.616000", "194158.618000", "194158.621000", "194158.623000", "194158.626000", "194158.628000", "194203.766000", "194203.769000", "194203.772000", "194203.774000"],
      "InstanceNumber": [1, 2, 3, 4, 5, 6, 7, 8, 9, 10, 11, 12, 13, 14, 15, 16, 17, 18, 19, 20, 21, 22, 23, 24, 25, 26, 27, 28, 29, 30, 31, 32, 33, 34, 35, 36, 37, 38, 39, 40, 41, 42, 43, 44, 45, 46, 47, 48, 49, 50, 51, 52, 53, 54, 55, 56, 57, 58, 59, 60, 61, 62, 63, 64, 65, 66, 67, 68, 69, 70, 71, 72, 73, 74, 75, 76, 77, 78, 79, 80, 81, 82, 83, 84, 85, 86, 87, 88, 89, 90, 91, 92, 93, 94, 95, 96, 97, 98, 99, 100, 101, 102, 103, 104, 105, 106, 107, 108, 109, 110, 111, 112, 113, 114, 115, 116, 117, 118, 119, 120, 121, 122, 123, 124, 125, 126, 127, 128, 129, 130, 131, 132, 133, 134, 135, 136, 137, 138, 139, 140, 141, 142, 143, 144, 145, 146, 147, 148, 149, 150, 151, 152, 153, 154, 155, 156, 157, 158, 159, 160, 161, 162, 163, 164, 165, 166, 167, 168, 169, 170, 171, 172, 173, 174, 175, 176, 177, 178, 179, 180, 181, 182, 183, 184, 185, 186, 187, 188, 189, 190, 191, 192, 193, 194, 195, 196, 197, 198, 199, 200, 201, 202, 203, 204, 205, 206, 207, 208, 209, 210, 211, 212, 213, 214, 215, 216, 217, 218, 219, 220, 221, 222, 223, 224, 225, 226, 227, 228, 229, 230, 231, 232, 233, 234, 235, 236, 237, 238, 239, 240, 241, 242, 243, 244, 245, 246, 247, 248, 249, 250, 251, 252, 253, 254, 255, 256, 257, 258, 259, 260, 261, 262, 263, 264, 265, 266, 267, 268, 269, 270, 271, 272, 273, 274, 275, 276, 277, 278, 279, 280, 281, 282, 283, 284, 285, 286, 287, 288, 289, 290, 291, 292, 293, 294, 295, 296, 297, 298, 299, 300, 301, 302, 303, 304, 305, 306, 307, 308, 309, 310, 311, 312, 313, 314, 315, 316],
      "WindowCenter": [4928.0, 4908.0, 4906.0, 4908.0, 4930.0, 4908.0, 4928.0, 4908.0, 4904.0, 4906.0, 4900.0, 4906.0, 4930.0, 4904.0, 4906.0, 4928.0, 4904.0, 4906.0, 4926.0, 4906.0, 4906.0, 4930.0, 4930.0, 4904.0, 4906.0, 4906.0, 4906.0, 4904.0, 4928.0, 4926.0, 4926.0, 4902.0, 4922.0, 4930.0, 4910.0, 4906.0, 4910.0, 4930.0, 4906.0, 4902.0, 4902.0, 4904.0, 4906.0, 4906.0, 4910.0, 4912.0, 4910.0, 4910.0, 4930.0, 4906.0, 4928.0, 4900.0, 4906.0, 4898.0, 4906.0, 4904.0, 4906.0, 4908.0, 4908.0, 4900.0, 4928.0, 4922.0, 4924.0, 4906.0, 4904.0, 4908.0, 4930.0, 4910.0, 4908.0, 4906.0, 4922.0, 4898.0, 4926.0, 4928.0, 4928.0, 4852.0, 4888.0, 4906.0, 4884.0, 4910.0, 4914.0, 4912.0, 4906.0, 4922.0, 4896.0, 4894.0, 4896.0, 4896.0, 4900.0, 4902.0, 4902.0, 4900.0, 4900.0, 4926.0, 4898.0, 4902.0, 4904.0, 4922.0, 4902.0, 4902.0, 4922.0, 4904.0, 4900.0, 4902.0, 4904.0, 4896.0, 4898.0, 4902.0, 4900.0, 4904.0, 4900.0, 4900.0, 4906.0, 4898.0, 4902.0, 4902.0, 4902.0, 4900.0, 4902.0, 4904.0, 4898.0, 4902.0, 4922.0, 4904.0, 4922.0, 4898.0, 4906.0, 4898.0, 4904.0, 4902.0, 4900.0, 4898.0, 4900.0, 4900.0, 4896.0, 4904.0, 4896.0, 4902.0, 4904.0, 4900.0, 4902.0, 4900.0, 4898.0, 4900.0, 4900.0, 4898.0, 4902.0, 4898.0, 4900.0, 4898.0, 4902.0, 4902.0, 4896.0, 4900.0, 4900.0, 4902.0, 4898.0, 4900.0, 4896.0, 4898.0, 4900.0, 4898.0, 4900.0, 4898.0, 4900.0, 4898.0, 4900.0, 4896.0, 4900.0, 4902.0, 4900.0, 4898.0, 4896.0, 4898.0, 4902.0, 4898.0, 4900.0, 4900.0, 4904.0, 4922.0, 4900.0, 4898.0, 4902.0, 4898.0, 4900.0, 4898.0, 4896.0, 4902.0, 4920.0, 4900.0, 4898.0, 4900.0, 4896.0, 4902.0, 4898.0, 4894.0, 4902.0, 4898.0, 4900.0, 4896.0, 4902.0, 4896.0, 4900.0, 4900.0, 4898.0, 4898.0, 4896.0, 4896.0, 4898.0, 4896.0, 4898.0, 4898.0, 4896.0, 4902.0, 4896.0, 4900.0, 4898.0, 4898.0, 4902.0, 4898.0, 4900.0, 4892.0, 4898.0, 4896.0, 4904.0, 4930.0, 4898.0, 4884.0, 4860.0, 4888.0, 4890.0, 4900.0, 4906.0, 4910.0, 4908.0, 4906.0, 4906.0, 4900.0, 4896.0, 4892.0, 4892.0, 4896.0, 4896.0, 4900.0, 4902.0, 4904.0, 4908.0, 4904.0, 4906.0, 4898.0, 4926.0, 4898.0, 4900.0, 4898.0, 4906.0, 4924.0, 4906.0, 4902.0, 4898.0, 4902.0, 4902.0, 4898.0, 4904.0, 4922.0, 4898.0, 4900.0, 4900.0, 4902.0, 4900.0, 4900.0, 4900.0, 4900.0, 4920.0, 4900.0, 4902.0, 4898.0, 4898.0, 4904.0, 4902.0, 4902.0, 4904.0, 4902.0, 4902.0, 4896.0, 4898.0, 4900.0, 4900.0, 4898.0, 4898.0, 4900.0, 4900.0, 4900.0, 4898.0, 4898.0, 4902.0, 4896.0, 4900.0, 4904.0, 4908.0, 4902.0, 4904.0, 4898.0, 4902.0, 4898.0, 4898.0, 4898.0, 4898.0, 4904.0, 4904.0, 4900.0, 4924.0, 4922.0, 4900.0, 4900.0, 4900.0, 4862.0],
