{
  "AcquisitionMatrixPE": 104,
  "AcquisitionNumber": 1,
  "AcquisitionTime": "19:11:36.917500",
  "BandwidthPerPixelPhaseEncode": 17.17,
  "BaseResolution": 104,
  "BodyPartExamined": "BRAIN",
  "CoilCombinationMethod": "Sum of Squares",
  "ConsistencyInfo": "N4_VE11C_LATEST_20160120",
  "ConversionSoftware": "dcm2niix",
  "ConversionSoftwareVersion": "v1.0.20220505",
  "DerivedVendorReportedEchoSpacing": 0.000560011,
  "DeviceSerialNumber": "167006",
  "DwellTime": 2.1e-06,
  "EchoTime": 0.037,
  "EchoTrainLength": 104,
  "EffectiveEchoSpacing": 0.000560011,
  "FlipAngle": 52,
  "HeudiconvVersion": "0.5.3.post811+g6206e14",
  "ImageComments": "Unaliased MB4/PE3/LB",
  "ImageOrientationPatientDICOM": [0.999758, -0.0113229, 0.0188841, 0.0176254, 0.925581, -0.37814],
  "ImageOrientationText": "Tra>Cor(-22.2)>Sag(0.8)",
  "ImageType": [
    "ORIGINAL",
    "PRIMARY",
    "M",
    "MB",
    "ND",
    "MOSAIC"
],
  "ImagingFrequency": 123.259,
  "InPlanePhaseEncodingDirectionDICOM": "COL",
  "InstitutionAddress": "Chemin Queen-Mary 4565,Montreal,District,CA,H3W 1W5",
  "InstitutionName": "IUGM",
  "InstitutionalDepartmentName": "Department",
  "MRAcquisitionType": "2D",
  "MagneticFieldStrength": 3,
  "Manufacturer": "Siemens",
  "ManufacturersModelName": "Prisma_fit",
  "MatrixCoilMode": "SENSE",
  "Modality": "MR",
  "MultibandAccelerationFactor": 4,
  "PartialFourier": 1,
  "PatientPosition": "HFS",
  "PercentPhaseFOV": 100,
  "PercentSampling": 100,
  "PhaseEncodingDirection": "j",
  "PhaseEncodingSteps": 104,
  "PhaseResolution": 1,
  "PixelBandwidth": 2290,
  "ProcedureStepDescription": "games^mario3",
  "ProtocolName": "func_task-mario3_run-03",
  "PulseSequenceDetails": "%CustomerSeq%\\cmrr_mbep2d_bold",
  "ReceiveCoilActiveElements": "HC1-7;NC1,2",
  "ReceiveCoilName": "HeadNeck_64",
  "ReconMatrixPE": 104,
  "RepetitionTime": 1.49,
  "SAR": 0.0488992,
  "ScanOptions": "FS",
  "ScanningSequence": "EP",
  "SequenceName": "epfid2d1_104",
  "SequenceVariant": "SK\\SS",
  "SeriesDescription": "func_task-mario3_run-03",
  "SeriesNumber": 16,
  "ShimSetting": [581, -7286, -8780, 451, 0, -324, -29, 101],
  "SliceThickness": 2,
  "SliceTiming": [0, 0.7825, 0.0975, 0.88, 0.195, 0.98, 0.2925, 1.0775, 0.39, 1.175, 0.49, 1.2725, 0.5875, 1.37, 0.685, 0, 0.7825, 0.0975, 0.88, 0.195, 0.98, 0.2925, 1.0775, 0.39, 1.175, 0.49, 1.2725, 0.5875, 1.37, 0.685, 0, 0.7825, 0.0975, 0.88, 0.195, 0.98, 0.2925, 1.0775, 0.39, 1.175, 0.49, 1.2725, 0.5875, 1.37, 0.685, 0, 0.7825, 0.0975, 0.88, 0.195, 0.98, 0.2925, 1.0775, 0.39, 1.175, 0.49, 1.2725, 0.5875, 1.37, 0.685],
  "SoftwareVersions": "syngo MR E11",
  "SpacingBetweenSlices": 2,
  "StationName": "MRC35049",
  "TaskName": "mario3",
  "TotalReadoutTime": 0.0576811,
  "TxRefAmp": 252.799,
  "WipMemBlock": "6bd42a66-e5e9-410c-a07c-a39f5c29b43e||Sequence: R017 ve11c/master r/75a17815+; Jun 28 2022 16:32:11 by eja",
  "dcmmeta_affine": [
    [-1.999515175819397, 0.035250816494226456, 0.02639419212937355, 101.39836883544922],
    [0.022645890712738037, 1.8511611223220825, -0.7567625641822815, -69.7623062133789],
    [0.037768200039863586, 0.756280243396759, 1.8511115312576294, -57.14202880859375],
    [0.0, 0.0, 0.0, 1.0]
],
  "dcmmeta_reorient_transform": [
    [0.0, -1.0, 0.0, 103.0],
    [1.0, 0.0, 0.0, 0.0],
    [0.0, 0.0, 1.0, 0.0],
    [0.0, 0.0, 0.0, 1.0]
],
  "dcmmeta_shape": [104, 104, 60, 358],
  "dcmmeta_slice_dim": 2,
  "dcmmeta_version": 0.6,
  "global": {
    "const": {
      "AcquisitionMatrix": [104, 0, 0, 104],
      "AngioFlag": "N",
      "BitsAllocated": 16,
      "BitsStored": 16,
      "BodyPartExamined": "BRAIN",
      "Columns": 832,
      "EchoNumbers": 1,
      "EchoTime": 37.0,
      "EchoTrainLength": 104,
      "FlipAngle": 52.0,
      "HighBit": 15,
      "ImageOrientationPatient": [0.99975756144118, -0.0113229456562, 0.01888410026599, 0.01762540758539, 0.92558057015621, -0.3781401237065],
      "ImagePositionPatient": [-845.68400194041, -786.48683889956, 282.2932215092],
      "ImageType": [
        "ORIGINAL",
        "PRIMARY",
        "M",
        "MB",
        "ND",
        "MOSAIC"
],
      "ImagedNucleus": "1H",
      "ImagingFrequency": 123.258727,
      "InPlanePhaseEncodingDirection": "COL",
      "MRAcquisitionType": "2D",
      "MagneticFieldStrength": 3.0,
      "Manufacturer": "SIEMENS",
      "ManufacturerModelName": "Prisma_fit",
      "Modality": "MR",
      "NumberOfAverages": 1.0,
      "NumberOfPhaseEncodingSteps": 104,
      "PercentPhaseFieldOfView": 100.0,
      "PercentSampling": 100.0,
      "PerformedProcedureStepStartTime": "184920.807000",
      "PhotometricInterpretation": "MONOCHROME2",
      "PixelBandwidth": 2290.0,
      "PixelRepresentation": 0,
      "PixelSpacing": [2.0, 2.0],
      "ProtocolName": "func_task-mario3_run-03",
      "RepetitionTime": 1490.0,
      "Rows": 832,
      "SAR": 0.04889920429772,
      "SamplesPerPixel": 1,
      "ScanOptions": "FS",
      "ScanningSequence": "EP",
      "SequenceName": "epfid2d1_104",
      "SequenceVariant": [
        "SK",
        "SS"
],
      "SeriesDescription": "func_task-mario3_run-03",
      "SeriesNumber": 16,
      "SeriesTime": "191246.469000",
      "SliceLocation": -25.153216874449,
      "SliceThickness": 2.0,
      "SmallestImagePixelValue": 0,
      "SoftwareVersions": "syngo MR E11",
      "SpacingBetweenSlices": 1.9999999933647,
      "SpecificCharacterSet": "ISO_IR 100",
      "StudyID": "1",
      "StudyTime": "184920.749000",
      "TransmitCoilName": "Body",
      "VariableFlipAngleFlag": "N",
      "WindowCenterWidthExplanation": "Algo1",
      "dBdt": 0.0},
    "slices": {}
  },
  "time": {
    "samples": {
      "AcquisitionNumber": [1, 2, 3, 4, 5, 6, 7, 8, 9, 10, 11, 12, 13, 14, 15, 16, 17, 18, 19, 20, 21, 22, 23, 24, 25, 26, 27, 28, 29, 30, 31, 32, 33, 34, 35, 36, 37, 38, 39, 40, 41, 42, 43, 44, 45, 46, 47, 48, 49, 50, 51, 52, 53, 54, 55, 56, 57, 58, 59, 60, 61, 62, 63, 64, 65, 66, 67, 68, 69, 70, 71, 72, 73, 74, 75, 76, 77, 78, 79, 80, 81, 82, 83, 84, 85, 86, 87, 88, 89, 90, 91, 92, 93, 94, 95, 96, 97, 98, 99, 100, 101, 102, 103, 104, 105, 106, 107, 108, 109, 110, 111, 112, 113, 114, 115, 116, 117, 118, 119, 120, 121, 122, 123, 124, 125, 126, 127, 128, 129, 130, 131, 132, 133, 134, 135, 136, 137, 138, 139, 140, 141, 142, 143, 144, 145, 146, 147, 148, 149, 150, 151, 152, 153, 154, 155, 156, 157, 158, 159, 160, 161, 162, 163, 164, 165, 166, 167, 168, 169, 170, 171, 172, 173, 174, 175, 176, 177, 178, 179, 180, 181, 182, 183, 184, 185, 186, 187, 188, 189, 190, 191, 192, 193, 194, 195, 196, 197, 198, 199, 200, 201, 202, 203, 204, 205, 206, 207, 208, 209, 210, 211, 212, 213, 214, 215, 216, 217, 218, 219, 220, 221, 222, 223, 224, 225, 226, 227, 228, 229, 230, 231, 232, 233, 234, 235, 236, 237, 238, 239, 240, 241, 242, 243, 244, 245, 246, 247, 248, 249, 250, 251, 252, 253, 254, 255, 256, 257, 258, 259, 260, 261, 262, 263, 264, 265, 266, 267, 268, 269, 270, 271, 272, 273, 274, 275, 276, 277, 278, 279, 280, 281, 282, 283, 284, 285, 286, 287, 288, 289, 290, 291, 292, 293, 294, 295, 296, 297, 298, 299, 300, 301, 302, 303, 304, 305, 306, 307, 308, 309, 310, 311, 312, 313, 314, 315, 316, 317, 318, 319, 320, 321, 322, 323, 324, 325, 326, 327, 328, 329, 330, 331, 332, 333, 334, 335, 336, 337, 338, 339, 340, 341, 342, 343, 344, 345, 346, 347, 348, 349, 350, 351, 352, 353, 354, 355, 356, 357, 358],
      "AcquisitionTime": ["191136.917500", "191138.407500", "191139.897500", "191141.387500", "191142.877500", "191144.367500", "191145.857500", "191147.347500", "191148.837500", "191150.327500", "191151.817500", "191153.307500", "191154.797500", "191156.287500", "191157.777500", "191159.267500", "191200.757500", "191202.247500", "191203.737500", "191205.227500", "191206.717500", "191208.207500", "191209.697500", "191211.187500", "191212.677500", "191214.167500", "191215.657500", "191217.147500", "191218.637500", "191220.127500", "191221.617500", "191223.107500", "191224.597500", "191226.087500", "191227.577500", "191229.067500", "191230.557500", "191232.047500", "191233.537500", "191235.027500", "191236.517500", "191238.007500", "191239.497500", "191240.987500", "191242.477500", "191243.967500", "191245.457500", "191246.947500", "191248.437500", "191249.927500", "191251.417500", "191252.907500", "191254.397500", "191255.887500", "191257.377500", "191258.867500", "191300.357500", "191301.847500", "191303.337500", "191304.827500", "191306.317500", "191307.807500", "191309.297500", "191310.787500", "191312.277500", "191313.767500", "191315.257500", "191316.747500", "191318.237500", "191319.727500", "191321.217500", "191322.707500", "191324.197500", "191325.687500", "191327.177500", "191328.667500", "191330.157500", "191331.647500", "191333.137500", "191334.627500", "191336.117500", "191337.607500", "191339.097500", "191340.587500", "191342.077500", "191343.567500", "191345.057500", "191346.547500", "191348.037500", "191349.527500", "191351.017500", "191352.507500", "191353.997500", "191355.487500", "191356.977500", "191358.467500", "191359.957500", "191401.447500", "191402.937500", "191404.427500", "191405.917500", "191407.407500", "191408.897500", "191410.387500", "191411.877500", "191413.367500", "191414.857500", "191416.347500", "191417.837500", "191419.327500", "191420.817500", "191422.307500", "191423.797500", "191425.287500", "191426.777500", "191428.267500", "191429.757500", "191431.247500", "191432.737500", "191434.227500", "191435.717500", "191437.207500", "191438.697500", "191440.187500", "191441.677500", "191443.167500", "191444.657500", "191446.147500", "191447.637500", "191449.127500", "191450.617500", "191452.107500", "191453.597500", "191455.087500", "191456.577500", "191458.067500", "191459.557500", "191501.047500", "191502.537500", "191504.027500", "191505.517500", "191507.007500", "191508.497500", "191509.987500", "191511.477500", "191512.967500", "191514.457500", "191515.947500", "191517.437500", "191518.927500", "191520.417500", "191521.907500", "191523.397500", "191524.887500", "191526.377500", "191527.867500", "191529.357500", "191530.847500", "191532.337500", "191533.827500", "191535.317500", "191536.807500", "191538.297500", "191539.787500", "191541.277500", "191542.767500", "191544.257500", "191545.747500", "191547.237500", "191548.727500", "191550.217500", "191551.707500", "191553.197500", "191554.687500", "191556.177500", "191557.667500", "191559.157500", "191600.647500", "191602.137500", "191603.627500", "191605.117500", "191606.607500", "191608.097500", "191609.587500", "191611.077500", "191612.567500", "191614.057500", "191615.547500", "191617.037500", "191618.527500", "191620.017500", "191621.507500", "191622.997500", "191624.487500", "191625.977500", "191627.467500", "191628.957500", "191630.447500", "191631.937500", "191633.427500", "191634.917500", "191636.407500", "191637.897500", "191639.387500", "191640.877500", "191642.367500", "191643.857500", "191645.347500", "191646.837500", "191648.327500", "191649.817500", "191651.307500", "191652.797500", "191654.287500", "191655.777500", "191657.267500", "191658.757500", "191700.247500", "191701.737500", "191703.227500", "191704.717500", "191706.207500", "191707.697500", "191709.187500", "191710.677500", "191712.167500", "191713.657500", "191715.147500", "191716.637500", "191718.127500", "191719.617500", "191721.107500", "191722.597500", "191724.087500", "191725.577500", "191727.067500", "191728.557500", "191730.047500", "191731.537500", "191733.027500", "191734.517500", "191736.007500", "191737.497500", "191738.987500", "191740.477500", "191741.967500", "191743.457500", "191744.947500", "191746.437500", "191747.927500", "191749.417500", "191750.907500", "191752.397500", "191753.887500", "191755.377500", "191756.867500", "191758.357500", "191759.847500", "191801.337500", "191802.827500", "191804.317500", "191805.807500", "191807.297500", "191808.787500", "191810.277500", "191811.767500", "191813.257500", "191814.747500", "191816.237500", "191817.727500", "191819.217500", "191820.707500", "191822.197500", "191823.687500", "191825.177500", "191826.667500", "191828.157500", "191829.647500", "191831.137500", "191832.627500", "191834.117500", "191835.607500", "191837.097500", "191838.587500", "191840.077500", "191841.567500", "191843.057500", "191844.547500", "191846.037500", "191847.527500", "191849.017500", "191850.507500", "191851.997500", "191853.487500", "191854.977500", "191856.467500", "191857.957500", "191859.447500", "191900.937500", "191902.427500", "191903.917500", "191905.407500", "191906.897500", "191908.387500", "191909.877500", "191911.367500", "191912.857500", "191914.347500", "191915.837500", "191917.327500", "191918.817500", "191920.307500", "191921.797500", "191923.287500", "191924.777500", "191926.267500", "191927.757500", "191929.247500", "191930.737500", "191932.227500", "191933.717500", "191935.207500", "191936.697500", "191938.187500", "191939.677500", "191941.167500", "191942.657500", "191944.147500", "191945.637500", "191947.127500", "191948.617500", "191950.107500", "191951.597500", "191953.087500", "191954.577500", "191956.067500", "191957.557500", "191959.047500", "192000.537500", "192002.027500", "192003.517500", "192005.007500", "192006.497500", "192007.987500", "192009.477500", "192010.967500", "192012.457500", "192013.947500", "192015.437500", "192016.927500", "192018.417500", "192019.907500", "192021.397500", "192022.887500", "192024.377500", "192025.867500", "192027.357500", "192028.847500"],
      "ContentTime": ["191246.473000", "191246.477000", "191246.480000", "191246.483000", "191246.486000", "191246.490000", "191246.501000", "191246.504000", "191246.508000", "191246.511000", "191246.514000", "191246.517000", "191246.521000", "191246.524000", "191246.527000", "191246.530000", "191246.534000", "191246.537000", "191246.540000", "191246.543000", "191306.439000", "191306.443000", "191306.446000", "191306.455000", "191306.458000", "191306.462000", "191306.465000", "191306.468000", "191306.472000", "191306.475000", "191306.478000", "191306.481000", "191306.485000", "191306.488000", "191306.491000", "191306.495000", "191306.498000", "191306.501000", "191306.505000", "191306.508000", "191326.439000", "191326.443000", "191326.446000", "191326.449000", "191326.463000", "191326.466000", "191326.470000", "191326.480000", "191326.483000", "191326.487000", "191326.490000", "191326.493000", "191326.497000", "191326.500000", "191326.503000", "191326.506000", "191326.510000", "191326.513000", "191326.516000", "191326.520000", "191346.440000", "191346.444000", "191346.447000", "191346.450000", "191346.453000", "191346.457000", "191346.460000", "191346.463000", "191346.466000", "191346.470000", "191346.473000", "191346.476000", "191346.479000", "191346.483000", "191346.486000", "191346.489000", "191346.492000", "191346.496000", "191346.499000", "191346.502000", "191346.506000", "191426.439000", "191426.443000", "191426.446000", "191426.449000", "191426.453000", "191426.456000", "191426.460000", "191426.463000", "191426.467000", "191426.470000", "191426.473000", "191426.477000", "191426.480000", "191426.483000", "191426.487000", "191426.490000", "191426.493000", "191426.512000", "191426.515000", "191426.519000", "191426.522000", "191426.525000", "191426.528000", "191426.532000", "191426.535000", "191426.539000", "191426.542000", "191426.545000", "191426.548000", "191426.563000", "191426.566000", "191426.569000", "191506.439000", "191506.443000", "191506.446000", "191506.450000", "191506.453000", "191506.456000", "191506.460000", "191506.463000", "191506.466000", "191506.470000", "191506.473000", "191506.477000", "191506.480000", "191506.483000", "191506.486000", "191506.490000", "191506.493000", "191506.496000", "191506.500000", "191506.503000", "191506.506000", "191506.510000", "191506.513000", "191506.516000", "191506.520000", "191506.523000", "191506.526000", "191546.439000", "191546.443000", "191546.446000", "191546.449000", "191546.453000", "191546.456000", "191546.459000", "191546.463000", "191546.466000", "191546.469000", "191546.473000", "191546.476000", "191546.479000", "191546.482000", "191546.486000", "191546.489000", "191546.492000", "191546.496000", "191546.499000", "191546.502000", "191546.505000", "191546.509000", "191546.512000", "191546.515000", "191546.519000", "191546.522000", "191546.525000", "191626.440000", "191626.444000", "191626.447000", "191626.450000", "191626.454000", "191626.457000", "191626.460000", "191626.464000", "191626.467000", "191626.470000", "191626.474000", "191626.477000", "191626.480000", "191626.484000", "191626.487000", "191626.490000", "191626.494000", "191626.497000", "191626.500000", "191626.503000", "191626.507000", "191626.510000", "191626.513000", "191626.517000", "191626.520000", "191626.523000", "191626.527000", "191706.459000", "191706.463000", "191706.466000", "191706.469000", "191706.473000", "191706.476000", "191706.479000", "191706.483000", "191706.486000", "191706.489000", "191706.492000", "191706.496000", "191706.499000", "191706.503000", "191706.506000", "191706.509000", "191706.513000", "191706.516000", "191706.519000", "191706.522000", "191706.526000", "191706.529000", "191706.532000", "191706.536000", "191706.539000", "191706.542000", "191746.439000", "191746.443000", "191746.446000", "191746.450000", "191746.453000", "191746.456000", "191746.460000", "191746.463000", "191746.466000", "191746.469000", "191746.473000", "191746.476000", "191746.479000", "191746.483000", "191746.486000", "191746.489000", "191746.493000", "191746.496000", "191746.499000", "191746.502000", "191746.506000", "191746.509000", "191746.512000", "191746.516000", "191746.519000", "191746.522000", "191746.526000", "191826.440000", "191826.444000", "191826.447000", "191826.450000", "191826.454000", "191826.457000", "191826.460000", "191826.464000", "191826.467000", "191826.470000", "191826.474000", "191826.477000", "191826.481000", "191826.484000", "191826.487000", "191826.491000", "191826.494000", "191826.497000", "191826.500000", "191826.504000", "191826.507000", "191826.510000", "191826.514000", "191826.517000", "191826.520000", "191826.523000", "191826.527000", "191906.439000", "191906.443000", "191906.446000", "191906.449000", "191906.453000", "191906.456000", "191906.459000", "191906.463000", "191906.466000", "191906.469000", "191906.473000", "191906.476000", "191906.479000", "191906.491000", "191906.495000", "191906.498000", "191906.501000", "191906.504000", "191906.508000", "191906.511000", "191906.514000", "191906.518000", "191906.521000", "191906.524000", "191906.528000", "191906.531000", "191906.534000", "191946.439000", "191946.443000", "191946.446000", "191946.449000", "191946.453000", "191946.456000", "191946.460000", "191946.463000", "191946.467000", "191946.470000", "191946.473000", "191946.477000", "191946.480000", "191946.491000", "191946.495000", "191946.498000", "191946.501000", "191946.504000", "191946.508000", "191946.511000", "191946.514000", "191946.518000", "191946.521000", "191946.524000", "191946.527000", "191946.531000", "191946.534000", "192026.440000", "192026.444000", "192026.447000", "192026.450000", "192026.454000", "192026.457000", "192026.460000", "192026.464000", "192026.467000", "192026.470000", "192026.474000", "192026.477000", "192026.480000", "192026.484000", "192026.487000", "192026.490000", "192026.494000", "192026.497000", "192026.500000", "192026.503000", "192026.507000", "192026.510000", "192026.513000", "192026.517000", "192026.520000", "192026.523000", "192026.527000", "192031.811000", "192031.815000", "192031.818000"],
      "InstanceCreationTime": ["191246.473000", "191246.477000", "191246.480000", "191246.483000", "191246.486000", "191246.490000", "191246.501000", "191246.504000", "191246.508000", "191246.511000", "191246.514000", "191246.517000", "191246.521000", "191246.524000", "191246.527000", "191246.530000", "191246.534000", "191246.537000", "191246.540000", "191246.543000", "191306.439000", "191306.443000", "191306.446000", "191306.455000", "191306.458000", "191306.462000", "191306.465000", "191306.468000", "191306.472000", "191306.475000", "191306.478000", "191306.481000", "191306.485000", "191306.488000", "191306.491000", "191306.495000", "191306.498000", "191306.501000", "191306.505000", "191306.508000", "191326.439000", "191326.443000", "191326.446000", "191326.449000", "191326.463000", "191326.466000", "191326.470000", "191326.480000", "191326.483000", "191326.487000", "191326.490000", "191326.493000", "191326.497000", "191326.500000", "191326.503000", "191326.506000", "191326.510000", "191326.513000", "191326.516000", "191326.520000", "191346.440000", "191346.444000", "191346.447000", "191346.450000", "191346.453000", "191346.457000", "191346.460000", "191346.463000", "191346.466000", "191346.470000", "191346.473000", "191346.476000", "191346.479000", "191346.483000", "191346.486000", "191346.489000", "191346.492000", "191346.496000", "191346.499000", "191346.502000", "191346.506000", "191426.439000", "191426.443000", "191426.446000", "191426.449000", "191426.453000", "191426.456000", "191426.460000", "191426.463000", "191426.467000", "191426.470000", "191426.473000", "191426.477000", "191426.480000", "191426.483000", "191426.487000", "191426.490000", "191426.493000", "191426.512000", "191426.515000", "191426.519000", "191426.522000", "191426.525000", "191426.528000", "191426.532000", "191426.535000", "191426.539000", "191426.542000", "191426.545000", "191426.548000", "191426.563000", "191426.566000", "191426.569000", "191506.439000", "191506.443000", "191506.446000", "191506.450000", "191506.453000", "191506.456000", "191506.460000", "191506.463000", "191506.466000", "191506.470000", "191506.473000", "191506.477000", "191506.480000", "191506.483000", "191506.486000", "191506.490000", "191506.493000", "191506.496000", "191506.500000", "191506.503000", "191506.506000", "191506.510000", "191506.513000", "191506.516000", "191506.520000", "191506.523000", "191506.526000", "191546.439000", "191546.443000", "191546.446000", "191546.449000", "191546.453000", "191546.456000", "191546.459000", "191546.463000", "191546.466000", "191546.469000", "191546.473000", "191546.476000", "191546.479000", "191546.482000", "191546.486000", "191546.489000", "191546.492000", "191546.496000", "191546.499000", "191546.502000", "191546.505000", "191546.509000", "191546.512000", "191546.515000", "191546.519000", "191546.522000", "191546.525000", "191626.440000", "191626.444000", "191626.447000", "191626.450000", "191626.454000", "191626.457000", "191626.460000", "191626.464000", "191626.467000", "191626.470000", "191626.474000", "191626.477000", "191626.480000", "191626.484000", "191626.487000", "191626.490000", "191626.494000", "191626.497000", "191626.500000", "191626.503000", "191626.507000", "191626.510000", "191626.513000", "191626.517000", "191626.520000", "191626.523000", "191626.527000", "191706.459000", "191706.463000", "191706.466000", "191706.469000", "191706.473000", "191706.476000", "191706.479000", "191706.483000", "191706.486000", "191706.489000", "191706.492000", "191706.496000", "191706.499000", "191706.503000", "191706.506000", "191706.509000", "191706.513000", "191706.516000", "191706.519000", "191706.522000", "191706.526000", "191706.529000", "191706.532000", "191706.536000", "191706.539000", "191706.542000", "191746.439000", "191746.443000", "191746.446000", "191746.450000", "191746.453000", "191746.456000", "191746.460000", "191746.463000", "191746.466000", "191746.469000", "191746.473000", "191746.476000", "191746.479000", "191746.483000", "191746.486000", "191746.489000", "191746.493000", "191746.496000", "191746.499000", "191746.502000", "191746.506000", "191746.509000", "191746.512000", "191746.516000", "191746.519000", "191746.522000", "191746.526000", "191826.440000", "191826.444000", "191826.447000", "191826.450000", "191826.454000", "191826.457000", "191826.460000", "191826.464000", "191826.467000", "191826.470000", "191826.474000", "191826.477000", "191826.481000", "191826.484000", "191826.487000", "191826.491000", "191826.494000", "191826.497000", "191826.500000", "191826.504000", "191826.507000", "191826.510000", "191826.514000", "191826.517000", "191826.520000", "191826.523000", "191826.527000", "191906.439000", "191906.443000", "191906.446000", "191906.449000", "191906.453000", "191906.456000", "191906.459000", "191906.463000", "191906.466000", "191906.469000", "191906.473000", "191906.476000", "191906.479000", "191906.491000", "191906.495000", "191906.498000", "191906.501000", "191906.504000", "191906.508000", "191906.511000", "191906.514000", "191906.518000", "191906.521000", "191906.524000", "191906.528000", "191906.531000", "191906.534000", "191946.439000", "191946.443000", "191946.446000", "191946.449000", "191946.453000", "191946.456000", "191946.460000", "191946.463000", "191946.467000", "191946.470000", "191946.473000", "191946.477000", "191946.480000", "191946.491000", "191946.495000", "191946.498000", "191946.501000", "191946.504000", "191946.508000", "191946.511000", "191946.514000", "191946.518000", "191946.521000", "191946.524000", "191946.527000", "191946.531000", "191946.534000", "192026.440000", "192026.444000", "192026.447000", "192026.450000", "192026.454000", "192026.457000", "192026.460000", "192026.464000", "192026.467000", "192026.470000", "192026.474000", "192026.477000", "192026.480000", "192026.484000", "192026.487000", "192026.490000", "192026.494000", "192026.497000", "192026.500000", "192026.503000", "192026.507000", "192026.510000", "192026.513000", "192026.517000", "192026.520000", "192026.523000", "192026.527000", "192031.811000", "192031.815000", "192031.818000"],
      "InstanceNumber": [1, 2, 3, 4, 5, 6, 7, 8, 9, 10, 11, 12, 13, 14, 15, 16, 17, 18, 19, 20, 21, 22, 23, 24, 25, 26, 27, 28, 29, 30, 31, 32, 33, 34, 35, 36, 37, 38, 39, 40, 41, 42, 43, 44, 45, 46, 47, 48, 49, 50, 51, 52, 53, 54, 55, 56, 57, 58, 59, 60, 61, 62, 63, 64, 65, 66, 67, 68, 69, 70, 71, 72, 73, 74, 75, 76, 77, 78, 79, 80, 81, 82, 83, 84, 85, 86, 87, 88, 89, 90, 91, 92, 93, 94, 95, 96, 97, 98, 99, 100, 101, 102, 103, 104, 105, 106, 107, 108, 109, 110, 111, 112, 113, 114, 115, 116, 117, 118, 119, 120, 121, 122, 123, 124, 125, 126, 127, 128, 129, 130, 131, 132, 133, 134, 135, 136, 137, 138, 139, 140, 141, 142, 143, 144, 145, 146, 147, 148, 149, 150, 151, 152, 153, 154, 155, 156, 157, 158, 159, 160, 161, 162, 163, 164, 165, 166, 167, 168, 169, 170, 171, 172, 173, 174, 175, 176, 177, 178, 179, 180, 181, 182, 183, 184, 185, 186, 187, 188, 189, 190, 191, 192, 193, 194, 195, 196, 197, 198, 199, 200, 201, 202, 203, 204, 205, 206, 207, 208, 209, 210, 211, 212, 213, 214, 215, 216, 217, 218, 219, 220, 221, 222, 223, 224, 225, 226, 227, 228, 229, 230, 231, 232, 233, 234, 235, 236, 237, 238, 239, 240, 241, 242, 243, 244, 245, 246, 247, 248, 249, 250, 251, 252, 253, 254, 255, 256, 257, 258, 259, 260, 261, 262, 263, 264, 265, 266, 267, 268, 269, 270, 271, 272, 273, 274, 275, 276, 277, 278, 279, 280, 281, 282, 283, 284, 285, 286, 287, 288, 289, 290, 291, 292, 293, 294, 295, 296, 297, 298, 299, 300, 301, 302, 303, 304, 305, 306, 307, 308, 309, 310, 311, 312, 313, 314, 315, 316, 317, 318, 319, 320, 321, 322, 323, 324, 325, 326, 327, 328, 329, 330, 331, 332, 333, 334, 335, 336, 337, 338, 339, 340, 341, 342, 343, 344, 345, 346, 347, 348, 349, 350, 351, 352, 353, 354, 355, 356, 357, 358],
      "LargestImagePixelValue": [60533, 59146, 58102, 57227, 56743, 56401, 56399, 55846, 55883, 56294, 56475, 56412, 56239, 56215, 56535, 56312, 55818, 56423, 56159, 56682, 56410, 56661, 56608, 55741, 56159, 55887, 56491, 56311, 55941, 56456, 56276, 56052, 56438, 56118, 56407, 55949, 56380, 55980, 56773, 56276, 55940, 56182, 55804, 55800, 56046, 55737, 55851, 55246, 54839, 55527, 55504, 55850, 55801, 55611, 55587, 55639, 55081, 54652, 54652, 54976, 54850, 55022, 54728, 55009, 55064, 55307, 55800, 54781, 54383, 53311, 54905, 54914, 54312, 53393, 53691, 53380, 54563, 54952, 54718, 53907, 53462, 54136, 53848, 54552, 54482, 54228, 54676, 54588, 54180, 54414, 54503, 53598, 53583, 54581, 54603, 55156, 54461, 54589, 54444, 54165, 55002, 54045, 55174, 53767, 54006, 54657, 54674, 55014, 54030, 54693, 53950, 55047, 54119, 54349, 54223, 53616, 55168, 54652, 53920, 55556, 55327, 54735, 54798, 55361, 55137, 54246, 54505, 53594, 54453, 54014, 54671, 54277, 54807, 54609, 54518, 54754, 54247, 54804, 54068, 54924, 54051, 54998, 53968, 54439, 53960, 54240, 54021, 54287, 54353, 54085, 53862, 53554, 54714, 53855, 54546, 55216, 54753, 54752, 54741, 54779, 54939, 54392, 54694, 54768, 54386, 54296, 54781, 54120, 54715, 54331, 55187, 54967, 54181, 54359, 54714, 55039, 55293, 55062, 55210, 54810, 55467, 54339, 54898, 54899, 54648, 55051, 55729, 55274, 56128, 54807, 55290, 55799, 55911, 55812, 55669, 56102, 55959, 55596, 55704, 56155, 55841, 55733, 55170, 55859, 55270, 55549, 55633, 55647, 55810, 55148, 55412, 55378, 55917, 55202, 55533, 55353, 55629, 55337, 54854, 54718, 55332, 54597, 56241, 55893, 55597, 55438, 55841, 55098, 55747, 55249, 55488, 55452, 55813, 54984, 55729, 55148, 55511, 55727, 55562, 55327, 55283, 55728, 54965, 55278, 54915, 54990, 55171, 54491, 55188, 55289, 54849, 55459, 54709, 55610, 54844, 55691, 55235, 55365, 55417, 54660, 54791, 54756, 54127, 54769, 54927, 54337, 54866, 54780, 55379, 55083, 55256, 55381, 55366, 55396, 55774, 56678, 55816, 55942, 56182, 56266, 56101, 55041, 56880, 56622, 56865, 57004, 57664, 56797, 57432, 57479, 57393, 57307, 56591, 57141, 56986, 57064, 56199, 57043, 56269, 56597, 56260, 56718, 56834, 56606, 56375, 56756, 57351, 56814, 57125, 56459, 57099, 56756, 55858, 57202, 56428, 57809, 56864, 57369, 57118, 56577, 56978, 56371, 57223, 56548, 55948, 56857, 56280, 55660, 56287, 56149, 55379, 56273, 56171, 55843, 55498, 56173, 55963, 55607, 56397, 55765, 56839, 56372, 56523, 56314, 56859, 56370, 56577, 56994, 56666, 57072, 56983, 56901, 57870, 56784, 56674, 56941, 57226, 56314],
