{
  "AcquisitionMatrixPE": 104,
  "AcquisitionNumber": 1,
  "AcquisitionTime": "19:11:36.917500",
  "BandwidthPerPixelPhaseEncode": 17.17,
  "BaseResolution": 104,
  "BodyPartExamined": "BRAIN",
  "CoilCombinationMethod": "Sum of Squares",
  "ConsistencyInfo": "N4_VE11C_LATEST_20160120",
  "ConversionSoftware": "dcm2niix",
  "ConversionSoftwareVersion": "v1.0.20220505",
  "DerivedVendorReportedEchoSpacing": 0.000560011,
  "DeviceSerialNumber": "167006",
  "DwellTime": 2.1e-06,
  "EchoTime": 0.037,
  "EchoTime1": 0.037,
  "EchoTime2": 0.001,
  "EchoTrainLength": 104,
  "EffectiveEchoSpacing": 0.000560011,
  "FlipAngle": 52,
  "HeudiconvVersion": "0.5.3.post811+g6206e14",
  "ImageComments": "Unaliased MB4/PE3/LB",
  "ImageOrientationPatientDICOM": [0.999758, -0.0113229, 0.0188841, 0.0176254, 0.925581, -0.37814],
  "ImageOrientationText": "Tra>Cor(-22.2)>Sag(0.8)",
  "ImageType": [
    "ORIGINAL",
    "PRIMARY",
    "P",
    "MB",
    "ND",
    "MOSAIC",
    "PHASE"
],
  "ImagingFrequency": 123.259,
  "InPlanePhaseEncodingDirectionDICOM": "COL",
  "InstitutionAddress": "Chemin Queen-Mary 4565,Montreal,District,CA,H3W 1W5",
  "InstitutionName": "IUGM",
  "InstitutionalDepartmentName": "Department",
  "MRAcquisitionType": "2D",
  "MagneticFieldStrength": 3,
  "Manufacturer": "Siemens",
  "ManufacturersModelName": "Prisma_fit",
  "MatrixCoilMode": "SENSE",
  "Modality": "MR",
  "MultibandAccelerationFactor": 4,
  "PartialFourier": 1,
  "PatientPosition": "HFS",
  "PercentPhaseFOV": 100,
  "PercentSampling": 100,
  "PhaseEncodingDirection": "j",
  "PhaseEncodingSteps": 104,
  "PhaseResolution": 1,
  "PixelBandwidth": 2290,
  "ProcedureStepDescription": "games^mario3",
  "ProtocolName": "func_task-mario3_run-03",
  "PulseSequenceDetails": "%CustomerSeq%\\cmrr_mbep2d_bold",
  "ReceiveCoilActiveElements": "HC1-7;NC1,2",
  "ReceiveCoilName": "HeadNeck_64",
  "ReconMatrixPE": 104,
  "RepetitionTime": 1.49,
  "SAR": 0.0488992,
  "ScanOptions": "FS",
  "ScanningSequence": "EP",
  "SequenceName": "epfid2d1_104",
  "SequenceVariant": "SK\\SS",
  "SeriesDescription": "func_task-mario3_run-03",
  "SeriesNumber": 17,
  "ShimSetting": [581, -7286, -8780, 451, 0, -324, -29, 101],
  "SliceThickness": 2,
  "SliceTiming": [0, 0.7825, 0.0975, 0.88, 0.195, 0.98, 0.2925, 1.0775, 0.39, 1.175, 0.49, 1.2725, 0.5875, 1.37, 0.685, 0, 0.7825, 0.0975, 0.88, 0.195, 0.98, 0.2925, 1.0775, 0.39, 1.175, 0.49, 1.2725, 0.5875, 1.37, 0.685, 0, 0.7825, 0.0975, 0.88, 0.195, 0.98, 0.2925, 1.0775, 0.39, 1.175, 0.49, 1.2725, 0.5875, 1.37, 0.685, 0, 0.7825, 0.0975, 0.88, 0.195, 0.98, 0.2925, 1.0775, 0.39, 1.175, 0.49, 1.2725, 0.5875, 1.37, 0.685],
  "SoftwareVersions": "syngo MR E11",
  "SpacingBetweenSlices": 2,
  "StationName": "MRC35049",
  "TaskName": "mario3",
  "TotalReadoutTime": 0.0576811,
  "TxRefAmp": 252.799,
  "WipMemBlock": "6bd42a66-e5e9-410c-a07c-a39f5c29b43e||Sequence: R017 ve11c/master r/75a17815+; Jun 28 2022 16:32:11 by eja",
  "dcmmeta_affine": [
    [-1.999515175819397, 0.035250816494226456, 0.02639419212937355, 101.39836883544922],
    [0.022645890712738037, 1.8511611223220825, -0.7567625641822815, -69.7623062133789],
    [0.037768200039863586, 0.756280243396759, 1.8511115312576294, -57.14202880859375],
    [0.0, 0.0, 0.0, 1.0]
],
  "dcmmeta_reorient_transform": [
    [0.0, -1.0, 0.0, 103.0],
    [1.0, 0.0, 0.0, 0.0],
    [0.0, 0.0, 1.0, 0.0],
    [0.0, 0.0, 0.0, 1.0]
],
  "dcmmeta_shape": [104, 104, 60, 358],
  "dcmmeta_slice_dim": 2,
  "dcmmeta_version": 0.6,
  "global": {
    "const": {
      "AcquisitionMatrix": [104, 0, 0, 104],
      "AngioFlag": "N",
      "BitsAllocated": 16,
      "BitsStored": 16,
      "BodyPartExamined": "BRAIN",
      "Columns": 832,
      "EchoNumbers": 1,
      "EchoTime": 37.0,
      "EchoTrainLength": 104,
      "FlipAngle": 52.0,
      "HighBit": 15,
      "ImageOrientationPatient": [0.99975756144118, -0.0113229456562, 0.01888410026599, 0.01762540758539, 0.92558057015621, -0.3781401237065],
      "ImagePositionPatient": [-845.68400194041, -786.48683889956, 282.2932215092],
      "ImageType": [
        "ORIGINAL",
        "PRIMARY",
        "P",
        "MB",
        "ND",
        "MOSAIC"
],
      "ImagedNucleus": "1H",
      "ImagingFrequency": 123.258727,
      "InPlanePhaseEncodingDirection": "COL",
      "LargestImagePixelValue": 4095,
      "MRAcquisitionType": "2D",
      "MagneticFieldStrength": 3.0,
      "Manufacturer": "SIEMENS",
      "ManufacturerModelName": "Prisma_fit",
      "Modality": "MR",
      "NumberOfAverages": 1.0,
      "NumberOfPhaseEncodingSteps": 104,
      "PercentPhaseFieldOfView": 100.0,
      "PercentSampling": 100.0,
      "PerformedProcedureStepStartTime": "184920.807000",
      "PhotometricInterpretation": "MONOCHROME2",
      "PixelBandwidth": 2290.0,
      "PixelRepresentation": 0,
      "PixelSpacing": [2.0, 2.0],
      "ProtocolName": "func_task-mario3_run-03",
      "RepetitionTime": 1490.0,
      "RescaleIntercept": -4096.0,
      "RescaleSlope": 2.0,
      "RescaleType": "US",
      "Rows": 832,
      "SAR": 0.04889920429772,
      "SamplesPerPixel": 1,
      "ScanOptions": "FS",
      "ScanningSequence": "EP",
      "SequenceName": "epfid2d1_104",
      "SequenceVariant": [
        "SK",
        "SS"
],
      "SeriesDescription": "func_task-mario3_run-03",
      "SeriesNumber": 17,
      "SeriesTime": "191246.575000",
      "SliceLocation": -25.153216874449,
      "SliceThickness": 2.0,
      "SmallestImagePixelValue": 0,
      "SoftwareVersions": "syngo MR E11",
      "SpacingBetweenSlices": 1.9999999933647,
      "SpecificCharacterSet": "ISO_IR 100",
      "StudyID": "1",
      "StudyTime": "184920.749000",
      "TransmitCoilName": "Body",
      "VariableFlipAngleFlag": "N",
      "WindowCenterWidthExplanation": "Algo1",
      "dBdt": 0.0},
    "slices": {}
  },
  "time": {
    "samples": {
      "AcquisitionNumber": [1, 2, 3, 4, 5, 6, 7, 8, 9, 10, 11, 12, 13, 14, 15, 16, 17, 18, 19, 20, 21, 22, 23, 24, 25, 26, 27, 28, 29, 30, 31, 32, 33, 34, 35, 36, 37, 38, 39, 40, 41, 42, 43, 44, 45, 46, 47, 48, 49, 50, 51, 52, 53, 54, 55, 56, 57, 58, 59, 60, 61, 62, 63, 64, 65, 66, 67, 68, 69, 70, 71, 72, 73, 74, 75, 76, 77, 78, 79, 80, 81, 82, 83, 84, 85, 86, 87, 88, 89, 90, 91, 92, 93, 94, 95, 96, 97, 98, 99, 100, 101, 102, 103, 104, 105, 106, 107, 108, 109, 110, 111, 112, 113, 114, 115, 116, 117, 118, 119, 120, 121, 122, 123, 124, 125, 126, 127, 128, 129, 130, 131, 132, 133, 134, 135, 136, 137, 138, 139, 140, 141, 142, 143, 144, 145, 146, 147, 148, 149, 150, 151, 152, 153, 154, 155, 156, 157, 158, 159, 160, 161, 162, 163, 164, 165, 166, 167, 168, 169, 170, 171, 172, 173, 174, 175, 176, 177, 178, 179, 180, 181, 182, 183, 184, 185, 186, 187, 188, 189, 190, 191, 192, 193, 194, 195, 196, 197, 198, 199, 200, 201, 202, 203, 204, 205, 206, 207, 208, 209, 210, 211, 212, 213, 214, 215, 216, 217, 218, 219, 220, 221, 222, 223, 224, 225, 226, 227, 228, 229, 230, 231, 232, 233, 234, 235, 236, 237, 238, 239, 240, 241, 242, 243, 244, 245, 246, 247, 248, 249, 250, 251, 252, 253, 254, 255, 256, 257, 258, 259, 260, 261, 262, 263, 264, 265, 266, 267, 268, 269, 270, 271, 272, 273, 274, 275, 276, 277, 278, 279, 280, 281, 282, 283, 284, 285, 286, 287, 288, 289, 290, 291, 292, 293, 294, 295, 296, 297, 298, 299, 300, 301, 302, 303, 304, 305, 306, 307, 308, 309, 310, 311, 312, 313, 314, 315, 316, 317, 318, 319, 320, 321, 322, 323, 324, 325, 326, 327, 328, 329, 330, 331, 332, 333, 334, 335, 336, 337, 338, 339, 340, 341, 342, 343, 344, 345, 346, 347, 348, 349, 350, 351, 352, 353, 354, 355, 356, 357, 358],
      "AcquisitionTime": ["191136.917500", "191138.407500", "191139.897500", "191141.387500", "191142.877500", "191144.367500", "191145.857500", "191147.347500", "191148.837500", "191150.327500", "191151.817500", "191153.307500", "191154.797500", "191156.287500", "191157.777500", "191159.267500", "191200.757500", "191202.247500", "191203.737500", "191205.227500", "191206.717500", "191208.207500", "191209.697500", "191211.187500", "191212.677500", "191214.167500", "191215.657500", "191217.147500", "191218.637500", "191220.127500", "191221.617500", "191223.107500", "191224.597500", "191226.087500", "191227.577500", "191229.067500", "191230.557500", "191232.047500", "191233.537500", "191235.027500", "191236.517500", "191238.007500", "191239.497500", "191240.987500", "191242.477500", "191243.967500", "191245.457500", "191246.947500", "191248.437500", "191249.927500", "191251.417500", "191252.907500", "191254.397500", "191255.887500", "191257.377500", "191258.867500", "191300.357500", "191301.847500", "191303.337500", "191304.827500", "191306.317500", "191307.807500", "191309.297500", "191310.787500", "191312.277500", "191313.767500", "191315.257500", "191316.747500", "191318.237500", "191319.727500", "191321.217500", "191322.707500", "191324.197500", "191325.687500", "191327.177500", "191328.667500", "191330.157500", "191331.647500", "191333.137500", "191334.627500", "191336.117500", "191337.607500", "191339.097500", "191340.587500", "191342.077500", "191343.567500", "191345.057500", "191346.547500", "191348.037500", "191349.527500", "191351.017500", "191352.507500", "191353.997500", "191355.487500", "191356.977500", "191358.467500", "191359.957500", "191401.447500", "191402.937500", "191404.427500", "191405.917500", "191407.407500", "191408.897500", "191410.387500", "191411.877500", "191413.367500", "191414.857500", "191416.347500", "191417.837500", "191419.327500", "191420.817500", "191422.307500", "191423.797500", "191425.287500", "191426.777500", "191428.267500", "191429.757500", "191431.247500", "191432.737500", "191434.227500", "191435.717500", "191437.207500", "191438.697500", "191440.187500", "191441.677500", "191443.167500", "191444.657500", "191446.147500", "191447.637500", "191449.127500", "191450.617500", "191452.107500", "191453.597500", "191455.087500", "191456.577500", "191458.067500", "191459.557500", "191501.047500", "191502.537500", "191504.027500", "191505.517500", "191507.007500", "191508.497500", "191509.987500", "191511.477500", "191512.967500", "191514.457500", "191515.947500", "191517.437500", "191518.927500", "191520.417500", "191521.907500", "191523.397500", "191524.887500", "191526.377500", "191527.867500", "191529.357500", "191530.847500", "191532.337500", "191533.827500", "191535.317500", "191536.807500", "191538.297500", "191539.787500", "191541.277500", "191542.767500", "191544.257500", "191545.747500", "191547.237500", "191548.727500", "191550.217500", "191551.707500", "191553.197500", "191554.687500", "191556.177500", "191557.667500", "191559.157500", "191600.647500", "191602.137500", "191603.627500", "191605.117500", "191606.607500", "191608.097500", "191609.587500", "191611.077500", "191612.567500", "191614.057500", "191615.547500", "191617.037500", "191618.527500", "191620.017500", "191621.507500", "191622.997500", "191624.487500", "191625.977500", "191627.467500", "191628.957500", "191630.447500", "191631.937500", "191633.427500", "191634.917500", "191636.407500", "191637.897500", "191639.387500", "191640.877500", "191642.367500", "191643.857500", "191645.347500", "191646.837500", "191648.327500", "191649.817500", "191651.307500", "191652.797500", "191654.287500", "191655.777500", "191657.267500", "191658.757500", "191700.247500", "191701.737500", "191703.227500", "191704.717500", "191706.207500", "191707.697500", "191709.187500", "191710.677500", "191712.167500", "191713.657500", "191715.147500", "191716.637500", "191718.127500", "191719.617500", "191721.107500", "191722.597500", "191724.087500", "191725.577500", "191727.067500", "191728.557500", "191730.047500", "191731.537500", "191733.027500", "191734.517500", "191736.007500", "191737.497500", "191738.987500", "191740.477500", "191741.967500", "191743.457500", "191744.947500", "191746.437500", "191747.927500", "191749.417500", "191750.907500", "191752.397500", "191753.887500", "191755.377500", "191756.867500", "191758.357500", "191759.847500", "191801.337500", "191802.827500", "191804.317500", "191805.807500", "191807.297500", "191808.787500", "191810.277500", "191811.767500", "191813.257500", "191814.747500", "191816.237500", "191817.727500", "191819.217500", "191820.707500", "191822.197500", "191823.687500", "191825.177500", "191826.667500", "191828.157500", "191829.647500", "191831.137500", "191832.627500", "191834.117500", "191835.607500", "191837.097500", "191838.587500", "191840.077500", "191841.567500", "191843.057500", "191844.547500", "191846.037500", "191847.527500", "191849.017500", "191850.507500", "191851.997500", "191853.487500", "191854.977500", "191856.467500", "191857.957500", "191859.447500", "191900.937500", "191902.427500", "191903.917500", "191905.407500", "191906.897500", "191908.387500", "191909.877500", "191911.367500", "191912.857500", "191914.347500", "191915.837500", "191917.327500", "191918.817500", "191920.307500", "191921.797500", "191923.287500", "191924.777500", "191926.267500", "191927.757500", "191929.247500", "191930.737500", "191932.227500", "191933.717500", "191935.207500", "191936.697500", "191938.187500", "191939.677500", "191941.167500", "191942.657500", "191944.147500", "191945.637500", "191947.127500", "191948.617500", "191950.107500", "191951.597500", "191953.087500", "191954.577500", "191956.067500", "191957.557500", "191959.047500", "192000.537500", "192002.027500", "192003.517500", "192005.007500", "192006.497500", "192007.987500", "192009.477500", "192010.967500", "192012.457500", "192013.947500", "192015.437500", "192016.927500", "192018.417500", "192019.907500", "192021.397500", "192022.887500", "192024.377500", "192025.867500", "192027.357500", "192028.847500"],
      "ContentTime": ["191246.577000", "191246.580000", "191246.582000", "191246.585000", "191246.587000", "191246.590000", "191246.599000", "191246.602000", "191246.604000", "191246.606000", "191246.609000", "191246.611000", "191246.614000", "191246.616000", "191246.619000", "191246.621000", "191246.624000", "191246.626000", "191246.628000", "191246.631000", "191306.559000", "191306.562000", "191306.564000", "191306.567000", "191306.569000", "191306.572000", "191306.574000", "191306.577000", "191306.579000", "191306.582000", "191306.584000", "191306.587000", "191306.589000", "191306.591000", "191306.594000", "191306.596000", "191306.606000", "191306.608000", "191306.611000", "191306.614000", "191326.642000", "191326.644000", "191326.647000", "191326.650000", "191326.652000", "191326.655000", "191326.657000", "191326.660000", "191326.662000", "191326.664000", "191326.667000", "191326.669000", "191326.672000", "191326.674000", "191326.677000", "191326.679000", "191326.682000", "191326.684000", "191326.687000", "191326.689000", "191346.568000", "191346.571000", "191346.574000", "191346.576000", "191346.578000", "191346.581000", "191346.583000", "191346.586000", "191346.588000", "191346.591000", "191346.593000", "191346.596000", "191346.598000", "191346.601000", "191346.603000", "191346.605000", "191346.608000", "191346.610000", "191346.613000", "191346.615000", "191346.618000", "191426.617000", "191426.620000", "191426.622000", "191426.625000", "191426.627000", "191426.630000", "191426.632000", "191426.635000", "191426.637000", "191426.640000", "191426.642000", "191426.645000", "191426.647000", "191426.650000", "191426.652000", "191426.655000", "191426.657000", "191426.660000", "191426.662000", "191426.665000", "191426.667000", "191426.670000", "191426.672000", "191426.675000", "191426.677000", "191426.679000", "191426.682000", "191426.684000", "191426.687000", "191426.689000", "191426.692000", "191426.694000", "191506.597000", "191506.599000", "191506.602000", "191506.604000", "191506.607000", "191506.609000", "191506.612000", "191506.614000", "191506.617000", "191506.619000", "191506.622000", "191506.624000", "191506.627000", "191506.629000", "191506.632000", "191506.634000", "191506.637000", "191506.647000", "191506.649000", "191506.652000", "191506.654000", "191506.657000", "191506.659000", "191506.662000", "191506.664000", "191506.667000", "191506.669000", "191546.586000", "191546.589000", "191546.592000", "191546.594000", "191546.598000", "191546.600000", "191546.603000", "191546.605000", "191546.608000", "191546.610000", "191546.613000", "191546.615000", "191546.618000", "191546.620000", "191546.623000", "191546.625000", "191546.628000", "191546.630000", "191546.633000", "191546.635000", "191546.638000", "191546.640000", "191546.643000", "191546.655000", "191546.658000", "191546.660000", "191546.663000", "191626.572000", "191626.575000", "191626.578000", "191626.580000", "191626.583000", "191626.585000", "191626.588000", "191626.590000", "191626.593000", "191626.595000", "191626.597000", "191626.600000", "191626.602000", "191626.605000", "191626.607000", "191626.610000", "191626.612000", "191626.615000", "191626.617000", "191626.620000", "191626.622000", "191626.625000", "191626.627000", "191626.630000", "191626.632000", "191626.635000", "191626.637000", "191706.597000", "191706.600000", "191706.602000", "191706.605000", "191706.607000", "191706.610000", "191706.612000", "191706.615000", "191706.617000", "191706.620000", "191706.622000", "191706.625000", "191706.627000", "191706.630000", "191706.632000", "191706.635000", "191706.637000", "191706.640000", "191706.642000", "191706.645000", "191706.647000", "191706.650000", "191706.652000", "191706.655000", "191706.657000", "191706.660000", "191746.599000", "191746.602000", "191746.604000", "191746.607000", "191746.609000", "191746.612000", "191746.614000", "191746.617000", "191746.619000", "191746.622000", "191746.624000", "191746.627000", "191746.629000", "191746.632000", "191746.634000", "191746.637000", "191746.639000", "191746.642000", "191746.644000", "191746.646000", "191746.649000", "191746.652000", "191746.654000", "191746.656000", "191746.659000", "191746.661000", "191746.664000", "191826.568000", "191826.570000", "191826.573000", "191826.575000", "191826.578000", "191826.580000", "191826.583000", "191826.585000", "191826.588000", "191826.590000", "191826.593000", "191826.595000", "191826.598000", "191826.600000", "191826.603000", "191826.605000", "191826.608000", "191826.610000", "191826.613000", "191826.615000", "191826.618000", "191826.620000", "191826.623000", "191826.625000", "191826.627000", "191826.630000", "191826.632000", "191906.581000", "191906.584000", "191906.587000", "191906.589000", "191906.592000", "191906.594000", "191906.597000", "191906.599000", "191906.602000", "191906.604000", "191906.607000", "191906.609000", "191906.612000", "191906.614000", "191906.616000", "191906.619000", "191906.622000", "191906.624000", "191906.626000", "191906.629000", "191906.631000", "191906.634000", "191906.636000", "191906.639000", "191906.641000", "191906.644000", "191906.646000", "191946.595000", "191946.598000", "191946.600000", "191946.603000", "191946.605000", "191946.608000", "191946.610000", "191946.613000", "191946.615000", "191946.624000", "191946.627000", "191946.629000", "191946.632000", "191946.634000", "191946.637000", "191946.639000", "191946.642000", "191946.644000", "191946.647000", "191946.649000", "191946.652000", "191946.655000", "191946.657000", "191946.660000", "191946.662000", "191946.665000", "191946.667000", "192026.581000", "192026.584000", "192026.587000", "192026.589000", "192026.592000", "192026.594000", "192026.597000", "192026.599000", "192026.602000", "192026.604000", "192026.607000", "192026.609000", "192026.612000", "192026.614000", "192026.617000", "192026.619000", "192026.622000", "192026.624000", "192026.627000", "192026.629000", "192026.632000", "192026.634000", "192026.637000", "192026.639000", "192026.642000", "192026.644000", "192026.647000", "192031.857000", "192031.859000", "192031.862000"],
      "InstanceCreationTime": ["191246.577000", "191246.580000", "191246.582000", "191246.585000", "191246.587000", "191246.590000", "191246.599000", "191246.602000", "191246.604000", "191246.606000", "191246.609000", "191246.611000", "191246.614000", "191246.616000", "191246.619000", "191246.621000", "191246.624000", "191246.626000", "191246.628000", "191246.631000", "191306.559000", "191306.562000", "191306.564000", "191306.567000", "191306.569000", "191306.572000", "191306.574000", "191306.577000", "191306.579000", "191306.582000", "191306.584000", "191306.587000", "191306.589000", "191306.591000", "191306.594000", "191306.596000", "191306.606000", "191306.608000", "191306.611000", "191306.614000", "191326.642000", "191326.644000", "191326.647000", "191326.650000", "191326.652000", "191326.655000", "191326.657000", "191326.660000", "191326.662000", "191326.664000", "191326.667000", "191326.669000", "191326.672000", "191326.674000", "191326.677000", "191326.679000", "191326.682000", "191326.684000", "191326.687000", "191326.689000", "191346.568000", "191346.571000", "191346.574000", "191346.576000", "191346.578000", "191346.581000", "191346.583000", "191346.586000", "191346.588000", "191346.591000", "191346.593000", "191346.596000", "191346.598000", "191346.601000", "191346.603000", "191346.605000", "191346.608000", "191346.610000", "191346.613000", "191346.615000", "191346.618000", "191426.617000", "191426.620000", "191426.622000", "191426.625000", "191426.627000", "191426.630000", "191426.632000", "191426.635000", "191426.637000", "191426.640000", "191426.642000", "191426.645000", "191426.647000", "191426.650000", "191426.652000", "191426.655000", "191426.657000", "191426.660000", "191426.662000", "191426.665000", "191426.667000", "191426.670000", "191426.672000", "191426.675000", "191426.677000", "191426.679000", "191426.682000", "191426.684000", "191426.687000", "191426.689000", "191426.692000", "191426.694000", "191506.597000", "191506.599000", "191506.602000", "191506.604000", "191506.607000", "191506.609000", "191506.612000", "191506.614000", "191506.617000", "191506.619000", "191506.622000", "191506.624000", "191506.627000", "191506.629000", "191506.632000", "191506.634000", "191506.637000", "191506.647000", "191506.649000", "191506.652000", "191506.654000", "191506.657000", "191506.659000", "191506.662000", "191506.664000", "191506.667000", "191506.669000", "191546.586000", "191546.589000", "191546.592000", "191546.594000", "191546.598000", "191546.600000", "191546.603000", "191546.605000", "191546.608000", "191546.610000", "191546.613000", "191546.615000", "191546.618000", "191546.620000", "191546.623000", "191546.625000", "191546.628000", "191546.630000", "191546.633000", "191546.635000", "191546.638000", "191546.640000", "191546.643000", "191546.655000", "191546.658000", "191546.660000", "191546.663000", "191626.572000", "191626.575000", "191626.578000", "191626.580000", "191626.583000", "191626.585000", "191626.588000", "191626.590000", "191626.593000", "191626.595000", "191626.597000", "191626.600000", "191626.602000", "191626.605000", "191626.607000", "191626.610000", "191626.612000", "191626.615000", "191626.617000", "191626.620000", "191626.622000", "191626.625000", "191626.627000", "191626.630000", "191626.632000", "191626.635000", "191626.637000", "191706.597000", "191706.600000", "191706.602000", "191706.605000", "191706.607000", "191706.610000", "191706.612000", "191706.615000", "191706.617000", "191706.620000", "191706.622000", "191706.625000", "191706.627000", "191706.630000", "191706.632000", "191706.635000", "191706.637000", "191706.640000", "191706.642000", "191706.645000", "191706.647000", "191706.650000", "191706.652000", "191706.655000", "191706.657000", "191706.660000", "191746.599000", "191746.602000", "191746.604000", "191746.607000", "191746.609000", "191746.612000", "191746.614000", "191746.617000", "191746.619000", "191746.622000", "191746.624000", "191746.627000", "191746.629000", "191746.632000", "191746.634000", "191746.637000", "191746.639000", "191746.642000", "191746.644000", "191746.646000", "191746.649000", "191746.652000", "191746.654000", "191746.656000", "191746.659000", "191746.661000", "191746.664000", "191826.568000", "191826.570000", "191826.573000", "191826.575000", "191826.578000", "191826.580000", "191826.583000", "191826.585000", "191826.588000", "191826.590000", "191826.593000", "191826.595000", "191826.598000", "191826.600000", "191826.603000", "191826.605000", "191826.608000", "191826.610000", "191826.613000", "191826.615000", "191826.618000", "191826.620000", "191826.623000", "191826.625000", "191826.627000", "191826.630000", "191826.632000", "191906.581000", "191906.584000", "191906.587000", "191906.589000", "191906.592000", "191906.594000", "191906.597000", "191906.599000", "191906.602000", "191906.604000", "191906.607000", "191906.609000", "191906.612000", "191906.614000", "191906.616000", "191906.619000", "191906.622000", "191906.624000", "191906.626000", "191906.629000", "191906.631000", "191906.634000", "191906.636000", "191906.639000", "191906.641000", "191906.644000", "191906.646000", "191946.595000", "191946.598000", "191946.600000", "191946.603000", "191946.605000", "191946.608000", "191946.610000", "191946.613000", "191946.615000", "191946.624000", "191946.627000", "191946.629000", "191946.632000", "191946.634000", "191946.637000", "191946.639000", "191946.642000", "191946.644000", "191946.647000", "191946.649000", "191946.652000", "191946.655000", "191946.657000", "191946.660000", "191946.662000", "191946.665000", "191946.667000", "192026.581000", "192026.584000", "192026.587000", "192026.589000", "192026.592000", "192026.594000", "192026.597000", "192026.599000", "192026.602000", "192026.604000", "192026.607000", "192026.609000", "192026.612000", "192026.614000", "192026.617000", "192026.619000", "192026.622000", "192026.624000", "192026.627000", "192026.629000", "192026.632000", "192026.634000", "192026.637000", "192026.639000", "192026.642000", "192026.644000", "192026.647000", "192031.857000", "192031.859000", "192031.862000"],
      "InstanceNumber": [1, 2, 3, 4, 5, 6, 7, 8, 9, 10, 11, 12, 13, 14, 15, 16, 17, 18, 19, 20, 21, 22, 23, 24, 25, 26, 27, 28, 29, 30, 31, 32, 33, 34, 35, 36, 37, 38, 39, 40, 41, 42, 43, 44, 45, 46, 47, 48, 49, 50, 51, 52, 53, 54, 55, 56, 57, 58, 59, 60, 61, 62, 63, 64, 65, 66, 67, 68, 69, 70, 71, 72, 73, 74, 75, 76, 77, 78, 79, 80, 81, 82, 83, 84, 85, 86, 87, 88, 89, 90, 91, 92, 93, 94, 95, 96, 97, 98, 99, 100, 101, 102, 103, 104, 105, 106, 107, 108, 109, 110, 111, 112, 113, 114, 115, 116, 117, 118, 119, 120, 121, 122, 123, 124, 125, 126, 127, 128, 129, 130, 131, 132, 133, 134, 135, 136, 137, 138, 139, 140, 141, 142, 143, 144, 145, 146, 147, 148, 149, 150, 151, 152, 153, 154, 155, 156, 157, 158, 159, 160, 161, 162, 163, 164, 165, 166, 167, 168, 169, 170, 171, 172, 173, 174, 175, 176, 177, 178, 179, 180, 181, 182, 183, 184, 185, 186, 187, 188, 189, 190, 191, 192, 193, 194, 195, 196, 197, 198, 199, 200, 201, 202, 203, 204, 205, 206, 207, 208, 209, 210, 211, 212, 213, 214, 215, 216, 217, 218, 219, 220, 221, 222, 223, 224, 225, 226, 227, 228, 229, 230, 231, 232, 233, 234, 235, 236, 237, 238, 239, 240, 241, 242, 243, 244, 245, 246, 247, 248, 249, 250, 251, 252, 253, 254, 255, 256, 257, 258, 259, 260, 261, 262, 263, 264, 265, 266, 267, 268, 269, 270, 271, 272, 273, 274, 275, 276, 277, 278, 279, 280, 281, 282, 283, 284, 285, 286, 287, 288, 289, 290, 291, 292, 293, 294, 295, 296, 297, 298, 299, 300, 301, 302, 303, 304, 305, 306, 307, 308, 309, 310, 311, 312, 313, 314, 315, 316, 317, 318, 319, 320, 321, 322, 323, 324, 325, 326, 327, 328, 329, 330, 331, 332, 333, 334, 335, 336, 337, 338, 339, 340, 341, 342, 343, 344, 345, 346, 347, 348, 349, 350, 351, 352, 353, 354, 355, 356, 357, 358],
