{
  "AcquisitionMatrixPE": 104,
  "AcquisitionNumber": 1,
  "AcquisitionTime": "19:42:58.047500",
  "BandwidthPerPixelPhaseEncode": 17.17,
  "BaseResolution": 104,
  "BodyPartExamined": "BRAIN",
  "CoilCombinationMethod": "Sum of Squares",
  "ConsistencyInfo": "N4_VE11C_LATEST_20160120",
  "ConversionSoftware": "dcm2niix",
  "ConversionSoftwareVersion": "v1.0.20220505",
  "DerivedVendorReportedEchoSpacing": 0.000560011,
  "DeviceSerialNumber": "167006",
  "DwellTime": 2.1e-06,
  "EchoTime": 0.037,
  "EchoTime1": 0.037,
  "EchoTime2": 0.001,
  "EchoTrainLength": 104,
  "EffectiveEchoSpacing": 0.000560011,
  "FlipAngle": 52,
  "HeudiconvVersion": "0.5.3.post811+g6206e14",
  "ImageComments": "Unaliased MB4/PE3/LB",
  "ImageOrientationPatientDICOM": [0.999758, -0.0113229, 0.0188841, 0.0176254, 0.925581, -0.37814],
  "ImageOrientationText": "Tra>Cor(-22.2)>Sag(0.8)",
  "ImageType": [
    "ORIGINAL",
    "PRIMARY",
    "P",
    "MB",
    "ND",
    "MOSAIC",
    "PHASE"
],
  "ImagingFrequency": 123.259,
  "InPlanePhaseEncodingDirectionDICOM": "COL",
  "InstitutionAddress": "Chemin Queen-Mary 4565,Montreal,District,CA,H3W 1W5",
  "InstitutionName": "IUGM",
  "InstitutionalDepartmentName": "Department",
  "MRAcquisitionType": "2D",
  "MagneticFieldStrength": 3,
  "Manufacturer": "Siemens",
  "ManufacturersModelName": "Prisma_fit",
  "MatrixCoilMode": "SENSE",
  "Modality": "MR",
  "MultibandAccelerationFactor": 4,
  "PartialFourier": 1,
  "PatientPosition": "HFS",
  "PercentPhaseFOV": 100,
  "PercentSampling": 100,
  "PhaseEncodingDirection": "j",
  "PhaseEncodingSteps": 104,
  "PhaseResolution": 1,
  "PixelBandwidth": 2290,
  "ProcedureStepDescription": "games^mario3",
  "ProtocolName": "func_task-mario3_run-06",
  "PulseSequenceDetails": "%CustomerSeq%\\cmrr_mbep2d_bold",
  "ReceiveCoilActiveElements": "HC1-7;NC1,2",
  "ReceiveCoilName": "HeadNeck_64",
  "ReconMatrixPE": 104,
  "RepetitionTime": 1.49,
  "SAR": 0.0488992,
  "ScanOptions": "FS",
  "ScanningSequence": "EP",
  "SequenceName": "epfid2d1_104",
  "SequenceVariant": "SK\\SS",
  "SeriesDescription": "func_task-mario3_run-06",
  "SeriesNumber": 26,
  "ShimSetting": [581, -7286, -8780, 451, 0, -324, -29, 101],
  "SliceThickness": 2,
  "SliceTiming": [0, 0.7825, 0.0975, 0.88, 0.195, 0.98, 0.2925, 1.0775, 0.39, 1.175, 0.49, 1.2725, 0.5875, 1.37, 0.685, 0, 0.7825, 0.0975, 0.88, 0.195, 0.98, 0.2925, 1.0775, 0.39, 1.175, 0.49, 1.2725, 0.5875, 1.37, 0.685, 0, 0.7825, 0.0975, 0.88, 0.195, 0.98, 0.2925, 1.0775, 0.39, 1.175, 0.49, 1.2725, 0.5875, 1.37, 0.685, 0, 0.7825, 0.0975, 0.88, 0.195, 0.98, 0.2925, 1.0775, 0.39, 1.175, 0.49, 1.2725, 0.5875, 1.37, 0.685],
  "SoftwareVersions": "syngo MR E11",
  "SpacingBetweenSlices": 2,
  "StationName": "MRC35049",
  "TaskName": "mario3",
  "TotalReadoutTime": 0.0576811,
  "TxRefAmp": 252.799,
  "WipMemBlock": "f4764476-e471-4926-b173-6891b1079903||Sequence: R017 ve11c/master r/75a17815+; Jun 28 2022 16:32:11 by eja",
  "dcmmeta_affine": [
    [-1.999515175819397, 0.035250816494226456, 0.02639419212937355, 101.39836883544922],
    [0.022645890712738037, 1.8511611223220825, -0.7567625641822815, -69.7623062133789],
    [0.037768200039863586, 0.756280243396759, 1.8511115312576294, -57.14202880859375],
    [0.0, 0.0, 0.0, 1.0]
],
  "dcmmeta_reorient_transform": [
    [0.0, -1.0, 0.0, 103.0],
    [1.0, 0.0, 0.0, 0.0],
    [0.0, 0.0, 1.0, 0.0],
    [0.0, 0.0, 0.0, 1.0]
],
  "dcmmeta_shape": [104, 104, 60, 305],
  "dcmmeta_slice_dim": 2,
  "dcmmeta_version": 0.6,
  "global": {
    "const": {
      "AcquisitionMatrix": [104, 0, 0, 104],
      "AngioFlag": "N",
      "BitsAllocated": 16,
      "BitsStored": 16,
      "BodyPartExamined": "BRAIN",
      "Columns": 832,
      "EchoNumbers": 1,
      "EchoTime": 37.0,
      "EchoTrainLength": 104,
      "FlipAngle": 52.0,
      "HighBit": 15,
      "ImageOrientationPatient": [0.99975756144118, -0.0113229456562, 0.01888410026599, 0.01762540758539, 0.92558057015621, -0.3781401237065],
      "ImagePositionPatient": [-845.68400194041, -786.48683889956, 282.2932215092],
      "ImageType": [
        "ORIGINAL",
        "PRIMARY",
        "P",
        "MB",
        "ND",
        "MOSAIC"
],
      "ImagedNucleus": "1H",
      "ImagingFrequency": 123.25873,
      "InPlanePhaseEncodingDirection": "COL",
      "LargestImagePixelValue": 4095,
      "MRAcquisitionType": "2D",
      "MagneticFieldStrength": 3.0,
      "Manufacturer": "SIEMENS",
      "ManufacturerModelName": "Prisma_fit",
      "Modality": "MR",
      "NumberOfAverages": 1.0,
      "NumberOfPhaseEncodingSteps": 104,
      "PercentPhaseFieldOfView": 100.0,
      "PercentSampling": 100.0,
      "PerformedProcedureStepStartTime": "184920.807000",
      "PhotometricInterpretation": "MONOCHROME2",
      "PixelBandwidth": 2290.0,
      "PixelRepresentation": 0,
      "PixelSpacing": [2.0, 2.0],
      "ProtocolName": "func_task-mario3_run-06",
      "RepetitionTime": 1490.0,
      "RescaleIntercept": -4096.0,
      "RescaleSlope": 2.0,
      "RescaleType": "US",
      "Rows": 832,
      "SAR": 0.04889920429772,
      "SamplesPerPixel": 1,
      "ScanOptions": "FS",
      "ScanningSequence": "EP",
      "SequenceName": "epfid2d1_104",
      "SequenceVariant": [
        "SK",
        "SS"
],
      "SeriesDescription": "func_task-mario3_run-06",
      "SeriesNumber": 26,
      "SeriesTime": "194426.659000",
      "SliceLocation": -25.153216874449,
      "SliceThickness": 2.0,
      "SmallestImagePixelValue": 0,
      "SoftwareVersions": "syngo MR E11",
      "SpacingBetweenSlices": 1.9999999933647,
      "SpecificCharacterSet": "ISO_IR 100",
      "StudyID": "1",
      "StudyTime": "184920.749000",
      "TransmitCoilName": "Body",
      "VariableFlipAngleFlag": "N",
      "WindowCenterWidthExplanation": "Algo1",
      "dBdt": 0.0},
    "slices": {}
  },
  "time": {
    "samples": {
      "AcquisitionNumber": [1, 2, 3, 4, 5, 6, 7, 8, 9, 10, 11, 12, 13, 14, 15, 16, 17, 18, 19, 20, 21, 22, 23, 24, 25, 26, 27, 28, 29, 30, 31, 32, 33, 34, 35, 36, 37, 38, 39, 40, 41, 42, 43, 44, 45, 46, 47, 48, 49, 50, 51, 52, 53, 54, 55, 56, 57, 58, 59, 60, 61, 62, 63, 64, 65, 66, 67, 68, 69, 70, 71, 72, 73, 74, 75, 76, 77, 78, 79, 80, 81, 82, 83, 84, 85, 86, 87, 88, 89, 90, 91, 92, 93, 94, 95, 96, 97, 98, 99, 100, 101, 102, 103, 104, 105, 106, 107, 108, 109, 110, 111, 112, 113, 114, 115, 116, 117, 118, 119, 120, 121, 122, 123, 124, 125, 126, 127, 128, 129, 130, 131, 132, 133, 134, 135, 136, 137, 138, 139, 140, 141, 142, 143, 144, 145, 146, 147, 148, 149, 150, 151, 152, 153, 154, 155, 156, 157, 158, 159, 160, 161, 162, 163, 164, 165, 166, 167, 168, 169, 170, 171, 172, 173, 174, 175, 176, 177, 178, 179, 180, 181, 182, 183, 184, 185, 186, 187, 188, 189, 190, 191, 192, 193, 194, 195, 196, 197, 198, 199, 200, 201, 202, 203, 204, 205, 206, 207, 208, 209, 210, 211, 212, 213, 214, 215, 216, 217, 218, 219, 220, 221, 222, 223, 224, 225, 226, 227, 228, 229, 230, 231, 232, 233, 234, 235, 236, 237, 238, 239, 240, 241, 242, 243, 244, 245, 246, 247, 248, 249, 250, 251, 252, 253, 254, 255, 256, 257, 258, 259, 260, 261, 262, 263, 264, 265, 266, 267, 268, 269, 270, 271, 272, 273, 274, 275, 276, 277, 278, 279, 280, 281, 282, 283, 284, 285, 286, 287, 288, 289, 290, 291, 292, 293, 294, 295, 296, 297, 298, 299, 300, 301, 302, 303, 304, 305],
      "AcquisitionTime": ["194258.047500", "194259.537500", "194301.027500", "194302.517500", "194304.007500", "194305.497500", "194306.987500", "194308.477500", "194309.967500", "194311.457500", "194312.947500", "194314.437500", "194315.927500", "194317.417500", "194318.907500", "194320.397500", "194321.887500", "194323.377500", "194324.867500", "194326.357500", "194327.847500", "194329.337500", "194330.827500", "194332.317500", "194333.807500", "194335.297500", "194336.787500", "194338.277500", "194339.767500", "194341.257500", "194342.747500", "194344.237500", "194345.727500", "194347.217500", "194348.707500", "194350.197500", "194351.687500", "194353.177500", "194354.667500", "194356.157500", "194357.647500", "194359.137500", "194400.627500", "194402.117500", "194403.607500", "194405.097500", "194406.587500", "194408.077500", "194409.567500", "194411.057500", "194412.547500", "194414.037500", "194415.527500", "194417.017500", "194418.507500", "194419.997500", "194421.487500", "194422.977500", "194424.467500", "194425.957500", "194427.447500", "194428.937500", "194430.427500", "194431.917500", "194433.407500", "194434.897500", "194436.387500", "194437.877500", "194439.367500", "194440.857500", "194442.347500", "194443.837500", "194445.327500", "194446.817500", "194448.307500", "194449.797500", "194451.287500", "194452.777500", "194454.267500", "194455.757500", "194457.247500", "194458.737500", "194500.227500", "194501.717500", "194503.207500", "194504.697500", "194506.187500", "194507.677500", "194509.167500", "194510.657500", "194512.147500", "194513.637500", "194515.127500", "194516.617500", "194518.107500", "194519.597500", "194521.087500", "194522.577500", "194524.067500", "194525.557500", "194527.047500", "194528.537500", "194530.027500", "194531.517500", "194533.007500", "194534.497500", "194535.987500", "194537.477500", "194538.967500", "194540.457500", "194541.947500", "194543.437500", "194544.927500", "194546.417500", "194547.907500", "194549.397500", "194550.887500", "194552.377500", "194553.867500", "194555.357500", "194556.847500", "194558.337500", "194559.827500", "194601.317500", "194602.807500", "194604.297500", "194605.787500", "194607.277500", "194608.767500", "194610.257500", "194611.747500", "194613.237500", "194614.727500", "194616.217500", "194617.707500", "194619.197500", "194620.687500", "194622.177500", "194623.667500", "194625.157500", "194626.647500", "194628.137500", "194629.627500", "194631.117500", "194632.607500", "194634.097500", "194635.587500", "194637.077500", "194638.567500", "194640.057500", "194641.547500", "194643.037500", "194644.527500", "194646.017500", "194647.507500", "194648.997500", "194650.487500", "194651.977500", "194653.467500", "194654.957500", "194656.447500", "194657.937500", "194659.427500", "194700.917500", "194702.407500", "194703.897500", "194705.387500", "194706.877500", "194708.367500", "194709.857500", "194711.347500", "194712.837500", "194714.327500", "194715.817500", "194717.307500", "194718.797500", "194720.287500", "194721.777500", "194723.267500", "194724.757500", "194726.247500", "194727.737500", "194729.227500", "194730.717500", "194732.207500", "194733.697500", "194735.187500", "194736.677500", "194738.167500", "194739.657500", "194741.147500", "194742.637500", "194744.127500", "194745.617500", "194747.107500", "194748.597500", "194750.087500", "194751.577500", "194753.067500", "194754.557500", "194756.047500", "194757.537500", "194759.027500", "194800.517500", "194802.007500", "194803.497500", "194804.987500", "194806.477500", "194807.967500", "194809.457500", "194810.947500", "194812.437500", "194813.927500", "194815.417500", "194816.907500", "194818.397500", "194819.887500", "194821.377500", "194822.867500", "194824.357500", "194825.847500", "194827.337500", "194828.827500", "194830.317500", "194831.807500", "194833.297500", "194834.787500", "194836.277500", "194837.767500", "194839.257500", "194840.747500", "194842.237500", "194843.727500", "194845.217500", "194846.707500", "194848.197500", "194849.687500", "194851.177500", "194852.667500", "194854.157500", "194855.647500", "194857.137500", "194858.627500", "194900.117500", "194901.607500", "194903.097500", "194904.587500", "194906.077500", "194907.567500", "194909.057500", "194910.547500", "194912.037500", "194913.527500", "194915.017500", "194916.507500", "194917.997500", "194919.487500", "194920.977500", "194922.467500", "194923.957500", "194925.447500", "194926.937500", "194928.427500", "194929.917500", "194931.407500", "194932.897500", "194934.387500", "194935.877500", "194937.367500", "194938.857500", "194940.347500", "194941.837500", "194943.327500", "194944.817500", "194946.307500", "194947.797500", "194949.287500", "194950.777500", "194952.267500", "194953.757500", "194955.247500", "194956.737500", "194958.227500", "194959.717500", "195001.207500", "195002.697500", "195004.187500", "195005.677500", "195007.167500", "195008.657500", "195010.147500", "195011.637500", "195013.127500", "195014.617500", "195016.107500", "195017.597500", "195019.087500", "195020.577500", "195022.067500", "195023.557500", "195025.047500", "195026.537500", "195028.027500", "195029.517500", "195031.007500"],
      "ContentTime": ["194426.661000", "194426.664000", "194426.666000", "194426.669000", "194426.671000", "194426.674000", "194426.676000", "194426.679000", "194426.681000", "194426.683000", "194426.686000", "194426.688000", "194426.691000", "194426.693000", "194426.696000", "194426.698000", "194426.700000", "194426.712000", "194426.714000", "194426.717000", "194426.719000", "194426.722000", "194426.724000", "194426.726000", "194426.729000", "194426.731000", "194426.734000", "194426.736000", "194426.739000", "194426.741000", "194426.744000", "194426.746000", "194426.749000", "194426.751000", "194426.754000", "194426.756000", "194426.759000", "194426.761000", "194446.549000", "194446.552000", "194446.554000", "194446.557000", "194446.560000", "194446.562000", "194446.564000", "194446.567000", "194446.570000", "194446.572000", "194446.574000", "194446.577000", "194446.579000", "194446.582000", "194446.584000", "194446.600000", "194446.603000", "194446.605000", "194446.607000", "194446.610000", "194506.554000", "194506.557000", "194506.559000", "194506.562000", "194506.564000", "194506.567000", "194506.570000", "194506.572000", "194506.574000", "194506.577000", "194506.579000", "194506.582000", "194506.584000", "194506.587000", "194506.589000", "194506.592000", "194506.594000", "194506.597000", "194506.599000", "194506.602000", "194526.559000", "194526.562000", "194526.564000", "194526.567000", "194526.569000", "194526.572000", "194526.574000", "194526.577000", "194526.579000", "194526.582000", "194526.584000", "194526.587000", "194526.589000", "194526.592000", "194526.594000", "194526.597000", "194526.599000", "194526.601000", "194526.604000", "194526.606000", "194606.591000", "194606.593000", "194606.596000", "194606.598000", "194606.601000", "194606.603000", "194606.606000", "194606.608000", "194606.611000", "194606.613000", "194606.615000", "194606.618000", "194606.620000", "194606.623000", "194606.625000", "194606.628000", "194606.630000", "194606.633000", "194606.635000", "194606.637000", "194606.640000", "194606.642000", "194606.645000", "194606.647000", "194606.650000", "194606.652000", "194606.655000", "194606.657000", "194626.525000", "194626.528000", "194626.531000", "194626.533000", "194626.536000", "194626.538000", "194626.541000", "194626.543000", "194626.545000", "194626.548000", "194626.550000", "194626.553000", "194626.555000", "194706.591000", "194706.593000", "194706.596000", "194706.598000", "194706.601000", "194706.603000", "194706.606000", "194706.608000", "194706.611000", "194706.613000", "194706.616000", "194706.618000", "194706.621000", "194706.623000", "194706.625000", "194706.628000", "194706.630000", "194706.633000", "194706.635000", "194706.638000", "194706.640000", "194706.643000", "194706.645000", "194706.648000", "194706.650000", "194706.653000", "194706.655000", "194746.581000", "194746.584000", "194746.586000", "194746.589000", "194746.591000", "194746.594000", "194746.596000", "194746.598000", "194746.601000", "194746.603000", "194746.606000", "194746.608000", "194746.611000", "194746.613000", "194746.616000", "194746.618000", "194746.621000", "194746.623000", "194746.626000", "194746.628000", "194746.631000", "194746.633000", "194746.635000", "194746.638000", "194746.640000", "194746.643000", "194746.645000", "194826.588000", "194826.591000", "194826.593000", "194826.596000", "194826.598000", "194826.601000", "194826.603000", "194826.606000", "194826.608000", "194826.611000", "194826.613000", "194826.616000", "194826.618000", "194826.620000", "194826.623000", "194826.625000", "194826.628000", "194826.630000", "194826.633000", "194826.635000", "194826.638000", "194826.640000", "194826.643000", "194826.645000", "194826.648000", "194826.650000", "194906.585000", "194906.587000", "194906.590000", "194906.593000", "194906.595000", "194906.598000", "194906.600000", "194906.603000", "194906.605000", "194906.608000", "194906.610000", "194906.612000", "194906.615000", "194906.617000", "194906.620000", "194906.622000", "194906.625000", "194906.627000", "194906.630000", "194906.632000", "194906.635000", "194906.637000", "194906.640000", "194906.642000", "194906.645000", "194906.647000", "194906.649000", "194946.592000", "194946.595000", "194946.598000", "194946.600000", "194946.602000", "194946.605000", "194946.608000", "194946.610000", "194946.613000", "194946.615000", "194946.618000", "194946.620000", "194946.623000", "194946.625000", "194946.628000", "194946.630000", "194946.633000", "194946.635000", "194946.638000", "194946.640000", "194946.643000", "194946.646000", "194946.648000", "194946.651000", "194946.653000", "194946.655000", "194946.658000", "195026.578000", "195026.581000", "195026.583000", "195026.586000", "195026.588000", "195026.591000", "195026.593000", "195026.596000", "195026.598000", "195026.601000", "195026.603000", "195026.606000", "195026.608000", "195026.611000", "195026.613000", "195026.616000", "195026.618000", "195026.621000", "195026.623000", "195026.626000", "195026.628000", "195026.631000", "195026.633000", "195026.636000", "195026.638000", "195026.641000", "195026.643000", "195034.257000", "195034.259000", "195034.262000", "195034.264000", "195034.267000"],
      "InstanceCreationTime": ["194426.661000", "194426.664000", "194426.666000", "194426.669000", "194426.671000", "194426.674000", "194426.676000", "194426.679000", "194426.681000", "194426.683000", "194426.686000", "194426.688000", "194426.691000", "194426.693000", "194426.696000", "194426.698000", "194426.700000", "194426.712000", "194426.714000", "194426.717000", "194426.719000", "194426.722000", "194426.724000", "194426.726000", "194426.729000", "194426.731000", "194426.734000", "194426.736000", "194426.739000", "194426.741000", "194426.744000", "194426.746000", "194426.749000", "194426.751000", "194426.754000", "194426.756000", "194426.759000", "194426.761000", "194446.549000", "194446.552000", "194446.554000", "194446.557000", "194446.560000", "194446.562000", "194446.564000", "194446.567000", "194446.570000", "194446.572000", "194446.574000", "194446.577000", "194446.579000", "194446.582000", "194446.584000", "194446.600000", "194446.603000", "194446.605000", "194446.607000", "194446.610000", "194506.554000", "194506.557000", "194506.559000", "194506.562000", "194506.564000", "194506.567000", "194506.570000", "194506.572000", "194506.574000", "194506.577000", "194506.579000", "194506.582000", "194506.584000", "194506.587000", "194506.589000", "194506.592000", "194506.594000", "194506.597000", "194506.599000", "194506.602000", "194526.559000", "194526.562000", "194526.564000", "194526.567000", "194526.569000", "194526.572000", "194526.574000", "194526.577000", "194526.579000", "194526.582000", "194526.584000", "194526.587000", "194526.589000", "194526.592000", "194526.594000", "194526.597000", "194526.599000", "194526.601000", "194526.604000", "194526.606000", "194606.591000", "194606.593000", "194606.596000", "194606.598000", "194606.601000", "194606.603000", "194606.606000", "194606.608000", "194606.611000", "194606.613000", "194606.615000", "194606.618000", "194606.620000", "194606.623000", "194606.625000", "194606.628000", "194606.630000", "194606.633000", "194606.635000", "194606.637000", "194606.640000", "194606.642000", "194606.645000", "194606.647000", "194606.650000", "194606.652000", "194606.655000", "194606.657000", "194626.525000", "194626.528000", "194626.531000", "194626.533000", "194626.536000", "194626.538000", "194626.541000", "194626.543000", "194626.545000", "194626.548000", "194626.550000", "194626.553000", "194626.555000", "194706.591000", "194706.593000", "194706.596000", "194706.598000", "194706.601000", "194706.603000", "194706.606000", "194706.608000", "194706.611000", "194706.613000", "194706.616000", "194706.618000", "194706.621000", "194706.623000", "194706.625000", "194706.628000", "194706.630000", "194706.633000", "194706.635000", "194706.638000", "194706.640000", "194706.643000", "194706.645000", "194706.648000", "194706.650000", "194706.653000", "194706.655000", "194746.581000", "194746.584000", "194746.586000", "194746.589000", "194746.591000", "194746.594000", "194746.596000", "194746.598000", "194746.601000", "194746.603000", "194746.606000", "194746.608000", "194746.611000", "194746.613000", "194746.616000", "194746.618000", "194746.621000", "194746.623000", "194746.626000", "194746.628000", "194746.631000", "194746.633000", "194746.635000", "194746.638000", "194746.640000", "194746.643000", "194746.645000", "194826.588000", "194826.591000", "194826.593000", "194826.596000", "194826.598000", "194826.601000", "194826.603000", "194826.606000", "194826.608000", "194826.611000", "194826.613000", "194826.616000", "194826.618000", "194826.620000", "194826.623000", "194826.625000", "194826.628000", "194826.630000", "194826.633000", "194826.635000", "194826.638000", "194826.640000", "194826.643000", "194826.645000", "194826.648000", "194826.650000", "194906.585000", "194906.587000", "194906.590000", "194906.593000", "194906.595000", "194906.598000", "194906.600000", "194906.603000", "194906.605000", "194906.608000", "194906.610000", "194906.612000", "194906.615000", "194906.617000", "194906.620000", "194906.622000", "194906.625000", "194906.627000", "194906.630000", "194906.632000", "194906.635000", "194906.637000", "194906.640000", "194906.642000", "194906.645000", "194906.647000", "194906.649000", "194946.592000", "194946.595000", "194946.598000", "194946.600000", "194946.602000", "194946.605000", "194946.608000", "194946.610000", "194946.613000", "194946.615000", "194946.618000", "194946.620000", "194946.623000", "194946.625000", "194946.628000", "194946.630000", "194946.633000", "194946.635000", "194946.638000", "194946.640000", "194946.643000", "194946.646000", "194946.648000", "194946.651000", "194946.653000", "194946.655000", "194946.658000", "195026.578000", "195026.581000", "195026.583000", "195026.586000", "195026.588000", "195026.591000", "195026.593000", "195026.596000", "195026.598000", "195026.601000", "195026.603000", "195026.606000", "195026.608000", "195026.611000", "195026.613000", "195026.616000", "195026.618000", "195026.621000", "195026.623000", "195026.626000", "195026.628000", "195026.631000", "195026.633000", "195026.636000", "195026.638000", "195026.641000", "195026.643000", "195034.257000", "195034.259000", "195034.262000", "195034.264000", "195034.267000"],
      "InstanceNumber": [1, 2, 3, 4, 5, 6, 7, 8, 9, 10, 11, 12, 13, 14, 15, 16, 17, 18, 19, 20, 21, 22, 23, 24, 25, 26, 27, 28, 29, 30, 31, 32, 33, 34, 35, 36, 37, 38, 39, 40, 41, 42, 43, 44, 45, 46, 47, 48, 49, 50, 51, 52, 53, 54, 55, 56, 57, 58, 59, 60, 61, 62, 63, 64, 65, 66, 67, 68, 69, 70, 71, 72, 73, 74, 75, 76, 77, 78, 79, 80, 81, 82, 83, 84, 85, 86, 87, 88, 89, 90, 91, 92, 93, 94, 95, 96, 97, 98, 99, 100, 101, 102, 103, 104, 105, 106, 107, 108, 109, 110, 111, 112, 113, 114, 115, 116, 117, 118, 119, 120, 121, 122, 123, 124, 125, 126, 127, 128, 129, 130, 131, 132, 133, 134, 135, 136, 137, 138, 139, 140, 141, 142, 143, 144, 145, 146, 147, 148, 149, 150, 151, 152, 153, 154, 155, 156, 157, 158, 159, 160, 161, 162, 163, 164, 165, 166, 167, 168, 169, 170, 171, 172, 173, 174, 175, 176, 177, 178, 179, 180, 181, 182, 183, 184, 185, 186, 187, 188, 189, 190, 191, 192, 193, 194, 195, 196, 197, 198, 199, 200, 201, 202, 203, 204, 205, 206, 207, 208, 209, 210, 211, 212, 213, 214, 215, 216, 217, 218, 219, 220, 221, 222, 223, 224, 225, 226, 227, 228, 229, 230, 231, 232, 233, 234, 235, 236, 237, 238, 239, 240, 241, 242, 243, 244, 245, 246, 247, 248, 249, 250, 251, 252, 253, 254, 255, 256, 257, 258, 259, 260, 261, 262, 263, 264, 265, 266, 267, 268, 269, 270, 271, 272, 273, 274, 275, 276, 277, 278, 279, 280, 281, 282, 283, 284, 285, 286, 287, 288, 289, 290, 291, 292, 293, 294, 295, 296, 297, 298, 299, 300, 301, 302, 303, 304, 305],
      "WindowCenter": [4912.0, 4914.0, 4890.0, 4914.0, 4892.0, 4912.0, 4888.0, 4912.0, 4888.0, 4914.0, 4910.0, 4910.0, 4914.0, 4912.0, 4916.0, 4888.0, 4914.0, 4890.0, 4912.0, 4890.0, 4910.0, 4910.0, 4910.0, 4912.0, 4892.0, 4912.0, 4894.0, 4890.0, 4912.0, 4890.0, 4910.0, 4910.0, 4910.0, 4910.0, 4912.0, 4912.0, 4914.0, 4892.0, 4890.0, 4890.0, 4910.0, 4910.0, 4912.0, 4908.0, 4892.0, 4888.0, 4894.0, 4890.0, 4888.0, 4892.0, 4914.0, 4914.0, 4890.0, 4906.0, 4910.0, 4914.0, 4888.0, 4888.0, 4890.0, 4888.0, 4890.0, 4890.0, 4910.0, 4888.0, 4906.0, 4912.0, 4890.0, 4890.0, 4892.0, 4890.0, 4892.0, 4886.0, 4914.0, 4908.0, 4910.0, 4910.0, 4910.0, 4892.0, 4910.0, 4888.0, 4888.0, 4912.0, 4890.0, 4912.0, 4886.0, 4910.0, 4908.0, 4888.0, 4912.0, 4888.0, 4888.0, 4886.0, 4892.0, 4888.0, 4908.0, 4908.0, 4906.0, 4908.0, 4884.0, 4888.0, 4888.0, 4888.0, 4890.0, 4890.0, 4914.0, 4910.0, 4888.0, 4910.0, 4910.0, 4910.0, 4888.0, 4886.0, 4888.0, 4890.0, 4912.0, 4886.0, 4886.0, 4914.0, 4912.0, 4908.0, 4888.0, 4908.0, 4890.0, 4912.0, 4894.0, 4914.0, 4912.0, 4908.0, 4910.0, 4908.0, 4892.0, 4892.0, 4914.0, 4908.0, 4910.0, 4910.0, 4912.0, 4922.0, 4932.0, 4886.0, 4888.0, 4864.0, 4864.0, 4890.0, 4892.0, 4908.0, 4906.0, 4904.0, 4904.0, 4910.0, 4888.0, 4886.0, 4892.0, 4890.0, 4888.0, 4890.0, 4894.0, 4916.0, 4910.0, 4910.0, 4912.0, 4890.0, 4912.0, 4914.0, 4890.0, 4892.0, 4892.0, 4910.0, 4890.0, 4888.0, 4908.0, 4894.0, 4912.0, 4910.0, 4888.0, 4912.0, 4886.0, 4914.0, 4892.0, 4912.0, 4888.0, 4888.0, 4888.0, 4888.0, 4910.0, 4912.0, 4886.0, 4908.0, 4890.0, 4890.0, 4912.0, 4910.0, 4886.0, 4910.0, 4892.0, 4888.0, 4912.0, 4912.0, 4908.0, 4910.0, 4912.0, 4914.0, 4912.0, 4888.0, 4892.0, 4890.0, 4890.0, 4914.0, 4886.0, 4914.0, 4914.0, 4914.0, 4914.0, 4888.0, 4892.0, 4894.0, 4916.0, 4914.0, 4890.0, 4912.0, 4890.0, 4894.0, 4908.0, 4890.0, 4888.0, 4890.0, 4888.0, 4912.0, 4908.0, 4886.0, 4910.0, 4890.0, 4884.0, 4888.0, 4892.0, 4886.0, 4890.0, 4910.0, 4890.0, 4888.0, 4908.0, 4888.0, 4910.0, 4888.0, 4910.0, 4912.0, 4912.0, 4912.0, 4890.0, 4912.0, 4912.0, 4908.0, 4910.0, 4888.0, 4910.0, 4912.0, 4910.0, 4912.0, 4914.0, 4912.0, 4890.0, 4890.0, 4914.0, 4910.0, 4890.0, 4890.0, 4888.0, 4908.0, 4906.0, 4910.0, 4910.0, 4910.0, 4912.0, 4888.0, 4914.0, 4890.0, 4888.0, 4914.0, 4892.0, 4912.0, 4914.0, 4908.0, 4910.0, 4910.0, 4914.0, 4892.0, 4886.0, 4918.0, 4914.0, 4912.0, 4890.0, 4910.0, 4910.0, 4910.0, 4914.0, 4910.0, 4910.0, 4892.0, 4910.0, 4892.0, 4912.0, 4888.0, 4910.0, 4912.0, 4910.0],
      "WindowWidth": [18694.0, 18692.0, 18660.0, 18690.0, 18656.0, 18698.0, 18662.0, 18698.0, 18664.0, 18702.0, 18690.0, 18694.0, 18694.0, 18690.0, 18692.0, 18658.0, 18694.0, 18662.0, 18698.0, 18660.0, 18700.0, 18696.0, 18698.0, 18700.0, 18666.0, 18696.0, 18656.0, 18660.0, 18694.0, 18658.0, 18698.0, 18694.0, 18700.0, 18700.0, 18692.0, 18688.0, 18692.0, 18658.0, 18650.0, 18650.0, 18692.0, 18690.0, 18686.0, 18690.0, 18652.0, 18656.0, 18660.0, 18646.0, 18654.0, 18648.0, 18690.0, 18688.0, 18660.0, 18690.0, 18686.0, 18690.0, 18654.0, 18654.0, 18654.0, 18654.0, 18658.0, 18652.0, 18696.0, 18654.0, 18698.0, 18696.0, 18662.0, 18658.0, 18652.0, 18654.0, 18652.0, 18650.0, 18692.0, 18686.0, 18698.0, 18690.0, 18692.0, 18658.0, 18688.0, 18662.0, 18656.0, 18692.0, 18654.0, 18694.0, 18658.0, 18692.0, 18704.0, 18656.0, 18692.0, 18658.0, 18658.0, 18656.0, 18656.0, 18660.0, 18696.0, 18694.0, 18700.0, 18700.0, 18664.0, 18654.0, 18662.0, 18652.0, 18656.0, 18656.0, 18690.0, 18692.0, 18662.0, 18698.0, 18688.0, 18688.0, 18662.0, 18654.0, 18658.0, 18660.0, 18696.0, 18656.0, 18664.0, 18694.0, 18694.0, 18688.0, 18654.0, 18690.0, 18656.0, 18690.0, 18654.0, 18688.0, 18698.0, 18700.0, 18706.0, 18690.0, 18652.0, 18654.0, 18688.0, 18690.0, 18692.0, 18694.0, 18702.0, 18758.0, 18752.0, 18662.0, 18638.0, 18606.0, 18606.0, 18646.0, 18660.0, 18690.0, 18714.0, 18708.0, 18708.0, 18696.0, 18660.0, 18652.0, 18656.0, 18656.0, 18658.0, 18652.0, 18650.0, 18686.0, 18694.0, 18692.0, 18700.0, 18656.0, 18686.0, 18690.0, 18648.0, 18658.0, 18648.0, 18690.0, 18658.0, 18656.0, 18690.0, 18654.0, 18688.0, 18688.0, 18654.0, 18694.0, 18648.0, 18692.0, 18658.0, 18688.0, 18660.0, 18660.0, 18656.0, 18656.0, 18688.0, 18692.0, 18654.0, 18686.0, 18658.0, 18658.0, 18692.0, 18690.0, 18654.0, 18692.0, 18654.0, 18656.0, 18688.0, 18690.0, 18690.0, 18688.0, 18690.0, 18696.0, 18704.0, 18660.0, 18646.0, 18646.0, 18654.0, 18680.0, 18652.0, 18686.0, 18688.0, 18692.0, 18688.0, 18660.0, 18656.0, 18654.0, 18682.0, 18690.0, 18662.0, 18690.0, 18656.0, 18654.0, 18690.0, 18650.0, 18654.0, 18652.0, 18654.0, 18690.0, 18692.0, 18660.0, 18690.0, 18654.0, 18660.0, 18658.0, 18650.0, 18656.0, 18656.0, 18688.0, 18660.0, 18658.0, 18694.0, 18654.0, 18694.0, 18654.0, 18692.0, 18696.0, 18686.0, 18692.0, 18660.0, 18698.0, 18692.0, 18692.0, 18698.0, 18662.0, 18686.0, 18702.0, 18684.0, 18696.0, 18684.0, 18696.0, 18654.0, 18660.0, 18688.0, 18684.0, 18650.0, 18656.0, 18656.0, 18688.0, 18700.0, 18698.0, 18704.0, 18692.0, 18690.0, 18654.0, 18688.0, 18654.0, 18658.0, 18688.0, 18656.0, 18696.0, 18696.0, 18702.0, 18700.0, 18704.0, 18698.0, 18652.0, 18656.0, 18686.0, 18684.0, 18692.0, 18656.0, 18694.0, 18692.0, 18698.0, 18692.0, 18690.0, 18690.0, 18656.0, 18686.0, 18652.0, 18692.0, 18654.0, 18694.0, 18692.0, 18694.0]
    },
    "slices": {}
  }
}