{
  "AcquisitionMatrixPE": 104,
  "AcquisitionNumber": 1,
  "AcquisitionTime": "19:42:58.047500",
  "BandwidthPerPixelPhaseEncode": 17.17,
  "BaseResolution": 104,
  "BodyPartExamined": "BRAIN",
  "CoilCombinationMethod": "Sum of Squares",
  "ConsistencyInfo": "N4_VE11C_LATEST_20160120",
  "ConversionSoftware": "dcm2niix",
  "ConversionSoftwareVersion": "v1.0.20220505",
  "DerivedVendorReportedEchoSpacing": 0.000560011,
  "DeviceSerialNumber": "167006",
  "DwellTime": 2.1e-06,
  "EchoTime": 0.037,
  "EchoTrainLength": 104,
  "EffectiveEchoSpacing": 0.000560011,
  "FlipAngle": 52,
  "HeudiconvVersion": "0.5.3.post811+g6206e14",
  "ImageComments": "Unaliased MB4/PE3/LB",
  "ImageOrientationPatientDICOM": [0.999758, -0.0113229, 0.0188841, 0.0176254, 0.925581, -0.37814],
  "ImageOrientationText": "Tra>Cor(-22.2)>Sag(0.8)",
  "ImageType": [
    "ORIGINAL",
    "PRIMARY",
    "M",
    "MB",
    "ND",
    "MOSAIC"
],
  "ImagingFrequency": 123.259,
  "InPlanePhaseEncodingDirectionDICOM": "COL",
  "InstitutionAddress": "Chemin Queen-Mary 4565,Montreal,District,CA,H3W 1W5",
  "InstitutionName": "IUGM",
  "InstitutionalDepartmentName": "Department",
  "MRAcquisitionType": "2D",
  "MagneticFieldStrength": 3,
  "Manufacturer": "Siemens",
  "ManufacturersModelName": "Prisma_fit",
  "MatrixCoilMode": "SENSE",
  "Modality": "MR",
  "MultibandAccelerationFactor": 4,
  "PartialFourier": 1,
  "PatientPosition": "HFS",
  "PercentPhaseFOV": 100,
  "PercentSampling": 100,
  "PhaseEncodingDirection": "j",
  "PhaseEncodingSteps": 104,
  "PhaseResolution": 1,
  "PixelBandwidth": 2290,
  "ProcedureStepDescription": "games^mario3",
  "ProtocolName": "func_task-mario3_run-06",
  "PulseSequenceDetails": "%CustomerSeq%\\cmrr_mbep2d_bold",
  "ReceiveCoilActiveElements": "HC1-7;NC1,2",
  "ReceiveCoilName": "HeadNeck_64",
  "ReconMatrixPE": 104,
  "RepetitionTime": 1.49,
  "SAR": 0.0488992,
  "ScanOptions": "FS",
  "ScanningSequence": "EP",
  "SequenceName": "epfid2d1_104",
  "SequenceVariant": "SK\\SS",
  "SeriesDescription": "func_task-mario3_run-06",
  "SeriesNumber": 25,
  "ShimSetting": [581, -7286, -8780, 451, 0, -324, -29, 101],
  "SliceThickness": 2,
  "SliceTiming": [0, 0.7825, 0.0975, 0.88, 0.195, 0.98, 0.2925, 1.0775, 0.39, 1.175, 0.49, 1.2725, 0.5875, 1.37, 0.685, 0, 0.7825, 0.0975, 0.88, 0.195, 0.98, 0.2925, 1.0775, 0.39, 1.175, 0.49, 1.2725, 0.5875, 1.37, 0.685, 0, 0.7825, 0.0975, 0.88, 0.195, 0.98, 0.2925, 1.0775, 0.39, 1.175, 0.49, 1.2725, 0.5875, 1.37, 0.685, 0, 0.7825, 0.0975, 0.88, 0.195, 0.98, 0.2925, 1.0775, 0.39, 1.175, 0.49, 1.2725, 0.5875, 1.37, 0.685],
  "SoftwareVersions": "syngo MR E11",
  "SpacingBetweenSlices": 2,
  "StationName": "MRC35049",
  "TaskName": "mario3",
  "TotalReadoutTime": 0.0576811,
  "TxRefAmp": 252.799,
  "WipMemBlock": "f4764476-e471-4926-b173-6891b1079903||Sequence: R017 ve11c/master r/75a17815+; Jun 28 2022 16:32:11 by eja",
  "dcmmeta_affine": [
    [-1.999515175819397, 0.035250816494226456, 0.02639419212937355, 101.39836883544922],
    [0.022645890712738037, 1.8511611223220825, -0.7567625641822815, -69.7623062133789],
    [0.037768200039863586, 0.756280243396759, 1.8511115312576294, -57.14202880859375],
    [0.0, 0.0, 0.0, 1.0]
],
  "dcmmeta_reorient_transform": [
    [0.0, -1.0, 0.0, 103.0],
    [1.0, 0.0, 0.0, 0.0],
    [0.0, 0.0, 1.0, 0.0],
    [0.0, 0.0, 0.0, 1.0]
],
  "dcmmeta_shape": [104, 104, 60, 305],
  "dcmmeta_slice_dim": 2,
  "dcmmeta_version": 0.6,
  "global": {
    "const": {
      "AcquisitionMatrix": [104, 0, 0, 104],
      "AngioFlag": "N",
      "BitsAllocated": 16,
      "BitsStored": 16,
      "BodyPartExamined": "BRAIN",
      "Columns": 832,
      "EchoNumbers": 1,
      "EchoTime": 37.0,
      "EchoTrainLength": 104,
      "FlipAngle": 52.0,
      "HighBit": 15,
      "ImageOrientationPatient": [0.99975756144118, -0.0113229456562, 0.01888410026599, 0.01762540758539, 0.92558057015621, -0.3781401237065],
      "ImagePositionPatient": [-845.68400194041, -786.48683889956, 282.2932215092],
      "ImageType": [
        "ORIGINAL",
        "PRIMARY",
        "M",
        "MB",
        "ND",
        "MOSAIC"
],
      "ImagedNucleus": "1H",
      "ImagingFrequency": 123.25873,
      "InPlanePhaseEncodingDirection": "COL",
      "MRAcquisitionType": "2D",
      "MagneticFieldStrength": 3.0,
      "Manufacturer": "SIEMENS",
      "ManufacturerModelName": "Prisma_fit",
      "Modality": "MR",
      "NumberOfAverages": 1.0,
      "NumberOfPhaseEncodingSteps": 104,
      "PercentPhaseFieldOfView": 100.0,
      "PercentSampling": 100.0,
      "PerformedProcedureStepStartTime": "184920.807000",
      "PhotometricInterpretation": "MONOCHROME2",
      "PixelBandwidth": 2290.0,
      "PixelRepresentation": 0,
      "PixelSpacing": [2.0, 2.0],
      "ProtocolName": "func_task-mario3_run-06",
      "RepetitionTime": 1490.0,
      "Rows": 832,
      "SAR": 0.04889920429772,
      "SamplesPerPixel": 1,
      "ScanOptions": "FS",
      "ScanningSequence": "EP",
      "SequenceName": "epfid2d1_104",
      "SequenceVariant": [
        "SK",
        "SS"
],
      "SeriesDescription": "func_task-mario3_run-06",
      "SeriesNumber": 25,
      "SeriesTime": "194426.476000",
      "SliceLocation": -25.153216874449,
      "SliceThickness": 2.0,
      "SmallestImagePixelValue": 0,
      "SoftwareVersions": "syngo MR E11",
      "SpacingBetweenSlices": 1.9999999933647,
      "SpecificCharacterSet": "ISO_IR 100",
      "StudyID": "1",
      "StudyTime": "184920.749000",
      "TransmitCoilName": "Body",
      "VariableFlipAngleFlag": "N",
      "WindowCenterWidthExplanation": "Algo1",
      "dBdt": 0.0},
    "slices": {}
  },
  "time": {
    "samples": {
      "AcquisitionNumber": [1, 2, 3, 4, 5, 6, 7, 8, 9, 10, 11, 12, 13, 14, 15, 16, 17, 18, 19, 20, 21, 22, 23, 24, 25, 26, 27, 28, 29, 30, 31, 32, 33, 34, 35, 36, 37, 38, 39, 40, 41, 42, 43, 44, 45, 46, 47, 48, 49, 50, 51, 52, 53, 54, 55, 56, 57, 58, 59, 60, 61, 62, 63, 64, 65, 66, 67, 68, 69, 70, 71, 72, 73, 74, 75, 76, 77, 78, 79, 80, 81, 82, 83, 84, 85, 86, 87, 88, 89, 90, 91, 92, 93, 94, 95, 96, 97, 98, 99, 100, 101, 102, 103, 104, 105, 106, 107, 108, 109, 110, 111, 112, 113, 114, 115, 116, 117, 118, 119, 120, 121, 122, 123, 124, 125, 126, 127, 128, 129, 130, 131, 132, 133, 134, 135, 136, 137, 138, 139, 140, 141, 142, 143, 144, 145, 146, 147, 148, 149, 150, 151, 152, 153, 154, 155, 156, 157, 158, 159, 160, 161, 162, 163, 164, 165, 166, 167, 168, 169, 170, 171, 172, 173, 174, 175, 176, 177, 178, 179, 180, 181, 182, 183, 184, 185, 186, 187, 188, 189, 190, 191, 192, 193, 194, 195, 196, 197, 198, 199, 200, 201, 202, 203, 204, 205, 206, 207, 208, 209, 210, 211, 212, 213, 214, 215, 216, 217, 218, 219, 220, 221, 222, 223, 224, 225, 226, 227, 228, 229, 230, 231, 232, 233, 234, 235, 236, 237, 238, 239, 240, 241, 242, 243, 244, 245, 246, 247, 248, 249, 250, 251, 252, 253, 254, 255, 256, 257, 258, 259, 260, 261, 262, 263, 264, 265, 266, 267, 268, 269, 270, 271, 272, 273, 274, 275, 276, 277, 278, 279, 280, 281, 282, 283, 284, 285, 286, 287, 288, 289, 290, 291, 292, 293, 294, 295, 296, 297, 298, 299, 300, 301, 302, 303, 304, 305],
      "AcquisitionTime": ["194258.047500", "194259.537500", "194301.027500", "194302.517500", "194304.007500", "194305.497500", "194306.987500", "194308.477500", "194309.967500", "194311.457500", "194312.947500", "194314.437500", "194315.927500", "194317.417500", "194318.907500", "194320.397500", "194321.887500", "194323.377500", "194324.867500", "194326.357500", "194327.847500", "194329.337500", "194330.827500", "194332.317500", "194333.807500", "194335.297500", "194336.787500", "194338.277500", "194339.767500", "194341.257500", "194342.747500", "194344.237500", "194345.727500", "194347.217500", "194348.707500", "194350.197500", "194351.687500", "194353.177500", "194354.667500", "194356.157500", "194357.647500", "194359.137500", "194400.627500", "194402.117500", "194403.607500", "194405.097500", "194406.587500", "194408.077500", "194409.567500", "194411.057500", "194412.547500", "194414.037500", "194415.527500", "194417.017500", "194418.507500", "194419.997500", "194421.487500", "194422.977500", "194424.467500", "194425.957500", "194427.447500", "194428.937500", "194430.427500", "194431.917500", "194433.407500", "194434.897500", "194436.387500", "194437.877500", "194439.367500", "194440.857500", "194442.347500", "194443.837500", "194445.327500", "194446.817500", "194448.307500", "194449.797500", "194451.287500", "194452.777500", "194454.267500", "194455.757500", "194457.247500", "194458.737500", "194500.227500", "194501.717500", "194503.207500", "194504.697500", "194506.187500", "194507.677500", "194509.167500", "194510.657500", "194512.147500", "194513.637500", "194515.127500", "194516.617500", "194518.107500", "194519.597500", "194521.087500", "194522.577500", "194524.067500", "194525.557500", "194527.047500", "194528.537500", "194530.027500", "194531.517500", "194533.007500", "194534.497500", "194535.987500", "194537.477500", "194538.967500", "194540.457500", "194541.947500", "194543.437500", "194544.927500", "194546.417500", "194547.907500", "194549.397500", "194550.887500", "194552.377500", "194553.867500", "194555.357500", "194556.847500", "194558.337500", "194559.827500", "194601.317500", "194602.807500", "194604.297500", "194605.787500", "194607.277500", "194608.767500", "194610.257500", "194611.747500", "194613.237500", "194614.727500", "194616.217500", "194617.707500", "194619.197500", "194620.687500", "194622.177500", "194623.667500", "194625.157500", "194626.647500", "194628.137500", "194629.627500", "194631.117500", "194632.607500", "194634.097500", "194635.587500", "194637.077500", "194638.567500", "194640.057500", "194641.547500", "194643.037500", "194644.527500", "194646.017500", "194647.507500", "194648.997500", "194650.487500", "194651.977500", "194653.467500", "194654.957500", "194656.447500", "194657.937500", "194659.427500", "194700.917500", "194702.407500", "194703.897500", "194705.387500", "194706.877500", "194708.367500", "194709.857500", "194711.347500", "194712.837500", "194714.327500", "194715.817500", "194717.307500", "194718.797500", "194720.287500", "194721.777500", "194723.267500", "194724.757500", "194726.247500", "194727.737500", "194729.227500", "194730.717500", "194732.207500", "194733.697500", "194735.187500", "194736.677500", "194738.167500", "194739.657500", "194741.147500", "194742.637500", "194744.127500", "194745.617500", "194747.107500", "194748.597500", "194750.087500", "194751.577500", "194753.067500", "194754.557500", "194756.047500", "194757.537500", "194759.027500", "194800.517500", "194802.007500", "194803.497500", "194804.987500", "194806.477500", "194807.967500", "194809.457500", "194810.947500", "194812.437500", "194813.927500", "194815.417500", "194816.907500", "194818.397500", "194819.887500", "194821.377500", "194822.867500", "194824.357500", "194825.847500", "194827.337500", "194828.827500", "194830.317500", "194831.807500", "194833.297500", "194834.787500", "194836.277500", "194837.767500", "194839.257500", "194840.747500", "194842.237500", "194843.727500", "194845.217500", "194846.707500", "194848.197500", "194849.687500", "194851.177500", "194852.667500", "194854.157500", "194855.647500", "194857.137500", "194858.627500", "194900.117500", "194901.607500", "194903.097500", "194904.587500", "194906.077500", "194907.567500", "194909.057500", "194910.547500", "194912.037500", "194913.527500", "194915.017500", "194916.507500", "194917.997500", "194919.487500", "194920.977500", "194922.467500", "194923.957500", "194925.447500", "194926.937500", "194928.427500", "194929.917500", "194931.407500", "194932.897500", "194934.387500", "194935.877500", "194937.367500", "194938.857500", "194940.347500", "194941.837500", "194943.327500", "194944.817500", "194946.307500", "194947.797500", "194949.287500", "194950.777500", "194952.267500", "194953.757500", "194955.247500", "194956.737500", "194958.227500", "194959.717500", "195001.207500", "195002.697500", "195004.187500", "195005.677500", "195007.167500", "195008.657500", "195010.147500", "195011.637500", "195013.127500", "195014.617500", "195016.107500", "195017.597500", "195019.087500", "195020.577500", "195022.067500", "195023.557500", "195025.047500", "195026.537500", "195028.027500", "195029.517500", "195031.007500"],
      "ContentTime": ["194426.479000", "194426.483000", "194426.486000", "194426.490000", "194426.493000", "194426.496000", "194426.500000", "194426.503000", "194426.506000", "194426.509000", "194426.513000", "194426.516000", "194426.519000", "194426.523000", "194426.526000", "194426.529000", "194426.533000", "194426.536000", "194426.539000", "194426.542000", "194426.546000", "194426.549000", "194426.552000", "194426.555000", "194426.559000", "194426.562000", "194426.565000", "194426.569000", "194426.572000", "194426.575000", "194426.578000", "194426.582000", "194426.585000", "194426.588000", "194426.591000", "194426.595000", "194426.602000", "194426.605000", "194446.439000", "194446.443000", "194446.446000", "194446.449000", "194446.453000", "194446.456000", "194446.459000", "194446.462000", "194446.466000", "194446.469000", "194446.472000", "194446.475000", "194446.479000", "194446.482000", "194446.485000", "194446.488000", "194446.496000", "194446.500000", "194446.503000", "194446.506000", "194506.439000", "194506.443000", "194506.446000", "194506.449000", "194506.453000", "194506.456000", "194506.459000", "194506.463000", "194506.466000", "194506.469000", "194506.472000", "194506.476000", "194506.479000", "194506.482000", "194506.485000", "194506.489000", "194506.492000", "194506.495000", "194506.499000", "194506.502000", "194526.439000", "194526.443000", "194526.446000", "194526.449000", "194526.459000", "194526.463000", "194526.466000", "194526.469000", "194526.473000", "194526.476000", "194526.479000", "194526.483000", "194526.486000", "194526.489000", "194526.493000", "194526.496000", "194526.499000", "194526.502000", "194526.506000", "194526.509000", "194606.440000", "194606.444000", "194606.447000", "194606.450000", "194606.454000", "194606.457000", "194606.460000", "194606.464000", "194606.467000", "194606.470000", "194606.473000", "194606.477000", "194606.480000", "194606.483000", "194606.487000", "194606.490000", "194606.493000", "194606.496000", "194606.500000", "194606.503000", "194606.506000", "194606.510000", "194606.513000", "194606.516000", "194606.519000", "194606.523000", "194606.526000", "194606.529000", "194626.440000", "194626.444000", "194626.447000", "194626.450000", "194626.454000", "194626.457000", "194626.460000", "194626.464000", "194626.467000", "194626.470000", "194626.473000", "194626.477000", "194626.480000", "194706.439000", "194706.443000", "194706.446000", "194706.449000", "194706.453000", "194706.456000", "194706.459000", "194706.462000", "194706.466000", "194706.469000", "194706.472000", "194706.476000", "194706.479000", "194706.482000", "194706.485000", "194706.489000", "194706.492000", "194706.495000", "194706.498000", "194706.502000", "194706.505000", "194706.508000", "194706.511000", "194706.515000", "194706.518000", "194706.537000", "194706.541000", "194746.439000", "194746.443000", "194746.446000", "194746.449000", "194746.452000", "194746.456000", "194746.459000", "194746.462000", "194746.466000", "194746.469000", "194746.472000", "194746.476000", "194746.479000", "194746.482000", "194746.485000", "194746.489000", "194746.492000", "194746.495000", "194746.499000", "194746.502000", "194746.505000", "194746.509000", "194746.512000", "194746.515000", "194746.518000", "194746.522000", "194746.525000", "194826.440000", "194826.444000", "194826.448000", "194826.451000", "194826.454000", "194826.457000", "194826.461000", "194826.464000", "194826.468000", "194826.471000", "194826.474000", "194826.477000", "194826.481000", "194826.484000", "194826.487000", "194826.490000", "194826.494000", "194826.497000", "194826.500000", "194826.504000", "194826.507000", "194826.510000", "194826.513000", "194826.517000", "194826.520000", "194826.523000", "194906.439000", "194906.443000", "194906.446000", "194906.449000", "194906.453000", "194906.456000", "194906.459000", "194906.463000", "194906.466000", "194906.469000", "194906.473000", "194906.476000", "194906.479000", "194906.482000", "194906.486000", "194906.489000", "194906.492000", "194906.496000", "194906.499000", "194906.502000", "194906.506000", "194906.517000", "194906.520000", "194906.523000", "194906.526000", "194906.530000", "194906.533000", "194946.439000", "194946.443000", "194946.446000", "194946.449000", "194946.453000", "194946.456000", "194946.459000", "194946.476000", "194946.480000", "194946.483000", "194946.486000", "194946.490000", "194946.493000", "194946.496000", "194946.499000", "194946.503000", "194946.506000", "194946.509000", "194946.513000", "194946.516000", "194946.519000", "194946.523000", "194946.526000", "194946.529000", "194946.533000", "194946.536000", "194946.539000", "195026.439000", "195026.443000", "195026.446000", "195026.450000", "195026.453000", "195026.456000", "195026.460000", "195026.463000", "195026.466000", "195026.470000", "195026.473000", "195026.476000", "195026.480000", "195026.483000", "195026.487000", "195026.490000", "195026.493000", "195026.496000", "195026.500000", "195026.503000", "195026.506000", "195026.510000", "195026.513000", "195026.516000", "195026.520000", "195026.523000", "195026.526000", "195034.198000", "195034.201000", "195034.204000", "195034.208000", "195034.211000"],
      "InstanceCreationTime": ["194426.479000", "194426.483000", "194426.486000", "194426.490000", "194426.493000", "194426.496000", "194426.500000", "194426.503000", "194426.506000", "194426.509000", "194426.513000", "194426.516000", "194426.519000", "194426.523000", "194426.526000", "194426.529000", "194426.533000", "194426.536000", "194426.539000", "194426.542000", "194426.546000", "194426.549000", "194426.552000", "194426.555000", "194426.559000", "194426.562000", "194426.565000", "194426.569000", "194426.572000", "194426.575000", "194426.578000", "194426.582000", "194426.585000", "194426.588000", "194426.591000", "194426.595000", "194426.602000", "194426.605000", "194446.439000", "194446.443000", "194446.446000", "194446.449000", "194446.453000", "194446.456000", "194446.459000", "194446.462000", "194446.466000", "194446.469000", "194446.472000", "194446.475000", "194446.479000", "194446.482000", "194446.485000", "194446.488000", "194446.496000", "194446.500000", "194446.503000", "194446.506000", "194506.439000", "194506.443000", "194506.446000", "194506.449000", "194506.453000", "194506.456000", "194506.459000", "194506.463000", "194506.466000", "194506.469000", "194506.472000", "194506.476000", "194506.479000", "194506.482000", "194506.485000", "194506.489000", "194506.492000", "194506.495000", "194506.499000", "194506.502000", "194526.439000", "194526.443000", "194526.446000", "194526.449000", "194526.459000", "194526.463000", "194526.466000", "194526.469000", "194526.473000", "194526.476000", "194526.479000", "194526.483000", "194526.486000", "194526.489000", "194526.493000", "194526.496000", "194526.499000", "194526.502000", "194526.506000", "194526.509000", "194606.440000", "194606.444000", "194606.447000", "194606.450000", "194606.454000", "194606.457000", "194606.460000", "194606.464000", "194606.467000", "194606.470000", "194606.473000", "194606.477000", "194606.480000", "194606.483000", "194606.487000", "194606.490000", "194606.493000", "194606.496000", "194606.500000", "194606.503000", "194606.506000", "194606.510000", "194606.513000", "194606.516000", "194606.519000", "194606.523000", "194606.526000", "194606.529000", "194626.440000", "194626.444000", "194626.447000", "194626.450000", "194626.454000", "194626.457000", "194626.460000", "194626.464000", "194626.467000", "194626.470000", "194626.473000", "194626.477000", "194626.480000", "194706.439000", "194706.443000", "194706.446000", "194706.449000", "194706.453000", "194706.456000", "194706.459000", "194706.462000", "194706.466000", "194706.469000", "194706.472000", "194706.476000", "194706.479000", "194706.482000", "194706.485000", "194706.489000", "194706.492000", "194706.495000", "194706.498000", "194706.502000", "194706.505000", "194706.508000", "194706.511000", "194706.515000", "194706.518000", "194706.537000", "194706.541000", "194746.439000", "194746.443000", "194746.446000", "194746.449000", "194746.452000", "194746.456000", "194746.459000", "194746.462000", "194746.466000", "194746.469000", "194746.472000", "194746.476000", "194746.479000", "194746.482000", "194746.485000", "194746.489000", "194746.492000", "194746.495000", "194746.499000", "194746.502000", "194746.505000", "194746.509000", "194746.512000", "194746.515000", "194746.518000", "194746.522000", "194746.525000", "194826.440000", "194826.444000", "194826.448000", "194826.451000", "194826.454000", "194826.457000", "194826.461000", "194826.464000", "194826.468000", "194826.471000", "194826.474000", "194826.477000", "194826.481000", "194826.484000", "194826.487000", "194826.490000", "194826.494000", "194826.497000", "194826.500000", "194826.504000", "194826.507000", "194826.510000", "194826.513000", "194826.517000", "194826.520000", "194826.523000", "194906.439000", "194906.443000", "194906.446000", "194906.449000", "194906.453000", "194906.456000", "194906.459000", "194906.463000", "194906.466000", "194906.469000", "194906.473000", "194906.476000", "194906.479000", "194906.482000", "194906.486000", "194906.489000", "194906.492000", "194906.496000", "194906.499000", "194906.502000", "194906.506000", "194906.517000", "194906.520000", "194906.523000", "194906.526000", "194906.530000", "194906.533000", "194946.439000", "194946.443000", "194946.446000", "194946.449000", "194946.453000", "194946.456000", "194946.459000", "194946.476000", "194946.480000", "194946.483000", "194946.486000", "194946.490000", "194946.493000", "194946.496000", "194946.499000", "194946.503000", "194946.506000", "194946.509000", "194946.513000", "194946.516000", "194946.519000", "194946.523000", "194946.526000", "194946.529000", "194946.533000", "194946.536000", "194946.539000", "195026.439000", "195026.443000", "195026.446000", "195026.450000", "195026.453000", "195026.456000", "195026.460000", "195026.463000", "195026.466000", "195026.470000", "195026.473000", "195026.476000", "195026.480000", "195026.483000", "195026.487000", "195026.490000", "195026.493000", "195026.496000", "195026.500000", "195026.503000", "195026.506000", "195026.510000", "195026.513000", "195026.516000", "195026.520000", "195026.523000", "195026.526000", "195034.198000", "195034.201000", "195034.204000", "195034.208000", "195034.211000"],
      "InstanceNumber": [1, 2, 3, 4, 5, 6, 7, 8, 9, 10, 11, 12, 13, 14, 15, 16, 17, 18, 19, 20, 21, 22, 23, 24, 25, 26, 27, 28, 29, 30, 31, 32, 33, 34, 35, 36, 37, 38, 39, 40, 41, 42, 43, 44, 45, 46, 47, 48, 49, 50, 51, 52, 53, 54, 55, 56, 57, 58, 59, 60, 61, 62, 63, 64, 65, 66, 67, 68, 69, 70, 71, 72, 73, 74, 75, 76, 77, 78, 79, 80, 81, 82, 83, 84, 85, 86, 87, 88, 89, 90, 91, 92, 93, 94, 95, 96, 97, 98, 99, 100, 101, 102, 103, 104, 105, 106, 107, 108, 109, 110, 111, 112, 113, 114, 115, 116, 117, 118, 119, 120, 121, 122, 123, 124, 125, 126, 127, 128, 129, 130, 131, 132, 133, 134, 135, 136, 137, 138, 139, 140, 141, 142, 143, 144, 145, 146, 147, 148, 149, 150, 151, 152, 153, 154, 155, 156, 157, 158, 159, 160, 161, 162, 163, 164, 165, 166, 167, 168, 169, 170, 171, 172, 173, 174, 175, 176, 177, 178, 179, 180, 181, 182, 183, 184, 185, 186, 187, 188, 189, 190, 191, 192, 193, 194, 195, 196, 197, 198, 199, 200, 201, 202, 203, 204, 205, 206, 207, 208, 209, 210, 211, 212, 213, 214, 215, 216, 217, 218, 219, 220, 221, 222, 223, 224, 225, 226, 227, 228, 229, 230, 231, 232, 233, 234, 235, 236, 237, 238, 239, 240, 241, 242, 243, 244, 245, 246, 247, 248, 249, 250, 251, 252, 253, 254, 255, 256, 257, 258, 259, 260, 261, 262, 263, 264, 265, 266, 267, 268, 269, 270, 271, 272, 273, 274, 275, 276, 277, 278, 279, 280, 281, 282, 283, 284, 285, 286, 287, 288, 289, 290, 291, 292, 293, 294, 295, 296, 297, 298, 299, 300, 301, 302, 303, 304, 305],
      "LargestImagePixelValue": [59194, 57287, 56856, 56289, 56108, 56330, 56626, 55768, 55302, 56055, 55770, 55146, 55536, 55143, 55349, 55657, 55429, 56058, 55841, 56951, 57090, 56637, 57431, 57670, 57725, 57420, 57395, 57491, 57610, 57920, 57627, 58134, 57735, 57222, 57761, 58154, 56735, 57900, 57550, 57395, 57251, 57405, 56817, 57134, 57647, 57806, 57569, 57686, 57703, 57201, 58000, 57457, 57644, 58133, 57614, 57911, 57680, 57427, 57601, 57529, 57312, 57650, 57759, 57916, 57485, 57950, 57960, 57705, 57700, 58027, 57849, 58089, 57720, 57580, 57864, 57526, 57750, 57605, 57673, 57595, 57537, 57010, 56921, 57438, 57120, 58000, 57418, 57968, 57794, 57882, 58096, 57761, 58182, 58045, 57713, 58107, 58162, 57500, 57436, 57474, 57419, 57559, 57872, 57430, 57769, 57447, 58123, 57916, 57822, 58091, 57678, 57989, 58091, 57815, 57549, 57737, 57475, 57618, 58066, 57940, 58036, 56580, 57476, 57197, 56796, 57334, 57789, 57600, 57420, 57545, 57305, 56750, 57845, 57609, 57899, 57384, 57186, 58071, 57649, 56784, 57211, 56866, 56773, 57152, 57042, 57541, 57038, 57152, 57091, 56831, 56971, 57126, 57117, 56896, 57142, 57016, 56606, 56672, 56634, 57045, 57041, 57144, 57259, 57252, 57033, 57114, 56793, 57272, 56954, 57259, 57137, 56721, 57107, 56977, 57229, 56551, 57145, 56934, 56966, 57520, 56921, 57259, 57284, 57359, 57535, 57236, 57096, 56753, 56724, 56829, 57128, 57017, 56833, 57117, 57301, 57550, 58067, 57720, 57676, 58222, 57204, 57538, 58605, 56719, 57599, 57761, 57164, 57508, 57760, 57866, 57632, 57381, 57264, 57489, 57187, 57226, 57005, 57736, 57392, 58221, 57676, 56557, 56933, 56971, 57224, 57204, 57546, 58192, 58691, 58567, 57900, 57368, 58178, 57638, 58058, 58113, 57947, 58306, 57984, 58235, 58848, 58047, 58056, 57910, 57811, 58281, 57485, 57683, 57669, 57665, 57746, 57328, 57275, 56999, 56855, 56599, 56883, 57230, 57111, 57049, 56628, 56781, 56847, 56697, 57143, 56592, 57398, 56781, 57434, 57392, 56487, 57145, 56737, 56878, 56860, 56717, 56591, 56480, 56847, 56492, 56917, 56459, 57103, 56931, 56824, 56797, 56402, 56741, 56484, 56995, 57124, 56914, 56578, 56692, 56827, 56731, 56501, 57101, 56777, 56804, 56394, 56757, 56696, 56910, 56969],
      "WindowCenter": [10586.0, 10521.0, 10500.0, 10485.0, 10476.0, 10463.0, 10461.0, 10454.0, 10460.0, 10494.0, 10497.0, 10498.0, 10517.0, 10522.0, 10521.0, 10520.0, 10512.0, 10504.0, 10500.0, 10498.0, 10490.0, 10481.0, 10488.0, 10491.0, 10500.0, 10502.0, 10502.0, 10501.0, 10490.0, 10484.0, 10474.0, 10479.0, 10499.0, 10522.0, 10536.0, 10535.0, 10491.0, 10506.0, 10487.0, 10481.0, 10474.0, 10484.0, 10494.0, 10458.0, 10474.0, 10453.0, 10477.0, 10503.0, 10513.0, 10509.0, 10507.0, 10480.0, 10480.0, 10492.0, 10497.0, 10510.0, 10507.0, 10492.0, 10506.0, 10495.0, 10488.0, 10489.0, 10485.0, 10484.0, 10484.0, 10491.0, 10511.0, 10521.0, 10507.0, 10489.0, 10458.0, 10449.0, 10434.0, 10439.0, 10453.0, 10459.0, 10465.0, 10467.0, 10483.0, 10491.0, 10506.0, 10505.0, 10505.0, 10509.0, 10514.0, 10514.0, 10492.0, 10513.0, 10507.0, 10493.0, 10488.0, 10479.0, 10485.0, 10498.0, 10483.0, 10492.0, 10494.0, 10470.0, 10483.0, 10481.0, 10474.0, 10490.0, 10498.0, 10496.0, 10500.0, 10492.0, 10484.0, 10478.0, 10484.0, 10482.0, 10469.0, 10466.0, 10461.0, 10477.0, 10498.0, 10517.0, 10519.0, 10519.0, 10517.0, 10509.0, 10490.0, 10496.0, 10503.0, 10509.0, 10506.0, 10490.0, 10474.0, 10471.0, 10475.0, 10484.0, 10477.0, 10471.0, 10480.0, 10480.0, 10497.0, 10475.0, 10479.0, 10477.0, 10504.0, 10522.0, 10491.0, 10466.0, 10433.0, 10420.0, 10396.0, 10399.0, 10400.0, 10421.0, 10440.0, 10458.0, 10468.0, 10473.0, 10476.0, 10475.0, 10511.0, 10534.0, 10540.0, 10523.0, 10506.0, 10489.0, 10478.0, 10481.0, 10500.0, 10524.0, 10527.0, 10508.0, 10489.0, 10477.0, 10480.0, 10495.0, 10502.0, 10516.0, 10528.0, 10500.0, 10509.0, 10509.0, 10497.0, 10505.0, 10505.0, 10506.0, 10499.0, 10499.0, 10498.0, 10496.0, 10496.0, 10490.0, 10480.0, 10476.0, 10482.0, 10489.0, 10495.0, 10489.0, 10482.0, 10481.0, 10464.0, 10477.0, 10485.0, 10480.0, 10487.0, 10488.0, 10478.0, 10506.0, 10500.0, 10502.0, 10529.0, 10520.0, 10496.0, 10480.0, 10474.0, 10467.0, 10441.0, 10451.0, 10450.0, 10456.0, 10466.0, 10484.0, 10483.0, 10490.0, 10510.0, 10509.0, 10508.0, 10519.0, 10525.0, 10511.0, 10502.0, 10494.0, 10494.0, 10494.0, 10515.0, 10504.0, 10498.0, 10516.0, 10511.0, 10495.0, 10518.0, 10519.0, 10519.0, 10519.0, 10514.0, 10520.0, 10505.0, 10502.0, 10501.0, 10511.0, 10510.0, 10511.0, 10511.0, 10521.0, 10514.0, 10515.0, 10506.0, 10491.0, 10488.0, 10487.0, 10503.0, 10497.0, 10510.0, 10519.0, 10503.0, 10479.0, 10461.0, 10461.0, 10464.0, 10473.0, 10488.0, 10487.0, 10491.0, 10461.0, 10481.0, 10484.0, 10499.0, 10516.0, 10511.0, 10511.0, 10493.0, 10501.0, 10511.0, 10514.0, 10521.0, 10504.0, 10502.0, 10484.0, 10507.0, 10512.0, 10537.0, 10531.0, 10518.0, 10506.0, 10489.0, 10487.0, 10491.0, 10486.0, 10480.0, 10488.0, 10494.0, 10490.0, 10489.0, 10495.0, 10496.0, 10503.0, 10501.0, 10499.0, 10497.0, 10493.0, 10501.0],
