{
  "AcquisitionMatrixPE": 104,
  "AcquisitionNumber": 1,
  "AcquisitionTime": "19:34:12.000000",
  "BandwidthPerPixelPhaseEncode": 17.17,
  "BaseResolution": 104,
  "BodyPartExamined": "BRAIN",
  "CoilCombinationMethod": "Sum of Squares",
  "ConsistencyInfo": "N4_VE11C_LATEST_20160120",
  "ConversionSoftware": "dcm2niix",
  "ConversionSoftwareVersion": "v1.0.20220505",
  "DerivedVendorReportedEchoSpacing": 0.000560011,
  "DeviceSerialNumber": "167006",
  "DwellTime": 2.1e-06,
  "EchoTime": 0.037,
  "EchoTrainLength": 104,
  "EffectiveEchoSpacing": 0.000560011,
  "FlipAngle": 52,
  "HeudiconvVersion": "0.5.3.post811+g6206e14",
  "ImageComments": "Unaliased MB4/PE3/LB",
  "ImageOrientationPatientDICOM": [0.999758, -0.0113229, 0.0188841, 0.0176254, 0.925581, -0.37814],
  "ImageOrientationText": "Tra>Cor(-22.2)>Sag(0.8)",
  "ImageType": [
    "ORIGINAL",
    "PRIMARY",
    "M",
    "MB",
    "ND",
    "MOSAIC"
],
  "ImagingFrequency": 123.259,
  "InPlanePhaseEncodingDirectionDICOM": "COL",
  "InstitutionAddress": "Chemin Queen-Mary 4565,Montreal,District,CA,H3W 1W5",
  "InstitutionName": "IUGM",
  "InstitutionalDepartmentName": "Department",
  "MRAcquisitionType": "2D",
  "MagneticFieldStrength": 3,
  "Manufacturer": "Siemens",
  "ManufacturersModelName": "Prisma_fit",
  "MatrixCoilMode": "SENSE",
  "Modality": "MR",
  "MultibandAccelerationFactor": 4,
  "PartialFourier": 1,
  "PatientPosition": "HFS",
  "PercentPhaseFOV": 100,
  "PercentSampling": 100,
  "PhaseEncodingDirection": "j",
  "PhaseEncodingSteps": 104,
  "PhaseResolution": 1,
  "PixelBandwidth": 2290,
  "ProcedureStepDescription": "games^mario3",
  "ProtocolName": "func_task-mario3_run-05",
  "PulseSequenceDetails": "%CustomerSeq%\\cmrr_mbep2d_bold",
  "ReceiveCoilActiveElements": "HC1-7;NC1,2",
  "ReceiveCoilName": "HeadNeck_64",
  "ReconMatrixPE": 104,
  "RepetitionTime": 1.49,
  "SAR": 0.0488992,
  "ScanOptions": "FS",
  "ScanningSequence": "EP",
  "SequenceName": "epfid2d1_104",
  "SequenceVariant": "SK\\SS",
  "SeriesDescription": "func_task-mario3_run-05",
  "SeriesNumber": 22,
  "ShimSetting": [581, -7286, -8780, 451, 0, -324, -29, 101],
  "SliceThickness": 2,
  "SliceTiming": [0, 0.785, 0.1, 0.8825, 0.1975, 0.98, 0.295, 1.08, 0.3925, 1.1775, 0.49, 1.275, 0.59, 1.3725, 0.6875, 0, 0.785, 0.1, 0.8825, 0.1975, 0.98, 0.295, 1.08, 0.3925, 1.1775, 0.49, 1.275, 0.59, 1.3725, 0.6875, 0, 0.785, 0.1, 0.8825, 0.1975, 0.98, 0.295, 1.08, 0.3925, 1.1775, 0.49, 1.275, 0.59, 1.3725, 0.6875, 0, 0.785, 0.1, 0.8825, 0.1975, 0.98, 0.295, 1.08, 0.3925, 1.1775, 0.49, 1.275, 0.59, 1.3725, 0.6875],
  "SoftwareVersions": "syngo MR E11",
  "SpacingBetweenSlices": 2,
  "StationName": "MRC35049",
  "TaskName": "mario3",
  "TotalReadoutTime": 0.0576811,
  "TxRefAmp": 252.799,
  "WipMemBlock": "09a24fc3-4c5a-4b82-9357-f4feb7b90136||Sequence: R017 ve11c/master r/75a17815+; Jun 28 2022 16:32:11 by eja",
  "dcmmeta_affine": [
    [-1.999515175819397, 0.035250816494226456, 0.02639419212937355, 101.39836883544922],
    [0.022645890712738037, 1.8511611223220825, -0.7567625641822815, -69.7623062133789],
    [0.037768200039863586, 0.756280243396759, 1.8511115312576294, -57.14202880859375],
    [0.0, 0.0, 0.0, 1.0]
],
  "dcmmeta_reorient_transform": [
    [0.0, -1.0, 0.0, 103.0],
    [1.0, 0.0, 0.0, 0.0],
    [0.0, 0.0, 1.0, 0.0],
    [0.0, 0.0, 0.0, 1.0]
],
  "dcmmeta_shape": [104, 104, 60, 316],
  "dcmmeta_slice_dim": 2,
  "dcmmeta_version": 0.6,
  "global": {
    "const": {
      "AcquisitionMatrix": [104, 0, 0, 104],
      "AngioFlag": "N",
      "BitsAllocated": 16,
      "BitsStored": 16,
      "BodyPartExamined": "BRAIN",
      "Columns": 832,
      "EchoNumbers": 1,
      "EchoTime": 37.0,
      "EchoTrainLength": 104,
      "FlipAngle": 52.0,
      "HighBit": 15,
      "ImageOrientationPatient": [0.99975756144118, -0.0113229456562, 0.01888410026599, 0.01762540758539, 0.92558057015621, -0.3781401237065],
      "ImagePositionPatient": [-845.68400194041, -786.48683889956, 282.2932215092],
      "ImageType": [
        "ORIGINAL",
        "PRIMARY",
        "M",
        "MB",
        "ND",
        "MOSAIC"
],
      "ImagedNucleus": "1H",
      "ImagingFrequency": 123.258726,
      "InPlanePhaseEncodingDirection": "COL",
      "MRAcquisitionType": "2D",
      "MagneticFieldStrength": 3.0,
      "Manufacturer": "SIEMENS",
      "ManufacturerModelName": "Prisma_fit",
      "Modality": "MR",
      "NumberOfAverages": 1.0,
      "NumberOfPhaseEncodingSteps": 104,
      "PercentPhaseFieldOfView": 100.0,
      "PercentSampling": 100.0,
      "PerformedProcedureStepStartTime": "184920.807000",
      "PhotometricInterpretation": "MONOCHROME2",
      "PixelBandwidth": 2290.0,
      "PixelRepresentation": 0,
      "PixelSpacing": [2.0, 2.0],
      "ProtocolName": "func_task-mario3_run-05",
      "RepetitionTime": 1490.0,
      "Rows": 832,
      "SAR": 0.04889920429772,
      "SamplesPerPixel": 1,
      "ScanOptions": "FS",
      "ScanningSequence": "EP",
      "SequenceName": "epfid2d1_104",
      "SequenceVariant": [
        "SK",
        "SS"
],
      "SeriesDescription": "func_task-mario3_run-05",
      "SeriesNumber": 22,
      "SeriesTime": "193538.441000",
      "SliceLocation": -25.153216874449,
      "SliceThickness": 2.0,
      "SmallestImagePixelValue": 0,
      "SoftwareVersions": "syngo MR E11",
      "SpacingBetweenSlices": 1.9999999933647,
      "SpecificCharacterSet": "ISO_IR 100",
      "StudyID": "1",
      "StudyTime": "184920.749000",
      "TransmitCoilName": "Body",
      "VariableFlipAngleFlag": "N",
      "WindowCenterWidthExplanation": "Algo1",
      "dBdt": 0.0},
    "slices": {}
  },
  "time": {
    "samples": {
      "AcquisitionNumber": [1, 2, 3, 4, 5, 6, 7, 8, 9, 10, 11, 12, 13, 14, 15, 16, 17, 18, 19, 20, 21, 22, 23, 24, 25, 26, 27, 28, 29, 30, 31, 32, 33, 34, 35, 36, 37, 38, 39, 40, 41, 42, 43, 44, 45, 46, 47, 48, 49, 50, 51, 52, 53, 54, 55, 56, 57, 58, 59, 60, 61, 62, 63, 64, 65, 66, 67, 68, 69, 70, 71, 72, 73, 74, 75, 76, 77, 78, 79, 80, 81, 82, 83, 84, 85, 86, 87, 88, 89, 90, 91, 92, 93, 94, 95, 96, 97, 98, 99, 100, 101, 102, 103, 104, 105, 106, 107, 108, 109, 110, 111, 112, 113, 114, 115, 116, 117, 118, 119, 120, 121, 122, 123, 124, 125, 126, 127, 128, 129, 130, 131, 132, 133, 134, 135, 136, 137, 138, 139, 140, 141, 142, 143, 144, 145, 146, 147, 148, 149, 150, 151, 152, 153, 154, 155, 156, 157, 158, 159, 160, 161, 162, 163, 164, 165, 166, 167, 168, 169, 170, 171, 172, 173, 174, 175, 176, 177, 178, 179, 180, 181, 182, 183, 184, 185, 186, 187, 188, 189, 190, 191, 192, 193, 194, 195, 196, 197, 198, 199, 200, 201, 202, 203, 204, 205, 206, 207, 208, 209, 210, 211, 212, 213, 214, 215, 216, 217, 218, 219, 220, 221, 222, 223, 224, 225, 226, 227, 228, 229, 230, 231, 232, 233, 234, 235, 236, 237, 238, 239, 240, 241, 242, 243, 244, 245, 246, 247, 248, 249, 250, 251, 252, 253, 254, 255, 256, 257, 258, 259, 260, 261, 262, 263, 264, 265, 266, 267, 268, 269, 270, 271, 272, 273, 274, 275, 276, 277, 278, 279, 280, 281, 282, 283, 284, 285, 286, 287, 288, 289, 290, 291, 292, 293, 294, 295, 296, 297, 298, 299, 300, 301, 302, 303, 304, 305, 306, 307, 308, 309, 310, 311, 312, 313, 314, 315, 316],
      "AcquisitionTime": ["193412.000000", "193413.490000", "193414.980000", "193416.470000", "193417.960000", "193419.450000", "193420.940000", "193422.430000", "193423.920000", "193425.410000", "193426.900000", "193428.390000", "193429.880000", "193431.370000", "193432.860000", "193434.350000", "193435.840000", "193437.330000", "193438.820000", "193440.310000", "193441.800000", "193443.290000", "193444.780000", "193446.270000", "193447.760000", "193449.250000", "193450.740000", "193452.230000", "193453.720000", "193455.210000", "193456.700000", "193458.190000", "193459.680000", "193501.170000", "193502.660000", "193504.150000", "193505.640000", "193507.130000", "193508.620000", "193510.110000", "193511.600000", "193513.090000", "193514.580000", "193516.070000", "193517.560000", "193519.050000", "193520.540000", "193522.030000", "193523.520000", "193525.010000", "193526.500000", "193527.990000", "193529.480000", "193530.970000", "193532.460000", "193533.950000", "193535.440000", "193536.930000", "193538.420000", "193539.910000", "193541.400000", "193542.890000", "193544.380000", "193545.870000", "193547.360000", "193548.850000", "193550.340000", "193551.830000", "193553.320000", "193554.810000", "193556.300000", "193557.790000", "193559.280000", "193600.770000", "193602.260000", "193603.750000", "193605.240000", "193606.730000", "193608.220000", "193609.710000", "193611.200000", "193612.690000", "193614.180000", "193615.670000", "193617.160000", "193618.650000", "193620.140000", "193621.630000", "193623.120000", "193624.610000", "193626.100000", "193627.590000", "193629.080000", "193630.570000", "193632.060000", "193633.550000", "193635.040000", "193636.530000", "193638.020000", "193639.510000", "193641.000000", "193642.490000", "193643.980000", "193645.470000", "193646.960000", "193648.450000", "193649.940000", "193651.430000", "193652.920000", "193654.410000", "193655.900000", "193657.390000", "193658.880000", "193700.370000", "193701.860000", "193703.350000", "193704.840000", "193706.330000", "193707.820000", "193709.310000", "193710.800000", "193712.290000", "193713.780000", "193715.270000", "193716.760000", "193718.250000", "193719.740000", "193721.230000", "193722.720000", "193724.210000", "193725.700000", "193727.190000", "193728.680000", "193730.170000", "193731.660000", "193733.150000", "193734.640000", "193736.130000", "193737.620000", "193739.110000", "193740.600000", "193742.090000", "193743.580000", "193745.070000", "193746.560000", "193748.050000", "193749.540000", "193751.030000", "193752.520000", "193754.010000", "193755.500000", "193756.990000", "193758.480000", "193759.970000", "193801.460000", "193802.950000", "193804.440000", "193805.930000", "193807.420000", "193808.910000", "193810.400000", "193811.890000", "193813.380000", "193814.870000", "193816.360000", "193817.850000", "193819.340000", "193820.830000", "193822.320000", "193823.810000", "193825.300000", "193826.790000", "193828.280000", "193829.770000", "193831.260000", "193832.750000", "193834.240000", "193835.730000", "193837.220000", "193838.710000", "193840.200000", "193841.690000", "193843.180000", "193844.670000", "193846.160000", "193847.650000", "193849.140000", "193850.630000", "193852.120000", "193853.610000", "193855.100000", "193856.590000", "193858.080000", "193859.570000", "193901.060000", "193902.550000", "193904.040000", "193905.530000", "193907.020000", "193908.510000", "193910.000000", "193911.490000", "193912.980000", "193914.470000", "193915.960000", "193917.450000", "193918.940000", "193920.430000", "193921.920000", "193923.410000", "193924.900000", "193926.390000", "193927.880000", "193929.370000", "193930.860000", "193932.350000", "193933.840000", "193935.330000", "193936.820000", "193938.310000", "193939.800000", "193941.290000", "193942.780000", "193944.270000", "193945.760000", "193947.250000", "193948.740000", "193950.230000", "193951.720000", "193953.210000", "193954.700000", "193956.190000", "193957.680000", "193959.170000", "194000.660000", "194002.150000", "194003.640000", "194005.130000", "194006.620000", "194008.110000", "194009.600000", "194011.090000", "194012.580000", "194014.070000", "194015.560000", "194017.050000", "194018.540000", "194020.030000", "194021.520000", "194023.010000", "194024.500000", "194025.990000", "194027.480000", "194028.970000", "194030.460000", "194031.950000", "194033.440000", "194034.930000", "194036.420000", "194037.910000", "194039.400000", "194040.890000", "194042.380000", "194043.870000", "194045.360000", "194046.850000", "194048.340000", "194049.830000", "194051.320000", "194052.810000", "194054.300000", "194055.790000", "194057.280000", "194058.770000", "194100.260000", "194101.750000", "194103.240000", "194104.730000", "194106.220000", "194107.710000", "194109.200000", "194110.690000", "194112.180000", "194113.670000", "194115.160000", "194116.650000", "194118.140000", "194119.630000", "194121.120000", "194122.610000", "194124.100000", "194125.590000", "194127.080000", "194128.570000", "194130.060000", "194131.550000", "194133.040000", "194134.530000", "194136.020000", "194137.510000", "194139.000000", "194140.490000", "194141.980000", "194143.470000", "194144.960000", "194146.450000", "194147.940000", "194149.430000", "194150.920000", "194152.410000", "194153.900000", "194155.390000", "194156.880000", "194158.370000", "194159.860000", "194201.350000"],
      "ContentTime": ["193538.445000", "193538.448000", "193538.452000", "193538.455000", "193538.458000", "193538.461000", "193538.479000", "193538.482000", "193538.486000", "193538.489000", "193538.492000", "193538.495000", "193538.499000", "193538.502000", "193538.505000", "193538.508000", "193538.512000", "193538.515000", "193538.518000", "193538.521000", "193538.525000", "193538.528000", "193538.531000", "193538.535000", "193538.545000", "193538.548000", "193538.552000", "193538.555000", "193538.558000", "193538.562000", "193538.565000", "193538.575000", "193538.578000", "193538.581000", "193538.584000", "193538.588000", "193538.591000", "193558.402000", "193558.406000", "193558.409000", "193558.412000", "193558.415000", "193558.419000", "193558.422000", "193558.425000", "193558.429000", "193558.432000", "193558.435000", "193558.438000", "193558.442000", "193558.445000", "193558.448000", "193558.451000", "193558.455000", "193558.458000", "193558.461000", "193558.464000", "193618.402000", "193618.406000", "193618.409000", "193618.413000", "193618.416000", "193618.419000", "193618.422000", "193618.426000", "193618.429000", "193618.432000", "193618.435000", "193618.439000", "193618.442000", "193618.445000", "193618.448000", "193618.452000", "193618.455000", "193618.458000", "193618.462000", "193618.465000", "193638.402000", "193638.406000", "193638.409000", "193638.412000", "193638.416000", "193638.419000", "193638.422000", "193638.426000", "193638.429000", "193638.432000", "193638.436000", "193638.439000", "193638.442000", "193638.446000", "193638.450000", "193638.453000", "193638.456000", "193638.459000", "193638.463000", "193638.466000", "193718.402000", "193718.406000", "193718.409000", "193718.412000", "193718.416000", "193718.419000", "193718.422000", "193718.425000", "193718.429000", "193718.432000", "193718.435000", "193718.439000", "193718.442000", "193718.445000", "193718.448000", "193718.452000", "193718.455000", "193718.458000", "193718.462000", "193718.465000", "193718.468000", "193718.472000", "193718.475000", "193718.478000", "193718.481000", "193718.485000", "193718.488000", "193758.403000", "193758.407000", "193758.410000", "193758.414000", "193758.417000", "193758.420000", "193758.424000", "193758.427000", "193758.430000", "193758.434000", "193758.437000", "193758.440000", "193758.443000", "193758.447000", "193758.450000", "193758.453000", "193758.457000", "193758.460000", "193758.463000", "193758.467000", "193758.471000", "193758.474000", "193758.477000", "193758.481000", "193758.484000", "193758.487000", "193758.490000", "193838.402000", "193838.406000", "193838.409000", "193838.412000", "193838.425000", "193838.437000", "193838.440000", "193838.443000", "193838.447000", "193838.450000", "193838.453000", "193838.457000", "193838.460000", "193838.463000", "193838.467000", "193838.470000", "193838.473000", "193838.477000", "193838.480000", "193838.483000", "193838.486000", "193838.490000", "193838.493000", "193838.496000", "193838.499000", "193838.503000", "193838.506000", "193918.402000", "193918.406000", "193918.409000", "193918.412000", "193918.416000", "193918.419000", "193918.422000", "193918.426000", "193918.429000", "193918.432000", "193918.436000", "193918.439000", "193918.442000", "193918.445000", "193918.449000", "193918.452000", "193918.455000", "193918.459000", "193918.462000", "193918.465000", "193918.469000", "193918.472000", "193918.475000", "193918.478000", "193918.482000", "193918.485000", "193918.503000", "193958.403000", "193958.407000", "193958.410000", "193958.413000", "193958.417000", "193958.420000", "193958.424000", "193958.427000", "193958.430000", "193958.434000", "193958.437000", "193958.440000", "193958.443000", "193958.447000", "193958.450000", "193958.453000", "193958.457000", "193958.460000", "193958.463000", "193958.466000", "193958.470000", "193958.473000", "193958.476000", "193958.480000", "193958.483000", "193958.486000", "193958.490000", "194038.402000", "194038.406000", "194038.409000", "194038.413000", "194038.416000", "194038.419000", "194038.423000", "194038.426000", "194038.429000", "194038.433000", "194038.436000", "194038.439000", "194038.442000", "194038.446000", "194038.450000", "194038.453000", "194038.457000", "194038.461000", "194038.465000", "194038.469000", "194038.472000", "194038.476000", "194038.479000", "194038.482000", "194038.486000", "194038.489000", "194118.402000", "194118.406000", "194118.409000", "194118.413000", "194118.416000", "194118.419000", "194118.423000", "194118.426000", "194118.429000", "194118.433000", "194118.436000", "194118.439000", "194118.442000", "194118.446000", "194118.449000", "194118.452000", "194118.456000", "194118.459000", "194118.462000", "194118.466000", "194118.469000", "194118.472000", "194118.475000", "194118.479000", "194118.482000", "194118.485000", "194118.489000", "194158.419000", "194158.423000", "194158.426000", "194158.429000", "194158.432000", "194158.436000", "194158.439000", "194158.442000", "194158.446000", "194158.449000", "194158.452000", "194158.456000", "194158.459000", "194158.462000", "194158.466000", "194158.469000", "194158.472000", "194158.476000", "194158.479000", "194158.482000", "194158.486000", "194158.489000", "194158.492000", "194158.495000", "194158.499000", "194158.502000", "194158.505000", "194203.726000", "194203.729000", "194203.733000", "194203.736000"],
      "InstanceCreationTime": ["193538.445000", "193538.448000", "193538.452000", "193538.455000", "193538.458000", "193538.461000", "193538.479000", "193538.482000", "193538.486000", "193538.489000", "193538.492000", "193538.495000", "193538.499000", "193538.502000", "193538.505000", "193538.508000", "193538.512000", "193538.515000", "193538.518000", "193538.521000", "193538.525000", "193538.528000", "193538.531000", "193538.535000", "193538.545000", "193538.548000", "193538.552000", "193538.555000", "193538.558000", "193538.562000", "193538.565000", "193538.575000", "193538.578000", "193538.581000", "193538.584000", "193538.588000", "193538.591000", "193558.402000", "193558.406000", "193558.409000", "193558.412000", "193558.415000", "193558.419000", "193558.422000", "193558.425000", "193558.429000", "193558.432000", "193558.435000", "193558.438000", "193558.442000", "193558.445000", "193558.448000", "193558.451000", "193558.455000", "193558.458000", "193558.461000", "193558.464000", "193618.402000", "193618.406000", "193618.409000", "193618.413000", "193618.416000", "193618.419000", "193618.422000", "193618.426000", "193618.429000", "193618.432000", "193618.435000", "193618.439000", "193618.442000", "193618.445000", "193618.448000", "193618.452000", "193618.455000", "193618.458000", "193618.462000", "193618.465000", "193638.402000", "193638.406000", "193638.409000", "193638.412000", "193638.416000", "193638.419000", "193638.422000", "193638.426000", "193638.429000", "193638.432000", "193638.436000", "193638.439000", "193638.442000", "193638.446000", "193638.450000", "193638.453000", "193638.456000", "193638.459000", "193638.463000", "193638.466000", "193718.402000", "193718.406000", "193718.409000", "193718.412000", "193718.416000", "193718.419000", "193718.422000", "193718.425000", "193718.429000", "193718.432000", "193718.435000", "193718.439000", "193718.442000", "193718.445000", "193718.448000", "193718.452000", "193718.455000", "193718.458000", "193718.462000", "193718.465000", "193718.468000", "193718.472000", "193718.475000", "193718.478000", "193718.481000", "193718.485000", "193718.488000", "193758.403000", "193758.407000", "193758.410000", "193758.414000", "193758.417000", "193758.420000", "193758.424000", "193758.427000", "193758.430000", "193758.434000", "193758.437000", "193758.440000", "193758.443000", "193758.447000", "193758.450000", "193758.453000", "193758.457000", "193758.460000", "193758.463000", "193758.467000", "193758.471000", "193758.474000", "193758.477000", "193758.481000", "193758.484000", "193758.487000", "193758.490000", "193838.402000", "193838.406000", "193838.409000", "193838.412000", "193838.425000", "193838.437000", "193838.440000", "193838.443000", "193838.447000", "193838.450000", "193838.453000", "193838.457000", "193838.460000", "193838.463000", "193838.467000", "193838.470000", "193838.473000", "193838.477000", "193838.480000", "193838.483000", "193838.486000", "193838.490000", "193838.493000", "193838.496000", "193838.499000", "193838.503000", "193838.506000", "193918.402000", "193918.406000", "193918.409000", "193918.412000", "193918.416000", "193918.419000", "193918.422000", "193918.426000", "193918.429000", "193918.432000", "193918.436000", "193918.439000", "193918.442000", "193918.445000", "193918.449000", "193918.452000", "193918.455000", "193918.459000", "193918.462000", "193918.465000", "193918.469000", "193918.472000", "193918.475000", "193918.478000", "193918.482000", "193918.485000", "193918.503000", "193958.403000", "193958.407000", "193958.410000", "193958.413000", "193958.417000", "193958.420000", "193958.424000", "193958.427000", "193958.430000", "193958.434000", "193958.437000", "193958.440000", "193958.443000", "193958.447000", "193958.450000", "193958.453000", "193958.457000", "193958.460000", "193958.463000", "193958.466000", "193958.470000", "193958.473000", "193958.476000", "193958.480000", "193958.483000", "193958.486000", "193958.490000", "194038.402000", "194038.406000", "194038.409000", "194038.413000", "194038.416000", "194038.419000", "194038.423000", "194038.426000", "194038.429000", "194038.433000", "194038.436000", "194038.439000", "194038.442000", "194038.446000", "194038.450000", "194038.453000", "194038.457000", "194038.461000", "194038.465000", "194038.469000", "194038.472000", "194038.476000", "194038.479000", "194038.482000", "194038.486000", "194038.489000", "194118.402000", "194118.406000", "194118.409000", "194118.413000", "194118.416000", "194118.419000", "194118.423000", "194118.426000", "194118.429000", "194118.433000", "194118.436000", "194118.439000", "194118.442000", "194118.446000", "194118.449000", "194118.452000", "194118.456000", "194118.459000", "194118.462000", "194118.466000", "194118.469000", "194118.472000", "194118.475000", "194118.479000", "194118.482000", "194118.485000", "194118.489000", "194158.419000", "194158.423000", "194158.426000", "194158.429000", "194158.432000", "194158.436000", "194158.439000", "194158.442000", "194158.446000", "194158.449000", "194158.452000", "194158.456000", "194158.459000", "194158.462000", "194158.466000", "194158.469000", "194158.472000", "194158.476000", "194158.479000", "194158.482000", "194158.486000", "194158.489000", "194158.492000", "194158.495000", "194158.499000", "194158.502000", "194158.505000", "194203.726000", "194203.729000", "194203.733000", "194203.736000"],
      "InstanceNumber": [1, 2, 3, 4, 5, 6, 7, 8, 9, 10, 11, 12, 13, 14, 15, 16, 17, 18, 19, 20, 21, 22, 23, 24, 25, 26, 27, 28, 29, 30, 31, 32, 33, 34, 35, 36, 37, 38, 39, 40, 41, 42, 43, 44, 45, 46, 47, 48, 49, 50, 51, 52, 53, 54, 55, 56, 57, 58, 59, 60, 61, 62, 63, 64, 65, 66, 67, 68, 69, 70, 71, 72, 73, 74, 75, 76, 77, 78, 79, 80, 81, 82, 83, 84, 85, 86, 87, 88, 89, 90, 91, 92, 93, 94, 95, 96, 97, 98, 99, 100, 101, 102, 103, 104, 105, 106, 107, 108, 109, 110, 111, 112, 113, 114, 115, 116, 117, 118, 119, 120, 121, 122, 123, 124, 125, 126, 127, 128, 129, 130, 131, 132, 133, 134, 135, 136, 137, 138, 139, 140, 141, 142, 143, 144, 145, 146, 147, 148, 149, 150, 151, 152, 153, 154, 155, 156, 157, 158, 159, 160, 161, 162, 163, 164, 165, 166, 167, 168, 169, 170, 171, 172, 173, 174, 175, 176, 177, 178, 179, 180, 181, 182, 183, 184, 185, 186, 187, 188, 189, 190, 191, 192, 193, 194, 195, 196, 197, 198, 199, 200, 201, 202, 203, 204, 205, 206, 207, 208, 209, 210, 211, 212, 213, 214, 215, 216, 217, 218, 219, 220, 221, 222, 223, 224, 225, 226, 227, 228, 229, 230, 231, 232, 233, 234, 235, 236, 237, 238, 239, 240, 241, 242, 243, 244, 245, 246, 247, 248, 249, 250, 251, 252, 253, 254, 255, 256, 257, 258, 259, 260, 261, 262, 263, 264, 265, 266, 267, 268, 269, 270, 271, 272, 273, 274, 275, 276, 277, 278, 279, 280, 281, 282, 283, 284, 285, 286, 287, 288, 289, 290, 291, 292, 293, 294, 295, 296, 297, 298, 299, 300, 301, 302, 303, 304, 305, 306, 307, 308, 309, 310, 311, 312, 313, 314, 315, 316],
      "LargestImagePixelValue": [58344, 55471, 55850, 54657, 55147, 54647, 54690, 53957, 54371, 54426, 53806, 54599, 53467, 54054, 52970, 52513, 53032, 53217, 53030, 53023, 52972, 53218, 53440, 53536, 53554, 53126, 53701, 53001, 53173, 52626, 53019, 52489, 52815, 52490, 52945, 52484, 53407, 52573, 53501, 53204, 53801, 53806, 52692, 53828, 52974, 53599, 53203, 53037, 53733, 53671, 52902, 53368, 52888, 53534, 53815, 52601, 53487, 53196, 54735, 53210, 53088, 53844, 53436, 52879, 53885, 53378, 52068, 52166, 52320, 53553, 52507, 52919, 53106, 52988, 53389, 52983, 51000, 56876, 60751, 56906, 56368, 53356, 53669, 52607, 52554, 52507, 53204, 53555, 52684, 53995, 53322, 53231, 52731, 52829, 53132, 52869, 54297, 53255, 53133, 54254, 53549, 54013, 53078, 53735, 53719, 53316, 53148, 54261, 54173, 53998, 54829, 54941, 54698, 54622, 55583, 55653, 55792, 56727, 56366, 56201, 54909, 55111, 55397, 54576, 54739, 54746, 54383, 54131, 54256, 54370, 54037, 53054, 54537, 54208, 54611, 54163, 53471, 53743, 54020, 53993, 54534, 53566, 53804, 53413, 54466, 54562, 53676, 53674, 54174, 54796, 53856, 53234, 54294, 54156, 53875, 54791, 53963, 53797, 54572, 54386, 53488, 54486, 53802, 52587, 54280, 53693, 53303, 52858, 53778, 53016, 53210, 54723, 53798, 53758, 54094, 54185, 52983, 54216, 54017, 53509, 54737, 53965, 53587, 54111, 53473, 53049, 53797, 53819, 53042, 53854, 53292, 54638, 52632, 53911, 53308, 52828, 53447, 53236, 53071, 52400, 52632, 52045, 52343, 52553, 52061, 52638, 52323, 52879, 52515, 52261, 53100, 52994, 51948, 52410, 51938, 52159, 52024, 52900, 52259, 51852, 52728, 52486, 52910, 53070, 55653, 64794, 60406, 53017, 51836, 52084, 53000, 52399, 52310, 52232, 52290, 52027, 52509, 52366, 52641, 53261, 53632, 53543, 52768, 53688, 53626, 53532, 54611, 53164, 54267, 53879, 53358, 54047, 53872, 54024, 54164, 54114, 54707, 54089, 54632, 54161, 53997, 54100, 54629, 54329, 54872, 54465, 54759, 55128, 54235, 54650, 54324, 54724, 55061, 55116, 54691, 55455, 55328, 54614, 54732, 54974, 55193, 55637, 55147, 55339, 55541, 54090, 55353, 54826, 54578, 54768, 54169, 55343, 54876, 54641, 55401, 54369, 55299, 55130, 54595, 54306, 55035, 55300, 55070, 54964, 55273, 55552, 54517, 55513, 55199, 55109, 54767, 55244, 55185, 54582, 55130, 55213],
      "WindowCenter": [10564.0, 10514.0, 10505.0, 10497.0, 10494.0, 10483.0, 10475.0, 10474.0, 10480.0, 10488.0, 10499.0, 10512.0, 10511.0, 10518.0, 10497.0, 10505.0, 10506.0, 10496.0, 10494.0, 10488.0, 10478.0, 10476.0, 10476.0, 10467.0, 10460.0, 10447.0, 10456.0, 10460.0, 10452.0, 10454.0, 10459.0, 10446.0, 10473.0, 10494.0, 10488.0, 10481.0, 10478.0, 10450.0, 10436.0, 10409.0, 10419.0, 10436.0, 10448.0, 10464.0, 10467.0, 10467.0, 10454.0, 10458.0, 10464.0, 10473.0, 10469.0, 10480.0, 10478.0, 10503.0, 10498.0, 10502.0, 10505.0, 10497.0, 10498.0, 10510.0, 10501.0, 10496.0, 10464.0, 10468.0, 10472.0, 10469.0, 10476.0, 10476.0, 10473.0, 10487.0, 10495.0, 10493.0, 10484.0, 10495.0, 10474.0, 10407.0, 10352.0, 10404.0, 10434.0, 10410.0, 10402.0, 10413.0, 10482.0, 10492.0, 10470.0, 10442.0, 10420.0, 10415.0, 10422.0, 10447.0, 10455.0, 10476.0, 10499.0, 10519.0, 10518.0, 10518.0, 10530.0, 10516.0, 10525.0, 10511.0, 10517.0, 10520.0, 10508.0, 10499.0, 10489.0, 10480.0, 10472.0, 10483.0, 10477.0, 10483.0, 10496.0, 10514.0, 10515.0, 10506.0, 10518.0, 10525.0, 10526.0, 10545.0, 10553.0, 10555.0, 10549.0, 10549.0, 10553.0, 10543.0, 10521.0, 10505.0, 10487.0, 10484.0, 10492.0, 10496.0, 10507.0, 10505.0, 10511.0, 10493.0, 10496.0, 10500.0, 10490.0, 10494.0, 10488.0, 10478.0, 10469.0, 10456.0, 10454.0, 10455.0, 10468.0, 10481.0, 10470.0, 10463.0, 10473.0, 10472.0, 10470.0, 10464.0, 10474.0, 10469.0, 10468.0, 10480.0, 10490.0, 10493.0, 10511.0, 10514.0, 10512.0, 10524.0, 10521.0, 10507.0, 10516.0, 10504.0, 10510.0, 10505.0, 10503.0, 10496.0, 10497.0, 10506.0, 10493.0, 10492.0, 10477.0, 10468.0, 10447.0, 10455.0, 10465.0, 10466.0, 10486.0, 10491.0, 10487.0, 10491.0, 10486.0, 10477.0, 10491.0, 10494.0, 10497.0, 10516.0, 10504.0, 10531.0, 10479.0, 10493.0, 10485.0, 10496.0, 10518.0, 10495.0, 10497.0, 10482.0, 10473.0, 10474.0, 10473.0, 10478.0, 10480.0, 10475.0, 10480.0, 10479.0, 10473.0, 10480.0, 10508.0, 10511.0, 10500.0, 10513.0, 10510.0, 10508.0, 10494.0, 10498.0, 10493.0, 10480.0, 10491.0, 10483.0, 10494.0, 10494.0, 10435.0, 10459.0, 10438.0, 10441.0, 10433.0, 10438.0, 10441.0, 10444.0, 10449.0, 10469.0, 10480.0, 10473.0, 10465.0, 10442.0, 10431.0, 10446.0, 10464.0, 10470.0, 10462.0, 10478.0, 10476.0, 10476.0, 10489.0, 10468.0, 10495.0, 10502.0, 10506.0, 10494.0, 10477.0, 10465.0, 10456.0, 10459.0, 10473.0, 10470.0, 10494.0, 10478.0, 10493.0, 10489.0, 10491.0, 10476.0, 10469.0, 10464.0, 10479.0, 10489.0, 10485.0, 10489.0, 10476.0, 10480.0, 10479.0, 10496.0, 10496.0, 10493.0, 10510.0, 10480.0, 10488.0, 10486.0, 10478.0, 10475.0, 10475.0, 10460.0, 10466.0, 10462.0, 10473.0, 10484.0, 10492.0, 10495.0, 10496.0, 10507.0, 10506.0, 10504.0, 10521.0, 10500.0, 10521.0, 10535.0, 10530.0, 10506.0, 10487.0, 10474.0, 10459.0, 10464.0, 10463.0, 10465.0, 10473.0, 10479.0, 10481.0, 10475.0, 10476.0, 10487.0, 10491.0, 10485.0, 10491.0, 10478.0],
