{
  "AcquisitionMatrixPE": 104,
  "AcquisitionNumber": 1,
  "AcquisitionTime": "19:03:6.162500",
  "BandwidthPerPixelPhaseEncode": 17.17,
  "BaseResolution": 104,
  "BodyPartExamined": "BRAIN",
  "CoilCombinationMethod": "Sum of Squares",
  "ConsistencyInfo": "N4_VE11C_LATEST_20160120",
  "ConversionSoftware": "dcm2niix",
  "ConversionSoftwareVersion": "v1.0.20220505",
  "DerivedVendorReportedEchoSpacing": 0.000560011,
  "DeviceSerialNumber": "167006",
  "DwellTime": 2.1e-06,
  "EchoTime": 0.037,
  "EchoTrainLength": 104,
  "EffectiveEchoSpacing": 0.000560011,
  "FlipAngle": 52,
  "HeudiconvVersion": "0.5.3.post811+g6206e14",
  "ImageComments": "Unaliased MB4/PE3/LB",
  "ImageOrientationPatientDICOM": [0.999758, -0.0113229, 0.0188841, 0.0176254, 0.925581, -0.37814],
  "ImageOrientationText": "Tra>Cor(-22.2)>Sag(0.8)",
  "ImageType": [
    "ORIGINAL",
    "PRIMARY",
    "M",
    "MB",
    "ND",
    "MOSAIC"
],
  "ImagingFrequency": 123.259,
  "InPlanePhaseEncodingDirectionDICOM": "COL",
  "InstitutionAddress": "Chemin Queen-Mary 4565,Montreal,District,CA,H3W 1W5",
  "InstitutionName": "IUGM",
  "InstitutionalDepartmentName": "Department",
  "MRAcquisitionType": "2D",
  "MagneticFieldStrength": 3,
  "Manufacturer": "Siemens",
  "ManufacturersModelName": "Prisma_fit",
  "MatrixCoilMode": "SENSE",
  "Modality": "MR",
  "MultibandAccelerationFactor": 4,
  "PartialFourier": 1,
  "PatientPosition": "HFS",
  "PercentPhaseFOV": 100,
  "PercentSampling": 100,
  "PhaseEncodingDirection": "j",
  "PhaseEncodingSteps": 104,
  "PhaseResolution": 1,
  "PixelBandwidth": 2290,
  "ProcedureStepDescription": "games^mario3",
  "ProtocolName": "func_task-mario3_run-02",
  "PulseSequenceDetails": "%CustomerSeq%\\cmrr_mbep2d_bold",
  "ReceiveCoilActiveElements": "HC1-7;NC1,2",
  "ReceiveCoilName": "HeadNeck_64",
  "ReconMatrixPE": 104,
  "RepetitionTime": 1.49,
  "SAR": 0.0488992,
  "ScanOptions": "FS",
  "ScanningSequence": "EP",
  "SequenceName": "epfid2d1_104",
  "SequenceVariant": "SK\\SS",
  "SeriesDescription": "func_task-mario3_run-02",
  "SeriesNumber": 13,
  "ShimSetting": [581, -7286, -8780, 451, 0, -324, -29, 101],
  "SliceThickness": 2,
  "SliceTiming": [0, 0.785, 0.0975, 0.8825, 0.195, 0.98, 0.295, 1.0775, 0.3925, 1.175, 0.49, 1.275, 0.5875, 1.3725, 0.685, 0, 0.785, 0.0975, 0.8825, 0.195, 0.98, 0.295, 1.0775, 0.3925, 1.175, 0.49, 1.275, 0.5875, 1.3725, 0.685, 0, 0.785, 0.0975, 0.8825, 0.195, 0.98, 0.295, 1.0775, 0.3925, 1.175, 0.49, 1.275, 0.5875, 1.3725, 0.685, 0, 0.785, 0.0975, 0.8825, 0.195, 0.98, 0.295, 1.0775, 0.3925, 1.175, 0.49, 1.275, 0.5875, 1.3725, 0.685],
  "SoftwareVersions": "syngo MR E11",
  "SpacingBetweenSlices": 2,
  "StationName": "MRC35049",
  "TaskName": "mario3",
  "TotalReadoutTime": 0.0576811,
  "TxRefAmp": 252.799,
  "WipMemBlock": "07b895fa-d512-4344-a704-44272b77c965||Sequence: R017 ve11c/master r/75a17815+; Jun 28 2022 16:32:11 by eja",
  "dcmmeta_affine": [
    [-1.999515175819397, 0.035250816494226456, 0.02639419212937355, 101.39836883544922],
    [0.022645890712738037, 1.8511611223220825, -0.7567625641822815, -69.7623062133789],
    [0.037768200039863586, 0.756280243396759, 1.8511115312576294, -57.14202880859375],
    [0.0, 0.0, 0.0, 1.0]
],
  "dcmmeta_reorient_transform": [
    [0.0, -1.0, 0.0, 103.0],
    [1.0, 0.0, 0.0, 0.0],
    [0.0, 0.0, 1.0, 0.0],
    [0.0, 0.0, 0.0, 1.0]
],
  "dcmmeta_shape": [104, 104, 60, 303],
  "dcmmeta_slice_dim": 2,
  "dcmmeta_version": 0.6,
  "global": {
    "const": {
      "AcquisitionMatrix": [104, 0, 0, 104],
      "AngioFlag": "N",
      "BitsAllocated": 16,
      "BitsStored": 16,
      "BodyPartExamined": "BRAIN",
      "Columns": 832,
      "EchoNumbers": 1,
      "EchoTime": 37.0,
      "EchoTrainLength": 104,
      "FlipAngle": 52.0,
      "HighBit": 15,
      "ImageOrientationPatient": [0.99975756144118, -0.0113229456562, 0.01888410026599, 0.01762540758539, 0.92558057015621, -0.3781401237065],
      "ImagePositionPatient": [-845.68400194041, -786.48683889956, 282.2932215092],
      "ImageType": [
        "ORIGINAL",
        "PRIMARY",
        "M",
        "MB",
        "ND",
        "MOSAIC"
],
      "ImagedNucleus": "1H",
      "ImagingFrequency": 123.258727,
      "InPlanePhaseEncodingDirection": "COL",
      "MRAcquisitionType": "2D",
      "MagneticFieldStrength": 3.0,
      "Manufacturer": "SIEMENS",
      "ManufacturerModelName": "Prisma_fit",
      "Modality": "MR",
      "NumberOfAverages": 1.0,
      "NumberOfPhaseEncodingSteps": 104,
      "PercentPhaseFieldOfView": 100.0,
      "PercentSampling": 100.0,
      "PerformedProcedureStepStartTime": "184920.807000",
      "PhotometricInterpretation": "MONOCHROME2",
      "PixelBandwidth": 2290.0,
      "PixelRepresentation": 0,
      "PixelSpacing": [2.0, 2.0],
      "ProtocolName": "func_task-mario3_run-02",
      "RepetitionTime": 1490.0,
      "Rows": 832,
      "SAR": 0.04889920429772,
      "SamplesPerPixel": 1,
      "ScanOptions": "FS",
      "ScanningSequence": "EP",
      "SequenceName": "epfid2d1_104",
      "SequenceVariant": [
        "SK",
        "SS"
],
      "SeriesDescription": "func_task-mario3_run-02",
      "SeriesNumber": 13,
      "SeriesTime": "190418.439000",
      "SliceLocation": -25.153216874449,
      "SliceThickness": 2.0,
      "SmallestImagePixelValue": 0,
      "SoftwareVersions": "syngo MR E11",
      "SpacingBetweenSlices": 1.9999999933647,
      "SpecificCharacterSet": "ISO_IR 100",
      "StudyID": "1",
      "StudyTime": "184920.749000",
      "TransmitCoilName": "Body",
      "VariableFlipAngleFlag": "N",
      "WindowCenterWidthExplanation": "Algo1",
      "dBdt": 0.0},
    "slices": {}
  },
  "time": {
    "samples": {
      "AcquisitionNumber": [1, 2, 3, 4, 5, 6, 7, 8, 9, 10, 11, 12, 13, 14, 15, 16, 17, 18, 19, 20, 21, 22, 23, 24, 25, 26, 27, 28, 29, 30, 31, 32, 33, 34, 35, 36, 37, 38, 39, 40, 41, 42, 43, 44, 45, 46, 47, 48, 49, 50, 51, 52, 53, 54, 55, 56, 57, 58, 59, 60, 61, 62, 63, 64, 65, 66, 67, 68, 69, 70, 71, 72, 73, 74, 75, 76, 77, 78, 79, 80, 81, 82, 83, 84, 85, 86, 87, 88, 89, 90, 91, 92, 93, 94, 95, 96, 97, 98, 99, 100, 101, 102, 103, 104, 105, 106, 107, 108, 109, 110, 111, 112, 113, 114, 115, 116, 117, 118, 119, 120, 121, 122, 123, 124, 125, 126, 127, 128, 129, 130, 131, 132, 133, 134, 135, 136, 137, 138, 139, 140, 141, 142, 143, 144, 145, 146, 147, 148, 149, 150, 151, 152, 153, 154, 155, 156, 157, 158, 159, 160, 161, 162, 163, 164, 165, 166, 167, 168, 169, 170, 171, 172, 173, 174, 175, 176, 177, 178, 179, 180, 181, 182, 183, 184, 185, 186, 187, 188, 189, 190, 191, 192, 193, 194, 195, 196, 197, 198, 199, 200, 201, 202, 203, 204, 205, 206, 207, 208, 209, 210, 211, 212, 213, 214, 215, 216, 217, 218, 219, 220, 221, 222, 223, 224, 225, 226, 227, 228, 229, 230, 231, 232, 233, 234, 235, 236, 237, 238, 239, 240, 241, 242, 243, 244, 245, 246, 247, 248, 249, 250, 251, 252, 253, 254, 255, 256, 257, 258, 259, 260, 261, 262, 263, 264, 265, 266, 267, 268, 269, 270, 271, 272, 273, 274, 275, 276, 277, 278, 279, 280, 281, 282, 283, 284, 285, 286, 287, 288, 289, 290, 291, 292, 293, 294, 295, 296, 297, 298, 299, 300, 301, 302, 303],
      "AcquisitionTime": ["190306.162500", "190307.652500", "190309.142500", "190310.632500", "190312.122500", "190313.612500", "190315.102500", "190316.592500", "190318.082500", "190319.572500", "190321.062500", "190322.552500", "190324.042500", "190325.532500", "190327.022500", "190328.512500", "190330.002500", "190331.492500", "190332.982500", "190334.472500", "190335.962500", "190337.452500", "190338.942500", "190340.432500", "190341.922500", "190343.412500", "190344.902500", "190346.392500", "190347.882500", "190349.372500", "190350.862500", "190352.352500", "190353.842500", "190355.332500", "190356.822500", "190358.312500", "190359.802500", "190401.292500", "190402.782500", "190404.272500", "190405.762500", "190407.252500", "190408.742500", "190410.232500", "190411.722500", "190413.212500", "190414.702500", "190416.192500", "190417.682500", "190419.172500", "190420.662500", "190422.152500", "190423.642500", "190425.132500", "190426.622500", "190428.112500", "190429.602500", "190431.092500", "190432.582500", "190434.072500", "190435.562500", "190437.052500", "190438.542500", "190440.032500", "190441.522500", "190443.012500", "190444.502500", "190445.992500", "190447.482500", "190448.972500", "190450.462500", "190451.952500", "190453.442500", "190454.932500", "190456.422500", "190457.912500", "190459.402500", "190500.892500", "190502.382500", "190503.872500", "190505.362500", "190506.852500", "190508.342500", "190509.832500", "190511.322500", "190512.812500", "190514.302500", "190515.792500", "190517.282500", "190518.772500", "190520.262500", "190521.752500", "190523.242500", "190524.732500", "190526.222500", "190527.712500", "190529.202500", "190530.692500", "190532.182500", "190533.672500", "190535.162500", "190536.652500", "190538.142500", "190539.632500", "190541.122500", "190542.612500", "190544.102500", "190545.592500", "190547.082500", "190548.572500", "190550.062500", "190551.552500", "190553.042500", "190554.532500", "190556.022500", "190557.512500", "190559.002500", "190600.492500", "190601.982500", "190603.472500", "190604.962500", "190606.452500", "190607.942500", "190609.432500", "190610.922500", "190612.412500", "190613.902500", "190615.392500", "190616.882500", "190618.372500", "190619.862500", "190621.352500", "190622.842500", "190624.332500", "190625.822500", "190627.312500", "190628.802500", "190630.292500", "190631.782500", "190633.272500", "190634.762500", "190636.252500", "190637.742500", "190639.232500", "190640.722500", "190642.212500", "190643.702500", "190645.192500", "190646.682500", "190648.172500", "190649.662500", "190651.152500", "190652.642500", "190654.132500", "190655.622500", "190657.112500", "190658.602500", "190700.092500", "190701.582500", "190703.072500", "190704.562500", "190706.052500", "190707.542500", "190709.032500", "190710.522500", "190712.012500", "190713.502500", "190714.992500", "190716.482500", "190717.972500", "190719.462500", "190720.952500", "190722.442500", "190723.932500", "190725.422500", "190726.912500", "190728.402500", "190729.892500", "190731.382500", "190732.872500", "190734.362500", "190735.852500", "190737.342500", "190738.832500", "190740.322500", "190741.812500", "190743.302500", "190744.792500", "190746.282500", "190747.772500", "190749.262500", "190750.752500", "190752.242500", "190753.732500", "190755.222500", "190756.712500", "190758.202500", "190759.692500", "190801.182500", "190802.672500", "190804.162500", "190805.652500", "190807.142500", "190808.632500", "190810.122500", "190811.612500", "190813.102500", "190814.592500", "190816.082500", "190817.572500", "190819.062500", "190820.552500", "190822.042500", "190823.532500", "190825.022500", "190826.512500", "190828.002500", "190829.492500", "190830.982500", "190832.472500", "190833.962500", "190835.452500", "190836.942500", "190838.432500", "190839.922500", "190841.412500", "190842.902500", "190844.392500", "190845.882500", "190847.372500", "190848.862500", "190850.352500", "190851.842500", "190853.332500", "190854.822500", "190856.312500", "190857.802500", "190859.292500", "190900.782500", "190902.272500", "190903.762500", "190905.252500", "190906.742500", "190908.232500", "190909.722500", "190911.212500", "190912.702500", "190914.192500", "190915.682500", "190917.172500", "190918.662500", "190920.152500", "190921.642500", "190923.132500", "190924.622500", "190926.112500", "190927.602500", "190929.092500", "190930.582500", "190932.072500", "190933.562500", "190935.052500", "190936.542500", "190938.032500", "190939.522500", "190941.012500", "190942.502500", "190943.992500", "190945.482500", "190946.972500", "190948.462500", "190949.952500", "190951.442500", "190952.932500", "190954.422500", "190955.912500", "190957.402500", "190958.892500", "191000.382500", "191001.872500", "191003.362500", "191004.852500", "191006.342500", "191007.832500", "191009.322500", "191010.812500", "191012.302500", "191013.792500", "191015.282500", "191016.772500", "191018.262500", "191019.752500", "191021.242500", "191022.732500", "191024.222500", "191025.712500", "191027.202500", "191028.692500", "191030.182500", "191031.672500", "191033.162500", "191034.652500", "191036.142500"],
      "ContentTime": ["190418.443000", "190418.447000", "190418.450000", "190418.453000", "190418.457000", "190418.460000", "190418.463000", "190418.467000", "190418.470000", "190418.473000", "190418.483000", "190418.486000", "190418.490000", "190418.493000", "190418.496000", "190418.499000", "190418.503000", "190418.506000", "190418.509000", "190418.512000", "190438.402000", "190438.406000", "190438.409000", "190438.412000", "190438.415000", "190438.419000", "190438.422000", "190438.425000", "190438.428000", "190438.432000", "190438.435000", "190438.438000", "190438.441000", "190438.445000", "190438.448000", "190438.451000", "190438.454000", "190438.458000", "190438.461000", "190438.464000", "190458.402000", "190458.406000", "190458.414000", "190458.418000", "190458.421000", "190458.424000", "190458.427000", "190458.430000", "190458.434000", "190458.437000", "190458.440000", "190458.443000", "190458.447000", "190458.450000", "190458.453000", "190458.456000", "190458.460000", "190458.463000", "190458.466000", "190458.469000", "190518.403000", "190518.407000", "190518.410000", "190518.413000", "190518.428000", "190518.432000", "190518.435000", "190518.438000", "190518.442000", "190518.445000", "190518.448000", "190518.451000", "190518.455000", "190518.458000", "190518.461000", "190518.464000", "190518.468000", "190518.471000", "190518.474000", "190518.477000", "190518.481000", "190538.403000", "190538.406000", "190538.409000", "190538.413000", "190538.416000", "190538.419000", "190538.422000", "190538.426000", "190538.429000", "190538.432000", "190538.436000", "190538.439000", "190538.442000", "190538.445000", "190538.449000", "190538.452000", "190538.455000", "190538.459000", "190538.462000", "190538.465000", "190618.402000", "190618.406000", "190618.409000", "190618.412000", "190618.416000", "190618.419000", "190618.422000", "190618.426000", "190618.429000", "190618.432000", "190618.436000", "190618.439000", "190618.442000", "190618.445000", "190618.448000", "190618.452000", "190618.455000", "190618.458000", "190618.462000", "190618.465000", "190618.468000", "190618.471000", "190618.475000", "190618.478000", "190618.481000", "190618.489000", "190618.492000", "190658.402000", "190658.406000", "190658.409000", "190658.412000", "190658.416000", "190658.419000", "190658.422000", "190658.426000", "190658.429000", "190658.432000", "190658.436000", "190658.439000", "190658.442000", "190658.445000", "190658.449000", "190658.452000", "190658.455000", "190658.458000", "190658.462000", "190658.465000", "190658.469000", "190658.472000", "190658.475000", "190658.478000", "190658.482000", "190658.485000", "190658.488000", "190738.418000", "190738.422000", "190738.425000", "190738.428000", "190738.431000", "190738.435000", "190738.438000", "190738.441000", "190738.445000", "190738.448000", "190738.451000", "190738.454000", "190738.458000", "190738.461000", "190738.464000", "190738.467000", "190738.471000", "190738.474000", "190738.477000", "190738.481000", "190738.484000", "190738.487000", "190738.491000", "190738.494000", "190738.497000", "190738.500000", "190738.504000", "190818.402000", "190818.406000", "190818.409000", "190818.412000", "190818.416000", "190818.419000", "190818.422000", "190818.426000", "190818.429000", "190818.432000", "190818.435000", "190818.439000", "190818.442000", "190818.445000", "190818.448000", "190818.452000", "190818.455000", "190818.458000", "190818.461000", "190818.465000", "190818.468000", "190818.471000", "190818.475000", "190818.478000", "190818.481000", "190818.484000", "190818.488000", "190858.402000", "190858.406000", "190858.409000", "190858.412000", "190858.416000", "190858.419000", "190858.422000", "190858.426000", "190858.429000", "190858.432000", "190858.436000", "190858.439000", "190858.442000", "190858.445000", "190858.449000", "190858.452000", "190858.455000", "190858.459000", "190858.462000", "190858.465000", "190858.468000", "190858.472000", "190858.475000", "190858.478000", "190858.481000", "190858.485000", "190858.488000", "190938.402000", "190938.406000", "190938.410000", "190938.414000", "190938.417000", "190938.420000", "190938.424000", "190938.427000", "190938.430000", "190938.434000", "190938.437000", "190938.451000", "190938.454000", "190938.457000", "190938.461000", "190938.464000", "190938.467000", "190938.470000", "190938.474000", "190938.477000", "190938.480000", "190938.484000", "190938.487000", "190938.490000", "190938.493000", "190938.497000", "191018.402000", "191018.406000", "191018.409000", "191018.412000", "191018.416000", "191018.419000", "191018.422000", "191018.426000", "191018.429000", "191018.432000", "191018.435000", "191018.439000", "191018.442000", "191018.445000", "191018.449000", "191018.452000", "191018.455000", "191018.458000", "191018.462000", "191018.465000", "191018.468000", "191018.472000", "191018.475000", "191018.478000", "191018.481000", "191018.485000", "191018.488000", "191039.130000", "191039.135000", "191039.139000", "191039.142000", "191039.146000", "191039.149000", "191039.152000", "191039.156000", "191039.159000", "191039.162000", "191039.166000", "191039.169000", "191039.172000", "191039.175000"],
      "InstanceCreationTime": ["190418.443000", "190418.447000", "190418.450000", "190418.453000", "190418.457000", "190418.460000", "190418.463000", "190418.467000", "190418.470000", "190418.473000", "190418.483000", "190418.486000", "190418.490000", "190418.493000", "190418.496000", "190418.499000", "190418.503000", "190418.506000", "190418.509000", "190418.512000", "190438.402000", "190438.406000", "190438.409000", "190438.412000", "190438.415000", "190438.419000", "190438.422000", "190438.425000", "190438.428000", "190438.432000", "190438.435000", "190438.438000", "190438.441000", "190438.445000", "190438.448000", "190438.451000", "190438.454000", "190438.458000", "190438.461000", "190438.464000", "190458.402000", "190458.406000", "190458.414000", "190458.418000", "190458.421000", "190458.424000", "190458.427000", "190458.430000", "190458.434000", "190458.437000", "190458.440000", "190458.443000", "190458.447000", "190458.450000", "190458.453000", "190458.456000", "190458.460000", "190458.463000", "190458.466000", "190458.469000", "190518.403000", "190518.407000", "190518.410000", "190518.413000", "190518.428000", "190518.432000", "190518.435000", "190518.438000", "190518.442000", "190518.445000", "190518.448000", "190518.451000", "190518.455000", "190518.458000", "190518.461000", "190518.464000", "190518.468000", "190518.471000", "190518.474000", "190518.477000", "190518.481000", "190538.403000", "190538.406000", "190538.409000", "190538.413000", "190538.416000", "190538.419000", "190538.422000", "190538.426000", "190538.429000", "190538.432000", "190538.436000", "190538.439000", "190538.442000", "190538.445000", "190538.449000", "190538.452000", "190538.455000", "190538.459000", "190538.462000", "190538.465000", "190618.402000", "190618.406000", "190618.409000", "190618.412000", "190618.416000", "190618.419000", "190618.422000", "190618.426000", "190618.429000", "190618.432000", "190618.436000", "190618.439000", "190618.442000", "190618.445000", "190618.448000", "190618.452000", "190618.455000", "190618.458000", "190618.462000", "190618.465000", "190618.468000", "190618.471000", "190618.475000", "190618.478000", "190618.481000", "190618.489000", "190618.492000", "190658.402000", "190658.406000", "190658.409000", "190658.412000", "190658.416000", "190658.419000", "190658.422000", "190658.426000", "190658.429000", "190658.432000", "190658.436000", "190658.439000", "190658.442000", "190658.445000", "190658.449000", "190658.452000", "190658.455000", "190658.458000", "190658.462000", "190658.465000", "190658.469000", "190658.472000", "190658.475000", "190658.478000", "190658.482000", "190658.485000", "190658.488000", "190738.418000", "190738.422000", "190738.425000", "190738.428000", "190738.431000", "190738.435000", "190738.438000", "190738.441000", "190738.445000", "190738.448000", "190738.451000", "190738.454000", "190738.458000", "190738.461000", "190738.464000", "190738.467000", "190738.471000", "190738.474000", "190738.477000", "190738.481000", "190738.484000", "190738.487000", "190738.491000", "190738.494000", "190738.497000", "190738.500000", "190738.504000", "190818.402000", "190818.406000", "190818.409000", "190818.412000", "190818.416000", "190818.419000", "190818.422000", "190818.426000", "190818.429000", "190818.432000", "190818.435000", "190818.439000", "190818.442000", "190818.445000", "190818.448000", "190818.452000", "190818.455000", "190818.458000", "190818.461000", "190818.465000", "190818.468000", "190818.471000", "190818.475000", "190818.478000", "190818.481000", "190818.484000", "190818.488000", "190858.402000", "190858.406000", "190858.409000", "190858.412000", "190858.416000", "190858.419000", "190858.422000", "190858.426000", "190858.429000", "190858.432000", "190858.436000", "190858.439000", "190858.442000", "190858.445000", "190858.449000", "190858.452000", "190858.455000", "190858.459000", "190858.462000", "190858.465000", "190858.468000", "190858.472000", "190858.475000", "190858.478000", "190858.481000", "190858.485000", "190858.488000", "190938.402000", "190938.406000", "190938.410000", "190938.414000", "190938.417000", "190938.420000", "190938.424000", "190938.427000", "190938.430000", "190938.434000", "190938.437000", "190938.451000", "190938.454000", "190938.457000", "190938.461000", "190938.464000", "190938.467000", "190938.470000", "190938.474000", "190938.477000", "190938.480000", "190938.484000", "190938.487000", "190938.490000", "190938.493000", "190938.497000", "191018.402000", "191018.406000", "191018.409000", "191018.412000", "191018.416000", "191018.419000", "191018.422000", "191018.426000", "191018.429000", "191018.432000", "191018.435000", "191018.439000", "191018.442000", "191018.445000", "191018.449000", "191018.452000", "191018.455000", "191018.458000", "191018.462000", "191018.465000", "191018.468000", "191018.472000", "191018.475000", "191018.478000", "191018.481000", "191018.485000", "191018.488000", "191039.130000", "191039.135000", "191039.139000", "191039.142000", "191039.146000", "191039.149000", "191039.152000", "191039.156000", "191039.159000", "191039.162000", "191039.166000", "191039.169000", "191039.172000", "191039.175000"],
      "InstanceNumber": [1, 2, 3, 4, 5, 6, 7, 8, 9, 10, 11, 12, 13, 14, 15, 16, 17, 18, 19, 20, 21, 22, 23, 24, 25, 26, 27, 28, 29, 30, 31, 32, 33, 34, 35, 36, 37, 38, 39, 40, 41, 42, 43, 44, 45, 46, 47, 48, 49, 50, 51, 52, 53, 54, 55, 56, 57, 58, 59, 60, 61, 62, 63, 64, 65, 66, 67, 68, 69, 70, 71, 72, 73, 74, 75, 76, 77, 78, 79, 80, 81, 82, 83, 84, 85, 86, 87, 88, 89, 90, 91, 92, 93, 94, 95, 96, 97, 98, 99, 100, 101, 102, 103, 104, 105, 106, 107, 108, 109, 110, 111, 112, 113, 114, 115, 116, 117, 118, 119, 120, 121, 122, 123, 124, 125, 126, 127, 128, 129, 130, 131, 132, 133, 134, 135, 136, 137, 138, 139, 140, 141, 142, 143, 144, 145, 146, 147, 148, 149, 150, 151, 152, 153, 154, 155, 156, 157, 158, 159, 160, 161, 162, 163, 164, 165, 166, 167, 168, 169, 170, 171, 172, 173, 174, 175, 176, 177, 178, 179, 180, 181, 182, 183, 184, 185, 186, 187, 188, 189, 190, 191, 192, 193, 194, 195, 196, 197, 198, 199, 200, 201, 202, 203, 204, 205, 206, 207, 208, 209, 210, 211, 212, 213, 214, 215, 216, 217, 218, 219, 220, 221, 222, 223, 224, 225, 226, 227, 228, 229, 230, 231, 232, 233, 234, 235, 236, 237, 238, 239, 240, 241, 242, 243, 244, 245, 246, 247, 248, 249, 250, 251, 252, 253, 254, 255, 256, 257, 258, 259, 260, 261, 262, 263, 264, 265, 266, 267, 268, 269, 270, 271, 272, 273, 274, 275, 276, 277, 278, 279, 280, 281, 282, 283, 284, 285, 286, 287, 288, 289, 290, 291, 292, 293, 294, 295, 296, 297, 298, 299, 300, 301, 302, 303],
      "LargestImagePixelValue": [57484, 56365, 55269, 54800, 54319, 55115, 55011, 54582, 55152, 53866, 54880, 53937, 54254, 52880, 53776, 53430, 52857, 52938, 52322, 52935, 52825, 52396, 52440, 52509, 52460, 52545, 52791, 52704, 53076, 52508, 52465, 52498, 53316, 52668, 53492, 52087, 53170, 52391, 52302, 52620, 52381, 52628, 52971, 53043, 53322, 53261, 53245, 53084, 53256, 53654, 53389, 53633, 53619, 53329, 53579, 53203, 53674, 52488, 52888, 52728, 52698, 52893, 52761, 52475, 52280, 54983, 52459, 51106, 50618, 50264, 52098, 52372, 53103, 53140, 54137, 53325, 53654, 53117, 52360, 52561, 52365, 52287, 52575, 52699, 52595, 54054, 53726, 53071, 53416, 52879, 52936, 52961, 53658, 52545, 52816, 53214, 52616, 54497, 53081, 55318, 53176, 52812, 52503, 53542, 53284, 54107, 53297, 54229, 54265, 53358, 53314, 53024, 53663, 53908, 53880, 53597, 54072, 54828, 54727, 55839, 55438, 53842, 53698, 53819, 54614, 53596, 54470, 53324, 53950, 53703, 54623, 54419, 53598, 54248, 54273, 54670, 54271, 54269, 54141, 53617, 53462, 53894, 53129, 53940, 53444, 53739, 54051, 53707, 53739, 53778, 53352, 53382, 54007, 54062, 54484, 55338, 55558, 54952, 54599, 54896, 55068, 55265, 55842, 55478, 55403, 55332, 54968, 55742, 55603, 55995, 55690, 55323, 55162, 55595, 55557, 55461, 55521, 55257, 55138, 53540, 54576, 54794, 55307, 54963, 55088, 55263, 55634, 55289, 56322, 55769, 55821, 55892, 56162, 56226, 55854, 55810, 56593, 55010, 55823, 55773, 55827, 55641, 55299, 55827, 55751, 55882, 56119, 55786, 55791, 55997, 56083, 55651, 55888, 56144, 55859, 56362, 55769, 56434, 55953, 55773, 55895, 56412, 56012, 56053, 56462, 56156, 55885, 55988, 56380, 56245, 56218, 56067, 56352, 56124, 55739, 56130, 56307, 56119, 54728, 53106, 53135, 53396, 54180, 54170, 54600, 54421, 54663, 54505, 54837, 54658, 54700, 54891, 55006, 54917, 54732, 55244, 55054, 54839, 54919, 54318, 54085, 53603, 53789, 53417, 53423, 53557, 53557, 54175, 54042, 54076, 53673, 53879, 53894, 53331, 53093, 53139, 52878, 52274, 52819, 53237, 52884, 53161, 52979, 53252, 52919, 53109, 53537, 53548, 52821, 52930, 53066, 52554, 52944, 52748, 52812, 52853, 52828, 52982, 53130, 53143, 53209, 53332, 53036],
      "WindowCenter": [10566.0, 10514.0, 10487.0, 10482.0, 10464.0, 10467.0, 10457.0, 10465.0, 10468.0, 10468.0, 10495.0, 10493.0, 10490.0, 10496.0, 10493.0, 10495.0, 10492.0, 10490.0, 10458.0, 10467.0, 10465.0, 10467.0, 10466.0, 10459.0, 10469.0, 10459.0, 10443.0, 10438.0, 10430.0, 10438.0, 10447.0, 10440.0, 10452.0, 10464.0, 10450.0, 10456.0, 10463.0, 10458.0, 10468.0, 10465.0, 10460.0, 10442.0, 10454.0, 10461.0, 10469.0, 10470.0, 10473.0, 10476.0, 10465.0, 10476.0, 10485.0, 10492.0, 10492.0, 10469.0, 10476.0, 10473.0, 10469.0, 10459.0, 10471.0, 10474.0, 10468.0, 10458.0, 10456.0, 10468.0, 10458.0, 10474.0, 10468.0, 10464.0, 10447.0, 10417.0, 10404.0, 10390.0, 10389.0, 10387.0, 10408.0, 10395.0, 10393.0, 10389.0, 10391.0, 10398.0, 10414.0, 10426.0, 10449.0, 10467.0, 10471.0, 10488.0, 10492.0, 10493.0, 10518.0, 10506.0, 10513.0, 10511.0, 10523.0, 10508.0, 10506.0, 10496.0, 10487.0, 10496.0, 10488.0, 10522.0, 10472.0, 10488.0, 10473.0, 10465.0, 10452.0, 10459.0, 10467.0, 10484.0, 10499.0, 10497.0, 10497.0, 10492.0, 10497.0, 10512.0, 10506.0, 10491.0, 10487.0, 10483.0, 10491.0, 10485.0, 10506.0, 10500.0, 10497.0, 10481.0, 10481.0, 10472.0, 10483.0, 10480.0, 10489.0, 10473.0, 10483.0, 10468.0, 10463.0, 10480.0, 10484.0, 10492.0, 10492.0, 10485.0, 10484.0, 10495.0, 10504.0, 10512.0, 10491.0, 10498.0, 10483.0, 10466.0, 10464.0, 10478.0, 10480.0, 10488.0, 10492.0, 10493.0, 10505.0, 10514.0, 10520.0, 10531.0, 10533.0, 10526.0, 10529.0, 10530.0, 10524.0, 10510.0, 10503.0, 10493.0, 10504.0, 10513.0, 10509.0, 10506.0, 10497.0, 10494.0, 10492.0, 10492.0, 10505.0, 10513.0, 10516.0, 10509.0, 10501.0, 10483.0, 10498.0, 10459.0, 10480.0, 10480.0, 10501.0, 10496.0, 10496.0, 10507.0, 10504.0, 10505.0, 10515.0, 10507.0, 10503.0, 10519.0, 10524.0, 10526.0, 10536.0, 10549.0, 10532.0, 10543.0, 10550.0, 10506.0, 10511.0, 10505.0, 10496.0, 10516.0, 10526.0, 10525.0, 10521.0, 10513.0, 10498.0, 10489.0, 10485.0, 10494.0, 10501.0, 10505.0, 10503.0, 10502.0, 10503.0, 10509.0, 10520.0, 10514.0, 10530.0, 10525.0, 10518.0, 10509.0, 10517.0, 10520.0, 10531.0, 10527.0, 10542.0, 10524.0, 10533.0, 10519.0, 10515.0, 10515.0, 10519.0, 10533.0, 10532.0, 10511.0, 10504.0, 10519.0, 10516.0, 10500.0, 10488.0, 10478.0, 10494.0, 10493.0, 10498.0, 10486.0, 10489.0, 10488.0, 10490.0, 10502.0, 10505.0, 10518.0, 10522.0, 10528.0, 10524.0, 10517.0, 10524.0, 10532.0, 10536.0, 10538.0, 10552.0, 10546.0, 10528.0, 10504.0, 10488.0, 10482.0, 10470.0, 10483.0, 10490.0, 10510.0, 10520.0, 10509.0, 10496.0, 10493.0, 10498.0, 10498.0, 10498.0, 10491.0, 10478.0, 10474.0, 10475.0, 10483.0, 10476.0, 10483.0, 10479.0, 10481.0, 10476.0, 10477.0, 10482.0, 10479.0, 10486.0, 10492.0, 10496.0, 10488.0, 10488.0, 10485.0, 10491.0, 10499.0, 10500.0, 10506.0, 10502.0],
