{
  "AcquisitionMatrixPE": 104,
  "AcquisitionNumber": 1,
  "AcquisitionTime": "19:51:49.177500",
  "BandwidthPerPixelPhaseEncode": 17.17,
  "BaseResolution": 104,
  "BodyPartExamined": "BRAIN",
  "CoilCombinationMethod": "Sum of Squares",
  "ConsistencyInfo": "N4_VE11C_LATEST_20160120",
  "ConversionSoftware": "dcm2niix",
  "ConversionSoftwareVersion": "v1.0.20220505",
  "DerivedVendorReportedEchoSpacing": 0.000560011,
  "DeviceSerialNumber": "167006",
  "DwellTime": 2.1e-06,
  "EchoTime": 0.037,
  "EchoTrainLength": 104,
  "EffectiveEchoSpacing": 0.000560011,
  "FlipAngle": 52,
  "HeudiconvVersion": "0.5.3.post811+g6206e14",
  "ImageComments": "Unaliased MB4/PE3/LB",
  "ImageOrientationPatientDICOM": [0.999758, -0.0113229, 0.0188841, 0.0176254, 0.925581, -0.37814],
  "ImageOrientationText": "Tra>Cor(-22.2)>Sag(0.8)",
  "ImageType": [
    "ORIGINAL",
    "PRIMARY",
    "M",
    "MB",
    "ND",
    "MOSAIC"
],
  "ImagingFrequency": 123.259,
  "InPlanePhaseEncodingDirectionDICOM": "COL",
  "InstitutionAddress": "Chemin Queen-Mary 4565,Montreal,District,CA,H3W 1W5",
  "InstitutionName": "IUGM",
  "InstitutionalDepartmentName": "Department",
  "MRAcquisitionType": "2D",
  "MagneticFieldStrength": 3,
  "Manufacturer": "Siemens",
  "ManufacturersModelName": "Prisma_fit",
  "MatrixCoilMode": "SENSE",
  "Modality": "MR",
  "MultibandAccelerationFactor": 4,
  "PartialFourier": 1,
  "PatientPosition": "HFS",
  "PercentPhaseFOV": 100,
  "PercentSampling": 100,
  "PhaseEncodingDirection": "j",
  "PhaseEncodingSteps": 104,
  "PhaseResolution": 1,
  "PixelBandwidth": 2290,
  "ProcedureStepDescription": "games^mario3",
  "ProtocolName": "func_task-mario3_run-07",
  "PulseSequenceDetails": "%CustomerSeq%\\cmrr_mbep2d_bold",
  "ReceiveCoilActiveElements": "HC1-7;NC1,2",
  "ReceiveCoilName": "HeadNeck_64",
  "ReconMatrixPE": 104,
  "RepetitionTime": 1.49,
  "SAR": 0.0488992,
  "ScanOptions": "FS",
  "ScanningSequence": "EP",
  "SequenceName": "epfid2d1_104",
  "SequenceVariant": "SK\\SS",
  "SeriesDescription": "func_task-mario3_run-07",
  "SeriesNumber": 28,
  "ShimSetting": [581, -7286, -8780, 451, 0, -324, -29, 101],
  "SliceThickness": 2,
  "SliceTiming": [0, 0.785, 0.0975, 0.8825, 0.1975, 0.98, 0.295, 1.0775, 0.3925, 1.1775, 0.49, 1.275, 0.5875, 1.3725, 0.6875, 0, 0.785, 0.0975, 0.8825, 0.1975, 0.98, 0.295, 1.0775, 0.3925, 1.1775, 0.49, 1.275, 0.5875, 1.3725, 0.6875, 0, 0.785, 0.0975, 0.8825, 0.1975, 0.98, 0.295, 1.0775, 0.3925, 1.1775, 0.49, 1.275, 0.5875, 1.3725, 0.6875, 0, 0.785, 0.0975, 0.8825, 0.1975, 0.98, 0.295, 1.0775, 0.3925, 1.1775, 0.49, 1.275, 0.5875, 1.3725, 0.6875],
  "SoftwareVersions": "syngo MR E11",
  "SpacingBetweenSlices": 2,
  "StationName": "MRC35049",
  "TaskName": "mario3",
  "TotalReadoutTime": 0.0576811,
  "TxRefAmp": 252.799,
  "WipMemBlock": "60772268-e493-449e-9034-e6ba0f5c5d3a||Sequence: R017 ve11c/master r/75a17815+; Jun 28 2022 16:32:11 by eja",
  "dcmmeta_affine": [
    [-1.999515175819397, 0.035250816494226456, 0.02639419212937355, 101.39836883544922],
    [0.022645890712738037, 1.8511611223220825, -0.7567625641822815, -69.7623062133789],
    [0.037768200039863586, 0.756280243396759, 1.8511115312576294, -57.14202880859375],
    [0.0, 0.0, 0.0, 1.0]
],
  "dcmmeta_reorient_transform": [
    [0.0, -1.0, 0.0, 103.0],
    [1.0, 0.0, 0.0, 0.0],
    [0.0, 0.0, 1.0, 0.0],
    [0.0, 0.0, 0.0, 1.0]
],
  "dcmmeta_shape": [104, 104, 60, 365],
  "dcmmeta_slice_dim": 2,
  "dcmmeta_version": 0.6,
  "global": {
    "const": {
      "AcquisitionMatrix": [104, 0, 0, 104],
      "AngioFlag": "N",
      "BitsAllocated": 16,
      "BitsStored": 16,
      "BodyPartExamined": "BRAIN",
      "Columns": 832,
      "EchoNumbers": 1,
      "EchoTime": 37.0,
      "EchoTrainLength": 104,
      "FlipAngle": 52.0,
      "HighBit": 15,
      "ImageOrientationPatient": [0.99975756144118, -0.0113229456562, 0.01888410026599, 0.01762540758539, 0.92558057015621, -0.3781401237065],
      "ImagePositionPatient": [-845.68400194041, -786.48683889956, 282.2932215092],
      "ImageType": [
        "ORIGINAL",
        "PRIMARY",
        "M",
        "MB",
        "ND",
        "MOSAIC"
],
      "ImagedNucleus": "1H",
      "ImagingFrequency": 123.258731,
      "InPlanePhaseEncodingDirection": "COL",
      "MRAcquisitionType": "2D",
      "MagneticFieldStrength": 3.0,
      "Manufacturer": "SIEMENS",
      "ManufacturerModelName": "Prisma_fit",
      "Modality": "MR",
      "NumberOfAverages": 1.0,
      "NumberOfPhaseEncodingSteps": 104,
      "PercentPhaseFieldOfView": 100.0,
      "PercentSampling": 100.0,
      "PerformedProcedureStepStartTime": "184920.807000",
      "PhotometricInterpretation": "MONOCHROME2",
      "PixelBandwidth": 2290.0,
      "PixelRepresentation": 0,
      "PixelSpacing": [2.0, 2.0],
      "ProtocolName": "func_task-mario3_run-07",
      "RepetitionTime": 1490.0,
      "Rows": 832,
      "SAR": 0.04889920429772,
      "SamplesPerPixel": 1,
      "ScanOptions": "FS",
      "ScanningSequence": "EP",
      "SequenceName": "epfid2d1_104",
      "SequenceVariant": [
        "SK",
        "SS"
],
      "SeriesDescription": "func_task-mario3_run-07",
      "SeriesNumber": 28,
      "SeriesTime": "195312.804000",
      "SliceLocation": -25.153216874449,
      "SliceThickness": 2.0,
      "SmallestImagePixelValue": 0,
      "SoftwareVersions": "syngo MR E11",
      "SpacingBetweenSlices": 1.9999999933647,
      "SpecificCharacterSet": "ISO_IR 100",
      "StudyID": "1",
      "StudyTime": "184920.749000",
      "TransmitCoilName": "Body",
      "VariableFlipAngleFlag": "N",
      "WindowCenterWidthExplanation": "Algo1",
      "dBdt": 0.0},
    "slices": {}
  },
  "time": {
    "samples": {
      "AcquisitionNumber": [1, 2, 3, 4, 5, 6, 7, 8, 9, 10, 11, 12, 13, 14, 15, 16, 17, 18, 19, 20, 21, 22, 23, 24, 25, 26, 27, 28, 29, 30, 31, 32, 33, 34, 35, 36, 37, 38, 39, 40, 41, 42, 43, 44, 45, 46, 47, 48, 49, 50, 51, 52, 53, 54, 55, 56, 57, 58, 59, 60, 61, 62, 63, 64, 65, 66, 67, 68, 69, 70, 71, 72, 73, 74, 75, 76, 77, 78, 79, 80, 81, 82, 83, 84, 85, 86, 87, 88, 89, 90, 91, 92, 93, 94, 95, 96, 97, 98, 99, 100, 101, 102, 103, 104, 105, 106, 107, 108, 109, 110, 111, 112, 113, 114, 115, 116, 117, 118, 119, 120, 121, 122, 123, 124, 125, 126, 127, 128, 129, 130, 131, 132, 133, 134, 135, 136, 137, 138, 139, 140, 141, 142, 143, 144, 145, 146, 147, 148, 149, 150, 151, 152, 153, 154, 155, 156, 157, 158, 159, 160, 161, 162, 163, 164, 165, 166, 167, 168, 169, 170, 171, 172, 173, 174, 175, 176, 177, 178, 179, 180, 181, 182, 183, 184, 185, 186, 187, 188, 189, 190, 191, 192, 193, 194, 195, 196, 197, 198, 199, 200, 201, 202, 203, 204, 205, 206, 207, 208, 209, 210, 211, 212, 213, 214, 215, 216, 217, 218, 219, 220, 221, 222, 223, 224, 225, 226, 227, 228, 229, 230, 231, 232, 233, 234, 235, 236, 237, 238, 239, 240, 241, 242, 243, 244, 245, 246, 247, 248, 249, 250, 251, 252, 253, 254, 255, 256, 257, 258, 259, 260, 261, 262, 263, 264, 265, 266, 267, 268, 269, 270, 271, 272, 273, 274, 275, 276, 277, 278, 279, 280, 281, 282, 283, 284, 285, 286, 287, 288, 289, 290, 291, 292, 293, 294, 295, 296, 297, 298, 299, 300, 301, 302, 303, 304, 305, 306, 307, 308, 309, 310, 311, 312, 313, 314, 315, 316, 317, 318, 319, 320, 321, 322, 323, 324, 325, 326, 327, 328, 329, 330, 331, 332, 333, 334, 335, 336, 337, 338, 339, 340, 341, 342, 343, 344, 345, 346, 347, 348, 349, 350, 351, 352, 353, 354, 355, 356, 357, 358, 359, 360, 361, 362, 363, 364, 365],
      "AcquisitionTime": ["195149.177500", "195150.667500", "195152.157500", "195153.647500", "195155.137500", "195156.627500", "195158.117500", "195159.607500", "195201.097500", "195202.587500", "195204.077500", "195205.567500", "195207.057500", "195208.547500", "195210.037500", "195211.527500", "195213.017500", "195214.507500", "195215.997500", "195217.487500", "195218.977500", "195220.467500", "195221.957500", "195223.447500", "195224.937500", "195226.427500", "195227.917500", "195229.407500", "195230.897500", "195232.387500", "195233.877500", "195235.367500", "195236.857500", "195238.347500", "195239.837500", "195241.327500", "195242.817500", "195244.307500", "195245.797500", "195247.287500", "195248.777500", "195250.267500", "195251.757500", "195253.247500", "195254.737500", "195256.227500", "195257.717500", "195259.207500", "195300.697500", "195302.187500", "195303.677500", "195305.167500", "195306.657500", "195308.147500", "195309.637500", "195311.127500", "195312.617500", "195314.107500", "195315.597500", "195317.087500", "195318.577500", "195320.067500", "195321.557500", "195323.047500", "195324.537500", "195326.027500", "195327.517500", "195329.007500", "195330.497500", "195331.987500", "195333.477500", "195334.967500", "195336.457500", "195337.947500", "195339.437500", "195340.927500", "195342.417500", "195343.907500", "195345.397500", "195346.887500", "195348.377500", "195349.867500", "195351.357500", "195352.847500", "195354.337500", "195355.827500", "195357.317500", "195358.807500", "195400.297500", "195401.787500", "195403.277500", "195404.767500", "195406.257500", "195407.747500", "195409.237500", "195410.727500", "195412.217500", "195413.707500", "195415.197500", "195416.687500", "195418.177500", "195419.667500", "195421.157500", "195422.647500", "195424.137500", "195425.627500", "195427.117500", "195428.607500", "195430.097500", "195431.587500", "195433.077500", "195434.567500", "195436.057500", "195437.547500", "195439.037500", "195440.527500", "195442.017500", "195443.507500", "195444.997500", "195446.487500", "195447.977500", "195449.467500", "195450.957500", "195452.447500", "195453.937500", "195455.427500", "195456.917500", "195458.407500", "195459.897500", "195501.387500", "195502.877500", "195504.367500", "195505.857500", "195507.347500", "195508.837500", "195510.327500", "195511.817500", "195513.307500", "195514.797500", "195516.287500", "195517.777500", "195519.267500", "195520.757500", "195522.247500", "195523.737500", "195525.227500", "195526.717500", "195528.207500", "195529.697500", "195531.187500", "195532.677500", "195534.167500", "195535.657500", "195537.147500", "195538.637500", "195540.127500", "195541.617500", "195543.107500", "195544.597500", "195546.087500", "195547.577500", "195549.067500", "195550.557500", "195552.047500", "195553.537500", "195555.027500", "195556.517500", "195558.007500", "195559.497500", "195600.987500", "195602.477500", "195603.967500", "195605.457500", "195606.947500", "195608.437500", "195609.927500", "195611.417500", "195612.907500", "195614.397500", "195615.887500", "195617.377500", "195618.867500", "195620.357500", "195621.847500", "195623.337500", "195624.827500", "195626.317500", "195627.807500", "195629.297500", "195630.787500", "195632.277500", "195633.767500", "195635.257500", "195636.747500", "195638.237500", "195639.727500", "195641.217500", "195642.707500", "195644.197500", "195645.687500", "195647.177500", "195648.667500", "195650.157500", "195651.647500", "195653.137500", "195654.627500", "195656.117500", "195657.607500", "195659.097500", "195700.587500", "195702.077500", "195703.567500", "195705.057500", "195706.547500", "195708.037500", "195709.527500", "195711.017500", "195712.507500", "195713.997500", "195715.487500", "195716.977500", "195718.467500", "195719.957500", "195721.447500", "195722.937500", "195724.427500", "195725.917500", "195727.407500", "195728.897500", "195730.387500", "195731.877500", "195733.367500", "195734.857500", "195736.347500", "195737.837500", "195739.327500", "195740.817500", "195742.307500", "195743.797500", "195745.287500", "195746.777500", "195748.267500", "195749.757500", "195751.247500", "195752.737500", "195754.227500", "195755.717500", "195757.207500", "195758.697500", "195800.187500", "195801.677500", "195803.167500", "195804.657500", "195806.147500", "195807.637500", "195809.127500", "195810.617500", "195812.107500", "195813.597500", "195815.087500", "195816.577500", "195818.067500", "195819.557500", "195821.047500", "195822.537500", "195824.027500", "195825.517500", "195827.007500", "195828.497500", "195829.987500", "195831.477500", "195832.967500", "195834.457500", "195835.947500", "195837.437500", "195838.927500", "195840.417500", "195841.907500", "195843.397500", "195844.887500", "195846.377500", "195847.867500", "195849.357500", "195850.847500", "195852.337500", "195853.827500", "195855.317500", "195856.807500", "195858.297500", "195859.787500", "195901.277500", "195902.767500", "195904.257500", "195905.747500", "195907.237500", "195908.727500", "195910.217500", "195911.707500", "195913.197500", "195914.687500", "195916.177500", "195917.667500", "195919.157500", "195920.647500", "195922.137500", "195923.627500", "195925.117500", "195926.607500", "195928.097500", "195929.587500", "195931.077500", "195932.567500", "195934.057500", "195935.547500", "195937.037500", "195938.527500", "195940.017500", "195941.507500", "195942.997500", "195944.487500", "195945.977500", "195947.467500", "195948.957500", "195950.447500", "195951.937500", "195953.427500", "195954.917500", "195956.407500", "195957.897500", "195959.387500", "200000.877500", "200002.367500", "200003.857500", "200005.347500", "200006.837500", "200008.327500", "200009.817500", "200011.307500", "200012.797500", "200014.287500", "200015.777500", "200017.267500", "200018.757500", "200020.247500", "200021.737500", "200023.227500", "200024.717500", "200026.207500", "200027.697500", "200029.187500", "200030.677500", "200032.167500", "200033.657500", "200035.147500", "200036.637500", "200038.127500", "200039.617500", "200041.107500", "200042.597500", "200044.087500", "200045.577500", "200047.067500", "200048.557500", "200050.047500", "200051.537500"],
      "ContentTime": ["195312.807000", "195312.811000", "195312.814000", "195312.818000", "195312.821000", "195312.824000", "195312.827000", "195312.831000", "195312.834000", "195312.837000", "195312.840000", "195312.844000", "195312.847000", "195312.850000", "195312.854000", "195312.857000", "195312.860000", "195312.863000", "195312.867000", "195312.870000", "195312.873000", "195312.877000", "195312.880000", "195312.883000", "195312.891000", "195312.895000", "195312.898000", "195312.901000", "195312.905000", "195312.908000", "195312.911000", "195312.914000", "195312.918000", "195312.921000", "195332.759000", "195332.763000", "195332.766000", "195332.769000", "195332.773000", "195332.776000", "195332.779000", "195332.783000", "195332.786000", "195332.789000", "195332.792000", "195332.807000", "195332.811000", "195332.814000", "195332.817000", "195332.820000", "195332.824000", "195332.827000", "195332.830000", "195332.834000", "195352.759000", "195352.763000", "195352.766000", "195352.769000", "195352.788000", "195352.791000", "195352.794000", "195352.797000", "195352.801000", "195352.804000", "195352.807000", "195352.811000", "195352.814000", "195352.817000", "195352.820000", "195352.824000", "195352.827000", "195352.830000", "195352.834000", "195352.837000", "195412.759000", "195412.763000", "195412.766000", "195412.769000", "195412.773000", "195412.776000", "195412.779000", "195412.782000", "195412.786000", "195412.789000", "195412.792000", "195412.796000", "195412.799000", "195412.802000", "195412.806000", "195412.809000", "195412.812000", "195412.816000", "195412.819000", "195412.822000", "195412.826000", "195452.760000", "195452.764000", "195452.767000", "195452.771000", "195452.774000", "195452.777000", "195452.780000", "195452.784000", "195452.787000", "195452.790000", "195452.794000", "195452.797000", "195452.800000", "195452.804000", "195452.807000", "195452.810000", "195452.814000", "195452.817000", "195452.820000", "195452.823000", "195452.827000", "195452.830000", "195452.833000", "195452.837000", "195452.840000", "195452.843000", "195452.847000", "195452.850000", "195532.759000", "195532.763000", "195532.766000", "195532.770000", "195532.773000", "195532.776000", "195532.780000", "195532.783000", "195532.786000", "195532.790000", "195532.793000", "195532.796000", "195532.800000", "195532.803000", "195532.806000", "195532.810000", "195532.813000", "195532.816000", "195532.820000", "195532.823000", "195532.826000", "195532.830000", "195532.846000", "195532.855000", "195532.859000", "195532.862000", "195612.759000", "195612.763000", "195612.766000", "195612.770000", "195612.773000", "195612.776000", "195612.793000", "195612.797000", "195612.800000", "195612.803000", "195612.807000", "195612.810000", "195612.813000", "195612.816000", "195612.820000", "195612.823000", "195612.826000", "195612.830000", "195612.833000", "195612.836000", "195612.840000", "195612.843000", "195612.846000", "195612.850000", "195612.853000", "195612.856000", "195612.860000", "195632.759000", "195632.763000", "195632.766000", "195632.769000", "195632.773000", "195632.776000", "195632.779000", "195632.783000", "195632.786000", "195632.789000", "195632.792000", "195632.796000", "195632.799000", "195632.802000", "195712.760000", "195712.764000", "195712.767000", "195712.771000", "195712.774000", "195712.777000", "195712.781000", "195712.784000", "195712.787000", "195712.791000", "195712.794000", "195712.797000", "195712.801000", "195712.804000", "195712.808000", "195712.811000", "195712.814000", "195712.818000", "195712.822000", "195712.826000", "195712.829000", "195712.832000", "195712.836000", "195712.839000", "195712.842000", "195712.845000", "195752.759000", "195752.763000", "195752.766000", "195752.770000", "195752.773000", "195752.776000", "195752.780000", "195752.783000", "195752.786000", "195752.790000", "195752.793000", "195752.796000", "195752.799000", "195752.803000", "195752.806000", "195752.809000", "195752.813000", "195752.816000", "195752.819000", "195752.823000", "195752.826000", "195752.829000", "195752.832000", "195752.836000", "195752.839000", "195752.842000", "195752.846000", "195832.759000", "195832.763000", "195832.766000", "195832.770000", "195832.773000", "195832.776000", "195832.780000", "195832.783000", "195832.786000", "195832.789000", "195832.793000", "195832.796000", "195832.799000", "195832.803000", "195832.806000", "195832.809000", "195832.813000", "195832.816000", "195832.819000", "195832.822000", "195832.826000", "195832.829000", "195832.832000", "195832.835000", "195832.839000", "195832.842000", "195832.845000", "195912.760000", "195912.764000", "195912.767000", "195912.771000", "195912.774000", "195912.777000", "195912.781000", "195912.784000", "195912.787000", "195912.791000", "195912.794000", "195912.797000", "195912.800000", "195912.804000", "195912.807000", "195912.810000", "195912.814000", "195912.817000", "195912.820000", "195912.824000", "195912.827000", "195912.830000", "195912.833000", "195912.837000", "195912.840000", "195912.843000", "195912.847000", "195952.760000", "195952.764000", "195952.767000", "195952.771000", "195952.774000", "195952.777000", "195952.781000", "195952.784000", "195952.787000", "195952.791000", "195952.794000", "195952.797000", "195952.800000", "195952.804000", "195952.807000", "195952.810000", "195952.814000", "195952.817000", "195952.820000", "195952.824000", "195952.827000", "195952.830000", "195952.834000", "195952.837000", "195952.840000", "195952.843000", "195952.847000", "200032.759000", "200032.763000", "200032.766000", "200032.770000", "200032.773000", "200032.776000", "200032.779000", "200032.801000", "200032.804000", "200032.807000", "200032.811000", "200032.814000", "200032.817000", "200032.820000", "200032.824000", "200032.827000", "200032.830000", "200032.834000", "200032.837000", "200032.840000", "200032.844000", "200032.847000", "200032.850000", "200032.853000", "200032.857000", "200032.860000", "200032.863000", "200053.762000", "200053.765000", "200053.769000", "200053.772000", "200053.775000", "200053.779000", "200053.782000", "200053.785000", "200053.789000", "200053.792000", "200053.795000", "200053.798000", "200053.802000", "200053.805000"],
      "InstanceCreationTime": ["195312.807000", "195312.811000", "195312.814000", "195312.818000", "195312.821000", "195312.824000", "195312.827000", "195312.831000", "195312.834000", "195312.837000", "195312.840000", "195312.844000", "195312.847000", "195312.850000", "195312.854000", "195312.857000", "195312.860000", "195312.863000", "195312.867000", "195312.870000", "195312.873000", "195312.877000", "195312.880000", "195312.883000", "195312.891000", "195312.895000", "195312.898000", "195312.901000", "195312.905000", "195312.908000", "195312.911000", "195312.914000", "195312.918000", "195312.921000", "195332.759000", "195332.763000", "195332.766000", "195332.769000", "195332.773000", "195332.776000", "195332.779000", "195332.783000", "195332.786000", "195332.789000", "195332.792000", "195332.807000", "195332.811000", "195332.814000", "195332.817000", "195332.820000", "195332.824000", "195332.827000", "195332.830000", "195332.834000", "195352.759000", "195352.763000", "195352.766000", "195352.769000", "195352.788000", "195352.791000", "195352.794000", "195352.797000", "195352.801000", "195352.804000", "195352.807000", "195352.811000", "195352.814000", "195352.817000", "195352.820000", "195352.824000", "195352.827000", "195352.830000", "195352.834000", "195352.837000", "195412.759000", "195412.763000", "195412.766000", "195412.769000", "195412.773000", "195412.776000", "195412.779000", "195412.782000", "195412.786000", "195412.789000", "195412.792000", "195412.796000", "195412.799000", "195412.802000", "195412.806000", "195412.809000", "195412.812000", "195412.816000", "195412.819000", "195412.822000", "195412.826000", "195452.760000", "195452.764000", "195452.767000", "195452.771000", "195452.774000", "195452.777000", "195452.780000", "195452.784000", "195452.787000", "195452.790000", "195452.794000", "195452.797000", "195452.800000", "195452.804000", "195452.807000", "195452.810000", "195452.814000", "195452.817000", "195452.820000", "195452.823000", "195452.827000", "195452.830000", "195452.833000", "195452.837000", "195452.840000", "195452.843000", "195452.847000", "195452.850000", "195532.759000", "195532.763000", "195532.766000", "195532.770000", "195532.773000", "195532.776000", "195532.780000", "195532.783000", "195532.786000", "195532.790000", "195532.793000", "195532.796000", "195532.800000", "195532.803000", "195532.806000", "195532.810000", "195532.813000", "195532.816000", "195532.820000", "195532.823000", "195532.826000", "195532.830000", "195532.846000", "195532.855000", "195532.859000", "195532.862000", "195612.759000", "195612.763000", "195612.766000", "195612.770000", "195612.773000", "195612.776000", "195612.793000", "195612.797000", "195612.800000", "195612.803000", "195612.807000", "195612.810000", "195612.813000", "195612.816000", "195612.820000", "195612.823000", "195612.826000", "195612.830000", "195612.833000", "195612.836000", "195612.840000", "195612.843000", "195612.846000", "195612.850000", "195612.853000", "195612.856000", "195612.860000", "195632.759000", "195632.763000", "195632.766000", "195632.769000", "195632.773000", "195632.776000", "195632.779000", "195632.783000", "195632.786000", "195632.789000", "195632.792000", "195632.796000", "195632.799000", "195632.802000", "195712.760000", "195712.764000", "195712.767000", "195712.771000", "195712.774000", "195712.777000", "195712.781000", "195712.784000", "195712.787000", "195712.791000", "195712.794000", "195712.797000", "195712.801000", "195712.804000", "195712.808000", "195712.811000", "195712.814000", "195712.818000", "195712.822000", "195712.826000", "195712.829000", "195712.832000", "195712.836000", "195712.839000", "195712.842000", "195712.845000", "195752.759000", "195752.763000", "195752.766000", "195752.770000", "195752.773000", "195752.776000", "195752.780000", "195752.783000", "195752.786000", "195752.790000", "195752.793000", "195752.796000", "195752.799000", "195752.803000", "195752.806000", "195752.809000", "195752.813000", "195752.816000", "195752.819000", "195752.823000", "195752.826000", "195752.829000", "195752.832000", "195752.836000", "195752.839000", "195752.842000", "195752.846000", "195832.759000", "195832.763000", "195832.766000", "195832.770000", "195832.773000", "195832.776000", "195832.780000", "195832.783000", "195832.786000", "195832.789000", "195832.793000", "195832.796000", "195832.799000", "195832.803000", "195832.806000", "195832.809000", "195832.813000", "195832.816000", "195832.819000", "195832.822000", "195832.826000", "195832.829000", "195832.832000", "195832.835000", "195832.839000", "195832.842000", "195832.845000", "195912.760000", "195912.764000", "195912.767000", "195912.771000", "195912.774000", "195912.777000", "195912.781000", "195912.784000", "195912.787000", "195912.791000", "195912.794000", "195912.797000", "195912.800000", "195912.804000", "195912.807000", "195912.810000", "195912.814000", "195912.817000", "195912.820000", "195912.824000", "195912.827000", "195912.830000", "195912.833000", "195912.837000", "195912.840000", "195912.843000", "195912.847000", "195952.760000", "195952.764000", "195952.767000", "195952.771000", "195952.774000", "195952.777000", "195952.781000", "195952.784000", "195952.787000", "195952.791000", "195952.794000", "195952.797000", "195952.800000", "195952.804000", "195952.807000", "195952.810000", "195952.814000", "195952.817000", "195952.820000", "195952.824000", "195952.827000", "195952.830000", "195952.834000", "195952.837000", "195952.840000", "195952.843000", "195952.847000", "200032.759000", "200032.763000", "200032.766000", "200032.770000", "200032.773000", "200032.776000", "200032.779000", "200032.801000", "200032.804000", "200032.807000", "200032.811000", "200032.814000", "200032.817000", "200032.820000", "200032.824000", "200032.827000", "200032.830000", "200032.834000", "200032.837000", "200032.840000", "200032.844000", "200032.847000", "200032.850000", "200032.853000", "200032.857000", "200032.860000", "200032.863000", "200053.762000", "200053.765000", "200053.769000", "200053.772000", "200053.775000", "200053.779000", "200053.782000", "200053.785000", "200053.789000", "200053.792000", "200053.795000", "200053.798000", "200053.802000", "200053.805000"],
      "InstanceNumber": [1, 2, 3, 4, 5, 6, 7, 8, 9, 10, 11, 12, 13, 14, 15, 16, 17, 18, 19, 20, 21, 22, 23, 24, 25, 26, 27, 28, 29, 30, 31, 32, 33, 34, 35, 36, 37, 38, 39, 40, 41, 42, 43, 44, 45, 46, 47, 48, 49, 50, 51, 52, 53, 54, 55, 56, 57, 58, 59, 60, 61, 62, 63, 64, 65, 66, 67, 68, 69, 70, 71, 72, 73, 74, 75, 76, 77, 78, 79, 80, 81, 82, 83, 84, 85, 86, 87, 88, 89, 90, 91, 92, 93, 94, 95, 96, 97, 98, 99, 100, 101, 102, 103, 104, 105, 106, 107, 108, 109, 110, 111, 112, 113, 114, 115, 116, 117, 118, 119, 120, 121, 122, 123, 124, 125, 126, 127, 128, 129, 130, 131, 132, 133, 134, 135, 136, 137, 138, 139, 140, 141, 142, 143, 144, 145, 146, 147, 148, 149, 150, 151, 152, 153, 154, 155, 156, 157, 158, 159, 160, 161, 162, 163, 164, 165, 166, 167, 168, 169, 170, 171, 172, 173, 174, 175, 176, 177, 178, 179, 180, 181, 182, 183, 184, 185, 186, 187, 188, 189, 190, 191, 192, 193, 194, 195, 196, 197, 198, 199, 200, 201, 202, 203, 204, 205, 206, 207, 208, 209, 210, 211, 212, 213, 214, 215, 216, 217, 218, 219, 220, 221, 222, 223, 224, 225, 226, 227, 228, 229, 230, 231, 232, 233, 234, 235, 236, 237, 238, 239, 240, 241, 242, 243, 244, 245, 246, 247, 248, 249, 250, 251, 252, 253, 254, 255, 256, 257, 258, 259, 260, 261, 262, 263, 264, 265, 266, 267, 268, 269, 270, 271, 272, 273, 274, 275, 276, 277, 278, 279, 280, 281, 282, 283, 284, 285, 286, 287, 288, 289, 290, 291, 292, 293, 294, 295, 296, 297, 298, 299, 300, 301, 302, 303, 304, 305, 306, 307, 308, 309, 310, 311, 312, 313, 314, 315, 316, 317, 318, 319, 320, 321, 322, 323, 324, 325, 326, 327, 328, 329, 330, 331, 332, 333, 334, 335, 336, 337, 338, 339, 340, 341, 342, 343, 344, 345, 346, 347, 348, 349, 350, 351, 352, 353, 354, 355, 356, 357, 358, 359, 360, 361, 362, 363, 364, 365],
