{
  "AcquisitionMatrixPE": 104,
  "AcquisitionNumber": 1,
  "AcquisitionTime": "18:52:54.015000",
  "BandwidthPerPixelPhaseEncode": 17.17,
  "BaseResolution": 104,
  "BodyPartExamined": "BRAIN",
  "CoilCombinationMethod": "Sum of Squares",
  "ConsistencyInfo": "N4_VE11C_LATEST_20160120",
  "ConversionSoftware": "dcm2niix",
  "ConversionSoftwareVersion": "v1.0.20220505",
  "DerivedVendorReportedEchoSpacing": 0.000560011,
  "DeviceSerialNumber": "167006",
  "DwellTime": 2.1e-06,
  "EchoTime": 0.037,
  "EchoTrainLength": 104,
  "EffectiveEchoSpacing": 0.000560011,
  "FlipAngle": 52,
  "HeudiconvVersion": "0.5.3.post811+g6206e14",
  "ImageComments": "Unaliased MB4/PE3/LB",
  "ImageOrientationPatientDICOM": [0.999758, -0.0113229, 0.0188841, 0.0176254, 0.925581, -0.37814],
  "ImageOrientationText": "Tra>Cor(-22.2)>Sag(0.8)",
  "ImageType": [
    "ORIGINAL",
    "PRIMARY",
    "M",
    "MB",
    "ND",
    "MOSAIC"
],
  "ImagingFrequency": 123.259,
  "InPlanePhaseEncodingDirectionDICOM": "COL",
  "InstitutionAddress": "Chemin Queen-Mary 4565,Montreal,District,CA,H3W 1W5",
  "InstitutionName": "IUGM",
  "InstitutionalDepartmentName": "Department",
  "MRAcquisitionType": "2D",
  "MagneticFieldStrength": 3,
  "Manufacturer": "Siemens",
  "ManufacturersModelName": "Prisma_fit",
  "MatrixCoilMode": "SENSE",
  "Modality": "MR",
  "MultibandAccelerationFactor": 4,
  "PartialFourier": 1,
  "PatientPosition": "HFS",
  "PercentPhaseFOV": 100,
  "PercentSampling": 100,
  "PhaseEncodingDirection": "j",
  "PhaseEncodingSteps": 104,
  "PhaseResolution": 1,
  "PixelBandwidth": 2290,
  "ProcedureStepDescription": "games^mario3",
  "ProtocolName": "func_task-mario3_run-01",
  "PulseSequenceDetails": "%CustomerSeq%\\cmrr_mbep2d_bold",
  "ReceiveCoilActiveElements": "HC1-7;NC1,2",
  "ReceiveCoilName": "HeadNeck_64",
  "ReconMatrixPE": 104,
  "RepetitionTime": 1.49,
  "SAR": 0.0488992,
  "ScanOptions": "FS",
  "ScanningSequence": "EP",
  "SequenceName": "epfid2d1_104",
  "SequenceVariant": "SK\\SS",
  "SeriesDescription": "func_task-mario3_run-01",
  "SeriesNumber": 10,
  "ShimSetting": [581, -7286, -8780, 451, 0, -324, -29, 101],
  "SliceThickness": 2,
  "SliceTiming": [0, 0.785, 0.0975, 0.8825, 0.1975, 0.98, 0.295, 1.0775, 0.3925, 1.1775, 0.49, 1.275, 0.5875, 1.3725, 0.6875, 0, 0.785, 0.0975, 0.8825, 0.1975, 0.98, 0.295, 1.0775, 0.3925, 1.1775, 0.49, 1.275, 0.5875, 1.3725, 0.6875, 0, 0.785, 0.0975, 0.8825, 0.1975, 0.98, 0.295, 1.0775, 0.3925, 1.1775, 0.49, 1.275, 0.5875, 1.3725, 0.6875, 0, 0.785, 0.0975, 0.8825, 0.1975, 0.98, 0.295, 1.0775, 0.3925, 1.1775, 0.49, 1.275, 0.5875, 1.3725, 0.6875],
  "SoftwareVersions": "syngo MR E11",
  "SpacingBetweenSlices": 2,
  "StationName": "MRC35049",
  "TaskName": "mario3",
  "TotalReadoutTime": 0.0576811,
  "TxRefAmp": 252.799,
  "WipMemBlock": "cca990a6-6ad6-49c1-badd-f64533e4bc5d||Sequence: R017 ve11c/master r/75a17815+; Jun 28 2022 16:32:11 by eja",
  "dcmmeta_affine": [
    [-1.999515175819397, 0.035250816494226456, 0.02639419212937355, 101.39836883544922],
    [0.022645890712738037, 1.8511611223220825, -0.7567625641822815, -69.7623062133789],
    [0.037768200039863586, 0.756280243396759, 1.8511115312576294, -57.14202880859375],
    [0.0, 0.0, 0.0, 1.0]
],
  "dcmmeta_reorient_transform": [
    [0.0, -1.0, 0.0, 103.0],
    [1.0, 0.0, 0.0, 0.0],
    [0.0, 0.0, 1.0, 0.0],
    [0.0, 0.0, 0.0, 1.0]
],
  "dcmmeta_shape": [104, 104, 60, 299],
  "dcmmeta_slice_dim": 2,
  "dcmmeta_version": 0.6,
  "global": {
    "const": {
      "AcquisitionMatrix": [104, 0, 0, 104],
      "AngioFlag": "N",
      "BitsAllocated": 16,
      "BitsStored": 16,
      "BodyPartExamined": "BRAIN",
      "Columns": 832,
      "EchoNumbers": 1,
      "EchoTime": 37.0,
      "EchoTrainLength": 104,
      "FlipAngle": 52.0,
      "HighBit": 15,
      "ImageOrientationPatient": [0.99975756144118, -0.0113229456562, 0.01888410026599, 0.01762540758539, 0.92558057015621, -0.3781401237065],
      "ImagePositionPatient": [-845.68400194041, -786.48683889956, 282.2932215092],
      "ImageType": [
        "ORIGINAL",
        "PRIMARY",
        "M",
        "MB",
        "ND",
        "MOSAIC"
],
      "ImagedNucleus": "1H",
      "ImagingFrequency": 123.258721,
      "InPlanePhaseEncodingDirection": "COL",
      "MRAcquisitionType": "2D",
      "MagneticFieldStrength": 3.0,
      "Manufacturer": "SIEMENS",
      "ManufacturerModelName": "Prisma_fit",
      "Modality": "MR",
      "NumberOfAverages": 1.0,
      "NumberOfPhaseEncodingSteps": 104,
      "PercentPhaseFieldOfView": 100.0,
      "PercentSampling": 100.0,
      "PerformedProcedureStepStartTime": "184920.807000",
      "PhotometricInterpretation": "MONOCHROME2",
      "PixelBandwidth": 2290.0,
      "PixelRepresentation": 0,
      "PixelSpacing": [2.0, 2.0],
      "ProtocolName": "func_task-mario3_run-01",
      "RepetitionTime": 1490.0,
      "Rows": 832,
      "SAR": 0.04889920429772,
      "SamplesPerPixel": 1,
      "ScanOptions": "FS",
      "ScanningSequence": "EP",
      "SequenceName": "epfid2d1_104",
      "SequenceVariant": [
        "SK",
        "SS"
],
      "SeriesDescription": "func_task-mario3_run-01",
      "SeriesNumber": 10,
      "SeriesTime": "185412.794000",
      "SliceLocation": -25.153216874449,
      "SliceThickness": 2.0,
      "SmallestImagePixelValue": 0,
      "SoftwareVersions": "syngo MR E11",
      "SpacingBetweenSlices": 1.9999999933647,
      "SpecificCharacterSet": "ISO_IR 100",
      "StudyID": "1",
      "StudyTime": "184920.749000",
      "TransmitCoilName": "Body",
      "VariableFlipAngleFlag": "N",
      "WindowCenterWidthExplanation": "Algo1",
      "dBdt": 0.0},
    "slices": {}
  },
  "time": {
    "samples": {
      "AcquisitionNumber": [1, 2, 3, 4, 5, 6, 7, 8, 9, 10, 11, 12, 13, 14, 15, 16, 17, 18, 19, 20, 21, 22, 23, 24, 25, 26, 27, 28, 29, 30, 31, 32, 33, 34, 35, 36, 37, 38, 39, 40, 41, 42, 43, 44, 45, 46, 47, 48, 49, 50, 51, 52, 53, 54, 55, 56, 57, 58, 59, 60, 61, 62, 63, 64, 65, 66, 67, 68, 69, 70, 71, 72, 73, 74, 75, 76, 77, 78, 79, 80, 81, 82, 83, 84, 85, 86, 87, 88, 89, 90, 91, 92, 93, 94, 95, 96, 97, 98, 99, 100, 101, 102, 103, 104, 105, 106, 107, 108, 109, 110, 111, 112, 113, 114, 115, 116, 117, 118, 119, 120, 121, 122, 123, 124, 125, 126, 127, 128, 129, 130, 131, 132, 133, 134, 135, 136, 137, 138, 139, 140, 141, 142, 143, 144, 145, 146, 147, 148, 149, 150, 151, 152, 153, 154, 155, 156, 157, 158, 159, 160, 161, 162, 163, 164, 165, 166, 167, 168, 169, 170, 171, 172, 173, 174, 175, 176, 177, 178, 179, 180, 181, 182, 183, 184, 185, 186, 187, 188, 189, 190, 191, 192, 193, 194, 195, 196, 197, 198, 199, 200, 201, 202, 203, 204, 205, 206, 207, 208, 209, 210, 211, 212, 213, 214, 215, 216, 217, 218, 219, 220, 221, 222, 223, 224, 225, 226, 227, 228, 229, 230, 231, 232, 233, 234, 235, 236, 237, 238, 239, 240, 241, 242, 243, 244, 245, 246, 247, 248, 249, 250, 251, 252, 253, 254, 255, 256, 257, 258, 259, 260, 261, 262, 263, 264, 265, 266, 267, 268, 269, 270, 271, 272, 273, 274, 275, 276, 277, 278, 279, 280, 281, 282, 283, 284, 285, 286, 287, 288, 289, 290, 291, 292, 293, 294, 295, 296, 297, 298, 299],
      "AcquisitionTime": ["185254.015000", "185255.505000", "185256.995000", "185258.485000", "185259.975000", "185301.465000", "185302.955000", "185304.445000", "185305.935000", "185307.425000", "185308.915000", "185310.405000", "185311.895000", "185313.385000", "185314.875000", "185316.365000", "185317.855000", "185319.345000", "185320.835000", "185322.325000", "185323.815000", "185325.305000", "185326.795000", "185328.285000", "185329.775000", "185331.265000", "185332.755000", "185334.245000", "185335.735000", "185337.225000", "185338.715000", "185340.205000", "185341.695000", "185343.185000", "185344.675000", "185346.165000", "185347.655000", "185349.145000", "185350.635000", "185352.125000", "185353.615000", "185355.105000", "185356.595000", "185358.085000", "185359.575000", "185401.065000", "185402.555000", "185404.045000", "185405.535000", "185407.025000", "185408.515000", "185410.005000", "185411.495000", "185412.985000", "185414.475000", "185415.965000", "185417.455000", "185418.945000", "185420.435000", "185421.925000", "185423.415000", "185424.905000", "185426.395000", "185427.885000", "185429.375000", "185430.865000", "185432.355000", "185433.845000", "185435.335000", "185436.825000", "185438.315000", "185439.805000", "185441.295000", "185442.785000", "185444.275000", "185445.765000", "185447.255000", "185448.745000", "185450.235000", "185451.725000", "185453.215000", "185454.705000", "185456.195000", "185457.685000", "185459.175000", "185500.665000", "185502.155000", "185503.645000", "185505.135000", "185506.625000", "185508.115000", "185509.605000", "185511.095000", "185512.585000", "185514.075000", "185515.565000", "185517.055000", "185518.545000", "185520.035000", "185521.525000", "185523.015000", "185524.505000", "185525.995000", "185527.485000", "185528.975000", "185530.465000", "185531.955000", "185533.445000", "185534.935000", "185536.425000", "185537.915000", "185539.405000", "185540.895000", "185542.385000", "185543.875000", "185545.365000", "185546.855000", "185548.345000", "185549.835000", "185551.325000", "185552.815000", "185554.305000", "185555.795000", "185557.285000", "185558.775000", "185600.265000", "185601.755000", "185603.245000", "185604.735000", "185606.225000", "185607.715000", "185609.205000", "185610.695000", "185612.185000", "185613.675000", "185615.165000", "185616.655000", "185618.145000", "185619.635000", "185621.125000", "185622.615000", "185624.105000", "185625.595000", "185627.085000", "185628.575000", "185630.065000", "185631.555000", "185633.045000", "185634.535000", "185636.025000", "185637.515000", "185639.005000", "185640.495000", "185641.985000", "185643.475000", "185644.965000", "185646.455000", "185647.945000", "185649.435000", "185650.925000", "185652.415000", "185653.905000", "185655.395000", "185656.885000", "185658.375000", "185659.865000", "185701.355000", "185702.845000", "185704.335000", "185705.825000", "185707.315000", "185708.805000", "185710.295000", "185711.785000", "185713.275000", "185714.765000", "185716.255000", "185717.745000", "185719.235000", "185720.725000", "185722.215000", "185723.705000", "185725.195000", "185726.685000", "185728.175000", "185729.665000", "185731.155000", "185732.645000", "185734.135000", "185735.625000", "185737.115000", "185738.605000", "185740.095000", "185741.585000", "185743.075000", "185744.565000", "185746.055000", "185747.545000", "185749.035000", "185750.525000", "185752.015000", "185753.505000", "185754.995000", "185756.485000", "185757.975000", "185759.465000", "185800.955000", "185802.445000", "185803.935000", "185805.425000", "185806.915000", "185808.405000", "185809.895000", "185811.385000", "185812.875000", "185814.365000", "185815.855000", "185817.345000", "185818.835000", "185820.325000", "185821.815000", "185823.305000", "185824.795000", "185826.285000", "185827.775000", "185829.265000", "185830.755000", "185832.245000", "185833.735000", "185835.225000", "185836.715000", "185838.205000", "185839.695000", "185841.185000", "185842.675000", "185844.165000", "185845.655000", "185847.145000", "185848.635000", "185850.125000", "185851.615000", "185853.105000", "185854.595000", "185856.085000", "185857.575000", "185859.065000", "185900.555000", "185902.045000", "185903.535000", "185905.025000", "185906.515000", "185908.005000", "185909.495000", "185910.985000", "185912.475000", "185913.965000", "185915.455000", "185916.945000", "185918.435000", "185919.925000", "185921.415000", "185922.905000", "185924.395000", "185925.885000", "185927.375000", "185928.865000", "185930.355000", "185931.845000", "185933.335000", "185934.825000", "185936.315000", "185937.805000", "185939.295000", "185940.785000", "185942.275000", "185943.765000", "185945.255000", "185946.745000", "185948.235000", "185949.725000", "185951.215000", "185952.705000", "185954.195000", "185955.685000", "185957.175000", "185958.665000", "190000.155000", "190001.645000", "190003.135000", "190004.625000", "190006.115000", "190007.605000", "190009.095000", "190010.585000", "190012.075000", "190013.565000", "190015.055000", "190016.545000", "190018.035000"],
      "ContentTime": ["185412.797000", "185412.801000", "185412.804000", "185412.807000", "185412.811000", "185412.814000", "185412.818000", "185412.822000", "185412.825000", "185412.828000", "185412.834000", "185412.837000", "185412.841000", "185412.844000", "185412.847000", "185412.850000", "185412.854000", "185412.857000", "185412.860000", "185412.863000", "185412.867000", "185412.895000", "185412.899000", "185412.902000", "185412.905000", "185412.908000", "185412.912000", "185412.915000", "185412.918000", "185432.760000", "185432.769000", "185432.772000", "185432.775000", "185432.779000", "185432.782000", "185432.785000", "185432.788000", "185432.792000", "185432.795000", "185432.798000", "185432.801000", "185432.804000", "185432.808000", "185432.811000", "185432.814000", "185432.817000", "185432.821000", "185432.824000", "185432.827000", "185452.760000", "185452.764000", "185452.767000", "185452.770000", "185452.774000", "185452.778000", "185452.781000", "185452.784000", "185452.787000", "185452.791000", "185452.794000", "185452.797000", "185452.800000", "185452.804000", "185452.807000", "185452.810000", "185452.813000", "185452.817000", "185452.820000", "185452.823000", "185512.759000", "185512.763000", "185512.766000", "185512.769000", "185512.773000", "185512.776000", "185512.779000", "185512.782000", "185512.786000", "185512.789000", "185512.792000", "185512.795000", "185512.799000", "185512.804000", "185512.808000", "185512.811000", "185512.814000", "185512.818000", "185512.821000", "185512.824000", "185552.759000", "185552.763000", "185552.766000", "185552.770000", "185552.773000", "185552.776000", "185552.780000", "185552.783000", "185552.786000", "185552.790000", "185552.794000", "185552.797000", "185552.801000", "185552.804000", "185552.807000", "185552.811000", "185552.814000", "185552.818000", "185552.821000", "185552.824000", "185552.827000", "185552.831000", "185552.834000", "185552.837000", "185552.841000", "185552.844000", "185552.848000", "185552.851000", "185552.854000", "185552.858000", "185632.760000", "185632.764000", "185632.767000", "185632.771000", "185632.774000", "185632.777000", "185632.780000", "185632.784000", "185632.787000", "185632.790000", "185632.794000", "185632.797000", "185632.800000", "185632.803000", "185632.807000", "185632.810000", "185632.814000", "185632.817000", "185632.821000", "185632.824000", "185632.827000", "185632.831000", "185632.834000", "185632.837000", "185632.840000", "185632.844000", "185632.847000", "185712.760000", "185712.764000", "185712.767000", "185712.771000", "185712.774000", "185712.777000", "185712.780000", "185712.784000", "185712.787000", "185712.790000", "185712.794000", "185712.797000", "185712.800000", "185712.804000", "185712.807000", "185712.810000", "185712.814000", "185712.818000", "185712.821000", "185712.825000", "185712.828000", "185712.831000", "185712.835000", "185712.838000", "185712.841000", "185712.844000", "185712.848000", "185752.759000", "185752.763000", "185752.766000", "185752.770000", "185752.773000", "185752.776000", "185752.780000", "185752.783000", "185752.786000", "185752.789000", "185752.793000", "185752.796000", "185752.799000", "185752.802000", "185752.806000", "185752.809000", "185752.812000", "185752.816000", "185752.819000", "185752.822000", "185752.825000", "185752.829000", "185752.832000", "185752.835000", "185752.839000", "185752.842000", "185752.845000", "185832.773000", "185832.777000", "185832.781000", "185832.784000", "185832.787000", "185832.791000", "185832.794000", "185832.797000", "185832.800000", "185832.804000", "185832.807000", "185832.810000", "185832.814000", "185832.817000", "185832.820000", "185832.823000", "185832.827000", "185832.830000", "185832.833000", "185832.837000", "185832.840000", "185832.843000", "185832.846000", "185832.850000", "185832.853000", "185832.856000", "185832.860000", "185912.760000", "185912.764000", "185912.767000", "185912.771000", "185912.774000", "185912.777000", "185912.780000", "185912.784000", "185912.787000", "185912.790000", "185912.794000", "185912.797000", "185912.800000", "185912.803000", "185912.807000", "185912.810000", "185912.813000", "185912.817000", "185912.820000", "185912.823000", "185912.826000", "185912.830000", "185912.833000", "185912.836000", "185912.839000", "185912.843000", "185912.846000", "185952.759000", "185952.763000", "185952.766000", "185952.770000", "185952.773000", "185952.777000", "185952.780000", "185952.784000", "185952.787000", "185952.790000", "185952.794000", "185952.797000", "185952.800000", "185952.803000", "185952.807000", "185952.810000", "185952.814000", "185952.817000", "185952.820000", "185952.824000", "185952.828000", "185952.831000", "185952.835000", "185952.838000", "185952.841000", "185952.845000", "190020.250000", "190020.253000", "190020.257000", "190020.260000", "190020.263000", "190020.267000", "190020.287000", "190020.290000", "190020.294000", "190020.297000", "190020.300000", "190020.303000", "190020.307000", "190020.310000", "190020.313000", "190020.317000", "190020.320000", "190020.323000", "190020.327000"],
      "InstanceCreationTime": ["185412.797000", "185412.801000", "185412.804000", "185412.807000", "185412.811000", "185412.814000", "185412.818000", "185412.822000", "185412.825000", "185412.828000", "185412.834000", "185412.837000", "185412.841000", "185412.844000", "185412.847000", "185412.850000", "185412.854000", "185412.857000", "185412.860000", "185412.863000", "185412.867000", "185412.895000", "185412.899000", "185412.902000", "185412.905000", "185412.908000", "185412.912000", "185412.915000", "185412.918000", "185432.760000", "185432.769000", "185432.772000", "185432.775000", "185432.779000", "185432.782000", "185432.785000", "185432.788000", "185432.792000", "185432.795000", "185432.798000", "185432.801000", "185432.804000", "185432.808000", "185432.811000", "185432.814000", "185432.817000", "185432.821000", "185432.824000", "185432.827000", "185452.760000", "185452.764000", "185452.767000", "185452.770000", "185452.774000", "185452.778000", "185452.781000", "185452.784000", "185452.787000", "185452.791000", "185452.794000", "185452.797000", "185452.800000", "185452.804000", "185452.807000", "185452.810000", "185452.813000", "185452.817000", "185452.820000", "185452.823000", "185512.759000", "185512.763000", "185512.766000", "185512.769000", "185512.773000", "185512.776000", "185512.779000", "185512.782000", "185512.786000", "185512.789000", "185512.792000", "185512.795000", "185512.799000", "185512.804000", "185512.808000", "185512.811000", "185512.814000", "185512.818000", "185512.821000", "185512.824000", "185552.759000", "185552.763000", "185552.766000", "185552.770000", "185552.773000", "185552.776000", "185552.780000", "185552.783000", "185552.786000", "185552.790000", "185552.794000", "185552.797000", "185552.801000", "185552.804000", "185552.807000", "185552.811000", "185552.814000", "185552.818000", "185552.821000", "185552.824000", "185552.827000", "185552.831000", "185552.834000", "185552.837000", "185552.841000", "185552.844000", "185552.848000", "185552.851000", "185552.854000", "185552.858000", "185632.760000", "185632.764000", "185632.767000", "185632.771000", "185632.774000", "185632.777000", "185632.780000", "185632.784000", "185632.787000", "185632.790000", "185632.794000", "185632.797000", "185632.800000", "185632.803000", "185632.807000", "185632.810000", "185632.814000", "185632.817000", "185632.821000", "185632.824000", "185632.827000", "185632.831000", "185632.834000", "185632.837000", "185632.840000", "185632.844000", "185632.847000", "185712.760000", "185712.764000", "185712.767000", "185712.771000", "185712.774000", "185712.777000", "185712.780000", "185712.784000", "185712.787000", "185712.790000", "185712.794000", "185712.797000", "185712.800000", "185712.804000", "185712.807000", "185712.810000", "185712.814000", "185712.818000", "185712.821000", "185712.825000", "185712.828000", "185712.831000", "185712.835000", "185712.838000", "185712.841000", "185712.844000", "185712.848000", "185752.759000", "185752.763000", "185752.766000", "185752.770000", "185752.773000", "185752.776000", "185752.780000", "185752.783000", "185752.786000", "185752.789000", "185752.793000", "185752.796000", "185752.799000", "185752.802000", "185752.806000", "185752.809000", "185752.812000", "185752.816000", "185752.819000", "185752.822000", "185752.825000", "185752.829000", "185752.832000", "185752.835000", "185752.839000", "185752.842000", "185752.845000", "185832.773000", "185832.777000", "185832.781000", "185832.784000", "185832.787000", "185832.791000", "185832.794000", "185832.797000", "185832.800000", "185832.804000", "185832.807000", "185832.810000", "185832.814000", "185832.817000", "185832.820000", "185832.823000", "185832.827000", "185832.830000", "185832.833000", "185832.837000", "185832.840000", "185832.843000", "185832.846000", "185832.850000", "185832.853000", "185832.856000", "185832.860000", "185912.760000", "185912.764000", "185912.767000", "185912.771000", "185912.774000", "185912.777000", "185912.780000", "185912.784000", "185912.787000", "185912.790000", "185912.794000", "185912.797000", "185912.800000", "185912.803000", "185912.807000", "185912.810000", "185912.813000", "185912.817000", "185912.820000", "185912.823000", "185912.826000", "185912.830000", "185912.833000", "185912.836000", "185912.839000", "185912.843000", "185912.846000", "185952.759000", "185952.763000", "185952.766000", "185952.770000", "185952.773000", "185952.777000", "185952.780000", "185952.784000", "185952.787000", "185952.790000", "185952.794000", "185952.797000", "185952.800000", "185952.803000", "185952.807000", "185952.810000", "185952.814000", "185952.817000", "185952.820000", "185952.824000", "185952.828000", "185952.831000", "185952.835000", "185952.838000", "185952.841000", "185952.845000", "190020.250000", "190020.253000", "190020.257000", "190020.260000", "190020.263000", "190020.267000", "190020.287000", "190020.290000", "190020.294000", "190020.297000", "190020.300000", "190020.303000", "190020.307000", "190020.310000", "190020.313000", "190020.317000", "190020.320000", "190020.323000", "190020.327000"],
      "InstanceNumber": [1, 2, 3, 4, 5, 6, 7, 8, 9, 10, 11, 12, 13, 14, 15, 16, 17, 18, 19, 20, 21, 22, 23, 24, 25, 26, 27, 28, 29, 30, 31, 32, 33, 34, 35, 36, 37, 38, 39, 40, 41, 42, 43, 44, 45, 46, 47, 48, 49, 50, 51, 52, 53, 54, 55, 56, 57, 58, 59, 60, 61, 62, 63, 64, 65, 66, 67, 68, 69, 70, 71, 72, 73, 74, 75, 76, 77, 78, 79, 80, 81, 82, 83, 84, 85, 86, 87, 88, 89, 90, 91, 92, 93, 94, 95, 96, 97, 98, 99, 100, 101, 102, 103, 104, 105, 106, 107, 108, 109, 110, 111, 112, 113, 114, 115, 116, 117, 118, 119, 120, 121, 122, 123, 124, 125, 126, 127, 128, 129, 130, 131, 132, 133, 134, 135, 136, 137, 138, 139, 140, 141, 142, 143, 144, 145, 146, 147, 148, 149, 150, 151, 152, 153, 154, 155, 156, 157, 158, 159, 160, 161, 162, 163, 164, 165, 166, 167, 168, 169, 170, 171, 172, 173, 174, 175, 176, 177, 178, 179, 180, 181, 182, 183, 184, 185, 186, 187, 188, 189, 190, 191, 192, 193, 194, 195, 196, 197, 198, 199, 200, 201, 202, 203, 204, 205, 206, 207, 208, 209, 210, 211, 212, 213, 214, 215, 216, 217, 218, 219, 220, 221, 222, 223, 224, 225, 226, 227, 228, 229, 230, 231, 232, 233, 234, 235, 236, 237, 238, 239, 240, 241, 242, 243, 244, 245, 246, 247, 248, 249, 250, 251, 252, 253, 254, 255, 256, 257, 258, 259, 260, 261, 262, 263, 264, 265, 266, 267, 268, 269, 270, 271, 272, 273, 274, 275, 276, 277, 278, 279, 280, 281, 282, 283, 284, 285, 286, 287, 288, 289, 290, 291, 292, 293, 294, 295, 296, 297, 298, 299],
      "LargestImagePixelValue": [56529, 60130, 57087, 55273, 54494, 55261, 53694, 55703, 54776, 55462, 54442, 54348, 54790, 54785, 55065, 54269, 54135, 53800, 54305, 54194, 54219, 54517, 54212, 53861, 54125, 54217, 53898, 53493, 53430, 54474, 54723, 54973, 53636, 54659, 55043, 54649, 54852, 54839, 54770, 54483, 54556, 54174, 54766, 53739, 54023, 55576, 55175, 54995, 56293, 55792, 55250, 55252, 56112, 55244, 55779, 55014, 54995, 54340, 55168, 54381, 53901, 54693, 53894, 54512, 53549, 53066, 52506, 54064, 53083, 53437, 53419, 53882, 54289, 53528, 54171, 53594, 53336, 53083, 52077, 52258, 53077, 53756, 54040, 52841, 54185, 53150, 54045, 52772, 54371, 53245, 54677, 53681, 54097, 53229, 53526, 53752, 53483, 53915, 53421, 53454, 53070, 53204, 53577, 54036, 54719, 54236, 54331, 54103, 54682, 55070, 55331, 54758, 54413, 54694, 54189, 54716, 54109, 55049, 54491, 55190, 54402, 55523, 55142, 55559, 55614, 55900, 54876, 55509, 55442, 55182, 55564, 55402, 55079, 54967, 55204, 55215, 55627, 55380, 55780, 55064, 54892, 55505, 55105, 56172, 55061, 56239, 55392, 56727, 55995, 56403, 56605, 57371, 56401, 55327, 56473, 56152, 55285, 56838, 55859, 56752, 56025, 56923, 56494, 57037, 56698, 56545, 56365, 56185, 57060, 55846, 56984, 56565, 57377, 56829, 56130, 57220, 56248, 57929, 56372, 57559, 56511, 57078, 56246, 56480, 56529, 56272, 57047, 58149, 57804, 57294, 56821, 57033, 57036, 57016, 57050, 57430, 57065, 57540, 56882, 57607, 56876, 56940, 56278, 56622, 56926, 56497, 56121, 56676, 56507, 56914, 56000, 56895, 56228, 57123, 57041, 56450, 57298, 57843, 56511, 57648, 56428, 57121, 56273, 57220, 56683, 57112, 56456, 56788, 56349, 57213, 57008, 57136, 57156, 56675, 57020, 56330, 57303, 56831, 57070, 57902, 56968, 57285, 58024, 57121, 57507, 56611, 57040, 56872, 57011, 56634, 57376, 56072, 56777, 55902, 56941, 56525, 53625, 55053, 55284, 55793, 56097, 55436, 56454, 55082, 56341, 55119, 56404, 55554, 55620, 56240, 56043, 56347, 55970, 56036, 55675, 55996, 54682, 54803, 56031, 56539, 56663, 55644, 56510, 56777, 56134, 56130, 56283, 56001, 56259, 56158, 55873, 56291, 55985, 56575, 56126, 56646, 55862, 56483, 55754],
      "WindowCenter": [10683.0, 10672.0, 10633.0, 10603.0, 10580.0, 10583.0, 10542.0, 10576.0, 10575.0, 10603.0, 10596.0, 10586.0, 10597.0, 10597.0, 10593.0, 10582.0, 10566.0, 10560.0, 10562.0, 10555.0, 10548.0, 10567.0, 10543.0, 10564.0, 10564.0, 10563.0, 10556.0, 10544.0, 10538.0, 10555.0, 10547.0, 10564.0, 10554.0, 10558.0, 10578.0, 10565.0, 10579.0, 10590.0, 10592.0, 10581.0, 10564.0, 10551.0, 10557.0, 10539.0, 10543.0, 10567.0, 10568.0, 10572.0, 10582.0, 10586.0, 10569.0, 10588.0, 10591.0, 10593.0, 10585.0, 10574.0, 10572.0, 10565.0, 10576.0, 10580.0, 10577.0, 10581.0, 10568.0, 10558.0, 10555.0, 10551.0, 10557.0, 10572.0, 10561.0, 10560.0, 10551.0, 10540.0, 10552.0, 10538.0, 10588.0, 10547.0, 10580.0, 10561.0, 10573.0, 10581.0, 10578.0, 10583.0, 10576.0, 10556.0, 10557.0, 10540.0, 10549.0, 10523.0, 10548.0, 10546.0, 10572.0, 10571.0, 10563.0, 10534.0, 10526.0, 10522.0, 10529.0, 10552.0, 10564.0, 10575.0, 10576.0, 10576.0, 10567.0, 10568.0, 10566.0, 10563.0, 10567.0, 10562.0, 10566.0, 10565.0, 10569.0, 10568.0, 10567.0, 10561.0, 10553.0, 10551.0, 10550.0, 10556.0, 10559.0, 10558.0, 10551.0, 10555.0, 10546.0, 10549.0, 10559.0, 10572.0, 10573.0, 10586.0, 10579.0, 10573.0, 10578.0, 10584.0, 10581.0, 10586.0, 10594.0, 10593.0, 10592.0, 10585.0, 10590.0, 10586.0, 10594.0, 10601.0, 10595.0, 10602.0, 10587.0, 10589.0, 10584.0, 10594.0, 10590.0, 10601.0, 10602.0, 10598.0, 10570.0, 10566.0, 10567.0, 10562.0, 10558.0, 10568.0, 10564.0, 10571.0, 10571.0, 10576.0, 10576.0, 10582.0, 10590.0, 10591.0, 10595.0, 10594.0, 10605.0, 10593.0, 10596.0, 10586.0, 10590.0, 10598.0, 10588.0, 10585.0, 10571.0, 10578.0, 10565.0, 10572.0, 10581.0, 10586.0, 10585.0, 10587.0, 10585.0, 10576.0, 10587.0, 10599.0, 10596.0, 10574.0, 10541.0, 10532.0, 10531.0, 10527.0, 10534.0, 10552.0, 10540.0, 10536.0, 10545.0, 10552.0, 10561.0, 10573.0, 10575.0, 10575.0, 10587.0, 10591.0, 10583.0, 10605.0, 10615.0, 10633.0, 10614.0, 10609.0, 10596.0, 10597.0, 10588.0, 10580.0, 10583.0, 10588.0, 10593.0, 10605.0, 10594.0, 10591.0, 10585.0, 10592.0, 10592.0, 10598.0, 10602.0, 10592.0, 10577.0, 10585.0, 10573.0, 10579.0, 10594.0, 10578.0, 10563.0, 10538.0, 10537.0, 10536.0, 10549.0, 10566.0, 10565.0, 10572.0, 10582.0, 10571.0, 10565.0, 10555.0, 10560.0, 10569.0, 10563.0, 10576.0, 10584.0, 10573.0, 10583.0, 10579.0, 10592.0, 10577.0, 10474.0, 10534.0, 10554.0, 10548.0, 10523.0, 10497.0, 10487.0, 10457.0, 10485.0, 10473.0, 10481.0, 10473.0, 10485.0, 10490.0, 10483.0, 10482.0, 10490.0, 10489.0, 10497.0, 10504.0, 10520.0, 10535.0, 10562.0, 10560.0, 10551.0, 10529.0, 10540.0, 10542.0, 10558.0, 10562.0, 10569.0, 10565.0, 10562.0, 10547.0, 10545.0, 10538.0, 10542.0, 10550.0, 10544.0, 10542.0, 10535.0, 10533.0, 10527.0],
