{
  "AcquisitionMatrixPE": 104,
  "AcquisitionNumber": 1,
  "AcquisitionTime": "11:49:42.572500",
  "BandwidthPerPixelPhaseEncode": 17.17,
  "BaseResolution": 104,
  "BodyPartExamined": "BRAIN",
  "CoilCombinationMethod": "Sum of Squares",
  "ConsistencyInfo": "N4_VE11C_LATEST_20160120",
  "ConversionSoftware": "dcm2niix",
  "ConversionSoftwareVersion": "v1.0.20220505",
  "DerivedVendorReportedEchoSpacing": 0.000560011,
  "DeviceSerialNumber": "167006",
  "DwellTime": 2.1e-06,
  "EchoTime": 0.037,
  "EchoTime1": 0.037,
  "EchoTime2": 0.001,
  "EchoTrainLength": 104,
  "EffectiveEchoSpacing": 0.000560011,
  "FlipAngle": 52,
  "HeudiconvVersion": "0.5.3.post811+g6206e14",
  "ImageComments": "Unaliased MB4/PE3/LB",
  "ImageOrientationPatientDICOM": [0.996003, 0.0887869, 0.00974527, -0.0785621, 0.922723, -0.377373],
  "ImageOrientationText": "Tra>Cor(-22.1)>Sag(2.4)",
  "ImageType": [
    "ORIGINAL",
    "PRIMARY",
    "P",
    "MB",
    "ND",
    "MOSAIC",
    "PHASE"
],
  "ImagingFrequency": 123.259,
  "InPlanePhaseEncodingDirectionDICOM": "COL",
  "InstitutionAddress": "Chemin Queen-Mary 4565,Montreal,District,CA,H3W 1W5",
  "InstitutionName": "IUGM",
  "InstitutionalDepartmentName": "Department",
  "MRAcquisitionType": "2D",
  "MagneticFieldStrength": 3,
  "Manufacturer": "Siemens",
  "ManufacturersModelName": "Prisma_fit",
  "MatrixCoilMode": "SENSE",
  "Modality": "MR",
  "MultibandAccelerationFactor": 4,
  "PartialFourier": 1,
  "PatientPosition": "HFS",
  "PercentPhaseFOV": 100,
  "PercentSampling": 100,
  "PhaseEncodingDirection": "j",
  "PhaseEncodingSteps": 104,
  "PhaseResolution": 1,
  "PixelBandwidth": 2290,
  "ProcedureStepDescription": "games^mario3",
  "ProtocolName": "func_task-mario3_run-03",
  "PulseSequenceDetails": "%CustomerSeq%\\cmrr_mbep2d_bold",
  "ReceiveCoilActiveElements": "HC1-7;NC1,2",
  "ReceiveCoilName": "HeadNeck_64",
  "ReconMatrixPE": 104,
  "RepetitionTime": 1.49,
  "SAR": 0.0597238,
  "ScanOptions": "FS",
  "ScanningSequence": "EP",
  "SequenceName": "epfid2d1_104",
  "SequenceVariant": "SK\\SS",
  "SeriesDescription": "func_task-mario3_run-03",
  "SeriesNumber": 17,
  "ShimSetting": [595, -7219, -8812, 629, 99, -15, -118, 60],
  "SliceThickness": 2,
  "SliceTiming": [0, 0.7825, 0.0975, 0.8825, 0.195, 0.98, 0.2925, 1.0775, 0.3925, 1.175, 0.49, 1.2725, 0.5875, 1.3725, 0.685, 0, 0.7825, 0.0975, 0.8825, 0.195, 0.98, 0.2925, 1.0775, 0.3925, 1.175, 0.49, 1.2725, 0.5875, 1.3725, 0.685, 0, 0.7825, 0.0975, 0.8825, 0.195, 0.98, 0.2925, 1.0775, 0.3925, 1.175, 0.49, 1.2725, 0.5875, 1.3725, 0.685, 0, 0.7825, 0.0975, 0.8825, 0.195, 0.98, 0.2925, 1.0775, 0.3925, 1.175, 0.49, 1.2725, 0.5875, 1.3725, 0.685],
  "SoftwareVersions": "syngo MR E11",
  "SpacingBetweenSlices": 2,
  "StationName": "MRC35049",
  "TaskName": "mario3",
  "TotalReadoutTime": 0.0576811,
  "TxRefAmp": 277.055,
  "WipMemBlock": "90cb2438-5bff-4055-b580-ab7b4b3cfdae||Sequence: R017 ve11c/master r/75a17815+; Jun 28 2022 16:32:11 by eja",
  "dcmmeta_affine": [
    [-1.9920059442520142, -0.15712414681911469, 0.08499594777822495, 112.65969848632812],
    [-0.17757372558116913, 1.8454456329345703, -0.7501986026763916, -55.75303268432617],
    [0.019490543752908707, 0.7547466158866882, 1.8520199060440063, -65.4618911743164],
    [0.0, 0.0, 0.0, 1.0]
],
  "dcmmeta_reorient_transform": [
    [0.0, -1.0, 0.0, 103.0],
    [1.0, 0.0, 0.0, 0.0],
    [0.0, 0.0, 1.0, 0.0],
    [0.0, 0.0, 0.0, 1.0]
],
  "dcmmeta_shape": [104, 104, 60, 334],
  "dcmmeta_slice_dim": 2,
  "dcmmeta_version": 0.6,
  "global": {
    "const": {
      "AcquisitionMatrix": [104, 0, 0, 104],
      "AngioFlag": "N",
      "BitsAllocated": 16,
      "BitsStored": 16,
      "BodyPartExamined": "BRAIN",
      "Columns": 832,
      "EchoNumbers": 1,
      "EchoTime": 37.0,
      "EchoTrainLength": 104,
      "FlipAngle": 52.0,
      "HighBit": 15,
      "ImageOrientationPatient": [0.9960029732889, 0.08878686202821, 0.00974527223054, -0.0785620723373, 0.92272281420057, -0.3773733018429],
      "ImagePositionPatient": [-764.37288780209, -870.70691190469, 279.91021608734],
      "ImageType": [
        "ORIGINAL",
        "PRIMARY",
        "P",
        "MB",
        "ND",
        "MOSAIC"
],
      "ImagedNucleus": "1H",
      "ImagingFrequency": 123.259093,
      "InPlanePhaseEncodingDirection": "COL",
      "LargestImagePixelValue": 4095,
      "MRAcquisitionType": "2D",
      "MagneticFieldStrength": 3.0,
      "Manufacturer": "SIEMENS",
      "ManufacturerModelName": "Prisma_fit",
      "Modality": "MR",
      "NumberOfAverages": 1.0,
      "NumberOfPhaseEncodingSteps": 104,
      "PercentPhaseFieldOfView": 100.0,
      "PercentSampling": 100.0,
      "PerformedProcedureStepStartTime": "112521.934000",
      "PhotometricInterpretation": "MONOCHROME2",
      "PixelBandwidth": 2290.0,
      "PixelRepresentation": 0,
      "PixelSpacing": [2.0, 2.0],
      "ProtocolName": "func_task-mario3_run-03",
      "RepetitionTime": 1490.0,
      "RescaleIntercept": -4096.0,
      "RescaleSlope": 2.0,
      "RescaleType": "US",
      "Rows": 832,
      "SAR": 0.05972380493354,
      "SamplesPerPixel": 1,
      "ScanOptions": "FS",
      "ScanningSequence": "EP",
      "SequenceName": "epfid2d1_104",
      "SequenceVariant": [
        "SK",
        "SS"
],
      "SeriesDescription": "func_task-mario3_run-03",
      "SeriesNumber": 17,
      "SeriesTime": "115110.326000",
      "SliceLocation": -34.917627172282,
      "SliceThickness": 2.0,
      "SmallestImagePixelValue": 0,
      "SoftwareVersions": "syngo MR E11",
      "SpacingBetweenSlices": 1.9999999647214,
      "SpecificCharacterSet": "ISO_IR 100",
      "StudyID": "1",
      "StudyTime": "112521.855000",
      "TransmitCoilName": "Body",
      "VariableFlipAngleFlag": "N",
      "WindowCenterWidthExplanation": "Algo1",
      "dBdt": 0.0},
    "slices": {}
  },
  "time": {
    "samples": {
      "AcquisitionNumber": [1, 2, 3, 4, 5, 6, 7, 8, 9, 10, 11, 12, 13, 14, 15, 16, 17, 18, 19, 20, 21, 22, 23, 24, 25, 26, 27, 28, 29, 30, 31, 32, 33, 34, 35, 36, 37, 38, 39, 40, 41, 42, 43, 44, 45, 46, 47, 48, 49, 50, 51, 52, 53, 54, 55, 56, 57, 58, 59, 60, 61, 62, 63, 64, 65, 66, 67, 68, 69, 70, 71, 72, 73, 74, 75, 76, 77, 78, 79, 80, 81, 82, 83, 84, 85, 86, 87, 88, 89, 90, 91, 92, 93, 94, 95, 96, 97, 98, 99, 100, 101, 102, 103, 104, 105, 106, 107, 108, 109, 110, 111, 112, 113, 114, 115, 116, 117, 118, 119, 120, 121, 122, 123, 124, 125, 126, 127, 128, 129, 130, 131, 132, 133, 134, 135, 136, 137, 138, 139, 140, 141, 142, 143, 144, 145, 146, 147, 148, 149, 150, 151, 152, 153, 154, 155, 156, 157, 158, 159, 160, 161, 162, 163, 164, 165, 166, 167, 168, 169, 170, 171, 172, 173, 174, 175, 176, 177, 178, 179, 180, 181, 182, 183, 184, 185, 186, 187, 188, 189, 190, 191, 192, 193, 194, 195, 196, 197, 198, 199, 200, 201, 202, 203, 204, 205, 206, 207, 208, 209, 210, 211, 212, 213, 214, 215, 216, 217, 218, 219, 220, 221, 222, 223, 224, 225, 226, 227, 228, 229, 230, 231, 232, 233, 234, 235, 236, 237, 238, 239, 240, 241, 242, 243, 244, 245, 246, 247, 248, 249, 250, 251, 252, 253, 254, 255, 256, 257, 258, 259, 260, 261, 262, 263, 264, 265, 266, 267, 268, 269, 270, 271, 272, 273, 274, 275, 276, 277, 278, 279, 280, 281, 282, 283, 284, 285, 286, 287, 288, 289, 290, 291, 292, 293, 294, 295, 296, 297, 298, 299, 300, 301, 302, 303, 304, 305, 306, 307, 308, 309, 310, 311, 312, 313, 314, 315, 316, 317, 318, 319, 320, 321, 322, 323, 324, 325, 326, 327, 328, 329, 330, 331, 332, 333, 334],
      "AcquisitionTime": ["114942.572500", "114944.062500", "114945.552500", "114947.042500", "114948.532500", "114950.022500", "114951.512500", "114953.002500", "114954.492500", "114955.982500", "114957.472500", "114958.962500", "115000.452500", "115001.942500", "115003.432500", "115004.922500", "115006.412500", "115007.902500", "115009.392500", "115010.882500", "115012.372500", "115013.862500", "115015.352500", "115016.842500", "115018.332500", "115019.822500", "115021.312500", "115022.802500", "115024.292500", "115025.782500", "115027.272500", "115028.762500", "115030.252500", "115031.742500", "115033.232500", "115034.722500", "115036.212500", "115037.702500", "115039.192500", "115040.682500", "115042.172500", "115043.662500", "115045.152500", "115046.642500", "115048.132500", "115049.622500", "115051.112500", "115052.602500", "115054.092500", "115055.582500", "115057.072500", "115058.562500", "115100.052500", "115101.542500", "115103.032500", "115104.522500", "115106.012500", "115107.502500", "115108.992500", "115110.482500", "115111.972500", "115113.462500", "115114.952500", "115116.442500", "115117.932500", "115119.422500", "115120.912500", "115122.402500", "115123.892500", "115125.382500", "115126.872500", "115128.362500", "115129.852500", "115131.342500", "115132.832500", "115134.322500", "115135.812500", "115137.302500", "115138.792500", "115140.282500", "115141.772500", "115143.262500", "115144.752500", "115146.242500", "115147.732500", "115149.222500", "115150.712500", "115152.202500", "115153.692500", "115155.182500", "115156.672500", "115158.162500", "115159.652500", "115201.142500", "115202.632500", "115204.122500", "115205.612500", "115207.102500", "115208.592500", "115210.082500", "115211.572500", "115213.062500", "115214.552500", "115216.042500", "115217.532500", "115219.022500", "115220.512500", "115222.002500", "115223.492500", "115224.982500", "115226.472500", "115227.962500", "115229.452500", "115230.942500", "115232.432500", "115233.922500", "115235.412500", "115236.902500", "115238.392500", "115239.882500", "115241.372500", "115242.862500", "115244.352500", "115245.842500", "115247.332500", "115248.822500", "115250.312500", "115251.802500", "115253.292500", "115254.782500", "115256.272500", "115257.762500", "115259.252500", "115300.742500", "115302.232500", "115303.722500", "115305.212500", "115306.702500", "115308.192500", "115309.682500", "115311.172500", "115312.662500", "115314.152500", "115315.642500", "115317.132500", "115318.622500", "115320.112500", "115321.602500", "115323.092500", "115324.582500", "115326.072500", "115327.562500", "115329.052500", "115330.542500", "115332.032500", "115333.522500", "115335.012500", "115336.502500", "115337.992500", "115339.482500", "115340.972500", "115342.462500", "115343.952500", "115345.442500", "115346.932500", "115348.422500", "115349.912500", "115351.402500", "115352.892500", "115354.382500", "115355.872500", "115357.362500", "115358.852500", "115400.342500", "115401.832500", "115403.322500", "115404.812500", "115406.302500", "115407.792500", "115409.282500", "115410.772500", "115412.262500", "115413.752500", "115415.242500", "115416.732500", "115418.222500", "115419.712500", "115421.202500", "115422.692500", "115424.182500", "115425.672500", "115427.162500", "115428.652500", "115430.142500", "115431.632500", "115433.122500", "115434.612500", "115436.102500", "115437.592500", "115439.082500", "115440.572500", "115442.062500", "115443.552500", "115445.042500", "115446.532500", "115448.022500", "115449.512500", "115451.002500", "115452.492500", "115453.982500", "115455.472500", "115456.962500", "115458.452500", "115459.942500", "115501.432500", "115502.922500", "115504.412500", "115505.902500", "115507.392500", "115508.882500", "115510.372500", "115511.862500", "115513.352500", "115514.842500", "115516.332500", "115517.822500", "115519.312500", "115520.802500", "115522.292500", "115523.782500", "115525.272500", "115526.762500", "115528.252500", "115529.742500", "115531.232500", "115532.722500", "115534.212500", "115535.702500", "115537.192500", "115538.682500", "115540.172500", "115541.662500", "115543.152500", "115544.642500", "115546.132500", "115547.622500", "115549.112500", "115550.602500", "115552.092500", "115553.582500", "115555.072500", "115556.562500", "115558.052500", "115559.542500", "115601.032500", "115602.522500", "115604.012500", "115605.502500", "115606.992500", "115608.482500", "115609.972500", "115611.462500", "115612.952500", "115614.442500", "115615.932500", "115617.422500", "115618.912500", "115620.402500", "115621.892500", "115623.382500", "115624.872500", "115626.362500", "115627.852500", "115629.342500", "115630.832500", "115632.322500", "115633.812500", "115635.302500", "115636.792500", "115638.282500", "115639.772500", "115641.262500", "115642.752500", "115644.242500", "115645.732500", "115647.222500", "115648.712500", "115650.202500", "115651.692500", "115653.182500", "115654.672500", "115656.162500", "115657.652500", "115659.142500", "115700.632500", "115702.122500", "115703.612500", "115705.102500", "115706.592500", "115708.082500", "115709.572500", "115711.062500", "115712.552500", "115714.042500", "115715.532500", "115717.022500", "115718.512500", "115720.002500", "115721.492500", "115722.982500", "115724.472500", "115725.962500", "115727.452500", "115728.942500", "115730.432500", "115731.922500", "115733.412500", "115734.902500", "115736.392500", "115737.882500", "115739.372500", "115740.862500", "115742.352500", "115743.842500", "115745.332500", "115746.822500", "115748.312500", "115749.802500", "115751.292500", "115752.782500", "115754.272500", "115755.762500", "115757.252500", "115758.742500"],
      "ContentTime": ["115110.328000", "115110.331000", "115110.334000", "115110.336000", "115110.339000", "115110.341000", "115110.344000", "115110.346000", "115110.349000", "115110.351000", "115110.354000", "115110.356000", "115110.359000", "115110.361000", "115110.364000", "115110.366000", "115110.369000", "115110.371000", "115110.374000", "115110.376000", "115110.379000", "115110.381000", "115110.384000", "115110.386000", "115110.389000", "115110.391000", "115110.394000", "115110.396000", "115110.399000", "115110.401000", "115110.404000", "115110.407000", "115110.409000", "115110.412000", "115110.414000", "115110.417000", "115110.419000", "115110.422000", "115110.424000", "115130.183000", "115130.189000", "115130.191000", "115130.194000", "115130.196000", "115130.199000", "115130.201000", "115130.204000", "115130.206000", "115130.209000", "115130.211000", "115130.214000", "115130.216000", "115130.219000", "115130.221000", "115130.224000", "115130.226000", "115130.229000", "115130.231000", "115130.234000", "115130.236000", "115150.181000", "115150.184000", "115150.187000", "115150.189000", "115150.192000", "115150.194000", "115150.197000", "115150.199000", "115150.202000", "115150.204000", "115150.207000", "115150.209000", "115150.212000", "115150.214000", "115150.217000", "115150.219000", "115150.222000", "115150.225000", "115150.227000", "115150.230000", "115230.237000", "115230.239000", "115230.242000", "115230.244000", "115230.247000", "115230.250000", "115230.252000", "115230.255000", "115230.257000", "115230.260000", "115230.262000", "115230.265000", "115230.267000", "115230.270000", "115230.272000", "115230.275000", "115230.277000", "115230.280000", "115230.282000", "115230.285000", "115230.288000", "115230.290000", "115230.293000", "115230.302000", "115230.304000", "115230.307000", "115230.309000", "115230.312000", "115230.314000", "115230.317000", "115230.320000", "115310.204000", "115310.207000", "115310.209000", "115310.212000", "115310.215000", "115310.217000", "115310.220000", "115310.222000", "115310.225000", "115310.227000", "115310.230000", "115310.233000", "115310.235000", "115310.248000", "115310.250000", "115310.253000", "115310.255000", "115310.258000", "115310.260000", "115310.264000", "115310.267000", "115310.269000", "115310.272000", "115310.275000", "115310.277000", "115310.280000", "115310.282000", "115350.776000", "115350.779000", "115350.781000", "115350.784000", "115350.786000", "115350.789000", "115350.792000", "115350.794000", "115350.797000", "115350.799000", "115350.802000", "115350.804000", "115350.807000", "115350.809000", "115350.812000", "115350.814000", "115350.817000", "115350.819000", "115350.822000", "115350.825000", "115350.827000", "115350.830000", "115350.832000", "115350.835000", "115350.837000", "115350.840000", "115350.842000", "115430.218000", "115430.221000", "115430.224000", "115430.226000", "115430.229000", "115430.240000", "115430.243000", "115430.245000", "115430.248000", "115430.250000", "115430.253000", "115430.255000", "115430.258000", "115430.260000", "115430.263000", "115430.265000", "115430.268000", "115430.270000", "115430.273000", "115430.276000", "115430.278000", "115430.281000", "115430.283000", "115430.286000", "115430.288000", "115430.291000", "115430.294000", "115450.154000", "115450.157000", "115450.233000", "115450.236000", "115450.239000", "115450.242000", "115450.245000", "115450.247000", "115450.250000", "115450.252000", "115450.255000", "115450.257000", "115450.260000", "115530.219000", "115530.222000", "115530.224000", "115530.227000", "115530.230000", "115530.234000", "115530.236000", "115530.239000", "115530.241000", "115530.244000", "115530.247000", "115530.249000", "115530.252000", "115530.254000", "115530.257000", "115530.260000", "115530.262000", "115530.265000", "115530.267000", "115530.270000", "115530.272000", "115530.275000", "115530.277000", "115530.280000", "115530.283000", "115530.285000", "115530.288000", "115610.261000", "115610.264000", "115610.266000", "115610.269000", "115610.271000", "115610.274000", "115610.277000", "115610.279000", "115610.282000", "115610.284000", "115610.287000", "115610.290000", "115610.292000", "115610.295000", "115610.297000", "115610.300000", "115610.303000", "115610.305000", "115610.308000", "115610.310000", "115610.313000", "115610.315000", "115610.318000", "115610.321000", "115610.323000", "115610.326000", "115610.329000", "115650.206000", "115650.209000", "115650.211000", "115650.214000", "115650.216000", "115650.219000", "115650.222000", "115650.224000", "115650.227000", "115650.229000", "115650.232000", "115650.234000", "115650.237000", "115650.239000", "115650.242000", "115650.244000", "115650.247000", "115650.250000", "115650.252000", "115650.255000", "115650.257000", "115650.260000", "115650.262000", "115650.265000", "115650.267000", "115650.270000", "115650.272000", "115730.261000", "115730.263000", "115730.266000", "115730.269000", "115730.271000", "115730.274000", "115730.276000", "115730.279000", "115730.281000", "115730.284000", "115730.286000", "115730.289000", "115730.291000", "115730.294000", "115730.296000", "115730.299000", "115730.302000", "115730.304000", "115730.307000", "115730.309000", "115730.312000", "115730.314000", "115730.317000", "115730.319000", "115730.322000", "115730.324000", "115730.327000", "115801.308000", "115801.310000", "115801.313000", "115801.316000", "115801.318000", "115801.321000", "115801.323000", "115801.326000", "115801.328000", "115801.331000", "115801.333000", "115801.336000", "115801.338000", "115801.341000", "115801.343000", "115801.346000", "115801.349000", "115801.352000", "115801.354000", "115801.357000", "115801.359000"],
      "InstanceCreationTime": ["115110.328000", "115110.331000", "115110.334000", "115110.336000", "115110.339000", "115110.341000", "115110.344000", "115110.346000", "115110.349000", "115110.351000", "115110.354000", "115110.356000", "115110.359000", "115110.361000", "115110.364000", "115110.366000", "115110.369000", "115110.371000", "115110.374000", "115110.376000", "115110.379000", "115110.381000", "115110.384000", "115110.386000", "115110.389000", "115110.391000", "115110.394000", "115110.396000", "115110.399000", "115110.401000", "115110.404000", "115110.407000", "115110.409000", "115110.412000", "115110.414000", "115110.417000", "115110.419000", "115110.422000", "115110.424000", "115130.183000", "115130.189000", "115130.191000", "115130.194000", "115130.196000", "115130.199000", "115130.201000", "115130.204000", "115130.206000", "115130.209000", "115130.211000", "115130.214000", "115130.216000", "115130.219000", "115130.221000", "115130.224000", "115130.226000", "115130.229000", "115130.231000", "115130.234000", "115130.236000", "115150.181000", "115150.184000", "115150.187000", "115150.189000", "115150.192000", "115150.194000", "115150.197000", "115150.199000", "115150.202000", "115150.204000", "115150.207000", "115150.209000", "115150.212000", "115150.214000", "115150.217000", "115150.219000", "115150.222000", "115150.225000", "115150.227000", "115150.230000", "115230.237000", "115230.239000", "115230.242000", "115230.244000", "115230.247000", "115230.250000", "115230.252000", "115230.255000", "115230.257000", "115230.260000", "115230.262000", "115230.265000", "115230.267000", "115230.270000", "115230.272000", "115230.275000", "115230.277000", "115230.280000", "115230.282000", "115230.285000", "115230.288000", "115230.290000", "115230.293000", "115230.302000", "115230.304000", "115230.307000", "115230.309000", "115230.312000", "115230.314000", "115230.317000", "115230.320000", "115310.204000", "115310.207000", "115310.209000", "115310.212000", "115310.215000", "115310.217000", "115310.220000", "115310.222000", "115310.225000", "115310.227000", "115310.230000", "115310.233000", "115310.235000", "115310.248000", "115310.250000", "115310.253000", "115310.255000", "115310.258000", "115310.260000", "115310.264000", "115310.267000", "115310.269000", "115310.272000", "115310.275000", "115310.277000", "115310.280000", "115310.282000", "115350.776000", "115350.779000", "115350.781000", "115350.784000", "115350.786000", "115350.789000", "115350.792000", "115350.794000", "115350.797000", "115350.799000", "115350.802000", "115350.804000", "115350.807000", "115350.809000", "115350.812000", "115350.814000", "115350.817000", "115350.819000", "115350.822000", "115350.825000", "115350.827000", "115350.830000", "115350.832000", "115350.835000", "115350.837000", "115350.840000", "115350.842000", "115430.218000", "115430.221000", "115430.224000", "115430.226000", "115430.229000", "115430.240000", "115430.243000", "115430.245000", "115430.248000", "115430.250000", "115430.253000", "115430.255000", "115430.258000", "115430.260000", "115430.263000", "115430.265000", "115430.268000", "115430.270000", "115430.273000", "115430.276000", "115430.278000", "115430.281000", "115430.283000", "115430.286000", "115430.288000", "115430.291000", "115430.294000", "115450.154000", "115450.157000", "115450.233000", "115450.236000", "115450.239000", "115450.242000", "115450.245000", "115450.247000", "115450.250000", "115450.252000", "115450.255000", "115450.257000", "115450.260000", "115530.219000", "115530.222000", "115530.224000", "115530.227000", "115530.230000", "115530.234000", "115530.236000", "115530.239000", "115530.241000", "115530.244000", "115530.247000", "115530.249000", "115530.252000", "115530.254000", "115530.257000", "115530.260000", "115530.262000", "115530.265000", "115530.267000", "115530.270000", "115530.272000", "115530.275000", "115530.277000", "115530.280000", "115530.283000", "115530.285000", "115530.288000", "115610.261000", "115610.264000", "115610.266000", "115610.269000", "115610.271000", "115610.274000", "115610.277000", "115610.279000", "115610.282000", "115610.284000", "115610.287000", "115610.290000", "115610.292000", "115610.295000", "115610.297000", "115610.300000", "115610.303000", "115610.305000", "115610.308000", "115610.310000", "115610.313000", "115610.315000", "115610.318000", "115610.321000", "115610.323000", "115610.326000", "115610.329000", "115650.206000", "115650.209000", "115650.211000", "115650.214000", "115650.216000", "115650.219000", "115650.222000", "115650.224000", "115650.227000", "115650.229000", "115650.232000", "115650.234000", "115650.237000", "115650.239000", "115650.242000", "115650.244000", "115650.247000", "115650.250000", "115650.252000", "115650.255000", "115650.257000", "115650.260000", "115650.262000", "115650.265000", "115650.267000", "115650.270000", "115650.272000", "115730.261000", "115730.263000", "115730.266000", "115730.269000", "115730.271000", "115730.274000", "115730.276000", "115730.279000", "115730.281000", "115730.284000", "115730.286000", "115730.289000", "115730.291000", "115730.294000", "115730.296000", "115730.299000", "115730.302000", "115730.304000", "115730.307000", "115730.309000", "115730.312000", "115730.314000", "115730.317000", "115730.319000", "115730.322000", "115730.324000", "115730.327000", "115801.308000", "115801.310000", "115801.313000", "115801.316000", "115801.318000", "115801.321000", "115801.323000", "115801.326000", "115801.328000", "115801.331000", "115801.333000", "115801.336000", "115801.338000", "115801.341000", "115801.343000", "115801.346000", "115801.349000", "115801.352000", "115801.354000", "115801.357000", "115801.359000"],
      "InstanceNumber": [1, 2, 3, 4, 5, 6, 7, 8, 9, 10, 11, 12, 13, 14, 15, 16, 17, 18, 19, 20, 21, 22, 23, 24, 25, 26, 27, 28, 29, 30, 31, 32, 33, 34, 35, 36, 37, 38, 39, 40, 41, 42, 43, 44, 45, 46, 47, 48, 49, 50, 51, 52, 53, 54, 55, 56, 57, 58, 59, 60, 61, 62, 63, 64, 65, 66, 67, 68, 69, 70, 71, 72, 73, 74, 75, 76, 77, 78, 79, 80, 81, 82, 83, 84, 85, 86, 87, 88, 89, 90, 91, 92, 93, 94, 95, 96, 97, 98, 99, 100, 101, 102, 103, 104, 105, 106, 107, 108, 109, 110, 111, 112, 113, 114, 115, 116, 117, 118, 119, 120, 121, 122, 123, 124, 125, 126, 127, 128, 129, 130, 131, 132, 133, 134, 135, 136, 137, 138, 139, 140, 141, 142, 143, 144, 145, 146, 147, 148, 149, 150, 151, 152, 153, 154, 155, 156, 157, 158, 159, 160, 161, 162, 163, 164, 165, 166, 167, 168, 169, 170, 171, 172, 173, 174, 175, 176, 177, 178, 179, 180, 181, 182, 183, 184, 185, 186, 187, 188, 189, 190, 191, 192, 193, 194, 195, 196, 197, 198, 199, 200, 201, 202, 203, 204, 205, 206, 207, 208, 209, 210, 211, 212, 213, 214, 215, 216, 217, 218, 219, 220, 221, 222, 223, 224, 225, 226, 227, 228, 229, 230, 231, 232, 233, 234, 235, 236, 237, 238, 239, 240, 241, 242, 243, 244, 245, 246, 247, 248, 249, 250, 251, 252, 253, 254, 255, 256, 257, 258, 259, 260, 261, 262, 263, 264, 265, 266, 267, 268, 269, 270, 271, 272, 273, 274, 275, 276, 277, 278, 279, 280, 281, 282, 283, 284, 285, 286, 287, 288, 289, 290, 291, 292, 293, 294, 295, 296, 297, 298, 299, 300, 301, 302, 303, 304, 305, 306, 307, 308, 309, 310, 311, 312, 313, 314, 315, 316, 317, 318, 319, 320, 321, 322, 323, 324, 325, 326, 327, 328, 329, 330, 331, 332, 333, 334],
      "WindowCenter": [4848.0, 4848.0, 4850.0, 4826.0, 4818.0, 4822.0, 4824.0, 4848.0, 4844.0, 4826.0, 4848.0, 4850.0, 4826.0, 4822.0, 4822.0, 4822.0, 4844.0, 4846.0, 4824.0, 4846.0, 4846.0, 4820.0, 4848.0, 4844.0, 4846.0, 4844.0, 4844.0, 4844.0, 4844.0, 4846.0, 4824.0, 4822.0, 4844.0, 4844.0, 4844.0, 4822.0, 4820.0, 4818.0, 4844.0, 4822.0, 4844.0, 4844.0, 4846.0, 4846.0, 4846.0, 4846.0, 4842.0, 4820.0, 4846.0, 4820.0, 4844.0, 4844.0, 4846.0, 4840.0, 4822.0, 4844.0, 4844.0, 4818.0, 4820.0, 4842.0, 4820.0, 4824.0, 4840.0, 4820.0, 4822.0, 4822.0, 4846.0, 4822.0, 4822.0, 4820.0, 4844.0, 4844.0, 4846.0, 4846.0, 4820.0, 4822.0, 4818.0, 4844.0, 4848.0, 4820.0, 4822.0, 4848.0, 4846.0, 4842.0, 4844.0, 4818.0, 4816.0, 4820.0, 4842.0, 4846.0, 4844.0, 4844.0, 4844.0, 4822.0, 4822.0, 4842.0, 4822.0, 4820.0, 4844.0, 4842.0, 4842.0, 4844.0, 4820.0, 4844.0, 4842.0, 4844.0, 4818.0, 4840.0, 4820.0, 4820.0, 4844.0, 4822.0, 4820.0, 4840.0, 4820.0, 4844.0, 4844.0, 4820.0, 4842.0, 4820.0, 4822.0, 4844.0, 4840.0, 4820.0, 4818.0, 4842.0, 4842.0, 4842.0, 4818.0, 4818.0, 4842.0, 4842.0, 4842.0, 4842.0, 4844.0, 4844.0, 4842.0, 4842.0, 4848.0, 4818.0, 4842.0, 4822.0, 4844.0, 4840.0, 4840.0, 4818.0, 4818.0, 4816.0, 4820.0, 4816.0, 4840.0, 4818.0, 4842.0, 4820.0, 4842.0, 4842.0, 4842.0, 4838.0, 4840.0, 4820.0, 4818.0, 4844.0, 4822.0, 4818.0, 4842.0, 4842.0, 4820.0, 4816.0, 4816.0, 4818.0, 4842.0, 4840.0, 4842.0, 4816.0, 4818.0, 4840.0, 4816.0, 4838.0, 4818.0, 4820.0, 4816.0, 4840.0, 4818.0, 4818.0, 4818.0, 4816.0, 4816.0, 4820.0, 4842.0, 4840.0, 4820.0, 4816.0, 4818.0, 4818.0, 4818.0, 4816.0, 4840.0, 4840.0, 4818.0, 4820.0, 4818.0, 4822.0, 4822.0, 4820.0, 4818.0, 4824.0, 4820.0, 4818.0, 4818.0, 4818.0, 4816.0, 4818.0, 4820.0, 4816.0, 4818.0, 4818.0, 4818.0, 4820.0, 4820.0, 4820.0, 4840.0, 4816.0, 4818.0, 4818.0, 4820.0, 4820.0, 4820.0, 4820.0, 4818.0, 4818.0, 4820.0, 4818.0, 4818.0, 4820.0, 4820.0, 4818.0, 4818.0, 4820.0, 4840.0, 4842.0, 4838.0, 4818.0, 4840.0, 4842.0, 4840.0, 4842.0, 4838.0, 4820.0, 4818.0, 4844.0, 4820.0, 4818.0, 4818.0, 4820.0, 4842.0, 4844.0, 4822.0, 4818.0, 4820.0, 4842.0, 4818.0, 4844.0, 4840.0, 4818.0, 4818.0, 4816.0, 4822.0, 4840.0, 4818.0, 4820.0, 4818.0, 4822.0, 4820.0, 4816.0, 4816.0, 4842.0, 4818.0, 4818.0, 4820.0, 4844.0, 4818.0, 4840.0, 4840.0, 4818.0, 4818.0, 4844.0, 4816.0, 4838.0, 4816.0, 4816.0, 4816.0, 4844.0, 4816.0, 4816.0, 4818.0, 4818.0, 4814.0, 4816.0, 4818.0, 4814.0, 4842.0, 4840.0, 4818.0, 4840.0, 4818.0, 4816.0, 4820.0, 4816.0, 4838.0, 4842.0, 4844.0, 4820.0, 4844.0, 4816.0, 4818.0, 4818.0, 4818.0, 4842.0, 4818.0, 4818.0, 4844.0, 4818.0, 4818.0, 4844.0, 4820.0, 4818.0, 4818.0, 4820.0, 4816.0, 4818.0, 4844.0, 4844.0, 4842.0, 4818.0],
