{
  "AcquisitionMatrixPE": 104,
  "AcquisitionNumber": 1,
  "AcquisitionTime": "11:28:23.352500",
  "BandwidthPerPixelPhaseEncode": 17.17,
  "BaseResolution": 104,
  "BodyPartExamined": "BRAIN",
  "CoilCombinationMethod": "Sum of Squares",
  "ConsistencyInfo": "N4_VE11C_LATEST_20160120",
  "ConversionSoftware": "dcm2niix",
  "ConversionSoftwareVersion": "v1.0.20220505",
  "DerivedVendorReportedEchoSpacing": 0.000560011,
  "DeviceSerialNumber": "167006",
  "DwellTime": 2.1e-06,
  "EchoTime": 0.037,
  "EchoTime1": 0.037,
  "EchoTime2": 0.001,
  "EchoTrainLength": 104,
  "EffectiveEchoSpacing": 0.000560011,
  "FlipAngle": 52,
  "HeudiconvVersion": "0.5.3.post811+g6206e14",
  "ImageComments": "Unaliased MB4/PE3/LB",
  "ImageOrientationPatientDICOM": [0.996003, 0.0887869, 0.00974527, -0.0785621, 0.922723, -0.377373],
  "ImageOrientationText": "Tra>Cor(-22.1)>Sag(2.4)",
  "ImageType": [
    "ORIGINAL",
    "PRIMARY",
    "P",
    "MB",
    "ND",
    "MOSAIC",
    "PHASE"
],
  "ImagingFrequency": 123.259,
  "InPlanePhaseEncodingDirectionDICOM": "COL",
  "InstitutionAddress": "Chemin Queen-Mary 4565,Montreal,District,CA,H3W 1W5",
  "InstitutionName": "IUGM",
  "InstitutionalDepartmentName": "Department",
  "MRAcquisitionType": "2D",
  "MagneticFieldStrength": 3,
  "Manufacturer": "Siemens",
  "ManufacturersModelName": "Prisma_fit",
  "MatrixCoilMode": "SENSE",
  "Modality": "MR",
  "MultibandAccelerationFactor": 4,
  "PartialFourier": 1,
  "PatientPosition": "HFS",
  "PercentPhaseFOV": 100,
  "PercentSampling": 100,
  "PhaseEncodingDirection": "j",
  "PhaseEncodingSteps": 104,
  "PhaseResolution": 1,
  "PixelBandwidth": 2290,
  "ProcedureStepDescription": "games^mario3",
  "ProtocolName": "func_task-mario3_run-01",
  "PulseSequenceDetails": "%CustomerSeq%\\cmrr_mbep2d_bold",
  "ReceiveCoilActiveElements": "HC1-7;NC1,2",
  "ReceiveCoilName": "HeadNeck_64",
  "ReconMatrixPE": 104,
  "RepetitionTime": 1.49,
  "SAR": 0.0597238,
  "ScanOptions": "FS",
  "ScanningSequence": "EP",
  "SequenceName": "epfid2d1_104",
  "SequenceVariant": "SK\\SS",
  "SeriesDescription": "func_task-mario3_run-01",
  "SeriesNumber": 11,
  "ShimSetting": [595, -7219, -8812, 629, 99, -15, -118, 60],
  "SliceThickness": 2,
  "SliceTiming": [0, 0.7825, 0.0975, 0.88, 0.195, 0.98, 0.2925, 1.0775, 0.39, 1.175, 0.49, 1.2725, 0.5875, 1.37, 0.685, 0, 0.7825, 0.0975, 0.88, 0.195, 0.98, 0.2925, 1.0775, 0.39, 1.175, 0.49, 1.2725, 0.5875, 1.37, 0.685, 0, 0.7825, 0.0975, 0.88, 0.195, 0.98, 0.2925, 1.0775, 0.39, 1.175, 0.49, 1.2725, 0.5875, 1.37, 0.685, 0, 0.7825, 0.0975, 0.88, 0.195, 0.98, 0.2925, 1.0775, 0.39, 1.175, 0.49, 1.2725, 0.5875, 1.37, 0.685],
  "SoftwareVersions": "syngo MR E11",
  "SpacingBetweenSlices": 2,
  "StationName": "MRC35049",
  "TaskName": "mario3",
  "TotalReadoutTime": 0.0576811,
  "TxRefAmp": 277.055,
  "WipMemBlock": "37ce0492-6099-4c3d-a161-92c4d83f61bf||Sequence: R017 ve11c/master r/75a17815+; Jun 28 2022 16:32:11 by eja",
  "dcmmeta_affine": [
    [-1.9920059442520142, -0.15712414681911469, 0.08499594777822495, 112.65969848632812],
    [-0.17757372558116913, 1.8454456329345703, -0.7501986026763916, -55.75303268432617],
    [0.019490543752908707, 0.7547466158866882, 1.8520199060440063, -65.4618911743164],
    [0.0, 0.0, 0.0, 1.0]
],
  "dcmmeta_reorient_transform": [
    [0.0, -1.0, 0.0, 103.0],
    [1.0, 0.0, 0.0, 0.0],
    [0.0, 0.0, 1.0, 0.0],
    [0.0, 0.0, 0.0, 1.0]
],
  "dcmmeta_shape": [104, 104, 60, 336],
  "dcmmeta_slice_dim": 2,
  "dcmmeta_version": 0.6,
  "global": {
    "const": {
      "AcquisitionMatrix": [104, 0, 0, 104],
      "AngioFlag": "N",
      "BitsAllocated": 16,
      "BitsStored": 16,
      "BodyPartExamined": "BRAIN",
      "Columns": 832,
      "EchoNumbers": 1,
      "EchoTime": 37.0,
      "EchoTrainLength": 104,
      "FlipAngle": 52.0,
      "HighBit": 15,
      "ImageOrientationPatient": [0.9960029732889, 0.08878686202821, 0.00974527223054, -0.0785620723373, 0.92272281420057, -0.3773733018429],
      "ImagePositionPatient": [-764.37288780209, -870.70691190469, 279.91021608734],
      "ImageType": [
        "ORIGINAL",
        "PRIMARY",
        "P",
        "MB",
        "ND",
        "MOSAIC"
],
      "ImagedNucleus": "1H",
      "ImagingFrequency": 123.259085,
      "InPlanePhaseEncodingDirection": "COL",
      "LargestImagePixelValue": 4095,
      "MRAcquisitionType": "2D",
      "MagneticFieldStrength": 3.0,
      "Manufacturer": "SIEMENS",
      "ManufacturerModelName": "Prisma_fit",
      "Modality": "MR",
      "NumberOfAverages": 1.0,
      "NumberOfPhaseEncodingSteps": 104,
      "PercentPhaseFieldOfView": 100.0,
      "PercentSampling": 100.0,
      "PerformedProcedureStepStartTime": "112521.934000",
      "PhotometricInterpretation": "MONOCHROME2",
      "PixelBandwidth": 2290.0,
      "PixelRepresentation": 0,
      "PixelSpacing": [2.0, 2.0],
      "ProtocolName": "func_task-mario3_run-01",
      "RepetitionTime": 1490.0,
      "RescaleIntercept": -4096.0,
      "RescaleSlope": 2.0,
      "RescaleType": "US",
      "Rows": 832,
      "SAR": 0.05972380493354,
      "SamplesPerPixel": 1,
      "ScanOptions": "FS",
      "ScanningSequence": "EP",
      "SequenceName": "epfid2d1_104",
      "SequenceVariant": [
        "SK",
        "SS"
],
      "SeriesDescription": "func_task-mario3_run-01",
      "SeriesNumber": 11,
      "SeriesTime": "112948.907000",
      "SliceLocation": -34.917627172282,
      "SliceThickness": 2.0,
      "SmallestImagePixelValue": 0,
      "SoftwareVersions": "syngo MR E11",
      "SpacingBetweenSlices": 1.9999999647214,
      "SpecificCharacterSet": "ISO_IR 100",
      "StudyID": "1",
      "StudyTime": "112521.855000",
      "TransmitCoilName": "Body",
      "VariableFlipAngleFlag": "N",
      "WindowCenterWidthExplanation": "Algo1",
      "dBdt": 0.0},
    "slices": {}
  },
  "time": {
    "samples": {
      "AcquisitionNumber": [1, 2, 3, 4, 5, 6, 7, 8, 9, 10, 11, 12, 13, 14, 15, 16, 17, 18, 19, 20, 21, 22, 23, 24, 25, 26, 27, 28, 29, 30, 31, 32, 33, 34, 35, 36, 37, 38, 39, 40, 41, 42, 43, 44, 45, 46, 47, 48, 49, 50, 51, 52, 53, 54, 55, 56, 57, 58, 59, 60, 61, 62, 63, 64, 65, 66, 67, 68, 69, 70, 71, 72, 73, 74, 75, 76, 77, 78, 79, 80, 81, 82, 83, 84, 85, 86, 87, 88, 89, 90, 91, 92, 93, 94, 95, 96, 97, 98, 99, 100, 101, 102, 103, 104, 105, 106, 107, 108, 109, 110, 111, 112, 113, 114, 115, 116, 117, 118, 119, 120, 121, 122, 123, 124, 125, 126, 127, 128, 129, 130, 131, 132, 133, 134, 135, 136, 137, 138, 139, 140, 141, 142, 143, 144, 145, 146, 147, 148, 149, 150, 151, 152, 153, 154, 155, 156, 157, 158, 159, 160, 161, 162, 163, 164, 165, 166, 167, 168, 169, 170, 171, 172, 173, 174, 175, 176, 177, 178, 179, 180, 181, 182, 183, 184, 185, 186, 187, 188, 189, 190, 191, 192, 193, 194, 195, 196, 197, 198, 199, 200, 201, 202, 203, 204, 205, 206, 207, 208, 209, 210, 211, 212, 213, 214, 215, 216, 217, 218, 219, 220, 221, 222, 223, 224, 225, 226, 227, 228, 229, 230, 231, 232, 233, 234, 235, 236, 237, 238, 239, 240, 241, 242, 243, 244, 245, 246, 247, 248, 249, 250, 251, 252, 253, 254, 255, 256, 257, 258, 259, 260, 261, 262, 263, 264, 265, 266, 267, 268, 269, 270, 271, 272, 273, 274, 275, 276, 277, 278, 279, 280, 281, 282, 283, 284, 285, 286, 287, 288, 289, 290, 291, 292, 293, 294, 295, 296, 297, 298, 299, 300, 301, 302, 303, 304, 305, 306, 307, 308, 309, 310, 311, 312, 313, 314, 315, 316, 317, 318, 319, 320, 321, 322, 323, 324, 325, 326, 327, 328, 329, 330, 331, 332, 333, 334, 335, 336],
      "AcquisitionTime": ["112823.352500", "112824.842500", "112826.332500", "112827.822500", "112829.312500", "112830.802500", "112832.292500", "112833.782500", "112835.272500", "112836.762500", "112838.252500", "112839.742500", "112841.232500", "112842.722500", "112844.212500", "112845.702500", "112847.192500", "112848.682500", "112850.172500", "112851.662500", "112853.152500", "112854.642500", "112856.132500", "112857.622500", "112859.112500", "112900.602500", "112902.092500", "112903.582500", "112905.072500", "112906.562500", "112908.052500", "112909.542500", "112911.032500", "112912.522500", "112914.012500", "112915.502500", "112916.992500", "112918.482500", "112919.972500", "112921.462500", "112922.952500", "112924.442500", "112925.932500", "112927.422500", "112928.912500", "112930.402500", "112931.892500", "112933.382500", "112934.872500", "112936.362500", "112937.852500", "112939.342500", "112940.832500", "112942.322500", "112943.812500", "112945.302500", "112946.792500", "112948.282500", "112949.772500", "112951.262500", "112952.752500", "112954.242500", "112955.732500", "112957.222500", "112958.712500", "113000.202500", "113001.692500", "113003.182500", "113004.672500", "113006.162500", "113007.652500", "113009.142500", "113010.632500", "113012.122500", "113013.612500", "113015.102500", "113016.592500", "113018.082500", "113019.572500", "113021.062500", "113022.552500", "113024.042500", "113025.532500", "113027.022500", "113028.512500", "113030.002500", "113031.492500", "113032.982500", "113034.472500", "113035.962500", "113037.452500", "113038.942500", "113040.432500", "113041.922500", "113043.412500", "113044.902500", "113046.392500", "113047.882500", "113049.372500", "113050.862500", "113052.352500", "113053.842500", "113055.332500", "113056.822500", "113058.312500", "113059.802500", "113101.292500", "113102.782500", "113104.272500", "113105.762500", "113107.252500", "113108.742500", "113110.232500", "113111.722500", "113113.212500", "113114.702500", "113116.192500", "113117.682500", "113119.172500", "113120.662500", "113122.152500", "113123.642500", "113125.132500", "113126.622500", "113128.112500", "113129.602500", "113131.092500", "113132.582500", "113134.072500", "113135.562500", "113137.052500", "113138.542500", "113140.032500", "113141.522500", "113143.012500", "113144.502500", "113145.992500", "113147.482500", "113148.972500", "113150.462500", "113151.952500", "113153.442500", "113154.932500", "113156.422500", "113157.912500", "113159.402500", "113200.892500", "113202.382500", "113203.872500", "113205.362500", "113206.852500", "113208.342500", "113209.832500", "113211.322500", "113212.812500", "113214.302500", "113215.792500", "113217.282500", "113218.772500", "113220.262500", "113221.752500", "113223.242500", "113224.732500", "113226.222500", "113227.712500", "113229.202500", "113230.692500", "113232.182500", "113233.672500", "113235.162500", "113236.652500", "113238.142500", "113239.632500", "113241.122500", "113242.612500", "113244.102500", "113245.592500", "113247.082500", "113248.572500", "113250.062500", "113251.552500", "113253.042500", "113254.532500", "113256.022500", "113257.512500", "113259.002500", "113300.492500", "113301.982500", "113303.472500", "113304.962500", "113306.452500", "113307.942500", "113309.432500", "113310.922500", "113312.412500", "113313.902500", "113315.392500", "113316.882500", "113318.372500", "113319.862500", "113321.352500", "113322.842500", "113324.332500", "113325.822500", "113327.312500", "113328.802500", "113330.292500", "113331.782500", "113333.272500", "113334.762500", "113336.252500", "113337.742500", "113339.232500", "113340.722500", "113342.212500", "113343.702500", "113345.192500", "113346.682500", "113348.172500", "113349.662500", "113351.152500", "113352.642500", "113354.132500", "113355.622500", "113357.112500", "113358.602500", "113400.092500", "113401.582500", "113403.072500", "113404.562500", "113406.052500", "113407.542500", "113409.032500", "113410.522500", "113412.012500", "113413.502500", "113414.992500", "113416.482500", "113417.972500", "113419.462500", "113420.952500", "113422.442500", "113423.932500", "113425.422500", "113426.912500", "113428.402500", "113429.892500", "113431.382500", "113432.872500", "113434.362500", "113435.852500", "113437.342500", "113438.832500", "113440.322500", "113441.812500", "113443.302500", "113444.792500", "113446.282500", "113447.772500", "113449.262500", "113450.752500", "113452.242500", "113453.732500", "113455.222500", "113456.712500", "113458.202500", "113459.692500", "113501.182500", "113502.672500", "113504.162500", "113505.652500", "113507.142500", "113508.632500", "113510.122500", "113511.612500", "113513.102500", "113514.592500", "113516.082500", "113517.572500", "113519.062500", "113520.552500", "113522.042500", "113523.532500", "113525.022500", "113526.512500", "113528.002500", "113529.492500", "113530.982500", "113532.472500", "113533.962500", "113535.452500", "113536.942500", "113538.432500", "113539.922500", "113541.412500", "113542.902500", "113544.392500", "113545.882500", "113547.372500", "113548.862500", "113550.352500", "113551.842500", "113553.332500", "113554.822500", "113556.312500", "113557.802500", "113559.292500", "113600.782500", "113602.272500", "113603.762500", "113605.252500", "113606.742500", "113608.232500", "113609.722500", "113611.212500", "113612.702500", "113614.192500", "113615.682500", "113617.172500", "113618.662500", "113620.152500", "113621.642500", "113623.132500", "113624.622500", "113626.112500", "113627.602500", "113629.092500", "113630.582500", "113632.072500", "113633.562500", "113635.052500", "113636.542500", "113638.032500", "113639.522500", "113641.012500", "113642.502500"],
      "ContentTime": ["112948.909000", "112948.912000", "112948.915000", "112948.917000", "112948.920000", "112948.922000", "112948.925000", "112948.927000", "112948.935000", "112948.937000", "112948.940000", "112948.942000", "112948.945000", "112948.947000", "112948.950000", "112948.952000", "112948.955000", "112948.957000", "112948.960000", "112948.962000", "112948.965000", "112948.968000", "112948.970000", "112948.973000", "112948.975000", "112948.978000", "112948.980000", "112948.983000", "112948.985000", "112948.988000", "112948.990000", "112948.993000", "112948.995000", "112948.998000", "112949.001000", "112949.003000", "112949.006000", "113008.792000", "113008.795000", "113008.797000", "113008.800000", "113008.802000", "113008.805000", "113008.807000", "113008.810000", "113008.812000", "113008.815000", "113008.817000", "113008.820000", "113008.822000", "113008.825000", "113008.827000", "113008.830000", "113008.832000", "113008.835000", "113008.837000", "113008.840000", "113028.792000", "113028.794000", "113028.797000", "113028.799000", "113028.802000", "113028.804000", "113028.807000", "113028.809000", "113028.812000", "113028.814000", "113028.817000", "113028.819000", "113028.822000", "113028.824000", "113028.827000", "113028.829000", "113028.832000", "113028.834000", "113028.837000", "113028.839000", "113108.851000", "113108.854000", "113108.857000", "113108.859000", "113108.861000", "113108.868000", "113108.871000", "113108.873000", "113108.876000", "113108.878000", "113108.881000", "113108.883000", "113108.886000", "113108.888000", "113108.891000", "113108.893000", "113108.896000", "113108.898000", "113108.901000", "113108.903000", "113108.906000", "113108.908000", "113108.911000", "113108.913000", "113108.916000", "113108.918000", "113108.921000", "113108.923000", "113108.926000", "113108.928000", "113108.931000", "113108.933000", "113108.936000", "113148.853000", "113148.856000", "113148.859000", "113148.861000", "113148.864000", "113148.866000", "113148.869000", "113148.871000", "113148.874000", "113148.876000", "113148.879000", "113148.882000", "113148.884000", "113148.887000", "113148.889000", "113148.892000", "113148.894000", "113148.897000", "113148.900000", "113148.902000", "113148.905000", "113148.907000", "113148.910000", "113148.912000", "113148.915000", "113148.917000", "113148.920000", "113228.839000", "113228.842000", "113228.844000", "113228.847000", "113228.849000", "113228.852000", "113228.854000", "113228.857000", "113228.860000", "113228.862000", "113228.865000", "113228.867000", "113228.870000", "113228.873000", "113228.875000", "113228.878000", "113228.880000", "113228.883000", "113228.885000", "113228.888000", "113228.891000", "113228.893000", "113228.896000", "113228.898000", "113228.901000", "113228.903000", "113228.906000", "113308.818000", "113308.820000", "113308.823000", "113308.825000", "113308.828000", "113308.830000", "113308.833000", "113308.835000", "113308.838000", "113308.840000", "113308.843000", "113308.846000", "113308.849000", "113308.852000", "113308.856000", "113308.859000", "113308.861000", "113308.864000", "113308.868000", "113308.870000", "113308.873000", "113308.875000", "113308.878000", "113308.881000", "113308.883000", "113308.886000", "113348.917000", "113348.921000", "113348.924000", "113348.926000", "113348.929000", "113348.932000", "113348.934000", "113348.937000", "113348.940000", "113348.942000", "113348.945000", "113348.947000", "113348.950000", "113348.953000", "113348.956000", "113348.959000", "113348.961000", "113348.964000", "113348.966000", "113348.969000", "113348.971000", "113348.974000", "113348.976000", "113348.979000", "113348.981000", "113348.984000", "113348.986000", "113428.828000", "113428.831000", "113428.840000", "113428.842000", "113428.845000", "113428.847000", "113428.850000", "113428.852000", "113428.855000", "113428.857000", "113428.860000", "113428.863000", "113428.865000", "113428.868000", "113428.870000", "113428.873000", "113428.875000", "113428.878000", "113428.881000", "113428.883000", "113428.886000", "113428.888000", "113428.891000", "113428.893000", "113428.896000", "113428.899000", "113428.901000", "113508.841000", "113508.844000", "113508.846000", "113508.849000", "113508.851000", "113508.854000", "113508.857000", "113508.859000", "113508.862000", "113508.864000", "113508.867000", "113508.869000", "113508.872000", "113508.874000", "113508.877000", "113508.880000", "113508.882000", "113508.885000", "113508.887000", "113508.890000", "113508.892000", "113508.895000", "113508.898000", "113508.900000", "113508.903000", "113508.905000", "113508.908000", "113548.820000", "113548.823000", "113548.826000", "113548.828000", "113548.831000", "113548.834000", "113548.836000", "113548.839000", "113548.841000", "113548.844000", "113548.846000", "113548.849000", "113548.851000", "113548.854000", "113548.857000", "113548.859000", "113548.862000", "113548.864000", "113548.867000", "113548.869000", "113548.872000", "113548.875000", "113548.877000", "113548.880000", "113548.882000", "113548.885000", "113548.887000", "113628.892000", "113628.895000", "113628.898000", "113628.900000", "113628.903000", "113628.905000", "113628.908000", "113628.910000", "113628.913000", "113628.915000", "113628.918000", "113628.920000", "113628.923000", "113628.925000", "113628.928000", "113628.930000", "113628.933000", "113628.935000", "113628.938000", "113628.940000", "113628.943000", "113628.945000", "113628.948000", "113628.951000", "113628.953000", "113628.956000", "113628.958000", "113645.993000", "113645.996000", "113645.999000", "113646.001000", "113646.004000", "113646.006000", "113646.009000", "113646.012000", "113646.014000", "113646.017000", "113646.019000"],
      "InstanceCreationTime": ["112948.909000", "112948.912000", "112948.915000", "112948.917000", "112948.920000", "112948.922000", "112948.925000", "112948.927000", "112948.935000", "112948.937000", "112948.940000", "112948.942000", "112948.945000", "112948.947000", "112948.950000", "112948.952000", "112948.955000", "112948.957000", "112948.960000", "112948.962000", "112948.965000", "112948.968000", "112948.970000", "112948.973000", "112948.975000", "112948.978000", "112948.980000", "112948.983000", "112948.985000", "112948.988000", "112948.990000", "112948.993000", "112948.995000", "112948.998000", "112949.001000", "112949.003000", "112949.006000", "113008.792000", "113008.795000", "113008.797000", "113008.800000", "113008.802000", "113008.805000", "113008.807000", "113008.810000", "113008.812000", "113008.815000", "113008.817000", "113008.820000", "113008.822000", "113008.825000", "113008.827000", "113008.830000", "113008.832000", "113008.835000", "113008.837000", "113008.840000", "113028.792000", "113028.794000", "113028.797000", "113028.799000", "113028.802000", "113028.804000", "113028.807000", "113028.809000", "113028.812000", "113028.814000", "113028.817000", "113028.819000", "113028.822000", "113028.824000", "113028.827000", "113028.829000", "113028.832000", "113028.834000", "113028.837000", "113028.839000", "113108.851000", "113108.854000", "113108.857000", "113108.859000", "113108.861000", "113108.868000", "113108.871000", "113108.873000", "113108.876000", "113108.878000", "113108.881000", "113108.883000", "113108.886000", "113108.888000", "113108.891000", "113108.893000", "113108.896000", "113108.898000", "113108.901000", "113108.903000", "113108.906000", "113108.908000", "113108.911000", "113108.913000", "113108.916000", "113108.918000", "113108.921000", "113108.923000", "113108.926000", "113108.928000", "113108.931000", "113108.933000", "113108.936000", "113148.853000", "113148.856000", "113148.859000", "113148.861000", "113148.864000", "113148.866000", "113148.869000", "113148.871000", "113148.874000", "113148.876000", "113148.879000", "113148.882000", "113148.884000", "113148.887000", "113148.889000", "113148.892000", "113148.894000", "113148.897000", "113148.900000", "113148.902000", "113148.905000", "113148.907000", "113148.910000", "113148.912000", "113148.915000", "113148.917000", "113148.920000", "113228.839000", "113228.842000", "113228.844000", "113228.847000", "113228.849000", "113228.852000", "113228.854000", "113228.857000", "113228.860000", "113228.862000", "113228.865000", "113228.867000", "113228.870000", "113228.873000", "113228.875000", "113228.878000", "113228.880000", "113228.883000", "113228.885000", "113228.888000", "113228.891000", "113228.893000", "113228.896000", "113228.898000", "113228.901000", "113228.903000", "113228.906000", "113308.818000", "113308.820000", "113308.823000", "113308.825000", "113308.828000", "113308.830000", "113308.833000", "113308.835000", "113308.838000", "113308.840000", "113308.843000", "113308.846000", "113308.849000", "113308.852000", "113308.856000", "113308.859000", "113308.861000", "113308.864000", "113308.868000", "113308.870000", "113308.873000", "113308.875000", "113308.878000", "113308.881000", "113308.883000", "113308.886000", "113348.917000", "113348.921000", "113348.924000", "113348.926000", "113348.929000", "113348.932000", "113348.934000", "113348.937000", "113348.940000", "113348.942000", "113348.945000", "113348.947000", "113348.950000", "113348.953000", "113348.956000", "113348.959000", "113348.961000", "113348.964000", "113348.966000", "113348.969000", "113348.971000", "113348.974000", "113348.976000", "113348.979000", "113348.981000", "113348.984000", "113348.986000", "113428.828000", "113428.831000", "113428.840000", "113428.842000", "113428.845000", "113428.847000", "113428.850000", "113428.852000", "113428.855000", "113428.857000", "113428.860000", "113428.863000", "113428.865000", "113428.868000", "113428.870000", "113428.873000", "113428.875000", "113428.878000", "113428.881000", "113428.883000", "113428.886000", "113428.888000", "113428.891000", "113428.893000", "113428.896000", "113428.899000", "113428.901000", "113508.841000", "113508.844000", "113508.846000", "113508.849000", "113508.851000", "113508.854000", "113508.857000", "113508.859000", "113508.862000", "113508.864000", "113508.867000", "113508.869000", "113508.872000", "113508.874000", "113508.877000", "113508.880000", "113508.882000", "113508.885000", "113508.887000", "113508.890000", "113508.892000", "113508.895000", "113508.898000", "113508.900000", "113508.903000", "113508.905000", "113508.908000", "113548.820000", "113548.823000", "113548.826000", "113548.828000", "113548.831000", "113548.834000", "113548.836000", "113548.839000", "113548.841000", "113548.844000", "113548.846000", "113548.849000", "113548.851000", "113548.854000", "113548.857000", "113548.859000", "113548.862000", "113548.864000", "113548.867000", "113548.869000", "113548.872000", "113548.875000", "113548.877000", "113548.880000", "113548.882000", "113548.885000", "113548.887000", "113628.892000", "113628.895000", "113628.898000", "113628.900000", "113628.903000", "113628.905000", "113628.908000", "113628.910000", "113628.913000", "113628.915000", "113628.918000", "113628.920000", "113628.923000", "113628.925000", "113628.928000", "113628.930000", "113628.933000", "113628.935000", "113628.938000", "113628.940000", "113628.943000", "113628.945000", "113628.948000", "113628.951000", "113628.953000", "113628.956000", "113628.958000", "113645.993000", "113645.996000", "113645.999000", "113646.001000", "113646.004000", "113646.006000", "113646.009000", "113646.012000", "113646.014000", "113646.017000", "113646.019000"],
      "InstanceNumber": [1, 2, 3, 4, 5, 6, 7, 8, 9, 10, 11, 12, 13, 14, 15, 16, 17, 18, 19, 20, 21, 22, 23, 24, 25, 26, 27, 28, 29, 30, 31, 32, 33, 34, 35, 36, 37, 38, 39, 40, 41, 42, 43, 44, 45, 46, 47, 48, 49, 50, 51, 52, 53, 54, 55, 56, 57, 58, 59, 60, 61, 62, 63, 64, 65, 66, 67, 68, 69, 70, 71, 72, 73, 74, 75, 76, 77, 78, 79, 80, 81, 82, 83, 84, 85, 86, 87, 88, 89, 90, 91, 92, 93, 94, 95, 96, 97, 98, 99, 100, 101, 102, 103, 104, 105, 106, 107, 108, 109, 110, 111, 112, 113, 114, 115, 116, 117, 118, 119, 120, 121, 122, 123, 124, 125, 126, 127, 128, 129, 130, 131, 132, 133, 134, 135, 136, 137, 138, 139, 140, 141, 142, 143, 144, 145, 146, 147, 148, 149, 150, 151, 152, 153, 154, 155, 156, 157, 158, 159, 160, 161, 162, 163, 164, 165, 166, 167, 168, 169, 170, 171, 172, 173, 174, 175, 176, 177, 178, 179, 180, 181, 182, 183, 184, 185, 186, 187, 188, 189, 190, 191, 192, 193, 194, 195, 196, 197, 198, 199, 200, 201, 202, 203, 204, 205, 206, 207, 208, 209, 210, 211, 212, 213, 214, 215, 216, 217, 218, 219, 220, 221, 222, 223, 224, 225, 226, 227, 228, 229, 230, 231, 232, 233, 234, 235, 236, 237, 238, 239, 240, 241, 242, 243, 244, 245, 246, 247, 248, 249, 250, 251, 252, 253, 254, 255, 256, 257, 258, 259, 260, 261, 262, 263, 264, 265, 266, 267, 268, 269, 270, 271, 272, 273, 274, 275, 276, 277, 278, 279, 280, 281, 282, 283, 284, 285, 286, 287, 288, 289, 290, 291, 292, 293, 294, 295, 296, 297, 298, 299, 300, 301, 302, 303, 304, 305, 306, 307, 308, 309, 310, 311, 312, 313, 314, 315, 316, 317, 318, 319, 320, 321, 322, 323, 324, 325, 326, 327, 328, 329, 330, 331, 332, 333, 334, 335, 336],
      "WindowCenter": [4850.0, 4848.0, 4850.0, 4848.0, 4850.0, 4850.0, 4852.0, 4848.0, 4850.0, 4852.0, 4848.0, 4850.0, 4848.0, 4848.0, 4848.0, 4846.0, 4848.0, 4852.0, 4848.0, 4848.0, 4850.0, 4848.0, 4850.0, 4850.0, 4822.0, 4848.0, 4846.0, 4850.0, 4850.0, 4846.0, 4824.0, 4848.0, 4846.0, 4850.0, 4846.0, 4846.0, 4848.0, 4846.0, 4846.0, 4846.0, 4848.0, 4846.0, 4846.0, 4846.0, 4822.0, 4846.0, 4846.0, 4848.0, 4848.0, 4848.0, 4848.0, 4844.0, 4824.0, 4848.0, 4846.0, 4846.0, 4850.0, 4822.0, 4822.0, 4846.0, 4846.0, 4822.0, 4846.0, 4846.0, 4846.0, 4820.0, 4824.0, 4822.0, 4844.0, 4844.0, 4820.0, 4844.0, 4842.0, 4846.0, 4844.0, 4846.0, 4844.0, 4844.0, 4844.0, 4842.0, 4822.0, 4844.0, 4844.0, 4842.0, 4840.0, 4844.0, 4846.0, 4844.0, 4844.0, 4848.0, 4820.0, 4844.0, 4822.0, 4844.0, 4822.0, 4820.0, 4844.0, 4822.0, 4842.0, 4822.0, 4818.0, 4844.0, 4820.0, 4844.0, 4844.0, 4846.0, 4842.0, 4822.0, 4844.0, 4820.0, 4818.0, 4846.0, 4846.0, 4840.0, 4842.0, 4844.0, 4844.0, 4844.0, 4844.0, 4844.0, 4842.0, 4844.0, 4844.0, 4842.0, 4844.0, 4846.0, 4842.0, 4844.0, 4842.0, 4842.0, 4844.0, 4842.0, 4844.0, 4844.0, 4842.0, 4844.0, 4842.0, 4842.0, 4842.0, 4842.0, 4818.0, 4844.0, 4842.0, 4844.0, 4844.0, 4840.0, 4840.0, 4844.0, 4818.0, 4842.0, 4842.0, 4840.0, 4840.0, 4842.0, 4844.0, 4844.0, 4842.0, 4844.0, 4842.0, 4840.0, 4842.0, 4844.0, 4840.0, 4840.0, 4818.0, 4844.0, 4818.0, 4840.0, 4840.0, 4838.0, 4818.0, 4840.0, 4842.0, 4842.0, 4840.0, 4818.0, 4818.0, 4844.0, 4840.0, 4842.0, 4840.0, 4838.0, 4842.0, 4844.0, 4818.0, 4840.0, 4842.0, 4842.0, 4838.0, 4814.0, 4840.0, 4840.0, 4842.0, 4846.0, 4840.0, 4840.0, 4838.0, 4840.0, 4840.0, 4818.0, 4840.0, 4838.0, 4840.0, 4840.0, 4844.0, 4842.0, 4818.0, 4840.0, 4820.0, 4818.0, 4842.0, 4840.0, 4816.0, 4842.0, 4842.0, 4838.0, 4840.0, 4816.0, 4842.0, 4816.0, 4840.0, 4840.0, 4840.0, 4840.0, 4816.0, 4840.0, 4840.0, 4838.0, 4842.0, 4840.0, 4840.0, 4842.0, 4838.0, 4844.0, 4814.0, 4840.0, 4838.0, 4840.0, 4842.0, 4838.0, 4838.0, 4842.0, 4816.0, 4840.0, 4816.0, 4838.0, 4838.0, 4838.0, 4840.0, 4840.0, 4838.0, 4840.0, 4838.0, 4838.0, 4814.0, 4838.0, 4840.0, 4838.0, 4838.0, 4836.0, 4838.0, 4840.0, 4840.0, 4840.0, 4842.0, 4844.0, 4840.0, 4840.0, 4838.0, 4842.0, 4838.0, 4842.0, 4840.0, 4838.0, 4842.0, 4840.0, 4840.0, 4838.0, 4840.0, 4838.0, 4840.0, 4838.0, 4838.0, 4838.0, 4838.0, 4840.0, 4840.0, 4842.0, 4840.0, 4836.0, 4840.0, 4842.0, 4838.0, 4838.0, 4840.0, 4836.0, 4838.0, 4842.0, 4838.0, 4840.0, 4838.0, 4836.0, 4840.0, 4840.0, 4816.0, 4840.0, 4840.0, 4836.0, 4836.0, 4838.0, 4840.0, 4836.0, 4840.0, 4838.0, 4840.0, 4842.0, 4838.0, 4840.0, 4840.0, 4818.0, 4840.0, 4842.0, 4842.0, 4840.0, 4840.0, 4816.0, 4838.0, 4838.0, 4840.0, 4814.0, 4838.0, 4814.0, 4838.0, 4840.0, 4838.0, 4814.0],
