{
  "AcquisitionMatrixPE": 104,
  "AcquisitionNumber": 1,
  "AcquisitionTime": "11:38:30.842500",
  "BandwidthPerPixelPhaseEncode": 17.17,
  "BaseResolution": 104,
  "BodyPartExamined": "BRAIN",
  "CoilCombinationMethod": "Sum of Squares",
  "ConsistencyInfo": "N4_VE11C_LATEST_20160120",
  "ConversionSoftware": "dcm2niix",
  "ConversionSoftwareVersion": "v1.0.20220505",
  "DerivedVendorReportedEchoSpacing": 0.000560011,
  "DeviceSerialNumber": "167006",
  "DwellTime": 2.1e-06,
  "EchoTime": 0.037,
  "EchoTrainLength": 104,
  "EffectiveEchoSpacing": 0.000560011,
  "FlipAngle": 52,
  "HeudiconvVersion": "0.5.3.post811+g6206e14",
  "ImageComments": "Unaliased MB4/PE3/LB",
  "ImageOrientationPatientDICOM": [0.996003, 0.0887869, 0.00974527, -0.0785621, 0.922723, -0.377373],
  "ImageOrientationText": "Tra>Cor(-22.1)>Sag(2.4)",
  "ImageType": [
    "ORIGINAL",
    "PRIMARY",
    "M",
    "MB",
    "ND",
    "MOSAIC"
],
  "ImagingFrequency": 123.259,
  "InPlanePhaseEncodingDirectionDICOM": "COL",
  "InstitutionAddress": "Chemin Queen-Mary 4565,Montreal,District,CA,H3W 1W5",
  "InstitutionName": "IUGM",
  "InstitutionalDepartmentName": "Department",
  "MRAcquisitionType": "2D",
  "MagneticFieldStrength": 3,
  "Manufacturer": "Siemens",
  "ManufacturersModelName": "Prisma_fit",
  "MatrixCoilMode": "SENSE",
  "Modality": "MR",
  "MultibandAccelerationFactor": 4,
  "PartialFourier": 1,
  "PatientPosition": "HFS",
  "PercentPhaseFOV": 100,
  "PercentSampling": 100,
  "PhaseEncodingDirection": "j",
  "PhaseEncodingSteps": 104,
  "PhaseResolution": 1,
  "PixelBandwidth": 2290,
  "ProcedureStepDescription": "games^mario3",
  "ProtocolName": "func_task-mario3_run-02",
  "PulseSequenceDetails": "%CustomerSeq%\\cmrr_mbep2d_bold",
  "ReceiveCoilActiveElements": "HC1-7;NC1,2",
  "ReceiveCoilName": "HeadNeck_64",
  "ReconMatrixPE": 104,
  "RepetitionTime": 1.49,
  "SAR": 0.0597238,
  "ScanOptions": "FS",
  "ScanningSequence": "EP",
  "SequenceName": "epfid2d1_104",
  "SequenceVariant": "SK\\SS",
  "SeriesDescription": "func_task-mario3_run-02",
  "SeriesNumber": 13,
  "ShimSetting": [595, -7219, -8812, 629, 99, -15, -118, 60],
  "SliceThickness": 2,
  "SliceTiming": [0, 0.7825, 0.0975, 0.8825, 0.195, 0.98, 0.2925, 1.0775, 0.3925, 1.175, 0.49, 1.2725, 0.5875, 1.3725, 0.685, 0, 0.7825, 0.0975, 0.8825, 0.195, 0.98, 0.2925, 1.0775, 0.3925, 1.175, 0.49, 1.2725, 0.5875, 1.3725, 0.685, 0, 0.7825, 0.0975, 0.8825, 0.195, 0.98, 0.2925, 1.0775, 0.3925, 1.175, 0.49, 1.2725, 0.5875, 1.3725, 0.685, 0, 0.7825, 0.0975, 0.8825, 0.195, 0.98, 0.2925, 1.0775, 0.3925, 1.175, 0.49, 1.2725, 0.5875, 1.3725, 0.685],
  "SoftwareVersions": "syngo MR E11",
  "SpacingBetweenSlices": 2,
  "StationName": "MRC35049",
  "TaskName": "mario3",
  "TotalReadoutTime": 0.0576811,
  "TxRefAmp": 277.055,
  "WipMemBlock": "2646fbef-5850-457a-81fe-c9975a37c41e||Sequence: R017 ve11c/master r/75a17815+; Jun 28 2022 16:32:11 by eja",
  "dcmmeta_affine": [
    [-1.9920059442520142, -0.15712414681911469, 0.08499594777822495, 112.65969848632812],
    [-0.17757372558116913, 1.8454456329345703, -0.7501986026763916, -55.75303268432617],
    [0.019490543752908707, 0.7547466158866882, 1.8520199060440063, -65.4618911743164],
    [0.0, 0.0, 0.0, 1.0]
],
  "dcmmeta_reorient_transform": [
    [0.0, -1.0, 0.0, 103.0],
    [1.0, 0.0, 0.0, 0.0],
    [0.0, 0.0, 1.0, 0.0],
    [0.0, 0.0, 0.0, 1.0]
],
  "dcmmeta_shape": [104, 104, 60, 367],
  "dcmmeta_slice_dim": 2,
  "dcmmeta_version": 0.6,
  "global": {
    "const": {
      "AcquisitionMatrix": [104, 0, 0, 104],
      "AngioFlag": "N",
      "BitsAllocated": 16,
      "BitsStored": 16,
      "BodyPartExamined": "BRAIN",
      "Columns": 832,
      "EchoNumbers": 1,
      "EchoTime": 37.0,
      "EchoTrainLength": 104,
      "FlipAngle": 52.0,
      "HighBit": 15,
      "ImageOrientationPatient": [0.9960029732889, 0.08878686202821, 0.00974527223054, -0.0785620723373, 0.92272281420057, -0.3773733018429],
      "ImagePositionPatient": [-764.37288780209, -870.70691190469, 279.91021608734],
      "ImageType": [
        "ORIGINAL",
        "PRIMARY",
        "M",
        "MB",
        "ND",
        "MOSAIC"
],
      "ImagedNucleus": "1H",
      "ImagingFrequency": 123.259091,
      "InPlanePhaseEncodingDirection": "COL",
      "MRAcquisitionType": "2D",
      "MagneticFieldStrength": 3.0,
      "Manufacturer": "SIEMENS",
      "ManufacturerModelName": "Prisma_fit",
      "Modality": "MR",
      "NumberOfAverages": 1.0,
      "NumberOfPhaseEncodingSteps": 104,
      "PercentPhaseFieldOfView": 100.0,
      "PercentSampling": 100.0,
      "PerformedProcedureStepStartTime": "112521.934000",
      "PhotometricInterpretation": "MONOCHROME2",
      "PixelBandwidth": 2290.0,
      "PixelRepresentation": 0,
      "PixelSpacing": [2.0, 2.0],
      "ProtocolName": "func_task-mario3_run-02",
      "RepetitionTime": 1490.0,
      "Rows": 832,
      "SAR": 0.05972380493354,
      "SamplesPerPixel": 1,
      "ScanOptions": "FS",
      "ScanningSequence": "EP",
      "SequenceName": "epfid2d1_104",
      "SequenceVariant": [
        "SK",
        "SS"
],
      "SeriesDescription": "func_task-mario3_run-02",
      "SeriesNumber": 13,
      "SeriesTime": "113945.558000",
      "SliceLocation": -34.917627172282,
      "SliceThickness": 2.0,
      "SmallestImagePixelValue": 0,
      "SoftwareVersions": "syngo MR E11",
      "SpacingBetweenSlices": 1.9999999647214,
      "SpecificCharacterSet": "ISO_IR 100",
      "StudyID": "1",
      "StudyTime": "112521.855000",
      "TransmitCoilName": "Body",
      "VariableFlipAngleFlag": "N",
      "WindowCenterWidthExplanation": "Algo1",
      "dBdt": 0.0},
    "slices": {}
  },
  "time": {
    "samples": {
      "AcquisitionNumber": [1, 2, 3, 4, 5, 6, 7, 8, 9, 10, 11, 12, 13, 14, 15, 16, 17, 18, 19, 20, 21, 22, 23, 24, 25, 26, 27, 28, 29, 30, 31, 32, 33, 34, 35, 36, 37, 38, 39, 40, 41, 42, 43, 44, 45, 46, 47, 48, 49, 50, 51, 52, 53, 54, 55, 56, 57, 58, 59, 60, 61, 62, 63, 64, 65, 66, 67, 68, 69, 70, 71, 72, 73, 74, 75, 76, 77, 78, 79, 80, 81, 82, 83, 84, 85, 86, 87, 88, 89, 90, 91, 92, 93, 94, 95, 96, 97, 98, 99, 100, 101, 102, 103, 104, 105, 106, 107, 108, 109, 110, 111, 112, 113, 114, 115, 116, 117, 118, 119, 120, 121, 122, 123, 124, 125, 126, 127, 128, 129, 130, 131, 132, 133, 134, 135, 136, 137, 138, 139, 140, 141, 142, 143, 144, 145, 146, 147, 148, 149, 150, 151, 152, 153, 154, 155, 156, 157, 158, 159, 160, 161, 162, 163, 164, 165, 166, 167, 168, 169, 170, 171, 172, 173, 174, 175, 176, 177, 178, 179, 180, 181, 182, 183, 184, 185, 186, 187, 188, 189, 190, 191, 192, 193, 194, 195, 196, 197, 198, 199, 200, 201, 202, 203, 204, 205, 206, 207, 208, 209, 210, 211, 212, 213, 214, 215, 216, 217, 218, 219, 220, 221, 222, 223, 224, 225, 226, 227, 228, 229, 230, 231, 232, 233, 234, 235, 236, 237, 238, 239, 240, 241, 242, 243, 244, 245, 246, 247, 248, 249, 250, 251, 252, 253, 254, 255, 256, 257, 258, 259, 260, 261, 262, 263, 264, 265, 266, 267, 268, 269, 270, 271, 272, 273, 274, 275, 276, 277, 278, 279, 280, 281, 282, 283, 284, 285, 286, 287, 288, 289, 290, 291, 292, 293, 294, 295, 296, 297, 298, 299, 300, 301, 302, 303, 304, 305, 306, 307, 308, 309, 310, 311, 312, 313, 314, 315, 316, 317, 318, 319, 320, 321, 322, 323, 324, 325, 326, 327, 328, 329, 330, 331, 332, 333, 334, 335, 336, 337, 338, 339, 340, 341, 342, 343, 344, 345, 346, 347, 348, 349, 350, 351, 352, 353, 354, 355, 356, 357, 358, 359, 360, 361, 362, 363, 364, 365, 366, 367],
      "AcquisitionTime": ["113830.842500", "113832.332500", "113833.822500", "113835.312500", "113836.802500", "113838.292500", "113839.782500", "113841.272500", "113842.762500", "113844.252500", "113845.742500", "113847.232500", "113848.722500", "113850.212500", "113851.702500", "113853.192500", "113854.682500", "113856.172500", "113857.662500", "113859.152500", "113900.642500", "113902.132500", "113903.622500", "113905.112500", "113906.602500", "113908.092500", "113909.582500", "113911.072500", "113912.562500", "113914.052500", "113915.542500", "113917.032500", "113918.522500", "113920.012500", "113921.502500", "113922.992500", "113924.482500", "113925.972500", "113927.462500", "113928.952500", "113930.442500", "113931.932500", "113933.422500", "113934.912500", "113936.402500", "113937.892500", "113939.382500", "113940.872500", "113942.362500", "113943.852500", "113945.342500", "113946.832500", "113948.322500", "113949.812500", "113951.302500", "113952.792500", "113954.282500", "113955.772500", "113957.262500", "113958.752500", "114000.242500", "114001.732500", "114003.222500", "114004.712500", "114006.202500", "114007.692500", "114009.182500", "114010.672500", "114012.162500", "114013.652500", "114015.142500", "114016.632500", "114018.122500", "114019.612500", "114021.102500", "114022.592500", "114024.082500", "114025.572500", "114027.062500", "114028.552500", "114030.042500", "114031.532500", "114033.022500", "114034.512500", "114036.002500", "114037.492500", "114038.982500", "114040.472500", "114041.962500", "114043.452500", "114044.942500", "114046.432500", "114047.922500", "114049.412500", "114050.902500", "114052.392500", "114053.882500", "114055.372500", "114056.862500", "114058.352500", "114059.842500", "114101.332500", "114102.822500", "114104.312500", "114105.802500", "114107.292500", "114108.782500", "114110.272500", "114111.762500", "114113.252500", "114114.742500", "114116.232500", "114117.722500", "114119.212500", "114120.702500", "114122.192500", "114123.682500", "114125.172500", "114126.662500", "114128.152500", "114129.642500", "114131.132500", "114132.622500", "114134.112500", "114135.602500", "114137.092500", "114138.582500", "114140.072500", "114141.562500", "114143.052500", "114144.542500", "114146.032500", "114147.522500", "114149.012500", "114150.502500", "114151.992500", "114153.482500", "114154.972500", "114156.462500", "114157.952500", "114159.442500", "114200.932500", "114202.422500", "114203.912500", "114205.402500", "114206.892500", "114208.382500", "114209.872500", "114211.362500", "114212.852500", "114214.342500", "114215.832500", "114217.322500", "114218.812500", "114220.302500", "114221.792500", "114223.282500", "114224.772500", "114226.262500", "114227.752500", "114229.242500", "114230.732500", "114232.222500", "114233.712500", "114235.202500", "114236.692500", "114238.182500", "114239.672500", "114241.162500", "114242.652500", "114244.142500", "114245.632500", "114247.122500", "114248.612500", "114250.102500", "114251.592500", "114253.082500", "114254.572500", "114256.062500", "114257.552500", "114259.042500", "114300.532500", "114302.022500", "114303.512500", "114305.002500", "114306.492500", "114307.982500", "114309.472500", "114310.962500", "114312.452500", "114313.942500", "114315.432500", "114316.922500", "114318.412500", "114319.902500", "114321.392500", "114322.882500", "114324.372500", "114325.862500", "114327.352500", "114328.842500", "114330.332500", "114331.822500", "114333.312500", "114334.802500", "114336.292500", "114337.782500", "114339.272500", "114340.762500", "114342.252500", "114343.742500", "114345.232500", "114346.722500", "114348.212500", "114349.702500", "114351.192500", "114352.682500", "114354.172500", "114355.662500", "114357.152500", "114358.642500", "114400.132500", "114401.622500", "114403.112500", "114404.602500", "114406.092500", "114407.582500", "114409.072500", "114410.562500", "114412.052500", "114413.542500", "114415.032500", "114416.522500", "114418.012500", "114419.502500", "114420.992500", "114422.482500", "114423.972500", "114425.462500", "114426.952500", "114428.442500", "114429.932500", "114431.422500", "114432.912500", "114434.402500", "114435.892500", "114437.382500", "114438.872500", "114440.362500", "114441.852500", "114443.342500", "114444.832500", "114446.322500", "114447.812500", "114449.302500", "114450.792500", "114452.282500", "114453.772500", "114455.262500", "114456.752500", "114458.242500", "114459.732500", "114501.222500", "114502.712500", "114504.202500", "114505.692500", "114507.182500", "114508.672500", "114510.162500", "114511.652500", "114513.142500", "114514.632500", "114516.122500", "114517.612500", "114519.102500", "114520.592500", "114522.082500", "114523.572500", "114525.062500", "114526.552500", "114528.042500", "114529.532500", "114531.022500", "114532.512500", "114534.002500", "114535.492500", "114536.982500", "114538.472500", "114539.962500", "114541.452500", "114542.942500", "114544.432500", "114545.922500", "114547.412500", "114548.902500", "114550.392500", "114551.882500", "114553.372500", "114554.862500", "114556.352500", "114557.842500", "114559.332500", "114600.822500", "114602.312500", "114603.802500", "114605.292500", "114606.782500", "114608.272500", "114609.762500", "114611.252500", "114612.742500", "114614.232500", "114615.722500", "114617.212500", "114618.702500", "114620.192500", "114621.682500", "114623.172500", "114624.662500", "114626.152500", "114627.642500", "114629.132500", "114630.622500", "114632.112500", "114633.602500", "114635.092500", "114636.582500", "114638.072500", "114639.562500", "114641.052500", "114642.542500", "114644.032500", "114645.522500", "114647.012500", "114648.502500", "114649.992500", "114651.482500", "114652.972500", "114654.462500", "114655.952500", "114657.442500", "114658.932500", "114700.422500", "114701.912500", "114703.402500", "114704.892500", "114706.382500", "114707.872500", "114709.362500", "114710.852500", "114712.342500", "114713.832500", "114715.322500", "114716.812500", "114718.302500", "114719.792500", "114721.282500", "114722.772500", "114724.262500", "114725.752500", "114727.242500", "114728.732500", "114730.222500", "114731.712500", "114733.202500", "114734.692500", "114736.182500"],
      "ContentTime": ["113945.562000", "113945.566000", "113945.569000", "113945.572000", "113945.576000", "113945.579000", "113945.583000", "113945.586000", "113945.589000", "113945.592000", "113945.596000", "113945.600000", "113945.603000", "113945.607000", "113945.610000", "113945.613000", "113945.617000", "113945.620000", "113945.623000", "113945.627000", "113945.630000", "113945.634000", "113945.637000", "113945.640000", "113945.644000", "114005.521000", "114005.525000", "114005.528000", "114005.531000", "114005.535000", "114005.538000", "114005.541000", "114005.545000", "114005.548000", "114005.551000", "114005.554000", "114005.558000", "114005.561000", "114005.565000", "114005.568000", "114005.571000", "114005.575000", "114005.578000", "114005.581000", "114005.585000", "114005.588000", "114025.521000", "114025.525000", "114025.528000", "114025.531000", "114025.535000", "114025.549000", "114025.552000", "114025.555000", "114025.559000", "114025.562000", "114025.565000", "114025.569000", "114025.572000", "114025.575000", "114025.579000", "114025.582000", "114025.585000", "114025.589000", "114025.592000", "114025.595000", "114045.521000", "114045.525000", "114045.528000", "114045.531000", "114045.535000", "114045.538000", "114045.541000", "114045.545000", "114045.548000", "114045.551000", "114045.554000", "114045.558000", "114045.561000", "114045.565000", "114045.568000", "114045.571000", "114045.575000", "114045.578000", "114045.581000", "114045.584000", "114125.522000", "114125.526000", "114125.530000", "114125.533000", "114125.536000", "114125.540000", "114125.543000", "114125.546000", "114125.550000", "114125.553000", "114125.557000", "114125.560000", "114125.564000", "114125.568000", "114125.571000", "114125.574000", "114125.578000", "114125.581000", "114125.584000", "114125.588000", "114125.591000", "114125.594000", "114125.598000", "114125.601000", "114125.604000", "114125.608000", "114125.611000", "114125.614000", "114125.618000", "114125.621000", "114205.521000", "114205.525000", "114205.528000", "114205.532000", "114205.535000", "114205.538000", "114205.541000", "114205.545000", "114205.548000", "114205.551000", "114205.555000", "114205.558000", "114205.561000", "114205.565000", "114205.568000", "114205.572000", "114205.575000", "114205.584000", "114205.587000", "114205.590000", "114205.594000", "114205.597000", "114205.600000", "114205.604000", "114205.607000", "114205.611000", "114205.614000", "114245.521000", "114245.525000", "114245.528000", "114245.532000", "114245.535000", "114245.539000", "114245.552000", "114245.556000", "114245.559000", "114245.562000", "114245.566000", "114245.569000", "114245.573000", "114245.576000", "114245.579000", "114245.583000", "114245.586000", "114245.589000", "114245.593000", "114245.596000", "114245.600000", "114245.603000", "114245.606000", "114245.610000", "114245.613000", "114245.616000", "114245.620000", "114325.521000", "114325.525000", "114325.528000", "114325.532000", "114325.535000", "114325.539000", "114325.542000", "114325.545000", "114325.548000", "114325.552000", "114325.555000", "114325.559000", "114325.562000", "114325.565000", "114325.569000", "114325.572000", "114325.575000", "114325.579000", "114325.582000", "114325.585000", "114325.589000", "114325.592000", "114325.595000", "114325.598000", "114325.602000", "114325.605000", "114325.608000", "114405.521000", "114405.525000", "114405.528000", "114405.532000", "114405.535000", "114405.538000", "114405.542000", "114405.545000", "114405.548000", "114405.552000", "114405.555000", "114405.558000", "114405.562000", "114405.565000", "114405.569000", "114405.572000", "114405.575000", "114405.579000", "114405.582000", "114405.585000", "114405.589000", "114405.592000", "114405.595000", "114405.599000", "114405.602000", "114405.605000", "114405.609000", "114445.521000", "114445.525000", "114445.528000", "114445.532000", "114445.535000", "114445.539000", "114445.542000", "114445.545000", "114445.549000", "114445.552000", "114445.555000", "114445.559000", "114445.562000", "114445.565000", "114445.569000", "114445.572000", "114445.575000", "114445.579000", "114445.582000", "114445.586000", "114445.589000", "114445.592000", "114445.595000", "114445.599000", "114445.602000", "114445.616000", "114445.619000", "114505.522000", "114505.525000", "114505.529000", "114505.532000", "114505.535000", "114505.539000", "114505.542000", "114505.545000", "114505.549000", "114505.552000", "114505.555000", "114505.559000", "114505.562000", "114545.521000", "114545.525000", "114545.528000", "114545.532000", "114545.535000", "114545.538000", "114545.542000", "114545.545000", "114545.548000", "114545.552000", "114545.555000", "114545.558000", "114545.562000", "114545.565000", "114545.569000", "114545.572000", "114545.575000", "114545.579000", "114545.582000", "114545.585000", "114545.589000", "114545.592000", "114545.595000", "114545.599000", "114545.602000", "114545.605000", "114545.609000", "114625.521000", "114625.525000", "114625.528000", "114625.532000", "114625.535000", "114625.538000", "114625.542000", "114625.545000", "114625.548000", "114625.552000", "114625.555000", "114625.558000", "114625.562000", "114625.565000", "114625.568000", "114625.572000", "114625.575000", "114625.579000", "114625.582000", "114625.585000", "114625.589000", "114625.592000", "114625.595000", "114625.599000", "114625.602000", "114625.605000", "114625.609000", "114705.521000", "114705.525000", "114705.528000", "114705.532000", "114705.535000", "114705.538000", "114705.542000", "114705.545000", "114705.549000", "114705.552000", "114705.555000", "114705.559000", "114705.562000", "114705.565000", "114705.569000", "114705.572000", "114705.576000", "114705.579000", "114705.582000", "114705.586000", "114705.589000", "114705.592000", "114705.605000", "114705.620000", "114705.623000", "114705.626000", "114705.630000", "114738.767000", "114738.771000", "114738.774000", "114738.778000", "114738.781000", "114738.784000", "114738.788000", "114738.800000", "114738.803000", "114738.807000", "114738.810000", "114738.814000", "114738.817000", "114738.820000", "114738.824000", "114738.827000", "114738.831000", "114738.834000", "114738.837000", "114738.841000", "114738.844000", "114738.847000"],
      "InstanceCreationTime": ["113945.562000", "113945.566000", "113945.569000", "113945.572000", "113945.576000", "113945.579000", "113945.583000", "113945.586000", "113945.589000", "113945.592000", "113945.596000", "113945.600000", "113945.603000", "113945.607000", "113945.610000", "113945.613000", "113945.617000", "113945.620000", "113945.623000", "113945.627000", "113945.630000", "113945.634000", "113945.637000", "113945.640000", "113945.644000", "114005.521000", "114005.525000", "114005.528000", "114005.531000", "114005.535000", "114005.538000", "114005.541000", "114005.545000", "114005.548000", "114005.551000", "114005.554000", "114005.558000", "114005.561000", "114005.565000", "114005.568000", "114005.571000", "114005.575000", "114005.578000", "114005.581000", "114005.585000", "114005.588000", "114025.521000", "114025.525000", "114025.528000", "114025.531000", "114025.535000", "114025.549000", "114025.552000", "114025.555000", "114025.559000", "114025.562000", "114025.565000", "114025.569000", "114025.572000", "114025.575000", "114025.579000", "114025.582000", "114025.585000", "114025.589000", "114025.592000", "114025.595000", "114045.521000", "114045.525000", "114045.528000", "114045.531000", "114045.535000", "114045.538000", "114045.541000", "114045.545000", "114045.548000", "114045.551000", "114045.554000", "114045.558000", "114045.561000", "114045.565000", "114045.568000", "114045.571000", "114045.575000", "114045.578000", "114045.581000", "114045.584000", "114125.522000", "114125.526000", "114125.530000", "114125.533000", "114125.536000", "114125.540000", "114125.543000", "114125.546000", "114125.550000", "114125.553000", "114125.557000", "114125.560000", "114125.564000", "114125.568000", "114125.571000", "114125.574000", "114125.578000", "114125.581000", "114125.584000", "114125.588000", "114125.591000", "114125.594000", "114125.598000", "114125.601000", "114125.604000", "114125.608000", "114125.611000", "114125.614000", "114125.618000", "114125.621000", "114205.521000", "114205.525000", "114205.528000", "114205.532000", "114205.535000", "114205.538000", "114205.541000", "114205.545000", "114205.548000", "114205.551000", "114205.555000", "114205.558000", "114205.561000", "114205.565000", "114205.568000", "114205.572000", "114205.575000", "114205.584000", "114205.587000", "114205.590000", "114205.594000", "114205.597000", "114205.600000", "114205.604000", "114205.607000", "114205.611000", "114205.614000", "114245.521000", "114245.525000", "114245.528000", "114245.532000", "114245.535000", "114245.539000", "114245.552000", "114245.556000", "114245.559000", "114245.562000", "114245.566000", "114245.569000", "114245.573000", "114245.576000", "114245.579000", "114245.583000", "114245.586000", "114245.589000", "114245.593000", "114245.596000", "114245.600000", "114245.603000", "114245.606000", "114245.610000", "114245.613000", "114245.616000", "114245.620000", "114325.521000", "114325.525000", "114325.528000", "114325.532000", "114325.535000", "114325.539000", "114325.542000", "114325.545000", "114325.548000", "114325.552000", "114325.555000", "114325.559000", "114325.562000", "114325.565000", "114325.569000", "114325.572000", "114325.575000", "114325.579000", "114325.582000", "114325.585000", "114325.589000", "114325.592000", "114325.595000", "114325.598000", "114325.602000", "114325.605000", "114325.608000", "114405.521000", "114405.525000", "114405.528000", "114405.532000", "114405.535000", "114405.538000", "114405.542000", "114405.545000", "114405.548000", "114405.552000", "114405.555000", "114405.558000", "114405.562000", "114405.565000", "114405.569000", "114405.572000", "114405.575000", "114405.579000", "114405.582000", "114405.585000", "114405.589000", "114405.592000", "114405.595000", "114405.599000", "114405.602000", "114405.605000", "114405.609000", "114445.521000", "114445.525000", "114445.528000", "114445.532000", "114445.535000", "114445.539000", "114445.542000", "114445.545000", "114445.549000", "114445.552000", "114445.555000", "114445.559000", "114445.562000", "114445.565000", "114445.569000", "114445.572000", "114445.575000", "114445.579000", "114445.582000", "114445.586000", "114445.589000", "114445.592000", "114445.595000", "114445.599000", "114445.602000", "114445.616000", "114445.619000", "114505.522000", "114505.525000", "114505.529000", "114505.532000", "114505.535000", "114505.539000", "114505.542000", "114505.545000", "114505.549000", "114505.552000", "114505.555000", "114505.559000", "114505.562000", "114545.521000", "114545.525000", "114545.528000", "114545.532000", "114545.535000", "114545.538000", "114545.542000", "114545.545000", "114545.548000", "114545.552000", "114545.555000", "114545.558000", "114545.562000", "114545.565000", "114545.569000", "114545.572000", "114545.575000", "114545.579000", "114545.582000", "114545.585000", "114545.589000", "114545.592000", "114545.595000", "114545.599000", "114545.602000", "114545.605000", "114545.609000", "114625.521000", "114625.525000", "114625.528000", "114625.532000", "114625.535000", "114625.538000", "114625.542000", "114625.545000", "114625.548000", "114625.552000", "114625.555000", "114625.558000", "114625.562000", "114625.565000", "114625.568000", "114625.572000", "114625.575000", "114625.579000", "114625.582000", "114625.585000", "114625.589000", "114625.592000", "114625.595000", "114625.599000", "114625.602000", "114625.605000", "114625.609000", "114705.521000", "114705.525000", "114705.528000", "114705.532000", "114705.535000", "114705.538000", "114705.542000", "114705.545000", "114705.549000", "114705.552000", "114705.555000", "114705.559000", "114705.562000", "114705.565000", "114705.569000", "114705.572000", "114705.576000", "114705.579000", "114705.582000", "114705.586000", "114705.589000", "114705.592000", "114705.605000", "114705.620000", "114705.623000", "114705.626000", "114705.630000", "114738.767000", "114738.771000", "114738.774000", "114738.778000", "114738.781000", "114738.784000", "114738.788000", "114738.800000", "114738.803000", "114738.807000", "114738.810000", "114738.814000", "114738.817000", "114738.820000", "114738.824000", "114738.827000", "114738.831000", "114738.834000", "114738.837000", "114738.841000", "114738.844000", "114738.847000"],
      "InstanceNumber": [1, 2, 3, 4, 5, 6, 7, 8, 9, 10, 11, 12, 13, 14, 15, 16, 17, 18, 19, 20, 21, 22, 23, 24, 25, 26, 27, 28, 29, 30, 31, 32, 33, 34, 35, 36, 37, 38, 39, 40, 41, 42, 43, 44, 45, 46, 47, 48, 49, 50, 51, 52, 53, 54, 55, 56, 57, 58, 59, 60, 61, 62, 63, 64, 65, 66, 67, 68, 69, 70, 71, 72, 73, 74, 75, 76, 77, 78, 79, 80, 81, 82, 83, 84, 85, 86, 87, 88, 89, 90, 91, 92, 93, 94, 95, 96, 97, 98, 99, 100, 101, 102, 103, 104, 105, 106, 107, 108, 109, 110, 111, 112, 113, 114, 115, 116, 117, 118, 119, 120, 121, 122, 123, 124, 125, 126, 127, 128, 129, 130, 131, 132, 133, 134, 135, 136, 137, 138, 139, 140, 141, 142, 143, 144, 145, 146, 147, 148, 149, 150, 151, 152, 153, 154, 155, 156, 157, 158, 159, 160, 161, 162, 163, 164, 165, 166, 167, 168, 169, 170, 171, 172, 173, 174, 175, 176, 177, 178, 179, 180, 181, 182, 183, 184, 185, 186, 187, 188, 189, 190, 191, 192, 193, 194, 195, 196, 197, 198, 199, 200, 201, 202, 203, 204, 205, 206, 207, 208, 209, 210, 211, 212, 213, 214, 215, 216, 217, 218, 219, 220, 221, 222, 223, 224, 225, 226, 227, 228, 229, 230, 231, 232, 233, 234, 235, 236, 237, 238, 239, 240, 241, 242, 243, 244, 245, 246, 247, 248, 249, 250, 251, 252, 253, 254, 255, 256, 257, 258, 259, 260, 261, 262, 263, 264, 265, 266, 267, 268, 269, 270, 271, 272, 273, 274, 275, 276, 277, 278, 279, 280, 281, 282, 283, 284, 285, 286, 287, 288, 289, 290, 291, 292, 293, 294, 295, 296, 297, 298, 299, 300, 301, 302, 303, 304, 305, 306, 307, 308, 309, 310, 311, 312, 313, 314, 315, 316, 317, 318, 319, 320, 321, 322, 323, 324, 325, 326, 327, 328, 329, 330, 331, 332, 333, 334, 335, 336, 337, 338, 339, 340, 341, 342, 343, 344, 345, 346, 347, 348, 349, 350, 351, 352, 353, 354, 355, 356, 357, 358, 359, 360, 361, 362, 363, 364, 365, 366, 367],
