{
  "AcquisitionMatrixPE": 104,
  "AcquisitionNumber": 1,
  "AcquisitionTime": "11:28:23.352500",
  "BandwidthPerPixelPhaseEncode": 17.17,
  "BaseResolution": 104,
  "BodyPartExamined": "BRAIN",
  "CoilCombinationMethod": "Sum of Squares",
  "ConsistencyInfo": "N4_VE11C_LATEST_20160120",
  "ConversionSoftware": "dcm2niix",
  "ConversionSoftwareVersion": "v1.0.20220505",
  "DerivedVendorReportedEchoSpacing": 0.000560011,
  "DeviceSerialNumber": "167006",
  "DwellTime": 2.1e-06,
  "EchoTime": 0.037,
  "EchoTrainLength": 104,
  "EffectiveEchoSpacing": 0.000560011,
  "FlipAngle": 52,
  "HeudiconvVersion": "0.5.3.post811+g6206e14",
  "ImageComments": "Unaliased MB4/PE3/LB",
  "ImageOrientationPatientDICOM": [0.996003, 0.0887869, 0.00974527, -0.0785621, 0.922723, -0.377373],
  "ImageOrientationText": "Tra>Cor(-22.1)>Sag(2.4)",
  "ImageType": [
    "ORIGINAL",
    "PRIMARY",
    "M",
    "MB",
    "ND",
    "MOSAIC"
],
  "ImagingFrequency": 123.259,
  "InPlanePhaseEncodingDirectionDICOM": "COL",
  "InstitutionAddress": "Chemin Queen-Mary 4565,Montreal,District,CA,H3W 1W5",
  "InstitutionName": "IUGM",
  "InstitutionalDepartmentName": "Department",
  "MRAcquisitionType": "2D",
  "MagneticFieldStrength": 3,
  "Manufacturer": "Siemens",
  "ManufacturersModelName": "Prisma_fit",
  "MatrixCoilMode": "SENSE",
  "Modality": "MR",
  "MultibandAccelerationFactor": 4,
  "PartialFourier": 1,
  "PatientPosition": "HFS",
  "PercentPhaseFOV": 100,
  "PercentSampling": 100,
  "PhaseEncodingDirection": "j",
  "PhaseEncodingSteps": 104,
  "PhaseResolution": 1,
  "PixelBandwidth": 2290,
  "ProcedureStepDescription": "games^mario3",
  "ProtocolName": "func_task-mario3_run-01",
  "PulseSequenceDetails": "%CustomerSeq%\\cmrr_mbep2d_bold",
  "ReceiveCoilActiveElements": "HC1-7;NC1,2",
  "ReceiveCoilName": "HeadNeck_64",
  "ReconMatrixPE": 104,
  "RepetitionTime": 1.49,
  "SAR": 0.0597238,
  "ScanOptions": "FS",
  "ScanningSequence": "EP",
  "SequenceName": "epfid2d1_104",
  "SequenceVariant": "SK\\SS",
  "SeriesDescription": "func_task-mario3_run-01",
  "SeriesNumber": 10,
  "ShimSetting": [595, -7219, -8812, 629, 99, -15, -118, 60],
  "SliceThickness": 2,
  "SliceTiming": [0, 0.7825, 0.0975, 0.88, 0.195, 0.98, 0.2925, 1.0775, 0.39, 1.175, 0.49, 1.2725, 0.5875, 1.37, 0.685, 0, 0.7825, 0.0975, 0.88, 0.195, 0.98, 0.2925, 1.0775, 0.39, 1.175, 0.49, 1.2725, 0.5875, 1.37, 0.685, 0, 0.7825, 0.0975, 0.88, 0.195, 0.98, 0.2925, 1.0775, 0.39, 1.175, 0.49, 1.2725, 0.5875, 1.37, 0.685, 0, 0.7825, 0.0975, 0.88, 0.195, 0.98, 0.2925, 1.0775, 0.39, 1.175, 0.49, 1.2725, 0.5875, 1.37, 0.685],
  "SoftwareVersions": "syngo MR E11",
  "SpacingBetweenSlices": 2,
  "StationName": "MRC35049",
  "TaskName": "mario3",
  "TotalReadoutTime": 0.0576811,
  "TxRefAmp": 277.055,
  "WipMemBlock": "37ce0492-6099-4c3d-a161-92c4d83f61bf||Sequence: R017 ve11c/master r/75a17815+; Jun 28 2022 16:32:11 by eja",
  "dcmmeta_affine": [
    [-1.9920059442520142, -0.15712414681911469, 0.08499594777822495, 112.65969848632812],
    [-0.17757372558116913, 1.8454456329345703, -0.7501986026763916, -55.75303268432617],
    [0.019490543752908707, 0.7547466158866882, 1.8520199060440063, -65.4618911743164],
    [0.0, 0.0, 0.0, 1.0]
],
  "dcmmeta_reorient_transform": [
    [0.0, -1.0, 0.0, 103.0],
    [1.0, 0.0, 0.0, 0.0],
    [0.0, 0.0, 1.0, 0.0],
    [0.0, 0.0, 0.0, 1.0]
],
  "dcmmeta_shape": [104, 104, 60, 336],
  "dcmmeta_slice_dim": 2,
  "dcmmeta_version": 0.6,
  "global": {
    "const": {
      "AcquisitionMatrix": [104, 0, 0, 104],
      "AngioFlag": "N",
      "BitsAllocated": 16,
      "BitsStored": 16,
      "BodyPartExamined": "BRAIN",
      "Columns": 832,
      "EchoNumbers": 1,
      "EchoTime": 37.0,
      "EchoTrainLength": 104,
      "FlipAngle": 52.0,
      "HighBit": 15,
      "ImageOrientationPatient": [0.9960029732889, 0.08878686202821, 0.00974527223054, -0.0785620723373, 0.92272281420057, -0.3773733018429],
      "ImagePositionPatient": [-764.37288780209, -870.70691190469, 279.91021608734],
      "ImageType": [
        "ORIGINAL",
        "PRIMARY",
        "M",
        "MB",
        "ND",
        "MOSAIC"
],
      "ImagedNucleus": "1H",
      "ImagingFrequency": 123.259085,
      "InPlanePhaseEncodingDirection": "COL",
      "MRAcquisitionType": "2D",
      "MagneticFieldStrength": 3.0,
      "Manufacturer": "SIEMENS",
      "ManufacturerModelName": "Prisma_fit",
      "Modality": "MR",
      "NumberOfAverages": 1.0,
      "NumberOfPhaseEncodingSteps": 104,
      "PercentPhaseFieldOfView": 100.0,
      "PercentSampling": 100.0,
      "PerformedProcedureStepStartTime": "112521.934000",
      "PhotometricInterpretation": "MONOCHROME2",
      "PixelBandwidth": 2290.0,
      "PixelRepresentation": 0,
      "PixelSpacing": [2.0, 2.0],
      "ProtocolName": "func_task-mario3_run-01",
      "RepetitionTime": 1490.0,
      "Rows": 832,
      "SAR": 0.05972380493354,
      "SamplesPerPixel": 1,
      "ScanOptions": "FS",
      "ScanningSequence": "EP",
      "SequenceName": "epfid2d1_104",
      "SequenceVariant": [
        "SK",
        "SS"
],
      "SeriesDescription": "func_task-mario3_run-01",
      "SeriesNumber": 10,
      "SeriesTime": "112948.719000",
      "SliceLocation": -34.917627172282,
      "SliceThickness": 2.0,
      "SmallestImagePixelValue": 0,
      "SoftwareVersions": "syngo MR E11",
      "SpacingBetweenSlices": 1.9999999647214,
      "SpecificCharacterSet": "ISO_IR 100",
      "StudyID": "1",
      "StudyTime": "112521.855000",
      "TransmitCoilName": "Body",
      "VariableFlipAngleFlag": "N",
      "WindowCenterWidthExplanation": "Algo1",
      "dBdt": 0.0},
    "slices": {}
  },
  "time": {
    "samples": {
      "AcquisitionNumber": [1, 2, 3, 4, 5, 6, 7, 8, 9, 10, 11, 12, 13, 14, 15, 16, 17, 18, 19, 20, 21, 22, 23, 24, 25, 26, 27, 28, 29, 30, 31, 32, 33, 34, 35, 36, 37, 38, 39, 40, 41, 42, 43, 44, 45, 46, 47, 48, 49, 50, 51, 52, 53, 54, 55, 56, 57, 58, 59, 60, 61, 62, 63, 64, 65, 66, 67, 68, 69, 70, 71, 72, 73, 74, 75, 76, 77, 78, 79, 80, 81, 82, 83, 84, 85, 86, 87, 88, 89, 90, 91, 92, 93, 94, 95, 96, 97, 98, 99, 100, 101, 102, 103, 104, 105, 106, 107, 108, 109, 110, 111, 112, 113, 114, 115, 116, 117, 118, 119, 120, 121, 122, 123, 124, 125, 126, 127, 128, 129, 130, 131, 132, 133, 134, 135, 136, 137, 138, 139, 140, 141, 142, 143, 144, 145, 146, 147, 148, 149, 150, 151, 152, 153, 154, 155, 156, 157, 158, 159, 160, 161, 162, 163, 164, 165, 166, 167, 168, 169, 170, 171, 172, 173, 174, 175, 176, 177, 178, 179, 180, 181, 182, 183, 184, 185, 186, 187, 188, 189, 190, 191, 192, 193, 194, 195, 196, 197, 198, 199, 200, 201, 202, 203, 204, 205, 206, 207, 208, 209, 210, 211, 212, 213, 214, 215, 216, 217, 218, 219, 220, 221, 222, 223, 224, 225, 226, 227, 228, 229, 230, 231, 232, 233, 234, 235, 236, 237, 238, 239, 240, 241, 242, 243, 244, 245, 246, 247, 248, 249, 250, 251, 252, 253, 254, 255, 256, 257, 258, 259, 260, 261, 262, 263, 264, 265, 266, 267, 268, 269, 270, 271, 272, 273, 274, 275, 276, 277, 278, 279, 280, 281, 282, 283, 284, 285, 286, 287, 288, 289, 290, 291, 292, 293, 294, 295, 296, 297, 298, 299, 300, 301, 302, 303, 304, 305, 306, 307, 308, 309, 310, 311, 312, 313, 314, 315, 316, 317, 318, 319, 320, 321, 322, 323, 324, 325, 326, 327, 328, 329, 330, 331, 332, 333, 334, 335, 336],
      "AcquisitionTime": ["112823.352500", "112824.842500", "112826.332500", "112827.822500", "112829.312500", "112830.802500", "112832.292500", "112833.782500", "112835.272500", "112836.762500", "112838.252500", "112839.742500", "112841.232500", "112842.722500", "112844.212500", "112845.702500", "112847.192500", "112848.682500", "112850.172500", "112851.662500", "112853.152500", "112854.642500", "112856.132500", "112857.622500", "112859.112500", "112900.602500", "112902.092500", "112903.582500", "112905.072500", "112906.562500", "112908.052500", "112909.542500", "112911.032500", "112912.522500", "112914.012500", "112915.502500", "112916.992500", "112918.482500", "112919.972500", "112921.462500", "112922.952500", "112924.442500", "112925.932500", "112927.422500", "112928.912500", "112930.402500", "112931.892500", "112933.382500", "112934.872500", "112936.362500", "112937.852500", "112939.342500", "112940.832500", "112942.322500", "112943.812500", "112945.302500", "112946.792500", "112948.282500", "112949.772500", "112951.262500", "112952.752500", "112954.242500", "112955.732500", "112957.222500", "112958.712500", "113000.202500", "113001.692500", "113003.182500", "113004.672500", "113006.162500", "113007.652500", "113009.142500", "113010.632500", "113012.122500", "113013.612500", "113015.102500", "113016.592500", "113018.082500", "113019.572500", "113021.062500", "113022.552500", "113024.042500", "113025.532500", "113027.022500", "113028.512500", "113030.002500", "113031.492500", "113032.982500", "113034.472500", "113035.962500", "113037.452500", "113038.942500", "113040.432500", "113041.922500", "113043.412500", "113044.902500", "113046.392500", "113047.882500", "113049.372500", "113050.862500", "113052.352500", "113053.842500", "113055.332500", "113056.822500", "113058.312500", "113059.802500", "113101.292500", "113102.782500", "113104.272500", "113105.762500", "113107.252500", "113108.742500", "113110.232500", "113111.722500", "113113.212500", "113114.702500", "113116.192500", "113117.682500", "113119.172500", "113120.662500", "113122.152500", "113123.642500", "113125.132500", "113126.622500", "113128.112500", "113129.602500", "113131.092500", "113132.582500", "113134.072500", "113135.562500", "113137.052500", "113138.542500", "113140.032500", "113141.522500", "113143.012500", "113144.502500", "113145.992500", "113147.482500", "113148.972500", "113150.462500", "113151.952500", "113153.442500", "113154.932500", "113156.422500", "113157.912500", "113159.402500", "113200.892500", "113202.382500", "113203.872500", "113205.362500", "113206.852500", "113208.342500", "113209.832500", "113211.322500", "113212.812500", "113214.302500", "113215.792500", "113217.282500", "113218.772500", "113220.262500", "113221.752500", "113223.242500", "113224.732500", "113226.222500", "113227.712500", "113229.202500", "113230.692500", "113232.182500", "113233.672500", "113235.162500", "113236.652500", "113238.142500", "113239.632500", "113241.122500", "113242.612500", "113244.102500", "113245.592500", "113247.082500", "113248.572500", "113250.062500", "113251.552500", "113253.042500", "113254.532500", "113256.022500", "113257.512500", "113259.002500", "113300.492500", "113301.982500", "113303.472500", "113304.962500", "113306.452500", "113307.942500", "113309.432500", "113310.922500", "113312.412500", "113313.902500", "113315.392500", "113316.882500", "113318.372500", "113319.862500", "113321.352500", "113322.842500", "113324.332500", "113325.822500", "113327.312500", "113328.802500", "113330.292500", "113331.782500", "113333.272500", "113334.762500", "113336.252500", "113337.742500", "113339.232500", "113340.722500", "113342.212500", "113343.702500", "113345.192500", "113346.682500", "113348.172500", "113349.662500", "113351.152500", "113352.642500", "113354.132500", "113355.622500", "113357.112500", "113358.602500", "113400.092500", "113401.582500", "113403.072500", "113404.562500", "113406.052500", "113407.542500", "113409.032500", "113410.522500", "113412.012500", "113413.502500", "113414.992500", "113416.482500", "113417.972500", "113419.462500", "113420.952500", "113422.442500", "113423.932500", "113425.422500", "113426.912500", "113428.402500", "113429.892500", "113431.382500", "113432.872500", "113434.362500", "113435.852500", "113437.342500", "113438.832500", "113440.322500", "113441.812500", "113443.302500", "113444.792500", "113446.282500", "113447.772500", "113449.262500", "113450.752500", "113452.242500", "113453.732500", "113455.222500", "113456.712500", "113458.202500", "113459.692500", "113501.182500", "113502.672500", "113504.162500", "113505.652500", "113507.142500", "113508.632500", "113510.122500", "113511.612500", "113513.102500", "113514.592500", "113516.082500", "113517.572500", "113519.062500", "113520.552500", "113522.042500", "113523.532500", "113525.022500", "113526.512500", "113528.002500", "113529.492500", "113530.982500", "113532.472500", "113533.962500", "113535.452500", "113536.942500", "113538.432500", "113539.922500", "113541.412500", "113542.902500", "113544.392500", "113545.882500", "113547.372500", "113548.862500", "113550.352500", "113551.842500", "113553.332500", "113554.822500", "113556.312500", "113557.802500", "113559.292500", "113600.782500", "113602.272500", "113603.762500", "113605.252500", "113606.742500", "113608.232500", "113609.722500", "113611.212500", "113612.702500", "113614.192500", "113615.682500", "113617.172500", "113618.662500", "113620.152500", "113621.642500", "113623.132500", "113624.622500", "113626.112500", "113627.602500", "113629.092500", "113630.582500", "113632.072500", "113633.562500", "113635.052500", "113636.542500", "113638.032500", "113639.522500", "113641.012500", "113642.502500"],
      "ContentTime": ["112948.723000", "112948.726000", "112948.730000", "112948.733000", "112948.736000", "112948.740000", "112948.743000", "112948.746000", "112948.750000", "112948.753000", "112948.756000", "112948.759000", "112948.763000", "112948.766000", "112948.770000", "112948.773000", "112948.776000", "112948.779000", "112948.783000", "112948.786000", "112948.789000", "112948.808000", "112948.811000", "112948.814000", "112948.818000", "112948.821000", "112948.824000", "112948.827000", "112948.831000", "112948.834000", "112948.838000", "112948.841000", "112948.844000", "112948.848000", "112948.851000", "112948.854000", "112948.858000", "113008.690000", "113008.694000", "113008.697000", "113008.701000", "113008.704000", "113008.708000", "113008.711000", "113008.714000", "113008.717000", "113008.721000", "113008.724000", "113008.727000", "113008.731000", "113008.734000", "113008.737000", "113008.741000", "113008.744000", "113008.747000", "113008.750000", "113008.754000", "113028.690000", "113028.694000", "113028.697000", "113028.700000", "113028.704000", "113028.707000", "113028.710000", "113028.714000", "113028.717000", "113028.720000", "113028.724000", "113028.727000", "113028.730000", "113028.733000", "113028.737000", "113028.740000", "113028.743000", "113028.747000", "113028.750000", "113028.753000", "113108.689000", "113108.693000", "113108.696000", "113108.700000", "113108.703000", "113108.706000", "113108.710000", "113108.713000", "113108.716000", "113108.720000", "113108.723000", "113108.726000", "113108.730000", "113108.733000", "113108.736000", "113108.739000", "113108.743000", "113108.746000", "113108.750000", "113108.753000", "113108.757000", "113108.760000", "113108.763000", "113108.767000", "113108.770000", "113108.773000", "113108.777000", "113108.780000", "113108.783000", "113108.787000", "113108.790000", "113108.793000", "113108.797000", "113148.690000", "113148.694000", "113148.697000", "113148.700000", "113148.704000", "113148.712000", "113148.715000", "113148.719000", "113148.722000", "113148.726000", "113148.729000", "113148.732000", "113148.735000", "113148.739000", "113148.742000", "113148.746000", "113148.749000", "113148.752000", "113148.756000", "113148.759000", "113148.762000", "113148.766000", "113148.769000", "113148.772000", "113148.776000", "113148.779000", "113148.782000", "113228.690000", "113228.694000", "113228.697000", "113228.701000", "113228.704000", "113228.708000", "113228.711000", "113228.714000", "113228.718000", "113228.722000", "113228.725000", "113228.729000", "113228.732000", "113228.736000", "113228.739000", "113228.742000", "113228.746000", "113228.749000", "113228.752000", "113228.756000", "113228.759000", "113228.762000", "113228.766000", "113228.769000", "113228.773000", "113228.776000", "113228.779000", "113308.690000", "113308.694000", "113308.697000", "113308.701000", "113308.704000", "113308.708000", "113308.711000", "113308.714000", "113308.718000", "113308.721000", "113308.725000", "113308.729000", "113308.732000", "113308.736000", "113308.739000", "113308.742000", "113308.746000", "113308.749000", "113308.753000", "113308.756000", "113308.759000", "113308.763000", "113308.766000", "113308.769000", "113308.773000", "113308.776000", "113348.689000", "113348.693000", "113348.697000", "113348.700000", "113348.704000", "113348.707000", "113348.711000", "113348.714000", "113348.718000", "113348.721000", "113348.725000", "113348.728000", "113348.800000", "113348.804000", "113348.807000", "113348.810000", "113348.814000", "113348.817000", "113348.821000", "113348.824000", "113348.828000", "113348.831000", "113348.835000", "113348.838000", "113348.841000", "113348.845000", "113348.848000", "113428.690000", "113428.694000", "113428.697000", "113428.701000", "113428.704000", "113428.707000", "113428.711000", "113428.714000", "113428.717000", "113428.721000", "113428.724000", "113428.727000", "113428.731000", "113428.734000", "113428.737000", "113428.741000", "113428.744000", "113428.748000", "113428.752000", "113428.755000", "113428.765000", "113428.769000", "113428.772000", "113428.775000", "113428.779000", "113428.782000", "113428.786000", "113508.690000", "113508.694000", "113508.698000", "113508.701000", "113508.704000", "113508.708000", "113508.711000", "113508.714000", "113508.718000", "113508.721000", "113508.725000", "113508.728000", "113508.731000", "113508.735000", "113508.738000", "113508.741000", "113508.744000", "113508.748000", "113508.751000", "113508.754000", "113508.758000", "113508.761000", "113508.764000", "113508.768000", "113508.771000", "113508.775000", "113508.778000", "113548.689000", "113548.693000", "113548.696000", "113548.700000", "113548.703000", "113548.706000", "113548.710000", "113548.713000", "113548.717000", "113548.720000", "113548.723000", "113548.727000", "113548.730000", "113548.733000", "113548.737000", "113548.740000", "113548.744000", "113548.747000", "113548.750000", "113548.754000", "113548.757000", "113548.760000", "113548.764000", "113548.767000", "113548.770000", "113548.774000", "113548.777000", "113628.702000", "113628.706000", "113628.709000", "113628.713000", "113628.716000", "113628.719000", "113628.723000", "113628.726000", "113628.729000", "113628.733000", "113628.736000", "113628.739000", "113628.789000", "113628.792000", "113628.796000", "113628.799000", "113628.802000", "113628.806000", "113628.809000", "113628.812000", "113628.816000", "113628.819000", "113628.822000", "113628.826000", "113628.829000", "113628.832000", "113628.836000", "113645.920000", "113645.925000", "113645.928000", "113645.932000", "113645.935000", "113645.938000", "113645.942000", "113645.945000", "113645.948000", "113645.952000", "113645.955000"],
      "InstanceCreationTime": ["112948.723000", "112948.726000", "112948.730000", "112948.733000", "112948.736000", "112948.740000", "112948.743000", "112948.746000", "112948.750000", "112948.753000", "112948.756000", "112948.759000", "112948.763000", "112948.766000", "112948.770000", "112948.773000", "112948.776000", "112948.779000", "112948.783000", "112948.786000", "112948.789000", "112948.808000", "112948.811000", "112948.814000", "112948.818000", "112948.821000", "112948.824000", "112948.827000", "112948.831000", "112948.834000", "112948.838000", "112948.841000", "112948.844000", "112948.848000", "112948.851000", "112948.854000", "112948.858000", "113008.690000", "113008.694000", "113008.697000", "113008.701000", "113008.704000", "113008.708000", "113008.711000", "113008.714000", "113008.717000", "113008.721000", "113008.724000", "113008.727000", "113008.731000", "113008.734000", "113008.737000", "113008.741000", "113008.744000", "113008.747000", "113008.750000", "113008.754000", "113028.690000", "113028.694000", "113028.697000", "113028.700000", "113028.704000", "113028.707000", "113028.710000", "113028.714000", "113028.717000", "113028.720000", "113028.724000", "113028.727000", "113028.730000", "113028.733000", "113028.737000", "113028.740000", "113028.743000", "113028.747000", "113028.750000", "113028.753000", "113108.689000", "113108.693000", "113108.696000", "113108.700000", "113108.703000", "113108.706000", "113108.710000", "113108.713000", "113108.716000", "113108.720000", "113108.723000", "113108.726000", "113108.730000", "113108.733000", "113108.736000", "113108.739000", "113108.743000", "113108.746000", "113108.750000", "113108.753000", "113108.757000", "113108.760000", "113108.763000", "113108.767000", "113108.770000", "113108.773000", "113108.777000", "113108.780000", "113108.783000", "113108.787000", "113108.790000", "113108.793000", "113108.797000", "113148.690000", "113148.694000", "113148.697000", "113148.700000", "113148.704000", "113148.712000", "113148.715000", "113148.719000", "113148.722000", "113148.726000", "113148.729000", "113148.732000", "113148.735000", "113148.739000", "113148.742000", "113148.746000", "113148.749000", "113148.752000", "113148.756000", "113148.759000", "113148.762000", "113148.766000", "113148.769000", "113148.772000", "113148.776000", "113148.779000", "113148.782000", "113228.690000", "113228.694000", "113228.697000", "113228.701000", "113228.704000", "113228.708000", "113228.711000", "113228.714000", "113228.718000", "113228.722000", "113228.725000", "113228.729000", "113228.732000", "113228.736000", "113228.739000", "113228.742000", "113228.746000", "113228.749000", "113228.752000", "113228.756000", "113228.759000", "113228.762000", "113228.766000", "113228.769000", "113228.773000", "113228.776000", "113228.779000", "113308.690000", "113308.694000", "113308.697000", "113308.701000", "113308.704000", "113308.708000", "113308.711000", "113308.714000", "113308.718000", "113308.721000", "113308.725000", "113308.729000", "113308.732000", "113308.736000", "113308.739000", "113308.742000", "113308.746000", "113308.749000", "113308.753000", "113308.756000", "113308.759000", "113308.763000", "113308.766000", "113308.769000", "113308.773000", "113308.776000", "113348.689000", "113348.693000", "113348.697000", "113348.700000", "113348.704000", "113348.707000", "113348.711000", "113348.714000", "113348.718000", "113348.721000", "113348.725000", "113348.728000", "113348.800000", "113348.804000", "113348.807000", "113348.810000", "113348.814000", "113348.817000", "113348.821000", "113348.824000", "113348.828000", "113348.831000", "113348.835000", "113348.838000", "113348.841000", "113348.845000", "113348.848000", "113428.690000", "113428.694000", "113428.697000", "113428.701000", "113428.704000", "113428.707000", "113428.711000", "113428.714000", "113428.717000", "113428.721000", "113428.724000", "113428.727000", "113428.731000", "113428.734000", "113428.737000", "113428.741000", "113428.744000", "113428.748000", "113428.752000", "113428.755000", "113428.765000", "113428.769000", "113428.772000", "113428.775000", "113428.779000", "113428.782000", "113428.786000", "113508.690000", "113508.694000", "113508.698000", "113508.701000", "113508.704000", "113508.708000", "113508.711000", "113508.714000", "113508.718000", "113508.721000", "113508.725000", "113508.728000", "113508.731000", "113508.735000", "113508.738000", "113508.741000", "113508.744000", "113508.748000", "113508.751000", "113508.754000", "113508.758000", "113508.761000", "113508.764000", "113508.768000", "113508.771000", "113508.775000", "113508.778000", "113548.689000", "113548.693000", "113548.696000", "113548.700000", "113548.703000", "113548.706000", "113548.710000", "113548.713000", "113548.717000", "113548.720000", "113548.723000", "113548.727000", "113548.730000", "113548.733000", "113548.737000", "113548.740000", "113548.744000", "113548.747000", "113548.750000", "113548.754000", "113548.757000", "113548.760000", "113548.764000", "113548.767000", "113548.770000", "113548.774000", "113548.777000", "113628.702000", "113628.706000", "113628.709000", "113628.713000", "113628.716000", "113628.719000", "113628.723000", "113628.726000", "113628.729000", "113628.733000", "113628.736000", "113628.739000", "113628.789000", "113628.792000", "113628.796000", "113628.799000", "113628.802000", "113628.806000", "113628.809000", "113628.812000", "113628.816000", "113628.819000", "113628.822000", "113628.826000", "113628.829000", "113628.832000", "113628.836000", "113645.920000", "113645.925000", "113645.928000", "113645.932000", "113645.935000", "113645.938000", "113645.942000", "113645.945000", "113645.948000", "113645.952000", "113645.955000"],
      "InstanceNumber": [1, 2, 3, 4, 5, 6, 7, 8, 9, 10, 11, 12, 13, 14, 15, 16, 17, 18, 19, 20, 21, 22, 23, 24, 25, 26, 27, 28, 29, 30, 31, 32, 33, 34, 35, 36, 37, 38, 39, 40, 41, 42, 43, 44, 45, 46, 47, 48, 49, 50, 51, 52, 53, 54, 55, 56, 57, 58, 59, 60, 61, 62, 63, 64, 65, 66, 67, 68, 69, 70, 71, 72, 73, 74, 75, 76, 77, 78, 79, 80, 81, 82, 83, 84, 85, 86, 87, 88, 89, 90, 91, 92, 93, 94, 95, 96, 97, 98, 99, 100, 101, 102, 103, 104, 105, 106, 107, 108, 109, 110, 111, 112, 113, 114, 115, 116, 117, 118, 119, 120, 121, 122, 123, 124, 125, 126, 127, 128, 129, 130, 131, 132, 133, 134, 135, 136, 137, 138, 139, 140, 141, 142, 143, 144, 145, 146, 147, 148, 149, 150, 151, 152, 153, 154, 155, 156, 157, 158, 159, 160, 161, 162, 163, 164, 165, 166, 167, 168, 169, 170, 171, 172, 173, 174, 175, 176, 177, 178, 179, 180, 181, 182, 183, 184, 185, 186, 187, 188, 189, 190, 191, 192, 193, 194, 195, 196, 197, 198, 199, 200, 201, 202, 203, 204, 205, 206, 207, 208, 209, 210, 211, 212, 213, 214, 215, 216, 217, 218, 219, 220, 221, 222, 223, 224, 225, 226, 227, 228, 229, 230, 231, 232, 233, 234, 235, 236, 237, 238, 239, 240, 241, 242, 243, 244, 245, 246, 247, 248, 249, 250, 251, 252, 253, 254, 255, 256, 257, 258, 259, 260, 261, 262, 263, 264, 265, 266, 267, 268, 269, 270, 271, 272, 273, 274, 275, 276, 277, 278, 279, 280, 281, 282, 283, 284, 285, 286, 287, 288, 289, 290, 291, 292, 293, 294, 295, 296, 297, 298, 299, 300, 301, 302, 303, 304, 305, 306, 307, 308, 309, 310, 311, 312, 313, 314, 315, 316, 317, 318, 319, 320, 321, 322, 323, 324, 325, 326, 327, 328, 329, 330, 331, 332, 333, 334, 335, 336],
      "LargestImagePixelValue": [42738, 41473, 40462, 40495, 40345, 40708, 40481, 39816, 39386, 40084, 40217, 39558, 39571, 40471, 38974, 39564, 39367, 38820, 39689, 39203, 39029, 39533, 39959, 38672, 38226, 39615, 38842, 39586, 38799, 39993, 38957, 39748, 39164, 38579, 38666, 38795, 39154, 38709, 39256, 39245, 38845, 39398, 38872, 38890, 38892, 38769, 39217, 38786, 38583, 38909, 39015, 38765, 38664, 38890, 39129, 38912, 38505, 38397, 38717, 38564, 38630, 38965, 38938, 39162, 39544, 39130, 39554, 39543, 40115, 39524, 39313, 39461, 40036, 39302, 39893, 39560, 39785, 39419, 39226, 39302, 39187, 40088, 39339, 39443, 39727, 39171, 38937, 39396, 39666, 40033, 39659, 39832, 39911, 39986, 39403, 39382, 39584, 39343, 39411, 39759, 39619, 39623, 39553, 40557, 39303, 39690, 40430, 39730, 40614, 40069, 39872, 40345, 39885, 40131, 40566, 39599, 39902, 39222, 39652, 39974, 39427, 39498, 39565, 39639, 39670, 38982, 39552, 39664, 39187, 39664, 39581, 39414, 39483, 39879, 39585, 39544, 39936, 39821, 39091, 39438, 39509, 39264, 39696, 39551, 40060, 39857, 40670, 40296, 40430, 40331, 39638, 40249, 39791, 39871, 40268, 41758, 40128, 40360, 39787, 40902, 39623, 40161, 39828, 39826, 39798, 39785, 40825, 39054, 40067, 39876, 40170, 39484, 39945, 39376, 40328, 40092, 40121, 39970, 40745, 39713, 40042, 40527, 39996, 40658, 40177, 41637, 40776, 42166, 40772, 41559, 41242, 39955, 42106, 39784, 41275, 40239, 41706, 41727, 41172, 39962, 41465, 41486, 39326, 41434, 40667, 40623, 41939, 41301, 42306, 40557, 41290, 41164, 40268, 41271, 39731, 41683, 41260, 40801, 42335, 40636, 41453, 41676, 42218, 41831, 40559, 40510, 41933, 41645, 40734, 40638, 41626, 41651, 39714, 40886, 40083, 40925, 40559, 40786, 40363, 40999, 41127, 41927, 41331, 41510, 41447, 41695, 41457, 41525, 42254, 41449, 42905, 41768, 42863, 42388, 42475, 43010, 41193, 42649, 42409, 41250, 42191, 41333, 42329, 42243, 40407, 42410, 41251, 41940, 42531, 41287, 43561, 42108, 41255, 41427, 40326, 39459, 40038, 40368, 40467, 41382, 41636, 41759, 42068, 40893, 40618, 41433, 39871, 39773, 39950, 39750, 40644, 40248, 40330, 40675, 39963, 42880, 41409, 42041, 41460, 41369, 40377, 40938, 42457, 41350, 40926, 40169, 41646, 41744, 41197, 41188, 40780, 41945, 40565, 40622, 39133, 40609, 39681, 41615, 40843, 40385, 41244, 40957, 42517, 41530, 41269, 42892, 42252, 40734, 43089, 42971, 41472, 41942, 44857, 42993, 42113, 43903],
