{
  "AcquisitionMatrixPE": 104,
  "AcquisitionNumber": 1,
  "AcquisitionTime": "11:49:42.572500",
  "BandwidthPerPixelPhaseEncode": 17.17,
  "BaseResolution": 104,
  "BodyPartExamined": "BRAIN",
  "CoilCombinationMethod": "Sum of Squares",
  "ConsistencyInfo": "N4_VE11C_LATEST_20160120",
  "ConversionSoftware": "dcm2niix",
  "ConversionSoftwareVersion": "v1.0.20220505",
  "DerivedVendorReportedEchoSpacing": 0.000560011,
  "DeviceSerialNumber": "167006",
  "DwellTime": 2.1e-06,
  "EchoTime": 0.037,
  "EchoTrainLength": 104,
  "EffectiveEchoSpacing": 0.000560011,
  "FlipAngle": 52,
  "HeudiconvVersion": "0.5.3.post811+g6206e14",
  "ImageComments": "Unaliased MB4/PE3/LB",
  "ImageOrientationPatientDICOM": [0.996003, 0.0887869, 0.00974527, -0.0785621, 0.922723, -0.377373],
  "ImageOrientationText": "Tra>Cor(-22.1)>Sag(2.4)",
  "ImageType": [
    "ORIGINAL",
    "PRIMARY",
    "M",
    "MB",
    "ND",
    "MOSAIC"
],
  "ImagingFrequency": 123.259,
  "InPlanePhaseEncodingDirectionDICOM": "COL",
  "InstitutionAddress": "Chemin Queen-Mary 4565,Montreal,District,CA,H3W 1W5",
  "InstitutionName": "IUGM",
  "InstitutionalDepartmentName": "Department",
  "MRAcquisitionType": "2D",
  "MagneticFieldStrength": 3,
  "Manufacturer": "Siemens",
  "ManufacturersModelName": "Prisma_fit",
  "MatrixCoilMode": "SENSE",
  "Modality": "MR",
  "MultibandAccelerationFactor": 4,
  "PartialFourier": 1,
  "PatientPosition": "HFS",
  "PercentPhaseFOV": 100,
  "PercentSampling": 100,
  "PhaseEncodingDirection": "j",
  "PhaseEncodingSteps": 104,
  "PhaseResolution": 1,
  "PixelBandwidth": 2290,
  "ProcedureStepDescription": "games^mario3",
  "ProtocolName": "func_task-mario3_run-03",
  "PulseSequenceDetails": "%CustomerSeq%\\cmrr_mbep2d_bold",
  "ReceiveCoilActiveElements": "HC1-7;NC1,2",
  "ReceiveCoilName": "HeadNeck_64",
  "ReconMatrixPE": 104,
  "RepetitionTime": 1.49,
  "SAR": 0.0597238,
  "ScanOptions": "FS",
  "ScanningSequence": "EP",
  "SequenceName": "epfid2d1_104",
  "SequenceVariant": "SK\\SS",
  "SeriesDescription": "func_task-mario3_run-03",
  "SeriesNumber": 16,
  "ShimSetting": [595, -7219, -8812, 629, 99, -15, -118, 60],
  "SliceThickness": 2,
  "SliceTiming": [0, 0.7825, 0.0975, 0.8825, 0.195, 0.98, 0.2925, 1.0775, 0.3925, 1.175, 0.49, 1.2725, 0.5875, 1.3725, 0.685, 0, 0.7825, 0.0975, 0.8825, 0.195, 0.98, 0.2925, 1.0775, 0.3925, 1.175, 0.49, 1.2725, 0.5875, 1.3725, 0.685, 0, 0.7825, 0.0975, 0.8825, 0.195, 0.98, 0.2925, 1.0775, 0.3925, 1.175, 0.49, 1.2725, 0.5875, 1.3725, 0.685, 0, 0.7825, 0.0975, 0.8825, 0.195, 0.98, 0.2925, 1.0775, 0.3925, 1.175, 0.49, 1.2725, 0.5875, 1.3725, 0.685],
  "SoftwareVersions": "syngo MR E11",
  "SpacingBetweenSlices": 2,
  "StationName": "MRC35049",
  "TaskName": "mario3",
  "TotalReadoutTime": 0.0576811,
  "TxRefAmp": 277.055,
  "WipMemBlock": "90cb2438-5bff-4055-b580-ab7b4b3cfdae||Sequence: R017 ve11c/master r/75a17815+; Jun 28 2022 16:32:11 by eja",
  "dcmmeta_affine": [
    [-1.9920059442520142, -0.15712414681911469, 0.08499594777822495, 112.65969848632812],
    [-0.17757372558116913, 1.8454456329345703, -0.7501986026763916, -55.75303268432617],
    [0.019490543752908707, 0.7547466158866882, 1.8520199060440063, -65.4618911743164],
    [0.0, 0.0, 0.0, 1.0]
],
  "dcmmeta_reorient_transform": [
    [0.0, -1.0, 0.0, 103.0],
    [1.0, 0.0, 0.0, 0.0],
    [0.0, 0.0, 1.0, 0.0],
    [0.0, 0.0, 0.0, 1.0]
],
  "dcmmeta_shape": [104, 104, 60, 334],
  "dcmmeta_slice_dim": 2,
  "dcmmeta_version": 0.6,
  "global": {
    "const": {
      "AcquisitionMatrix": [104, 0, 0, 104],
      "AngioFlag": "N",
      "BitsAllocated": 16,
      "BitsStored": 16,
      "BodyPartExamined": "BRAIN",
      "Columns": 832,
      "EchoNumbers": 1,
      "EchoTime": 37.0,
      "EchoTrainLength": 104,
      "FlipAngle": 52.0,
      "HighBit": 15,
      "ImageOrientationPatient": [0.9960029732889, 0.08878686202821, 0.00974527223054, -0.0785620723373, 0.92272281420057, -0.3773733018429],
      "ImagePositionPatient": [-764.37288780209, -870.70691190469, 279.91021608734],
      "ImageType": [
        "ORIGINAL",
        "PRIMARY",
        "M",
        "MB",
        "ND",
        "MOSAIC"
],
      "ImagedNucleus": "1H",
      "ImagingFrequency": 123.259093,
      "InPlanePhaseEncodingDirection": "COL",
      "MRAcquisitionType": "2D",
      "MagneticFieldStrength": 3.0,
      "Manufacturer": "SIEMENS",
      "ManufacturerModelName": "Prisma_fit",
      "Modality": "MR",
      "NumberOfAverages": 1.0,
      "NumberOfPhaseEncodingSteps": 104,
      "PercentPhaseFieldOfView": 100.0,
      "PercentSampling": 100.0,
      "PerformedProcedureStepStartTime": "112521.934000",
      "PhotometricInterpretation": "MONOCHROME2",
      "PixelBandwidth": 2290.0,
      "PixelRepresentation": 0,
      "PixelSpacing": [2.0, 2.0],
      "ProtocolName": "func_task-mario3_run-03",
      "RepetitionTime": 1490.0,
      "Rows": 832,
      "SAR": 0.05972380493354,
      "SamplesPerPixel": 1,
      "ScanOptions": "FS",
      "ScanningSequence": "EP",
      "SequenceName": "epfid2d1_104",
      "SequenceVariant": [
        "SK",
        "SS"
],
      "SeriesDescription": "func_task-mario3_run-03",
      "SeriesNumber": 16,
      "SeriesTime": "115110.104000",
      "SliceLocation": -34.917627172282,
      "SliceThickness": 2.0,
      "SmallestImagePixelValue": 0,
      "SoftwareVersions": "syngo MR E11",
      "SpacingBetweenSlices": 1.9999999647214,
      "SpecificCharacterSet": "ISO_IR 100",
      "StudyID": "1",
      "StudyTime": "112521.855000",
      "TransmitCoilName": "Body",
      "VariableFlipAngleFlag": "N",
      "WindowCenterWidthExplanation": "Algo1",
      "dBdt": 0.0},
    "slices": {}
  },
  "time": {
    "samples": {
      "AcquisitionNumber": [1, 2, 3, 4, 5, 6, 7, 8, 9, 10, 11, 12, 13, 14, 15, 16, 17, 18, 19, 20, 21, 22, 23, 24, 25, 26, 27, 28, 29, 30, 31, 32, 33, 34, 35, 36, 37, 38, 39, 40, 41, 42, 43, 44, 45, 46, 47, 48, 49, 50, 51, 52, 53, 54, 55, 56, 57, 58, 59, 60, 61, 62, 63, 64, 65, 66, 67, 68, 69, 70, 71, 72, 73, 74, 75, 76, 77, 78, 79, 80, 81, 82, 83, 84, 85, 86, 87, 88, 89, 90, 91, 92, 93, 94, 95, 96, 97, 98, 99, 100, 101, 102, 103, 104, 105, 106, 107, 108, 109, 110, 111, 112, 113, 114, 115, 116, 117, 118, 119, 120, 121, 122, 123, 124, 125, 126, 127, 128, 129, 130, 131, 132, 133, 134, 135, 136, 137, 138, 139, 140, 141, 142, 143, 144, 145, 146, 147, 148, 149, 150, 151, 152, 153, 154, 155, 156, 157, 158, 159, 160, 161, 162, 163, 164, 165, 166, 167, 168, 169, 170, 171, 172, 173, 174, 175, 176, 177, 178, 179, 180, 181, 182, 183, 184, 185, 186, 187, 188, 189, 190, 191, 192, 193, 194, 195, 196, 197, 198, 199, 200, 201, 202, 203, 204, 205, 206, 207, 208, 209, 210, 211, 212, 213, 214, 215, 216, 217, 218, 219, 220, 221, 222, 223, 224, 225, 226, 227, 228, 229, 230, 231, 232, 233, 234, 235, 236, 237, 238, 239, 240, 241, 242, 243, 244, 245, 246, 247, 248, 249, 250, 251, 252, 253, 254, 255, 256, 257, 258, 259, 260, 261, 262, 263, 264, 265, 266, 267, 268, 269, 270, 271, 272, 273, 274, 275, 276, 277, 278, 279, 280, 281, 282, 283, 284, 285, 286, 287, 288, 289, 290, 291, 292, 293, 294, 295, 296, 297, 298, 299, 300, 301, 302, 303, 304, 305, 306, 307, 308, 309, 310, 311, 312, 313, 314, 315, 316, 317, 318, 319, 320, 321, 322, 323, 324, 325, 326, 327, 328, 329, 330, 331, 332, 333, 334],
      "AcquisitionTime": ["114942.572500", "114944.062500", "114945.552500", "114947.042500", "114948.532500", "114950.022500", "114951.512500", "114953.002500", "114954.492500", "114955.982500", "114957.472500", "114958.962500", "115000.452500", "115001.942500", "115003.432500", "115004.922500", "115006.412500", "115007.902500", "115009.392500", "115010.882500", "115012.372500", "115013.862500", "115015.352500", "115016.842500", "115018.332500", "115019.822500", "115021.312500", "115022.802500", "115024.292500", "115025.782500", "115027.272500", "115028.762500", "115030.252500", "115031.742500", "115033.232500", "115034.722500", "115036.212500", "115037.702500", "115039.192500", "115040.682500", "115042.172500", "115043.662500", "115045.152500", "115046.642500", "115048.132500", "115049.622500", "115051.112500", "115052.602500", "115054.092500", "115055.582500", "115057.072500", "115058.562500", "115100.052500", "115101.542500", "115103.032500", "115104.522500", "115106.012500", "115107.502500", "115108.992500", "115110.482500", "115111.972500", "115113.462500", "115114.952500", "115116.442500", "115117.932500", "115119.422500", "115120.912500", "115122.402500", "115123.892500", "115125.382500", "115126.872500", "115128.362500", "115129.852500", "115131.342500", "115132.832500", "115134.322500", "115135.812500", "115137.302500", "115138.792500", "115140.282500", "115141.772500", "115143.262500", "115144.752500", "115146.242500", "115147.732500", "115149.222500", "115150.712500", "115152.202500", "115153.692500", "115155.182500", "115156.672500", "115158.162500", "115159.652500", "115201.142500", "115202.632500", "115204.122500", "115205.612500", "115207.102500", "115208.592500", "115210.082500", "115211.572500", "115213.062500", "115214.552500", "115216.042500", "115217.532500", "115219.022500", "115220.512500", "115222.002500", "115223.492500", "115224.982500", "115226.472500", "115227.962500", "115229.452500", "115230.942500", "115232.432500", "115233.922500", "115235.412500", "115236.902500", "115238.392500", "115239.882500", "115241.372500", "115242.862500", "115244.352500", "115245.842500", "115247.332500", "115248.822500", "115250.312500", "115251.802500", "115253.292500", "115254.782500", "115256.272500", "115257.762500", "115259.252500", "115300.742500", "115302.232500", "115303.722500", "115305.212500", "115306.702500", "115308.192500", "115309.682500", "115311.172500", "115312.662500", "115314.152500", "115315.642500", "115317.132500", "115318.622500", "115320.112500", "115321.602500", "115323.092500", "115324.582500", "115326.072500", "115327.562500", "115329.052500", "115330.542500", "115332.032500", "115333.522500", "115335.012500", "115336.502500", "115337.992500", "115339.482500", "115340.972500", "115342.462500", "115343.952500", "115345.442500", "115346.932500", "115348.422500", "115349.912500", "115351.402500", "115352.892500", "115354.382500", "115355.872500", "115357.362500", "115358.852500", "115400.342500", "115401.832500", "115403.322500", "115404.812500", "115406.302500", "115407.792500", "115409.282500", "115410.772500", "115412.262500", "115413.752500", "115415.242500", "115416.732500", "115418.222500", "115419.712500", "115421.202500", "115422.692500", "115424.182500", "115425.672500", "115427.162500", "115428.652500", "115430.142500", "115431.632500", "115433.122500", "115434.612500", "115436.102500", "115437.592500", "115439.082500", "115440.572500", "115442.062500", "115443.552500", "115445.042500", "115446.532500", "115448.022500", "115449.512500", "115451.002500", "115452.492500", "115453.982500", "115455.472500", "115456.962500", "115458.452500", "115459.942500", "115501.432500", "115502.922500", "115504.412500", "115505.902500", "115507.392500", "115508.882500", "115510.372500", "115511.862500", "115513.352500", "115514.842500", "115516.332500", "115517.822500", "115519.312500", "115520.802500", "115522.292500", "115523.782500", "115525.272500", "115526.762500", "115528.252500", "115529.742500", "115531.232500", "115532.722500", "115534.212500", "115535.702500", "115537.192500", "115538.682500", "115540.172500", "115541.662500", "115543.152500", "115544.642500", "115546.132500", "115547.622500", "115549.112500", "115550.602500", "115552.092500", "115553.582500", "115555.072500", "115556.562500", "115558.052500", "115559.542500", "115601.032500", "115602.522500", "115604.012500", "115605.502500", "115606.992500", "115608.482500", "115609.972500", "115611.462500", "115612.952500", "115614.442500", "115615.932500", "115617.422500", "115618.912500", "115620.402500", "115621.892500", "115623.382500", "115624.872500", "115626.362500", "115627.852500", "115629.342500", "115630.832500", "115632.322500", "115633.812500", "115635.302500", "115636.792500", "115638.282500", "115639.772500", "115641.262500", "115642.752500", "115644.242500", "115645.732500", "115647.222500", "115648.712500", "115650.202500", "115651.692500", "115653.182500", "115654.672500", "115656.162500", "115657.652500", "115659.142500", "115700.632500", "115702.122500", "115703.612500", "115705.102500", "115706.592500", "115708.082500", "115709.572500", "115711.062500", "115712.552500", "115714.042500", "115715.532500", "115717.022500", "115718.512500", "115720.002500", "115721.492500", "115722.982500", "115724.472500", "115725.962500", "115727.452500", "115728.942500", "115730.432500", "115731.922500", "115733.412500", "115734.902500", "115736.392500", "115737.882500", "115739.372500", "115740.862500", "115742.352500", "115743.842500", "115745.332500", "115746.822500", "115748.312500", "115749.802500", "115751.292500", "115752.782500", "115754.272500", "115755.762500", "115757.252500", "115758.742500"],
      "ContentTime": ["115110.107000", "115110.111000", "115110.114000", "115110.118000", "115110.121000", "115110.125000", "115110.128000", "115110.132000", "115110.135000", "115110.139000", "115110.142000", "115110.146000", "115110.149000", "115110.152000", "115110.156000", "115110.159000", "115110.163000", "115110.166000", "115110.169000", "115110.173000", "115110.176000", "115110.180000", "115110.183000", "115110.186000", "115110.189000", "115110.219000", "115110.228000", "115110.231000", "115110.234000", "115110.238000", "115110.241000", "115110.244000", "115110.248000", "115110.251000", "115110.254000", "115110.258000", "115110.261000", "115110.264000", "115110.268000", "115130.065000", "115130.069000", "115130.072000", "115130.075000", "115130.079000", "115130.082000", "115130.085000", "115130.089000", "115130.092000", "115130.095000", "115130.099000", "115130.102000", "115130.105000", "115130.119000", "115130.123000", "115130.126000", "115130.129000", "115130.133000", "115130.136000", "115130.139000", "115130.143000", "115150.064000", "115150.068000", "115150.071000", "115150.074000", "115150.078000", "115150.081000", "115150.085000", "115150.088000", "115150.091000", "115150.095000", "115150.098000", "115150.101000", "115150.105000", "115150.108000", "115150.111000", "115150.115000", "115150.118000", "115150.121000", "115150.125000", "115150.128000", "115230.065000", "115230.069000", "115230.072000", "115230.076000", "115230.079000", "115230.082000", "115230.085000", "115230.089000", "115230.092000", "115230.096000", "115230.099000", "115230.103000", "115230.106000", "115230.109000", "115230.112000", "115230.116000", "115230.119000", "115230.122000", "115230.126000", "115230.129000", "115230.132000", "115230.136000", "115230.139000", "115230.142000", "115230.146000", "115230.149000", "115230.153000", "115230.156000", "115230.160000", "115230.163000", "115230.166000", "115310.065000", "115310.069000", "115310.073000", "115310.076000", "115310.079000", "115310.083000", "115310.086000", "115310.090000", "115310.093000", "115310.096000", "115310.100000", "115310.103000", "115310.106000", "115310.110000", "115310.113000", "115310.116000", "115310.120000", "115310.123000", "115310.126000", "115310.130000", "115310.133000", "115310.136000", "115310.140000", "115310.143000", "115310.146000", "115310.150000", "115310.153000", "115350.065000", "115350.069000", "115350.073000", "115350.076000", "115350.079000", "115350.083000", "115350.086000", "115350.089000", "115350.093000", "115350.096000", "115350.099000", "115350.103000", "115350.106000", "115350.109000", "115350.113000", "115350.116000", "115350.120000", "115350.123000", "115350.126000", "115350.147000", "115350.150000", "115350.154000", "115350.157000", "115350.161000", "115350.164000", "115350.167000", "115350.171000", "115430.064000", "115430.068000", "115430.071000", "115430.075000", "115430.078000", "115430.082000", "115430.085000", "115430.088000", "115430.092000", "115430.095000", "115430.098000", "115430.102000", "115430.105000", "115430.108000", "115430.112000", "115430.115000", "115430.118000", "115430.122000", "115430.125000", "115430.128000", "115430.138000", "115430.141000", "115430.145000", "115430.148000", "115430.151000", "115430.155000", "115430.158000", "115450.065000", "115450.069000", "115450.072000", "115450.076000", "115450.079000", "115450.083000", "115450.086000", "115450.089000", "115450.094000", "115450.097000", "115450.110000", "115450.113000", "115450.117000", "115530.065000", "115530.069000", "115530.072000", "115530.076000", "115530.079000", "115530.083000", "115530.086000", "115530.089000", "115530.093000", "115530.096000", "115530.099000", "115530.103000", "115530.106000", "115530.109000", "115530.113000", "115530.116000", "115530.119000", "115530.123000", "115530.126000", "115530.130000", "115530.138000", "115530.141000", "115530.144000", "115530.148000", "115530.151000", "115530.155000", "115530.158000", "115610.065000", "115610.069000", "115610.073000", "115610.076000", "115610.079000", "115610.083000", "115610.086000", "115610.090000", "115610.093000", "115610.096000", "115610.100000", "115610.103000", "115610.107000", "115610.110000", "115610.114000", "115610.117000", "115610.134000", "115610.137000", "115610.141000", "115610.144000", "115610.147000", "115610.151000", "115610.154000", "115610.157000", "115610.198000", "115610.201000", "115610.204000", "115650.064000", "115650.068000", "115650.071000", "115650.075000", "115650.078000", "115650.081000", "115650.085000", "115650.088000", "115650.092000", "115650.095000", "115650.098000", "115650.102000", "115650.105000", "115650.108000", "115650.112000", "115650.115000", "115650.118000", "115650.122000", "115650.125000", "115650.128000", "115650.132000", "115650.135000", "115650.139000", "115650.142000", "115650.145000", "115650.149000", "115650.152000", "115730.065000", "115730.069000", "115730.072000", "115730.076000", "115730.079000", "115730.083000", "115730.086000", "115730.089000", "115730.093000", "115730.096000", "115730.099000", "115730.103000", "115730.106000", "115730.109000", "115730.113000", "115730.116000", "115730.120000", "115730.123000", "115730.126000", "115730.130000", "115730.133000", "115730.136000", "115730.140000", "115730.143000", "115730.147000", "115730.150000", "115730.153000", "115801.180000", "115801.183000", "115801.187000", "115801.190000", "115801.194000", "115801.197000", "115801.201000", "115801.204000", "115801.208000", "115801.219000", "115801.222000", "115801.226000", "115801.229000", "115801.232000", "115801.236000", "115801.239000", "115801.243000", "115801.246000", "115801.249000", "115801.253000", "115801.256000"],
      "InstanceCreationTime": ["115110.107000", "115110.111000", "115110.114000", "115110.118000", "115110.121000", "115110.125000", "115110.128000", "115110.132000", "115110.135000", "115110.139000", "115110.142000", "115110.146000", "115110.149000", "115110.152000", "115110.156000", "115110.159000", "115110.163000", "115110.166000", "115110.169000", "115110.173000", "115110.176000", "115110.180000", "115110.183000", "115110.186000", "115110.189000", "115110.219000", "115110.228000", "115110.231000", "115110.234000", "115110.238000", "115110.241000", "115110.244000", "115110.248000", "115110.251000", "115110.254000", "115110.258000", "115110.261000", "115110.264000", "115110.268000", "115130.065000", "115130.069000", "115130.072000", "115130.075000", "115130.079000", "115130.082000", "115130.085000", "115130.089000", "115130.092000", "115130.095000", "115130.099000", "115130.102000", "115130.105000", "115130.119000", "115130.123000", "115130.126000", "115130.129000", "115130.133000", "115130.136000", "115130.139000", "115130.143000", "115150.064000", "115150.068000", "115150.071000", "115150.074000", "115150.078000", "115150.081000", "115150.085000", "115150.088000", "115150.091000", "115150.095000", "115150.098000", "115150.101000", "115150.105000", "115150.108000", "115150.111000", "115150.115000", "115150.118000", "115150.121000", "115150.125000", "115150.128000", "115230.065000", "115230.069000", "115230.072000", "115230.076000", "115230.079000", "115230.082000", "115230.085000", "115230.089000", "115230.092000", "115230.096000", "115230.099000", "115230.103000", "115230.106000", "115230.109000", "115230.112000", "115230.116000", "115230.119000", "115230.122000", "115230.126000", "115230.129000", "115230.132000", "115230.136000", "115230.139000", "115230.142000", "115230.146000", "115230.149000", "115230.153000", "115230.156000", "115230.160000", "115230.163000", "115230.166000", "115310.065000", "115310.069000", "115310.073000", "115310.076000", "115310.079000", "115310.083000", "115310.086000", "115310.090000", "115310.093000", "115310.096000", "115310.100000", "115310.103000", "115310.106000", "115310.110000", "115310.113000", "115310.116000", "115310.120000", "115310.123000", "115310.126000", "115310.130000", "115310.133000", "115310.136000", "115310.140000", "115310.143000", "115310.146000", "115310.150000", "115310.153000", "115350.065000", "115350.069000", "115350.073000", "115350.076000", "115350.079000", "115350.083000", "115350.086000", "115350.089000", "115350.093000", "115350.096000", "115350.099000", "115350.103000", "115350.106000", "115350.109000", "115350.113000", "115350.116000", "115350.120000", "115350.123000", "115350.126000", "115350.147000", "115350.150000", "115350.154000", "115350.157000", "115350.161000", "115350.164000", "115350.167000", "115350.171000", "115430.064000", "115430.068000", "115430.071000", "115430.075000", "115430.078000", "115430.082000", "115430.085000", "115430.088000", "115430.092000", "115430.095000", "115430.098000", "115430.102000", "115430.105000", "115430.108000", "115430.112000", "115430.115000", "115430.118000", "115430.122000", "115430.125000", "115430.128000", "115430.138000", "115430.141000", "115430.145000", "115430.148000", "115430.151000", "115430.155000", "115430.158000", "115450.065000", "115450.069000", "115450.072000", "115450.076000", "115450.079000", "115450.083000", "115450.086000", "115450.089000", "115450.094000", "115450.097000", "115450.110000", "115450.113000", "115450.117000", "115530.065000", "115530.069000", "115530.072000", "115530.076000", "115530.079000", "115530.083000", "115530.086000", "115530.089000", "115530.093000", "115530.096000", "115530.099000", "115530.103000", "115530.106000", "115530.109000", "115530.113000", "115530.116000", "115530.119000", "115530.123000", "115530.126000", "115530.130000", "115530.138000", "115530.141000", "115530.144000", "115530.148000", "115530.151000", "115530.155000", "115530.158000", "115610.065000", "115610.069000", "115610.073000", "115610.076000", "115610.079000", "115610.083000", "115610.086000", "115610.090000", "115610.093000", "115610.096000", "115610.100000", "115610.103000", "115610.107000", "115610.110000", "115610.114000", "115610.117000", "115610.134000", "115610.137000", "115610.141000", "115610.144000", "115610.147000", "115610.151000", "115610.154000", "115610.157000", "115610.198000", "115610.201000", "115610.204000", "115650.064000", "115650.068000", "115650.071000", "115650.075000", "115650.078000", "115650.081000", "115650.085000", "115650.088000", "115650.092000", "115650.095000", "115650.098000", "115650.102000", "115650.105000", "115650.108000", "115650.112000", "115650.115000", "115650.118000", "115650.122000", "115650.125000", "115650.128000", "115650.132000", "115650.135000", "115650.139000", "115650.142000", "115650.145000", "115650.149000", "115650.152000", "115730.065000", "115730.069000", "115730.072000", "115730.076000", "115730.079000", "115730.083000", "115730.086000", "115730.089000", "115730.093000", "115730.096000", "115730.099000", "115730.103000", "115730.106000", "115730.109000", "115730.113000", "115730.116000", "115730.120000", "115730.123000", "115730.126000", "115730.130000", "115730.133000", "115730.136000", "115730.140000", "115730.143000", "115730.147000", "115730.150000", "115730.153000", "115801.180000", "115801.183000", "115801.187000", "115801.190000", "115801.194000", "115801.197000", "115801.201000", "115801.204000", "115801.208000", "115801.219000", "115801.222000", "115801.226000", "115801.229000", "115801.232000", "115801.236000", "115801.239000", "115801.243000", "115801.246000", "115801.249000", "115801.253000", "115801.256000"],
      "InstanceNumber": [1, 2, 3, 4, 5, 6, 7, 8, 9, 10, 11, 12, 13, 14, 15, 16, 17, 18, 19, 20, 21, 22, 23, 24, 25, 26, 27, 28, 29, 30, 31, 32, 33, 34, 35, 36, 37, 38, 39, 40, 41, 42, 43, 44, 45, 46, 47, 48, 49, 50, 51, 52, 53, 54, 55, 56, 57, 58, 59, 60, 61, 62, 63, 64, 65, 66, 67, 68, 69, 70, 71, 72, 73, 74, 75, 76, 77, 78, 79, 80, 81, 82, 83, 84, 85, 86, 87, 88, 89, 90, 91, 92, 93, 94, 95, 96, 97, 98, 99, 100, 101, 102, 103, 104, 105, 106, 107, 108, 109, 110, 111, 112, 113, 114, 115, 116, 117, 118, 119, 120, 121, 122, 123, 124, 125, 126, 127, 128, 129, 130, 131, 132, 133, 134, 135, 136, 137, 138, 139, 140, 141, 142, 143, 144, 145, 146, 147, 148, 149, 150, 151, 152, 153, 154, 155, 156, 157, 158, 159, 160, 161, 162, 163, 164, 165, 166, 167, 168, 169, 170, 171, 172, 173, 174, 175, 176, 177, 178, 179, 180, 181, 182, 183, 184, 185, 186, 187, 188, 189, 190, 191, 192, 193, 194, 195, 196, 197, 198, 199, 200, 201, 202, 203, 204, 205, 206, 207, 208, 209, 210, 211, 212, 213, 214, 215, 216, 217, 218, 219, 220, 221, 222, 223, 224, 225, 226, 227, 228, 229, 230, 231, 232, 233, 234, 235, 236, 237, 238, 239, 240, 241, 242, 243, 244, 245, 246, 247, 248, 249, 250, 251, 252, 253, 254, 255, 256, 257, 258, 259, 260, 261, 262, 263, 264, 265, 266, 267, 268, 269, 270, 271, 272, 273, 274, 275, 276, 277, 278, 279, 280, 281, 282, 283, 284, 285, 286, 287, 288, 289, 290, 291, 292, 293, 294, 295, 296, 297, 298, 299, 300, 301, 302, 303, 304, 305, 306, 307, 308, 309, 310, 311, 312, 313, 314, 315, 316, 317, 318, 319, 320, 321, 322, 323, 324, 325, 326, 327, 328, 329, 330, 331, 332, 333, 334],
      "LargestImagePixelValue": [47213, 45907, 44981, 45401, 43744, 44392, 44257, 43985, 43755, 43308, 42845, 42578, 42912, 42809, 42866, 42240, 41248, 41308, 40273, 40130, 41103, 41209, 41380, 40885, 40627, 40448, 39989, 39254, 39903, 39734, 39109, 39072, 39240, 40568, 39972, 39930, 42150, 39374, 41230, 40540, 40201, 39843, 39935, 41024, 40247, 40054, 39858, 40350, 39768, 40023, 40864, 40726, 40177, 40382, 40619, 41802, 40639, 41937, 41664, 40843, 41580, 41351, 41599, 41509, 40528, 42243, 42481, 42165, 42021, 42549, 41844, 43362, 44492, 43489, 45671, 44579, 42921, 43259, 42824, 44116, 43325, 43777, 43802, 43573, 43818, 43836, 45921, 46089, 45577, 47154, 46704, 46043, 44975, 45538, 46341, 46016, 46556, 46478, 46276, 46656, 47367, 46973, 48101, 47647, 47438, 47756, 47685, 46843, 47611, 47694, 47611, 48130, 47959, 48026, 47183, 47756, 47438, 47679, 47408, 47634, 47367, 47238, 47094, 47651, 47662, 47977, 48028, 48050, 47313, 47616, 47602, 47394, 47111, 48412, 48130, 48071, 47956, 48154, 47513, 47316, 47224, 48843, 48088, 47691, 47913, 47538, 47354, 47462, 49113, 48309, 47785, 47554, 47749, 46718, 48384, 48108, 48307, 46560, 44003, 46309, 47256, 47644, 47915, 48449, 47986, 48697, 48504, 46754, 48362, 48013, 47906, 48140, 48176, 47503, 47402, 47444, 47369, 47367, 46884, 46513, 45875, 46358, 46299, 44918, 45045, 44752, 45229, 45773, 45424, 45934, 46166, 45570, 45283, 46523, 44229, 43954, 43789, 42830, 42713, 41321, 43529, 41033, 43260, 41074, 42900, 41687, 42327, 41795, 42310, 42783, 42575, 42204, 41938, 42023, 42230, 43138, 42142, 42458, 41795, 42787, 42641, 42728, 43430, 44028, 43232, 42959, 43898, 44102, 43342, 43775, 42111, 42474, 42748, 43067, 41339, 43475, 43198, 43179, 45455, 42325, 42768, 43505, 44001, 43917, 44548, 41297, 41068, 43722, 44063, 43566, 45649, 45059, 43679, 43820, 45162, 45137, 45684, 44925, 43585, 44388, 43544, 43775, 43230, 42929, 42838, 43319, 43295, 43839, 44021, 43842, 44486, 43669, 43416, 43286, 44491, 45041, 44865, 44671, 44740, 43575, 44419, 44203, 44892, 44046, 43528, 42956, 43961, 43648, 44653, 43871, 43969, 43302, 44051, 42471, 43730, 41699, 43222, 44878, 44230, 44364, 44618, 44852, 44302, 45405, 44929, 46080, 45360, 44654, 44054, 44048, 43673, 44232, 43229, 44149, 43479, 44388, 44244, 42057, 41960, 41432, 41862, 44174, 44293, 43714, 43220, 44550, 43728, 43404, 44260, 43637, 43220, 45010, 45156, 44674],
