{
  "AcquisitionMatrixPE": 104,
  "AcquisitionNumber": 1,
  "AcquisitionTime": "19:04:12.535000",
  "BandwidthPerPixelPhaseEncode": 17.17,
  "BaseResolution": 104,
  "BodyPartExamined": "BRAIN",
  "CoilCombinationMethod": "Sum of Squares",
  "ConsistencyInfo": "N4_VE11C_LATEST_20160120",
  "ConversionSoftware": "dcm2niix",
  "ConversionSoftwareVersion": "v1.0.20220505",
  "DerivedVendorReportedEchoSpacing": 0.000560011,
  "DeviceSerialNumber": "167006",
  "DwellTime": 2.1e-06,
  "EchoTime": 0.037,
  "EchoTrainLength": 104,
  "EffectiveEchoSpacing": 0.000560011,
  "FlipAngle": 52,
  "HeudiconvVersion": "0.5.3.post811+g6206e14",
  "ImageComments": "Unaliased MB4/PE3/LB",
  "ImageOrientationPatientDICOM": [0.992363, 0.117313, 0.0381114, -0.097477, 0.935182, -0.34049],
  "ImageOrientationText": "Tra>Cor(-19.6)>Sag(4.3)",
  "ImageType": [
    "ORIGINAL",
    "PRIMARY",
    "M",
    "MB",
    "ND",
    "MOSAIC"
],
  "ImagingFrequency": 123.259,
  "InPlanePhaseEncodingDirectionDICOM": "COL",
  "InstitutionAddress": "Chemin Queen-Mary 4565,Montreal,District,CA,H3W 1W5",
  "InstitutionName": "IUGM",
  "InstitutionalDepartmentName": "Department",
  "MRAcquisitionType": "2D",
  "MagneticFieldStrength": 3,
  "Manufacturer": "Siemens",
  "ManufacturersModelName": "Prisma_fit",
  "MatrixCoilMode": "SENSE",
  "Modality": "MR",
  "MultibandAccelerationFactor": 4,
  "PartialFourier": 1,
  "PatientPosition": "HFS",
  "PercentPhaseFOV": 100,
  "PercentSampling": 100,
  "PhaseEncodingDirection": "j",
  "PhaseEncodingSteps": 104,
  "PhaseResolution": 1,
  "PixelBandwidth": 2290,
  "ProcedureStepDescription": "games^mario3",
  "ProtocolName": "func_task-mario3_run-03",
  "PulseSequenceDetails": "%CustomerSeq%\\cmrr_mbep2d_bold",
  "ReceiveCoilActiveElements": "HC1-7;NC1,2",
  "ReceiveCoilName": "HeadNeck_64",
  "ReconMatrixPE": 104,
  "RepetitionTime": 1.49,
  "SAR": 0.0668599,
  "ScanOptions": "FS",
  "ScanningSequence": "EP",
  "SequenceName": "epfid2d1_104",
  "SequenceVariant": "SK\\SS",
  "SeriesDescription": "func_task-mario3_run-03",
  "SeriesNumber": 16,
  "ShimSetting": [636, -7186, -8759, 675, 79, 29, -17, 2],
  "SliceThickness": 2,
  "SliceTiming": [0, 0.7825, 0.0975, 0.8825, 0.195, 0.98, 0.2925, 1.0775, 0.3925, 1.175, 0.49, 1.2725, 0.5875, 1.3725, 0.685, 0, 0.7825, 0.0975, 0.8825, 0.195, 0.98, 0.2925, 1.0775, 0.3925, 1.175, 0.49, 1.2725, 0.5875, 1.3725, 0.685, 0, 0.7825, 0.0975, 0.8825, 0.195, 0.98, 0.2925, 1.0775, 0.3925, 1.175, 0.49, 1.2725, 0.5875, 1.3725, 0.685, 0, 0.7825, 0.0975, 0.8825, 0.195, 0.98, 0.2925, 1.0775, 0.3925, 1.175, 0.49, 1.2725, 0.5875, 1.3725, 0.685],
  "SoftwareVersions": "syngo MR E11",
  "SpacingBetweenSlices": 2,
  "StationName": "MRC35049",
  "TaskName": "mario3",
  "TotalReadoutTime": 0.0576811,
  "TxRefAmp": 298.577,
  "WipMemBlock": "8cbb12d6-dbb3-44cc-a859-959d598d05e3||Sequence: R017 ve11c/master r/75a17815+; Jun 28 2022 16:32:11 by eja",
  "dcmmeta_affine": [
    [-1.9847267866134644, -0.19495393335819244, 0.1511700600385666, 111.69878387451172],
    [-0.23462629318237305, 1.870363712310791, -0.6683487296104431, -55.47169494628906],
    [0.07622288912534714, 0.6809790730476379, 1.8789511919021606, -50.9786376953125],
    [0.0, 0.0, 0.0, 1.0]
],
  "dcmmeta_reorient_transform": [
    [0.0, -1.0, 0.0, 103.0],
    [1.0, 0.0, 0.0, 0.0],
    [0.0, 0.0, 1.0, 0.0],
    [0.0, 0.0, 0.0, 1.0]
],
  "dcmmeta_shape": [104, 104, 60, 348],
  "dcmmeta_slice_dim": 2,
  "dcmmeta_version": 0.6,
  "global": {
    "const": {
      "AcquisitionMatrix": [104, 0, 0, 104],
      "AngioFlag": "N",
      "BitsAllocated": 16,
      "BitsStored": 16,
      "BodyPartExamined": "BRAIN",
      "Columns": 832,
      "EchoNumbers": 1,
      "EchoTime": 37.0,
      "EchoTrainLength": 104,
      "FlipAngle": 52.0,
      "HighBit": 15,
      "ImageOrientationPatient": [0.99236341305853, 0.11731314566079, 0.03811144549858, -0.097476969273, 0.93518186377621, -0.3404895330629],
      "ImagePositionPatient": [-743.09585830576, -903.3921354645, 239.29345265787],
      "ImageType": [
        "ORIGINAL",
        "PRIMARY",
        "M",
        "MB",
        "ND",
        "MOSAIC"
],
      "ImagedNucleus": "1H",
      "ImagingFrequency": 123.258813,
      "InPlanePhaseEncodingDirection": "COL",
      "MRAcquisitionType": "2D",
      "MagneticFieldStrength": 3.0,
      "Manufacturer": "SIEMENS",
      "ManufacturerModelName": "Prisma_fit",
      "Modality": "MR",
      "NumberOfAverages": 1.0,
      "NumberOfPhaseEncodingSteps": 104,
      "PercentPhaseFieldOfView": 100.0,
      "PercentSampling": 100.0,
      "PerformedProcedureStepStartTime": "184044.405000",
      "PhotometricInterpretation": "MONOCHROME2",
      "PixelBandwidth": 2290.0,
      "PixelRepresentation": 0,
      "PixelSpacing": [2.0, 2.0],
      "ProtocolName": "func_task-mario3_run-03",
      "RepetitionTime": 1490.0,
      "Rows": 832,
      "SAR": 0.06685988080665,
      "SamplesPerPixel": 1,
      "ScanOptions": "FS",
      "ScanningSequence": "EP",
      "SequenceName": "epfid2d1_104",
      "SequenceVariant": [
        "SK",
        "SS"
],
      "SeriesDescription": "func_task-mario3_run-03",
      "SeriesNumber": 16,
      "SeriesTime": "190517.253000",
      "SliceLocation": -20.913212544357,
      "SliceThickness": 2.0,
      "SmallestImagePixelValue": 0,
      "SoftwareVersions": "syngo MR E11",
      "SpacingBetweenSlices": 2.0000000236086,
      "SpecificCharacterSet": "ISO_IR 100",
      "StudyID": "1",
      "StudyTime": "184044.333000",
      "TransmitCoilName": "Body",
      "VariableFlipAngleFlag": "N",
      "WindowCenterWidthExplanation": "Algo1",
      "dBdt": 0.0},
    "slices": {}
  },
  "time": {
    "samples": {
      "AcquisitionNumber": [1, 2, 3, 4, 5, 6, 7, 8, 9, 10, 11, 12, 13, 14, 15, 16, 17, 18, 19, 20, 21, 22, 23, 24, 25, 26, 27, 28, 29, 30, 31, 32, 33, 34, 35, 36, 37, 38, 39, 40, 41, 42, 43, 44, 45, 46, 47, 48, 49, 50, 51, 52, 53, 54, 55, 56, 57, 58, 59, 60, 61, 62, 63, 64, 65, 66, 67, 68, 69, 70, 71, 72, 73, 74, 75, 76, 77, 78, 79, 80, 81, 82, 83, 84, 85, 86, 87, 88, 89, 90, 91, 92, 93, 94, 95, 96, 97, 98, 99, 100, 101, 102, 103, 104, 105, 106, 107, 108, 109, 110, 111, 112, 113, 114, 115, 116, 117, 118, 119, 120, 121, 122, 123, 124, 125, 126, 127, 128, 129, 130, 131, 132, 133, 134, 135, 136, 137, 138, 139, 140, 141, 142, 143, 144, 145, 146, 147, 148, 149, 150, 151, 152, 153, 154, 155, 156, 157, 158, 159, 160, 161, 162, 163, 164, 165, 166, 167, 168, 169, 170, 171, 172, 173, 174, 175, 176, 177, 178, 179, 180, 181, 182, 183, 184, 185, 186, 187, 188, 189, 190, 191, 192, 193, 194, 195, 196, 197, 198, 199, 200, 201, 202, 203, 204, 205, 206, 207, 208, 209, 210, 211, 212, 213, 214, 215, 216, 217, 218, 219, 220, 221, 222, 223, 224, 225, 226, 227, 228, 229, 230, 231, 232, 233, 234, 235, 236, 237, 238, 239, 240, 241, 242, 243, 244, 245, 246, 247, 248, 249, 250, 251, 252, 253, 254, 255, 256, 257, 258, 259, 260, 261, 262, 263, 264, 265, 266, 267, 268, 269, 270, 271, 272, 273, 274, 275, 276, 277, 278, 279, 280, 281, 282, 283, 284, 285, 286, 287, 288, 289, 290, 291, 292, 293, 294, 295, 296, 297, 298, 299, 300, 301, 302, 303, 304, 305, 306, 307, 308, 309, 310, 311, 312, 313, 314, 315, 316, 317, 318, 319, 320, 321, 322, 323, 324, 325, 326, 327, 328, 329, 330, 331, 332, 333, 334, 335, 336, 337, 338, 339, 340, 341, 342, 343, 344, 345, 346, 347, 348],
      "AcquisitionTime": ["190412.535000", "190414.025000", "190415.515000", "190417.005000", "190418.495000", "190419.985000", "190421.475000", "190422.965000", "190424.455000", "190425.945000", "190427.435000", "190428.925000", "190430.415000", "190431.905000", "190433.395000", "190434.885000", "190436.375000", "190437.865000", "190439.355000", "190440.845000", "190442.335000", "190443.825000", "190445.315000", "190446.805000", "190448.295000", "190449.785000", "190451.275000", "190452.765000", "190454.255000", "190455.745000", "190457.235000", "190458.725000", "190500.215000", "190501.705000", "190503.195000", "190504.685000", "190506.175000", "190507.665000", "190509.155000", "190510.645000", "190512.135000", "190513.625000", "190515.115000", "190516.605000", "190518.095000", "190519.585000", "190521.075000", "190522.565000", "190524.055000", "190525.545000", "190527.035000", "190528.525000", "190530.015000", "190531.505000", "190532.995000", "190534.485000", "190535.975000", "190537.465000", "190538.955000", "190540.445000", "190541.935000", "190543.425000", "190544.915000", "190546.405000", "190547.895000", "190549.385000", "190550.875000", "190552.365000", "190553.855000", "190555.345000", "190556.835000", "190558.325000", "190559.815000", "190601.305000", "190602.795000", "190604.285000", "190605.775000", "190607.265000", "190608.755000", "190610.245000", "190611.735000", "190613.225000", "190614.715000", "190616.205000", "190617.695000", "190619.185000", "190620.675000", "190622.165000", "190623.655000", "190625.145000", "190626.635000", "190628.125000", "190629.615000", "190631.105000", "190632.595000", "190634.085000", "190635.575000", "190637.065000", "190638.555000", "190640.045000", "190641.535000", "190643.025000", "190644.515000", "190646.005000", "190647.495000", "190648.985000", "190650.475000", "190651.965000", "190653.455000", "190654.945000", "190656.435000", "190657.925000", "190659.415000", "190700.905000", "190702.395000", "190703.885000", "190705.375000", "190706.865000", "190708.355000", "190709.845000", "190711.335000", "190712.825000", "190714.315000", "190715.805000", "190717.295000", "190718.785000", "190720.275000", "190721.765000", "190723.255000", "190724.745000", "190726.235000", "190727.725000", "190729.215000", "190730.705000", "190732.195000", "190733.685000", "190735.175000", "190736.665000", "190738.155000", "190739.645000", "190741.135000", "190742.625000", "190744.115000", "190745.605000", "190747.095000", "190748.585000", "190750.075000", "190751.565000", "190753.055000", "190754.545000", "190756.035000", "190757.525000", "190759.015000", "190800.505000", "190801.995000", "190803.485000", "190804.975000", "190806.465000", "190807.955000", "190809.445000", "190810.935000", "190812.425000", "190813.915000", "190815.405000", "190816.895000", "190818.385000", "190819.875000", "190821.365000", "190822.855000", "190824.345000", "190825.835000", "190827.325000", "190828.815000", "190830.305000", "190831.795000", "190833.285000", "190834.775000", "190836.265000", "190837.755000", "190839.245000", "190840.735000", "190842.225000", "190843.715000", "190845.205000", "190846.695000", "190848.185000", "190849.675000", "190851.165000", "190852.655000", "190854.145000", "190855.635000", "190857.125000", "190858.615000", "190900.105000", "190901.595000", "190903.085000", "190904.575000", "190906.065000", "190907.555000", "190909.045000", "190910.535000", "190912.025000", "190913.515000", "190915.005000", "190916.495000", "190917.985000", "190919.475000", "190920.965000", "190922.455000", "190923.945000", "190925.435000", "190926.925000", "190928.415000", "190929.905000", "190931.395000", "190932.885000", "190934.375000", "190935.865000", "190937.355000", "190938.845000", "190940.335000", "190941.825000", "190943.315000", "190944.805000", "190946.295000", "190947.785000", "190949.275000", "190950.765000", "190952.255000", "190953.745000", "190955.235000", "190956.725000", "190958.215000", "190959.705000", "191001.195000", "191002.685000", "191004.175000", "191005.665000", "191007.155000", "191008.645000", "191010.135000", "191011.625000", "191013.115000", "191014.605000", "191016.095000", "191017.585000", "191019.075000", "191020.565000", "191022.055000", "191023.545000", "191025.035000", "191026.525000", "191028.015000", "191029.505000", "191030.995000", "191032.485000", "191033.975000", "191035.465000", "191036.955000", "191038.445000", "191039.935000", "191041.425000", "191042.915000", "191044.405000", "191045.895000", "191047.385000", "191048.875000", "191050.365000", "191051.855000", "191053.345000", "191054.835000", "191056.325000", "191057.815000", "191059.305000", "191100.795000", "191102.285000", "191103.775000", "191105.265000", "191106.755000", "191108.245000", "191109.735000", "191111.225000", "191112.715000", "191114.205000", "191115.695000", "191117.185000", "191118.675000", "191120.165000", "191121.655000", "191123.145000", "191124.635000", "191126.125000", "191127.615000", "191129.105000", "191130.595000", "191132.085000", "191133.575000", "191135.065000", "191136.555000", "191138.045000", "191139.535000", "191141.025000", "191142.515000", "191144.005000", "191145.495000", "191146.985000", "191148.475000", "191149.965000", "191151.455000", "191152.945000", "191154.435000", "191155.925000", "191157.415000", "191158.905000", "191200.395000", "191201.885000", "191203.375000", "191204.865000", "191206.355000", "191207.845000", "191209.335000", "191210.825000", "191212.315000", "191213.805000", "191215.295000", "191216.785000", "191218.275000", "191219.765000", "191221.255000", "191222.745000", "191224.235000", "191225.725000", "191227.215000", "191228.705000", "191230.195000", "191231.685000", "191233.175000", "191234.665000", "191236.155000", "191237.645000", "191239.135000", "191240.625000", "191242.115000", "191243.605000", "191245.095000", "191246.585000", "191248.075000", "191249.565000"],
      "ContentTime": ["190517.257000", "190517.261000", "190517.264000", "190517.267000", "190517.271000", "190517.274000", "190517.278000", "190517.281000", "190517.284000", "190517.288000", "190517.291000", "190517.294000", "190517.298000", "190517.301000", "190517.305000", "190517.308000", "190537.205000", "190537.209000", "190537.212000", "190537.216000", "190537.219000", "190537.222000", "190537.226000", "190537.229000", "190537.232000", "190537.236000", "190537.239000", "190537.242000", "190537.246000", "190537.249000", "190537.252000", "190537.256000", "190537.259000", "190537.283000", "190537.286000", "190537.290000", "190557.205000", "190557.209000", "190557.212000", "190557.216000", "190557.219000", "190557.222000", "190557.226000", "190557.229000", "190557.232000", "190557.236000", "190557.239000", "190557.243000", "190557.246000", "190557.249000", "190557.253000", "190557.256000", "190557.259000", "190557.263000", "190557.266000", "190557.274000", "190617.205000", "190617.209000", "190617.212000", "190617.216000", "190617.219000", "190617.222000", "190617.226000", "190617.230000", "190617.234000", "190617.238000", "190617.242000", "190617.245000", "190617.248000", "190617.252000", "190617.255000", "190617.258000", "190617.262000", "190617.265000", "190617.269000", "190617.272000", "190637.205000", "190637.209000", "190637.212000", "190637.216000", "190637.219000", "190637.222000", "190637.226000", "190637.229000", "190637.233000", "190637.236000", "190637.239000", "190637.243000", "190637.246000", "190637.250000", "190637.253000", "190637.257000", "190637.261000", "190637.264000", "190637.268000", "190637.272000", "190717.205000", "190717.209000", "190717.212000", "190717.216000", "190717.219000", "190717.223000", "190717.226000", "190717.230000", "190717.233000", "190717.236000", "190717.240000", "190717.243000", "190717.247000", "190717.250000", "190717.253000", "190717.257000", "190717.260000", "190717.264000", "190717.267000", "190717.270000", "190717.274000", "190717.277000", "190717.281000", "190717.284000", "190717.287000", "190717.291000", "190717.294000", "190757.205000", "190757.209000", "190757.212000", "190757.216000", "190757.219000", "190757.223000", "190757.243000", "190757.247000", "190757.250000", "190757.253000", "190757.257000", "190757.261000", "190757.264000", "190757.267000", "190757.271000", "190757.274000", "190757.278000", "190757.281000", "190757.284000", "190757.288000", "190757.291000", "190757.295000", "190757.298000", "190757.302000", "190757.305000", "190757.308000", "190757.312000", "190837.205000", "190837.209000", "190837.212000", "190837.216000", "190837.219000", "190837.223000", "190837.226000", "190837.230000", "190837.233000", "190837.236000", "190837.240000", "190837.243000", "190837.247000", "190837.250000", "190837.253000", "190837.257000", "190837.260000", "190837.264000", "190837.267000", "190837.270000", "190837.274000", "190837.277000", "190837.280000", "190837.284000", "190837.287000", "190837.291000", "190837.294000", "190917.204000", "190917.208000", "190917.211000", "190917.215000", "190917.218000", "190917.222000", "190917.225000", "190917.229000", "190917.232000", "190917.235000", "190917.239000", "190917.242000", "190917.246000", "190917.249000", "190917.253000", "190917.256000", "190917.259000", "190917.263000", "190917.266000", "190917.270000", "190917.273000", "190917.277000", "190917.280000", "190917.283000", "190917.287000", "190917.290000", "190917.293000", "190957.205000", "190957.209000", "190957.212000", "190957.216000", "190957.219000", "190957.223000", "190957.226000", "190957.229000", "190957.233000", "190957.237000", "190957.240000", "190957.244000", "190957.247000", "190957.250000", "190957.254000", "190957.257000", "190957.261000", "190957.264000", "190957.267000", "190957.271000", "190957.274000", "190957.277000", "190957.281000", "190957.284000", "190957.288000", "190957.291000", "190957.294000", "191037.206000", "191037.209000", "191037.213000", "191037.216000", "191037.220000", "191037.223000", "191037.227000", "191037.230000", "191037.234000", "191037.237000", "191037.241000", "191037.244000", "191037.247000", "191037.251000", "191037.254000", "191037.258000", "191037.261000", "191037.265000", "191037.268000", "191037.271000", "191037.275000", "191037.278000", "191037.282000", "191037.285000", "191037.288000", "191037.292000", "191117.205000", "191117.209000", "191117.213000", "191117.216000", "191117.219000", "191117.223000", "191117.226000", "191117.230000", "191117.233000", "191117.236000", "191117.240000", "191117.243000", "191117.247000", "191117.250000", "191117.253000", "191117.257000", "191117.260000", "191117.264000", "191117.267000", "191117.271000", "191117.274000", "191117.277000", "191117.281000", "191117.284000", "191117.288000", "191117.291000", "191117.295000", "191157.205000", "191157.209000", "191157.212000", "191157.216000", "191157.219000", "191157.223000", "191157.226000", "191157.230000", "191157.233000", "191157.237000", "191157.240000", "191157.243000", "191157.247000", "191157.250000", "191157.254000", "191157.257000", "191157.269000", "191157.273000", "191157.276000", "191157.279000", "191157.283000", "191157.286000", "191157.290000", "191157.293000", "191157.296000", "191157.300000", "191157.303000", "191237.205000", "191237.209000", "191237.213000", "191237.216000", "191237.219000", "191237.223000", "191237.226000", "191237.230000", "191237.233000", "191237.237000", "191237.240000", "191237.244000", "191237.247000", "191237.250000", "191237.254000", "191237.257000", "191237.261000", "191237.264000", "191237.267000", "191237.271000", "191237.274000", "191237.278000", "191237.281000", "191237.285000", "191237.288000", "191237.291000", "191237.295000", "191251.378000", "191251.382000", "191251.385000", "191251.389000", "191251.392000", "191251.395000", "191251.399000", "191251.402000", "191251.406000", "191251.409000"],
      "InstanceCreationTime": ["190517.257000", "190517.261000", "190517.264000", "190517.267000", "190517.271000", "190517.274000", "190517.278000", "190517.281000", "190517.284000", "190517.288000", "190517.291000", "190517.294000", "190517.298000", "190517.301000", "190517.305000", "190517.308000", "190537.205000", "190537.209000", "190537.212000", "190537.216000", "190537.219000", "190537.222000", "190537.226000", "190537.229000", "190537.232000", "190537.236000", "190537.239000", "190537.242000", "190537.246000", "190537.249000", "190537.252000", "190537.256000", "190537.259000", "190537.283000", "190537.286000", "190537.290000", "190557.205000", "190557.209000", "190557.212000", "190557.216000", "190557.219000", "190557.222000", "190557.226000", "190557.229000", "190557.232000", "190557.236000", "190557.239000", "190557.243000", "190557.246000", "190557.249000", "190557.253000", "190557.256000", "190557.259000", "190557.263000", "190557.266000", "190557.274000", "190617.205000", "190617.209000", "190617.212000", "190617.216000", "190617.219000", "190617.222000", "190617.226000", "190617.230000", "190617.234000", "190617.238000", "190617.242000", "190617.245000", "190617.248000", "190617.252000", "190617.255000", "190617.258000", "190617.262000", "190617.265000", "190617.269000", "190617.272000", "190637.205000", "190637.209000", "190637.212000", "190637.216000", "190637.219000", "190637.222000", "190637.226000", "190637.229000", "190637.233000", "190637.236000", "190637.239000", "190637.243000", "190637.246000", "190637.250000", "190637.253000", "190637.257000", "190637.261000", "190637.264000", "190637.268000", "190637.272000", "190717.205000", "190717.209000", "190717.212000", "190717.216000", "190717.219000", "190717.223000", "190717.226000", "190717.230000", "190717.233000", "190717.236000", "190717.240000", "190717.243000", "190717.247000", "190717.250000", "190717.253000", "190717.257000", "190717.260000", "190717.264000", "190717.267000", "190717.270000", "190717.274000", "190717.277000", "190717.281000", "190717.284000", "190717.287000", "190717.291000", "190717.294000", "190757.205000", "190757.209000", "190757.212000", "190757.216000", "190757.219000", "190757.223000", "190757.243000", "190757.247000", "190757.250000", "190757.253000", "190757.257000", "190757.261000", "190757.264000", "190757.267000", "190757.271000", "190757.274000", "190757.278000", "190757.281000", "190757.284000", "190757.288000", "190757.291000", "190757.295000", "190757.298000", "190757.302000", "190757.305000", "190757.308000", "190757.312000", "190837.205000", "190837.209000", "190837.212000", "190837.216000", "190837.219000", "190837.223000", "190837.226000", "190837.230000", "190837.233000", "190837.236000", "190837.240000", "190837.243000", "190837.247000", "190837.250000", "190837.253000", "190837.257000", "190837.260000", "190837.264000", "190837.267000", "190837.270000", "190837.274000", "190837.277000", "190837.280000", "190837.284000", "190837.287000", "190837.291000", "190837.294000", "190917.204000", "190917.208000", "190917.211000", "190917.215000", "190917.218000", "190917.222000", "190917.225000", "190917.229000", "190917.232000", "190917.235000", "190917.239000", "190917.242000", "190917.246000", "190917.249000", "190917.253000", "190917.256000", "190917.259000", "190917.263000", "190917.266000", "190917.270000", "190917.273000", "190917.277000", "190917.280000", "190917.283000", "190917.287000", "190917.290000", "190917.293000", "190957.205000", "190957.209000", "190957.212000", "190957.216000", "190957.219000", "190957.223000", "190957.226000", "190957.229000", "190957.233000", "190957.237000", "190957.240000", "190957.244000", "190957.247000", "190957.250000", "190957.254000", "190957.257000", "190957.261000", "190957.264000", "190957.267000", "190957.271000", "190957.274000", "190957.277000", "190957.281000", "190957.284000", "190957.288000", "190957.291000", "190957.294000", "191037.206000", "191037.209000", "191037.213000", "191037.216000", "191037.220000", "191037.223000", "191037.227000", "191037.230000", "191037.234000", "191037.237000", "191037.241000", "191037.244000", "191037.247000", "191037.251000", "191037.254000", "191037.258000", "191037.261000", "191037.265000", "191037.268000", "191037.271000", "191037.275000", "191037.278000", "191037.282000", "191037.285000", "191037.288000", "191037.292000", "191117.205000", "191117.209000", "191117.213000", "191117.216000", "191117.219000", "191117.223000", "191117.226000", "191117.230000", "191117.233000", "191117.236000", "191117.240000", "191117.243000", "191117.247000", "191117.250000", "191117.253000", "191117.257000", "191117.260000", "191117.264000", "191117.267000", "191117.271000", "191117.274000", "191117.277000", "191117.281000", "191117.284000", "191117.288000", "191117.291000", "191117.295000", "191157.205000", "191157.209000", "191157.212000", "191157.216000", "191157.219000", "191157.223000", "191157.226000", "191157.230000", "191157.233000", "191157.237000", "191157.240000", "191157.243000", "191157.247000", "191157.250000", "191157.254000", "191157.257000", "191157.269000", "191157.273000", "191157.276000", "191157.279000", "191157.283000", "191157.286000", "191157.290000", "191157.293000", "191157.296000", "191157.300000", "191157.303000", "191237.205000", "191237.209000", "191237.213000", "191237.216000", "191237.219000", "191237.223000", "191237.226000", "191237.230000", "191237.233000", "191237.237000", "191237.240000", "191237.244000", "191237.247000", "191237.250000", "191237.254000", "191237.257000", "191237.261000", "191237.264000", "191237.267000", "191237.271000", "191237.274000", "191237.278000", "191237.281000", "191237.285000", "191237.288000", "191237.291000", "191237.295000", "191251.378000", "191251.382000", "191251.385000", "191251.389000", "191251.392000", "191251.395000", "191251.399000", "191251.402000", "191251.406000", "191251.409000"],
      "InstanceNumber": [1, 2, 3, 4, 5, 6, 7, 8, 9, 10, 11, 12, 13, 14, 15, 16, 17, 18, 19, 20, 21, 22, 23, 24, 25, 26, 27, 28, 29, 30, 31, 32, 33, 34, 35, 36, 37, 38, 39, 40, 41, 42, 43, 44, 45, 46, 47, 48, 49, 50, 51, 52, 53, 54, 55, 56, 57, 58, 59, 60, 61, 62, 63, 64, 65, 66, 67, 68, 69, 70, 71, 72, 73, 74, 75, 76, 77, 78, 79, 80, 81, 82, 83, 84, 85, 86, 87, 88, 89, 90, 91, 92, 93, 94, 95, 96, 97, 98, 99, 100, 101, 102, 103, 104, 105, 106, 107, 108, 109, 110, 111, 112, 113, 114, 115, 116, 117, 118, 119, 120, 121, 122, 123, 124, 125, 126, 127, 128, 129, 130, 131, 132, 133, 134, 135, 136, 137, 138, 139, 140, 141, 142, 143, 144, 145, 146, 147, 148, 149, 150, 151, 152, 153, 154, 155, 156, 157, 158, 159, 160, 161, 162, 163, 164, 165, 166, 167, 168, 169, 170, 171, 172, 173, 174, 175, 176, 177, 178, 179, 180, 181, 182, 183, 184, 185, 186, 187, 188, 189, 190, 191, 192, 193, 194, 195, 196, 197, 198, 199, 200, 201, 202, 203, 204, 205, 206, 207, 208, 209, 210, 211, 212, 213, 214, 215, 216, 217, 218, 219, 220, 221, 222, 223, 224, 225, 226, 227, 228, 229, 230, 231, 232, 233, 234, 235, 236, 237, 238, 239, 240, 241, 242, 243, 244, 245, 246, 247, 248, 249, 250, 251, 252, 253, 254, 255, 256, 257, 258, 259, 260, 261, 262, 263, 264, 265, 266, 267, 268, 269, 270, 271, 272, 273, 274, 275, 276, 277, 278, 279, 280, 281, 282, 283, 284, 285, 286, 287, 288, 289, 290, 291, 292, 293, 294, 295, 296, 297, 298, 299, 300, 301, 302, 303, 304, 305, 306, 307, 308, 309, 310, 311, 312, 313, 314, 315, 316, 317, 318, 319, 320, 321, 322, 323, 324, 325, 326, 327, 328, 329, 330, 331, 332, 333, 334, 335, 336, 337, 338, 339, 340, 341, 342, 343, 344, 345, 346, 347, 348],
      "LargestImagePixelValue": [43180, 41592, 41734, 40833, 40501, 40301, 40906, 39781, 41242, 40753, 39714, 40525, 40500, 39412, 41653, 40088, 40863, 40572, 40190, 40597, 39255, 42968, 39879, 39707, 40562, 40929, 41185, 40433, 41025, 41422, 41162, 41085, 40619, 39707, 40878, 40112, 40540, 40613, 40417, 41407, 40196, 40877, 40474, 40442, 41227, 41265, 40785, 40707, 40870, 40805, 40823, 40258, 40694, 40004, 40389, 40822, 40494, 40567, 40883, 40395, 40058, 40137, 40910, 39419, 39521, 39040, 39935, 39524, 39982, 39958, 39770, 39923, 39206, 39079, 38958, 39869, 40713, 39570, 39000, 39915, 40252, 40694, 41615, 41246, 41519, 42079, 40674, 41367, 41249, 41220, 41222, 40774, 40880, 41450, 41610, 41495, 41439, 40629, 41895, 42288, 41991, 41826, 41904, 42448, 41216, 41382, 41455, 42292, 41407, 41138, 41377, 41747, 41408, 41021, 41138, 41092, 41528, 41391, 41615, 40869, 41332, 41209, 41185, 41215, 41585, 41273, 41421, 41117, 40878, 40701, 40066, 39711, 40070, 40667, 39888, 40294, 40443, 40183, 40510, 40321, 40564, 40426, 40450, 40327, 40348, 40032, 40030, 41065, 40508, 40752, 40877, 40199, 40384, 39968, 40601, 40219, 40783, 40847, 40317, 40430, 40316, 40612, 40775, 40632, 40559, 40476, 40262, 40564, 40858, 40351, 40416, 40121, 40174, 40211, 40382, 39837, 40034, 40463, 40483, 40067, 40064, 40005, 40163, 40233, 40223, 40022, 40358, 39878, 40266, 40387, 39928, 40185, 39932, 39900, 39648, 40230, 40607, 40661, 40603, 40223, 40468, 40594, 39983, 39926, 40013, 40094, 40306, 40650, 40108, 40471, 40432, 39758, 40727, 40764, 40115, 40607, 40649, 40668, 40661, 40934, 40761, 40919, 40480, 40027, 39614, 39933, 40315, 39782, 40020, 40174, 40093, 40524, 40296, 40084, 40202, 40160, 40847, 40541, 39976, 40029, 40411, 40071, 39894, 40062, 39541, 40261, 40244, 39979, 40018, 39856, 40474, 40035, 40564, 39651, 40424, 40377, 40366, 40375, 39438, 40170, 40313, 39987, 40773, 40486, 39933, 40656, 40324, 40707, 40942, 40484, 40007, 40631, 39908, 40457, 39975, 40173, 39719, 39744, 39536, 39950, 39868, 40189, 40512, 40163, 39487, 40056, 40324, 40379, 40054, 40573, 40201, 39859, 40232, 40323, 39782, 40292, 40229, 40091, 39573, 39556, 40148, 40352, 40487, 40089, 40290, 40110, 40526, 40699, 41028, 41723, 40215, 40496, 40759, 40435, 40380, 40523, 40699, 41154, 40152, 40109, 40294, 40574, 40902, 40856, 40632, 40547, 40093, 40620, 40205, 40722, 40664, 40785, 41212, 41055, 40424, 41496, 41892, 41642, 41293, 41381, 41769, 41809, 40945, 41611, 40878, 41103, 42210, 42018],
