{
  "AcquisitionMatrixPE": 104,
  "AcquisitionNumber": 1,
  "AcquisitionTime": "18:54:10.290000",
  "BandwidthPerPixelPhaseEncode": 17.17,
  "BaseResolution": 104,
  "BodyPartExamined": "BRAIN",
  "CoilCombinationMethod": "Sum of Squares",
  "ConsistencyInfo": "N4_VE11C_LATEST_20160120",
  "ConversionSoftware": "dcm2niix",
  "ConversionSoftwareVersion": "v1.0.20220505",
  "DerivedVendorReportedEchoSpacing": 0.000560011,
  "DeviceSerialNumber": "167006",
  "DwellTime": 2.1e-06,
  "EchoTime": 0.037,
  "EchoTime1": 0.037,
  "EchoTime2": 0.001,
  "EchoTrainLength": 104,
  "EffectiveEchoSpacing": 0.000560011,
  "FlipAngle": 52,
  "HeudiconvVersion": "0.5.3.post811+g6206e14",
  "ImageComments": "Unaliased MB4/PE3/LB",
  "ImageOrientationPatientDICOM": [0.992363, 0.117313, 0.0381114, -0.097477, 0.935182, -0.34049],
  "ImageOrientationText": "Tra>Cor(-19.6)>Sag(4.3)",
  "ImageType": [
    "ORIGINAL",
    "PRIMARY",
    "P",
    "MB",
    "ND",
    "MOSAIC",
    "PHASE"
],
  "ImagingFrequency": 123.259,
  "InPlanePhaseEncodingDirectionDICOM": "COL",
  "InstitutionAddress": "Chemin Queen-Mary 4565,Montreal,District,CA,H3W 1W5",
  "InstitutionName": "IUGM",
  "InstitutionalDepartmentName": "Department",
  "MRAcquisitionType": "2D",
  "MagneticFieldStrength": 3,
  "Manufacturer": "Siemens",
  "ManufacturersModelName": "Prisma_fit",
  "MatrixCoilMode": "SENSE",
  "Modality": "MR",
  "MultibandAccelerationFactor": 4,
  "PartialFourier": 1,
  "PatientPosition": "HFS",
  "PercentPhaseFOV": 100,
  "PercentSampling": 100,
  "PhaseEncodingDirection": "j",
  "PhaseEncodingSteps": 104,
  "PhaseResolution": 1,
  "PixelBandwidth": 2290,
  "ProcedureStepDescription": "games^mario3",
  "ProtocolName": "func_task-mario3_run-02",
  "PulseSequenceDetails": "%CustomerSeq%\\cmrr_mbep2d_bold",
  "ReceiveCoilActiveElements": "HC1-7;NC1,2",
  "ReceiveCoilName": "HeadNeck_64",
  "ReconMatrixPE": 104,
  "RepetitionTime": 1.49,
  "SAR": 0.0668599,
  "ScanOptions": "FS",
  "ScanningSequence": "EP",
  "SequenceName": "epfid2d1_104",
  "SequenceVariant": "SK\\SS",
  "SeriesDescription": "func_task-mario3_run-02",
  "SeriesNumber": 14,
  "ShimSetting": [636, -7186, -8759, 675, 79, 29, -17, 2],
  "SliceThickness": 2,
  "SliceTiming": [0, 0.7825, 0.0975, 0.8825, 0.195, 0.98, 0.295, 1.0775, 0.3925, 1.175, 0.49, 1.2725, 0.5875, 1.3725, 0.685, 0, 0.7825, 0.0975, 0.8825, 0.195, 0.98, 0.295, 1.0775, 0.3925, 1.175, 0.49, 1.2725, 0.5875, 1.3725, 0.685, 0, 0.7825, 0.0975, 0.8825, 0.195, 0.98, 0.295, 1.0775, 0.3925, 1.175, 0.49, 1.2725, 0.5875, 1.3725, 0.685, 0, 0.7825, 0.0975, 0.8825, 0.195, 0.98, 0.295, 1.0775, 0.3925, 1.175, 0.49, 1.2725, 0.5875, 1.3725, 0.685],
  "SoftwareVersions": "syngo MR E11",
  "SpacingBetweenSlices": 2,
  "StationName": "MRC35049",
  "TaskName": "mario3",
  "TotalReadoutTime": 0.0576811,
  "TxRefAmp": 298.577,
  "WipMemBlock": "c90fdcad-07ee-4906-90cc-853bfd59d208||Sequence: R017 ve11c/master r/75a17815+; Jun 28 2022 16:32:11 by eja",
  "dcmmeta_affine": [
    [-1.9847267866134644, -0.19495393335819244, 0.1511700600385666, 111.69878387451172],
    [-0.23462629318237305, 1.870363712310791, -0.6683487296104431, -55.47169494628906],
    [0.07622288912534714, 0.6809790730476379, 1.8789511919021606, -50.9786376953125],
    [0.0, 0.0, 0.0, 1.0]
],
  "dcmmeta_reorient_transform": [
    [0.0, -1.0, 0.0, 103.0],
    [1.0, 0.0, 0.0, 0.0],
    [0.0, 0.0, 1.0, 0.0],
    [0.0, 0.0, 0.0, 1.0]
],
  "dcmmeta_shape": [104, 104, 60, 366],
  "dcmmeta_slice_dim": 2,
  "dcmmeta_version": 0.6,
  "global": {
    "const": {
      "AcquisitionMatrix": [104, 0, 0, 104],
      "AngioFlag": "N",
      "BitsAllocated": 16,
      "BitsStored": 16,
      "BodyPartExamined": "BRAIN",
      "Columns": 832,
      "EchoNumbers": 1,
      "EchoTime": 37.0,
      "EchoTrainLength": 104,
      "FlipAngle": 52.0,
      "HighBit": 15,
      "ImageOrientationPatient": [0.99236341305853, 0.11731314566079, 0.03811144549858, -0.097476969273, 0.93518186377621, -0.3404895330629],
      "ImagePositionPatient": [-743.09585830576, -903.3921354645, 239.29345265787],
      "ImageType": [
        "ORIGINAL",
        "PRIMARY",
        "P",
        "MB",
        "ND",
        "MOSAIC"
],
      "ImagedNucleus": "1H",
      "ImagingFrequency": 123.258809,
      "InPlanePhaseEncodingDirection": "COL",
      "LargestImagePixelValue": 4095,
      "MRAcquisitionType": "2D",
      "MagneticFieldStrength": 3.0,
      "Manufacturer": "SIEMENS",
      "ManufacturerModelName": "Prisma_fit",
      "Modality": "MR",
      "NumberOfAverages": 1.0,
      "NumberOfPhaseEncodingSteps": 104,
      "PercentPhaseFieldOfView": 100.0,
      "PercentSampling": 100.0,
      "PerformedProcedureStepStartTime": "184044.405000",
      "PhotometricInterpretation": "MONOCHROME2",
      "PixelBandwidth": 2290.0,
      "PixelRepresentation": 0,
      "PixelSpacing": [2.0, 2.0],
      "ProtocolName": "func_task-mario3_run-02",
      "RepetitionTime": 1490.0,
      "RescaleIntercept": -4096.0,
      "RescaleSlope": 2.0,
      "RescaleType": "US",
      "Rows": 832,
      "SAR": 0.06685988080665,
      "SamplesPerPixel": 1,
      "ScanOptions": "FS",
      "ScanningSequence": "EP",
      "SequenceName": "epfid2d1_104",
      "SequenceVariant": [
        "SK",
        "SS"
],
      "SeriesDescription": "func_task-mario3_run-02",
      "SeriesNumber": 14,
      "SeriesTime": "185515.801000",
      "SliceLocation": -20.913212544357,
      "SliceThickness": 2.0,
      "SmallestImagePixelValue": 0,
      "SoftwareVersions": "syngo MR E11",
      "SpacingBetweenSlices": 2.0000000236086,
      "SpecificCharacterSet": "ISO_IR 100",
      "StudyID": "1",
      "StudyTime": "184044.333000",
      "TransmitCoilName": "Body",
      "VariableFlipAngleFlag": "N",
      "WindowCenterWidthExplanation": "Algo1",
      "dBdt": 0.0},
    "slices": {}
  },
  "time": {
    "samples": {
      "AcquisitionNumber": [1, 2, 3, 4, 5, 6, 7, 8, 9, 10, 11, 12, 13, 14, 15, 16, 17, 18, 19, 20, 21, 22, 23, 24, 25, 26, 27, 28, 29, 30, 31, 32, 33, 34, 35, 36, 37, 38, 39, 40, 41, 42, 43, 44, 45, 46, 47, 48, 49, 50, 51, 52, 53, 54, 55, 56, 57, 58, 59, 60, 61, 62, 63, 64, 65, 66, 67, 68, 69, 70, 71, 72, 73, 74, 75, 76, 77, 78, 79, 80, 81, 82, 83, 84, 85, 86, 87, 88, 89, 90, 91, 92, 93, 94, 95, 96, 97, 98, 99, 100, 101, 102, 103, 104, 105, 106, 107, 108, 109, 110, 111, 112, 113, 114, 115, 116, 117, 118, 119, 120, 121, 122, 123, 124, 125, 126, 127, 128, 129, 130, 131, 132, 133, 134, 135, 136, 137, 138, 139, 140, 141, 142, 143, 144, 145, 146, 147, 148, 149, 150, 151, 152, 153, 154, 155, 156, 157, 158, 159, 160, 161, 162, 163, 164, 165, 166, 167, 168, 169, 170, 171, 172, 173, 174, 175, 176, 177, 178, 179, 180, 181, 182, 183, 184, 185, 186, 187, 188, 189, 190, 191, 192, 193, 194, 195, 196, 197, 198, 199, 200, 201, 202, 203, 204, 205, 206, 207, 208, 209, 210, 211, 212, 213, 214, 215, 216, 217, 218, 219, 220, 221, 222, 223, 224, 225, 226, 227, 228, 229, 230, 231, 232, 233, 234, 235, 236, 237, 238, 239, 240, 241, 242, 243, 244, 245, 246, 247, 248, 249, 250, 251, 252, 253, 254, 255, 256, 257, 258, 259, 260, 261, 262, 263, 264, 265, 266, 267, 268, 269, 270, 271, 272, 273, 274, 275, 276, 277, 278, 279, 280, 281, 282, 283, 284, 285, 286, 287, 288, 289, 290, 291, 292, 293, 294, 295, 296, 297, 298, 299, 300, 301, 302, 303, 304, 305, 306, 307, 308, 309, 310, 311, 312, 313, 314, 315, 316, 317, 318, 319, 320, 321, 322, 323, 324, 325, 326, 327, 328, 329, 330, 331, 332, 333, 334, 335, 336, 337, 338, 339, 340, 341, 342, 343, 344, 345, 346, 347, 348, 349, 350, 351, 352, 353, 354, 355, 356, 357, 358, 359, 360, 361, 362, 363, 364, 365, 366],
      "AcquisitionTime": ["185410.290000", "185411.780000", "185413.270000", "185414.760000", "185416.250000", "185417.740000", "185419.230000", "185420.720000", "185422.210000", "185423.700000", "185425.190000", "185426.680000", "185428.170000", "185429.660000", "185431.150000", "185432.640000", "185434.130000", "185435.620000", "185437.110000", "185438.600000", "185440.090000", "185441.580000", "185443.070000", "185444.560000", "185446.050000", "185447.540000", "185449.030000", "185450.520000", "185452.010000", "185453.500000", "185454.990000", "185456.480000", "185457.970000", "185459.460000", "185500.950000", "185502.440000", "185503.930000", "185505.420000", "185506.910000", "185508.400000", "185509.890000", "185511.380000", "185512.870000", "185514.360000", "185515.850000", "185517.340000", "185518.830000", "185520.320000", "185521.810000", "185523.300000", "185524.790000", "185526.280000", "185527.770000", "185529.260000", "185530.750000", "185532.240000", "185533.730000", "185535.220000", "185536.710000", "185538.200000", "185539.690000", "185541.180000", "185542.670000", "185544.160000", "185545.650000", "185547.140000", "185548.630000", "185550.120000", "185551.610000", "185553.100000", "185554.590000", "185556.080000", "185557.570000", "185559.060000", "185600.550000", "185602.040000", "185603.530000", "185605.020000", "185606.510000", "185608.000000", "185609.490000", "185610.980000", "185612.470000", "185613.960000", "185615.450000", "185616.940000", "185618.430000", "185619.920000", "185621.410000", "185622.900000", "185624.390000", "185625.880000", "185627.370000", "185628.860000", "185630.350000", "185631.840000", "185633.330000", "185634.820000", "185636.310000", "185637.800000", "185639.290000", "185640.780000", "185642.270000", "185643.760000", "185645.250000", "185646.740000", "185648.230000", "185649.720000", "185651.210000", "185652.700000", "185654.190000", "185655.680000", "185657.170000", "185658.660000", "185700.150000", "185701.640000", "185703.130000", "185704.620000", "185706.110000", "185707.600000", "185709.090000", "185710.580000", "185712.070000", "185713.560000", "185715.050000", "185716.540000", "185718.030000", "185719.520000", "185721.010000", "185722.500000", "185723.990000", "185725.480000", "185726.970000", "185728.460000", "185729.950000", "185731.440000", "185732.930000", "185734.420000", "185735.910000", "185737.400000", "185738.890000", "185740.380000", "185741.870000", "185743.360000", "185744.850000", "185746.340000", "185747.830000", "185749.320000", "185750.810000", "185752.300000", "185753.790000", "185755.280000", "185756.770000", "185758.260000", "185759.750000", "185801.240000", "185802.730000", "185804.220000", "185805.710000", "185807.200000", "185808.690000", "185810.180000", "185811.670000", "185813.160000", "185814.650000", "185816.140000", "185817.630000", "185819.120000", "185820.610000", "185822.100000", "185823.590000", "185825.080000", "185826.570000", "185828.060000", "185829.550000", "185831.040000", "185832.530000", "185834.020000", "185835.510000", "185837.000000", "185838.490000", "185839.980000", "185841.470000", "185842.960000", "185844.450000", "185845.940000", "185847.430000", "185848.920000", "185850.410000", "185851.900000", "185853.390000", "185854.880000", "185856.370000", "185857.860000", "185859.350000", "185900.840000", "185902.330000", "185903.820000", "185905.310000", "185906.800000", "185908.290000", "185909.780000", "185911.270000", "185912.760000", "185914.250000", "185915.740000", "185917.230000", "185918.720000", "185920.210000", "185921.700000", "185923.190000", "185924.680000", "185926.170000", "185927.660000", "185929.150000", "185930.640000", "185932.130000", "185933.620000", "185935.110000", "185936.600000", "185938.090000", "185939.580000", "185941.070000", "185942.560000", "185944.050000", "185945.540000", "185947.030000", "185948.520000", "185950.010000", "185951.500000", "185952.990000", "185954.480000", "185955.970000", "185957.460000", "185958.950000", "190000.440000", "190001.930000", "190003.420000", "190004.910000", "190006.400000", "190007.890000", "190009.380000", "190010.870000", "190012.360000", "190013.850000", "190015.340000", "190016.830000", "190018.320000", "190019.810000", "190021.300000", "190022.790000", "190024.280000", "190025.770000", "190027.260000", "190028.750000", "190030.240000", "190031.730000", "190033.220000", "190034.710000", "190036.200000", "190037.690000", "190039.180000", "190040.670000", "190042.160000", "190043.650000", "190045.140000", "190046.630000", "190048.120000", "190049.610000", "190051.100000", "190052.590000", "190054.080000", "190055.570000", "190057.060000", "190058.550000", "190100.040000", "190101.530000", "190103.020000", "190104.510000", "190106.000000", "190107.490000", "190108.980000", "190110.470000", "190111.960000", "190113.450000", "190114.940000", "190116.430000", "190117.920000", "190119.410000", "190120.900000", "190122.390000", "190123.880000", "190125.370000", "190126.860000", "190128.350000", "190129.840000", "190131.330000", "190132.820000", "190134.310000", "190135.800000", "190137.290000", "190138.780000", "190140.270000", "190141.760000", "190143.250000", "190144.740000", "190146.230000", "190147.720000", "190149.210000", "190150.700000", "190152.190000", "190153.680000", "190155.170000", "190156.660000", "190158.150000", "190159.640000", "190201.130000", "190202.620000", "190204.110000", "190205.600000", "190207.090000", "190208.580000", "190210.070000", "190211.560000", "190213.050000", "190214.540000", "190216.030000", "190217.520000", "190219.010000", "190220.500000", "190221.990000", "190223.480000", "190224.970000", "190226.460000", "190227.950000", "190229.440000", "190230.930000", "190232.420000", "190233.910000", "190235.400000", "190236.890000", "190238.380000", "190239.870000", "190241.360000", "190242.850000", "190244.340000", "190245.830000", "190247.320000", "190248.810000", "190250.300000", "190251.790000", "190253.280000", "190254.770000", "190256.260000", "190257.750000", "190259.240000", "190300.730000", "190302.220000", "190303.710000", "190305.200000", "190306.690000", "190308.180000", "190309.670000", "190311.160000", "190312.650000", "190314.140000"],
      "ContentTime": ["185515.804000", "185515.806000", "185515.814000", "185515.817000", "185515.819000", "185515.822000", "185515.824000", "185515.827000", "185515.829000", "185515.832000", "185515.834000", "185515.837000", "185515.839000", "185515.842000", "185515.844000", "185515.847000", "185515.849000", "185535.785000", "185535.788000", "185535.791000", "185535.793000", "185535.796000", "185535.798000", "185535.801000", "185535.803000", "185535.806000", "185535.809000", "185535.811000", "185535.814000", "185535.816000", "185535.819000", "185535.821000", "185535.824000", "185535.826000", "185535.829000", "185535.831000", "185535.834000", "185555.784000", "185555.787000", "185555.790000", "185555.792000", "185555.795000", "185555.797000", "185555.800000", "185555.802000", "185555.805000", "185555.807000", "185555.810000", "185555.812000", "185555.815000", "185555.817000", "185555.820000", "185555.822000", "185555.825000", "185555.827000", "185555.830000", "185555.832000", "185615.767000", "185615.769000", "185615.772000", "185615.775000", "185615.778000", "185615.780000", "185615.783000", "185615.785000", "185615.788000", "185615.790000", "185615.793000", "185615.795000", "185615.798000", "185615.800000", "185615.803000", "185615.806000", "185615.808000", "185615.811000", "185615.813000", "185615.816000", "185655.837000", "185655.840000", "185655.842000", "185655.845000", "185655.847000", "185655.850000", "185655.853000", "185655.855000", "185655.858000", "185655.860000", "185655.863000", "185655.865000", "185655.868000", "185655.870000", "185655.873000", "185655.875000", "185655.878000", "185655.880000", "185655.883000", "185655.885000", "185655.888000", "185655.890000", "185655.893000", "185655.896000", "185655.898000", "185655.901000", "185655.903000", "185655.906000", "185655.908000", "185655.911000", "185655.913000", "185655.916000", "185655.919000", "185735.849000", "185735.852000", "185735.855000", "185735.857000", "185735.860000", "185735.862000", "185735.865000", "185735.867000", "185735.870000", "185735.872000", "185735.875000", "185735.877000", "185735.880000", "185735.882000", "185735.885000", "185735.888000", "185735.890000", "185735.893000", "185735.895000", "185735.898000", "185735.900000", "185735.903000", "185735.905000", "185735.908000", "185735.910000", "185735.913000", "185735.915000", "185815.814000", "185815.816000", "185815.819000", "185815.822000", "185815.824000", "185815.827000", "185815.829000", "185815.832000", "185815.834000", "185815.837000", "185815.839000", "185815.842000", "185815.844000", "185815.847000", "185815.849000", "185815.852000", "185815.854000", "185815.857000", "185815.860000", "185815.862000", "185815.865000", "185815.867000", "185815.870000", "185815.872000", "185815.875000", "185815.877000", "185815.880000", "185855.825000", "185855.828000", "185855.831000", "185855.833000", "185855.836000", "185855.838000", "185855.841000", "185855.843000", "185855.846000", "185855.848000", "185855.851000", "185855.853000", "185855.856000", "185855.859000", "185855.861000", "185855.864000", "185855.866000", "185855.869000", "185855.871000", "185855.874000", "185855.876000", "185855.879000", "185855.881000", "185855.884000", "185855.887000", "185855.889000", "185935.810000", "185935.813000", "185935.815000", "185935.818000", "185935.820000", "185935.823000", "185935.826000", "185935.828000", "185935.831000", "185935.833000", "185935.836000", "185935.838000", "185935.841000", "185935.843000", "185935.846000", "185935.849000", "185935.851000", "185935.854000", "185935.856000", "185935.859000", "185935.861000", "185935.864000", "185935.866000", "185935.869000", "185935.871000", "185935.874000", "185935.878000", "190015.813000", "190015.816000", "190015.818000", "190015.821000", "190015.824000", "190015.826000", "190015.829000", "190015.831000", "190015.834000", "190015.836000", "190015.839000", "190015.841000", "190015.844000", "190015.846000", "190015.849000", "190015.851000", "190015.854000", "190015.856000", "190015.859000", "190015.862000", "190015.864000", "190015.867000", "190015.869000", "190015.872000", "190015.874000", "190015.877000", "190015.879000", "190055.809000", "190055.812000", "190055.815000", "190055.817000", "190055.820000", "190055.822000", "190055.825000", "190055.827000", "190055.830000", "190055.833000", "190055.835000", "190055.838000", "190055.840000", "190055.843000", "190055.845000", "190055.848000", "190055.850000", "190055.853000", "190055.855000", "190055.858000", "190055.861000", "190055.863000", "190055.866000", "190055.868000", "190055.871000", "190055.873000", "190055.876000", "190135.817000", "190135.820000", "190135.830000", "190135.833000", "190135.835000", "190135.838000", "190135.840000", "190135.843000", "190135.845000", "190135.848000", "190135.850000", "190135.853000", "190135.856000", "190135.858000", "190135.861000", "190135.863000", "190135.866000", "190135.868000", "190135.871000", "190135.873000", "190135.876000", "190135.878000", "190135.881000", "190135.884000", "190135.886000", "190135.889000", "190135.891000", "190215.808000", "190215.811000", "190215.814000", "190215.816000", "190215.819000", "190215.821000", "190215.824000", "190215.826000", "190215.829000", "190215.831000", "190215.834000", "190215.836000", "190215.839000", "190215.842000", "190215.844000", "190215.847000", "190215.849000", "190215.852000", "190215.854000", "190215.857000", "190215.859000", "190215.862000", "190215.874000", "190215.876000", "190215.879000", "190215.881000", "190215.884000", "190255.806000", "190255.809000", "190255.811000", "190255.814000", "190255.816000", "190255.819000", "190255.821000", "190255.824000", "190255.826000", "190255.829000", "190255.831000", "190255.834000", "190255.837000", "190255.839000", "190255.842000", "190255.844000", "190255.847000", "190255.849000", "190255.852000", "190255.854000", "190255.857000", "190255.860000", "190255.862000", "190255.865000", "190255.867000", "190255.870000", "190316.825000", "190316.828000", "190316.830000", "190316.833000", "190316.835000", "190316.838000", "190316.841000", "190316.843000", "190316.846000", "190316.848000", "190316.851000", "190316.853000", "190316.856000", "190316.858000", "190316.861000"],
      "InstanceCreationTime": ["185515.804000", "185515.806000", "185515.814000", "185515.817000", "185515.819000", "185515.822000", "185515.824000", "185515.827000", "185515.829000", "185515.832000", "185515.834000", "185515.837000", "185515.839000", "185515.842000", "185515.844000", "185515.847000", "185515.849000", "185535.785000", "185535.788000", "185535.791000", "185535.793000", "185535.796000", "185535.798000", "185535.801000", "185535.803000", "185535.806000", "185535.809000", "185535.811000", "185535.814000", "185535.816000", "185535.819000", "185535.821000", "185535.824000", "185535.826000", "185535.829000", "185535.831000", "185535.834000", "185555.784000", "185555.787000", "185555.790000", "185555.792000", "185555.795000", "185555.797000", "185555.800000", "185555.802000", "185555.805000", "185555.807000", "185555.810000", "185555.812000", "185555.815000", "185555.817000", "185555.820000", "185555.822000", "185555.825000", "185555.827000", "185555.830000", "185555.832000", "185615.767000", "185615.769000", "185615.772000", "185615.775000", "185615.778000", "185615.780000", "185615.783000", "185615.785000", "185615.788000", "185615.790000", "185615.793000", "185615.795000", "185615.798000", "185615.800000", "185615.803000", "185615.806000", "185615.808000", "185615.811000", "185615.813000", "185615.816000", "185655.837000", "185655.840000", "185655.842000", "185655.845000", "185655.847000", "185655.850000", "185655.853000", "185655.855000", "185655.858000", "185655.860000", "185655.863000", "185655.865000", "185655.868000", "185655.870000", "185655.873000", "185655.875000", "185655.878000", "185655.880000", "185655.883000", "185655.885000", "185655.888000", "185655.890000", "185655.893000", "185655.896000", "185655.898000", "185655.901000", "185655.903000", "185655.906000", "185655.908000", "185655.911000", "185655.913000", "185655.916000", "185655.919000", "185735.849000", "185735.852000", "185735.855000", "185735.857000", "185735.860000", "185735.862000", "185735.865000", "185735.867000", "185735.870000", "185735.872000", "185735.875000", "185735.877000", "185735.880000", "185735.882000", "185735.885000", "185735.888000", "185735.890000", "185735.893000", "185735.895000", "185735.898000", "185735.900000", "185735.903000", "185735.905000", "185735.908000", "185735.910000", "185735.913000", "185735.915000", "185815.814000", "185815.816000", "185815.819000", "185815.822000", "185815.824000", "185815.827000", "185815.829000", "185815.832000", "185815.834000", "185815.837000", "185815.839000", "185815.842000", "185815.844000", "185815.847000", "185815.849000", "185815.852000", "185815.854000", "185815.857000", "185815.860000", "185815.862000", "185815.865000", "185815.867000", "185815.870000", "185815.872000", "185815.875000", "185815.877000", "185815.880000", "185855.825000", "185855.828000", "185855.831000", "185855.833000", "185855.836000", "185855.838000", "185855.841000", "185855.843000", "185855.846000", "185855.848000", "185855.851000", "185855.853000", "185855.856000", "185855.859000", "185855.861000", "185855.864000", "185855.866000", "185855.869000", "185855.871000", "185855.874000", "185855.876000", "185855.879000", "185855.881000", "185855.884000", "185855.887000", "185855.889000", "185935.810000", "185935.813000", "185935.815000", "185935.818000", "185935.820000", "185935.823000", "185935.826000", "185935.828000", "185935.831000", "185935.833000", "185935.836000", "185935.838000", "185935.841000", "185935.843000", "185935.846000", "185935.849000", "185935.851000", "185935.854000", "185935.856000", "185935.859000", "185935.861000", "185935.864000", "185935.866000", "185935.869000", "185935.871000", "185935.874000", "185935.878000", "190015.813000", "190015.816000", "190015.818000", "190015.821000", "190015.824000", "190015.826000", "190015.829000", "190015.831000", "190015.834000", "190015.836000", "190015.839000", "190015.841000", "190015.844000", "190015.846000", "190015.849000", "190015.851000", "190015.854000", "190015.856000", "190015.859000", "190015.862000", "190015.864000", "190015.867000", "190015.869000", "190015.872000", "190015.874000", "190015.877000", "190015.879000", "190055.809000", "190055.812000", "190055.815000", "190055.817000", "190055.820000", "190055.822000", "190055.825000", "190055.827000", "190055.830000", "190055.833000", "190055.835000", "190055.838000", "190055.840000", "190055.843000", "190055.845000", "190055.848000", "190055.850000", "190055.853000", "190055.855000", "190055.858000", "190055.861000", "190055.863000", "190055.866000", "190055.868000", "190055.871000", "190055.873000", "190055.876000", "190135.817000", "190135.820000", "190135.830000", "190135.833000", "190135.835000", "190135.838000", "190135.840000", "190135.843000", "190135.845000", "190135.848000", "190135.850000", "190135.853000", "190135.856000", "190135.858000", "190135.861000", "190135.863000", "190135.866000", "190135.868000", "190135.871000", "190135.873000", "190135.876000", "190135.878000", "190135.881000", "190135.884000", "190135.886000", "190135.889000", "190135.891000", "190215.808000", "190215.811000", "190215.814000", "190215.816000", "190215.819000", "190215.821000", "190215.824000", "190215.826000", "190215.829000", "190215.831000", "190215.834000", "190215.836000", "190215.839000", "190215.842000", "190215.844000", "190215.847000", "190215.849000", "190215.852000", "190215.854000", "190215.857000", "190215.859000", "190215.862000", "190215.874000", "190215.876000", "190215.879000", "190215.881000", "190215.884000", "190255.806000", "190255.809000", "190255.811000", "190255.814000", "190255.816000", "190255.819000", "190255.821000", "190255.824000", "190255.826000", "190255.829000", "190255.831000", "190255.834000", "190255.837000", "190255.839000", "190255.842000", "190255.844000", "190255.847000", "190255.849000", "190255.852000", "190255.854000", "190255.857000", "190255.860000", "190255.862000", "190255.865000", "190255.867000", "190255.870000", "190316.825000", "190316.828000", "190316.830000", "190316.833000", "190316.835000", "190316.838000", "190316.841000", "190316.843000", "190316.846000", "190316.848000", "190316.851000", "190316.853000", "190316.856000", "190316.858000", "190316.861000"],
      "InstanceNumber": [1, 2, 3, 4, 5, 6, 7, 8, 9, 10, 11, 12, 13, 14, 15, 16, 17, 18, 19, 20, 21, 22, 23, 24, 25, 26, 27, 28, 29, 30, 31, 32, 33, 34, 35, 36, 37, 38, 39, 40, 41, 42, 43, 44, 45, 46, 47, 48, 49, 50, 51, 52, 53, 54, 55, 56, 57, 58, 59, 60, 61, 62, 63, 64, 65, 66, 67, 68, 69, 70, 71, 72, 73, 74, 75, 76, 77, 78, 79, 80, 81, 82, 83, 84, 85, 86, 87, 88, 89, 90, 91, 92, 93, 94, 95, 96, 97, 98, 99, 100, 101, 102, 103, 104, 105, 106, 107, 108, 109, 110, 111, 112, 113, 114, 115, 116, 117, 118, 119, 120, 121, 122, 123, 124, 125, 126, 127, 128, 129, 130, 131, 132, 133, 134, 135, 136, 137, 138, 139, 140, 141, 142, 143, 144, 145, 146, 147, 148, 149, 150, 151, 152, 153, 154, 155, 156, 157, 158, 159, 160, 161, 162, 163, 164, 165, 166, 167, 168, 169, 170, 171, 172, 173, 174, 175, 176, 177, 178, 179, 180, 181, 182, 183, 184, 185, 186, 187, 188, 189, 190, 191, 192, 193, 194, 195, 196, 197, 198, 199, 200, 201, 202, 203, 204, 205, 206, 207, 208, 209, 210, 211, 212, 213, 214, 215, 216, 217, 218, 219, 220, 221, 222, 223, 224, 225, 226, 227, 228, 229, 230, 231, 232, 233, 234, 235, 236, 237, 238, 239, 240, 241, 242, 243, 244, 245, 246, 247, 248, 249, 250, 251, 252, 253, 254, 255, 256, 257, 258, 259, 260, 261, 262, 263, 264, 265, 266, 267, 268, 269, 270, 271, 272, 273, 274, 275, 276, 277, 278, 279, 280, 281, 282, 283, 284, 285, 286, 287, 288, 289, 290, 291, 292, 293, 294, 295, 296, 297, 298, 299, 300, 301, 302, 303, 304, 305, 306, 307, 308, 309, 310, 311, 312, 313, 314, 315, 316, 317, 318, 319, 320, 321, 322, 323, 324, 325, 326, 327, 328, 329, 330, 331, 332, 333, 334, 335, 336, 337, 338, 339, 340, 341, 342, 343, 344, 345, 346, 347, 348, 349, 350, 351, 352, 353, 354, 355, 356, 357, 358, 359, 360, 361, 362, 363, 364, 365, 366],
