{
  "AcquisitionMatrixPE": 104,
  "AcquisitionNumber": 1,
  "AcquisitionTime": "19:04:12.535000",
  "BandwidthPerPixelPhaseEncode": 17.17,
  "BaseResolution": 104,
  "BodyPartExamined": "BRAIN",
  "CoilCombinationMethod": "Sum of Squares",
  "ConsistencyInfo": "N4_VE11C_LATEST_20160120",
  "ConversionSoftware": "dcm2niix",
  "ConversionSoftwareVersion": "v1.0.20220505",
  "DerivedVendorReportedEchoSpacing": 0.000560011,
  "DeviceSerialNumber": "167006",
  "DwellTime": 2.1e-06,
  "EchoTime": 0.037,
  "EchoTime1": 0.037,
  "EchoTime2": 0.001,
  "EchoTrainLength": 104,
  "EffectiveEchoSpacing": 0.000560011,
  "FlipAngle": 52,
  "HeudiconvVersion": "0.5.3.post811+g6206e14",
  "ImageComments": "Unaliased MB4/PE3/LB",
  "ImageOrientationPatientDICOM": [0.992363, 0.117313, 0.0381114, -0.097477, 0.935182, -0.34049],
  "ImageOrientationText": "Tra>Cor(-19.6)>Sag(4.3)",
  "ImageType": [
    "ORIGINAL",
    "PRIMARY",
    "P",
    "MB",
    "ND",
    "MOSAIC",
    "PHASE"
],
  "ImagingFrequency": 123.259,
  "InPlanePhaseEncodingDirectionDICOM": "COL",
  "InstitutionAddress": "Chemin Queen-Mary 4565,Montreal,District,CA,H3W 1W5",
  "InstitutionName": "IUGM",
  "InstitutionalDepartmentName": "Department",
  "MRAcquisitionType": "2D",
  "MagneticFieldStrength": 3,
  "Manufacturer": "Siemens",
  "ManufacturersModelName": "Prisma_fit",
  "MatrixCoilMode": "SENSE",
  "Modality": "MR",
  "MultibandAccelerationFactor": 4,
  "PartialFourier": 1,
  "PatientPosition": "HFS",
  "PercentPhaseFOV": 100,
  "PercentSampling": 100,
  "PhaseEncodingDirection": "j",
  "PhaseEncodingSteps": 104,
  "PhaseResolution": 1,
  "PixelBandwidth": 2290,
  "ProcedureStepDescription": "games^mario3",
  "ProtocolName": "func_task-mario3_run-03",
  "PulseSequenceDetails": "%CustomerSeq%\\cmrr_mbep2d_bold",
  "ReceiveCoilActiveElements": "HC1-7;NC1,2",
  "ReceiveCoilName": "HeadNeck_64",
  "ReconMatrixPE": 104,
  "RepetitionTime": 1.49,
  "SAR": 0.0668599,
  "ScanOptions": "FS",
  "ScanningSequence": "EP",
  "SequenceName": "epfid2d1_104",
  "SequenceVariant": "SK\\SS",
  "SeriesDescription": "func_task-mario3_run-03",
  "SeriesNumber": 17,
  "ShimSetting": [636, -7186, -8759, 675, 79, 29, -17, 2],
  "SliceThickness": 2,
  "SliceTiming": [0, 0.7825, 0.0975, 0.8825, 0.195, 0.98, 0.2925, 1.0775, 0.3925, 1.175, 0.49, 1.2725, 0.5875, 1.3725, 0.685, 0, 0.7825, 0.0975, 0.8825, 0.195, 0.98, 0.2925, 1.0775, 0.3925, 1.175, 0.49, 1.2725, 0.5875, 1.3725, 0.685, 0, 0.7825, 0.0975, 0.8825, 0.195, 0.98, 0.2925, 1.0775, 0.3925, 1.175, 0.49, 1.2725, 0.5875, 1.3725, 0.685, 0, 0.7825, 0.0975, 0.8825, 0.195, 0.98, 0.2925, 1.0775, 0.3925, 1.175, 0.49, 1.2725, 0.5875, 1.3725, 0.685],
  "SoftwareVersions": "syngo MR E11",
  "SpacingBetweenSlices": 2,
  "StationName": "MRC35049",
  "TaskName": "mario3",
  "TotalReadoutTime": 0.0576811,
  "TxRefAmp": 298.577,
  "WipMemBlock": "8cbb12d6-dbb3-44cc-a859-959d598d05e3||Sequence: R017 ve11c/master r/75a17815+; Jun 28 2022 16:32:11 by eja",
  "dcmmeta_affine": [
    [-1.9847267866134644, -0.19495393335819244, 0.1511700600385666, 111.69878387451172],
    [-0.23462629318237305, 1.870363712310791, -0.6683487296104431, -55.47169494628906],
    [0.07622288912534714, 0.6809790730476379, 1.8789511919021606, -50.9786376953125],
    [0.0, 0.0, 0.0, 1.0]
],
  "dcmmeta_reorient_transform": [
    [0.0, -1.0, 0.0, 103.0],
    [1.0, 0.0, 0.0, 0.0],
    [0.0, 0.0, 1.0, 0.0],
    [0.0, 0.0, 0.0, 1.0]
],
  "dcmmeta_shape": [104, 104, 60, 348],
  "dcmmeta_slice_dim": 2,
  "dcmmeta_version": 0.6,
  "global": {
    "const": {
      "AcquisitionMatrix": [104, 0, 0, 104],
      "AngioFlag": "N",
      "BitsAllocated": 16,
      "BitsStored": 16,
      "BodyPartExamined": "BRAIN",
      "Columns": 832,
      "EchoNumbers": 1,
      "EchoTime": 37.0,
      "EchoTrainLength": 104,
      "FlipAngle": 52.0,
      "HighBit": 15,
      "ImageOrientationPatient": [0.99236341305853, 0.11731314566079, 0.03811144549858, -0.097476969273, 0.93518186377621, -0.3404895330629],
      "ImagePositionPatient": [-743.09585830576, -903.3921354645, 239.29345265787],
      "ImageType": [
        "ORIGINAL",
        "PRIMARY",
        "P",
        "MB",
        "ND",
        "MOSAIC"
],
      "ImagedNucleus": "1H",
      "ImagingFrequency": 123.258813,
      "InPlanePhaseEncodingDirection": "COL",
      "LargestImagePixelValue": 4095,
      "MRAcquisitionType": "2D",
      "MagneticFieldStrength": 3.0,
      "Manufacturer": "SIEMENS",
      "ManufacturerModelName": "Prisma_fit",
      "Modality": "MR",
      "NumberOfAverages": 1.0,
      "NumberOfPhaseEncodingSteps": 104,
      "PercentPhaseFieldOfView": 100.0,
      "PercentSampling": 100.0,
      "PerformedProcedureStepStartTime": "184044.405000",
      "PhotometricInterpretation": "MONOCHROME2",
      "PixelBandwidth": 2290.0,
      "PixelRepresentation": 0,
      "PixelSpacing": [2.0, 2.0],
      "ProtocolName": "func_task-mario3_run-03",
      "RepetitionTime": 1490.0,
      "RescaleIntercept": -4096.0,
      "RescaleSlope": 2.0,
      "RescaleType": "US",
      "Rows": 832,
      "SAR": 0.06685988080665,
      "SamplesPerPixel": 1,
      "ScanOptions": "FS",
      "ScanningSequence": "EP",
      "SequenceName": "epfid2d1_104",
      "SequenceVariant": [
        "SK",
        "SS"
],
      "SeriesDescription": "func_task-mario3_run-03",
      "SeriesNumber": 17,
      "SeriesTime": "190517.375000",
      "SliceLocation": -20.913212544357,
      "SliceThickness": 2.0,
      "SmallestImagePixelValue": 0,
      "SoftwareVersions": "syngo MR E11",
      "SpacingBetweenSlices": 2.0000000236086,
      "SpecificCharacterSet": "ISO_IR 100",
      "StudyID": "1",
      "StudyTime": "184044.333000",
      "TransmitCoilName": "Body",
      "VariableFlipAngleFlag": "N",
      "WindowCenterWidthExplanation": "Algo1",
      "dBdt": 0.0},
    "slices": {}
  },
  "time": {
    "samples": {
      "AcquisitionNumber": [1, 2, 3, 4, 5, 6, 7, 8, 9, 10, 11, 12, 13, 14, 15, 16, 17, 18, 19, 20, 21, 22, 23, 24, 25, 26, 27, 28, 29, 30, 31, 32, 33, 34, 35, 36, 37, 38, 39, 40, 41, 42, 43, 44, 45, 46, 47, 48, 49, 50, 51, 52, 53, 54, 55, 56, 57, 58, 59, 60, 61, 62, 63, 64, 65, 66, 67, 68, 69, 70, 71, 72, 73, 74, 75, 76, 77, 78, 79, 80, 81, 82, 83, 84, 85, 86, 87, 88, 89, 90, 91, 92, 93, 94, 95, 96, 97, 98, 99, 100, 101, 102, 103, 104, 105, 106, 107, 108, 109, 110, 111, 112, 113, 114, 115, 116, 117, 118, 119, 120, 121, 122, 123, 124, 125, 126, 127, 128, 129, 130, 131, 132, 133, 134, 135, 136, 137, 138, 139, 140, 141, 142, 143, 144, 145, 146, 147, 148, 149, 150, 151, 152, 153, 154, 155, 156, 157, 158, 159, 160, 161, 162, 163, 164, 165, 166, 167, 168, 169, 170, 171, 172, 173, 174, 175, 176, 177, 178, 179, 180, 181, 182, 183, 184, 185, 186, 187, 188, 189, 190, 191, 192, 193, 194, 195, 196, 197, 198, 199, 200, 201, 202, 203, 204, 205, 206, 207, 208, 209, 210, 211, 212, 213, 214, 215, 216, 217, 218, 219, 220, 221, 222, 223, 224, 225, 226, 227, 228, 229, 230, 231, 232, 233, 234, 235, 236, 237, 238, 239, 240, 241, 242, 243, 244, 245, 246, 247, 248, 249, 250, 251, 252, 253, 254, 255, 256, 257, 258, 259, 260, 261, 262, 263, 264, 265, 266, 267, 268, 269, 270, 271, 272, 273, 274, 275, 276, 277, 278, 279, 280, 281, 282, 283, 284, 285, 286, 287, 288, 289, 290, 291, 292, 293, 294, 295, 296, 297, 298, 299, 300, 301, 302, 303, 304, 305, 306, 307, 308, 309, 310, 311, 312, 313, 314, 315, 316, 317, 318, 319, 320, 321, 322, 323, 324, 325, 326, 327, 328, 329, 330, 331, 332, 333, 334, 335, 336, 337, 338, 339, 340, 341, 342, 343, 344, 345, 346, 347, 348],
      "AcquisitionTime": ["190412.535000", "190414.025000", "190415.515000", "190417.005000", "190418.495000", "190419.985000", "190421.475000", "190422.965000", "190424.455000", "190425.945000", "190427.435000", "190428.925000", "190430.415000", "190431.905000", "190433.395000", "190434.885000", "190436.375000", "190437.865000", "190439.355000", "190440.845000", "190442.335000", "190443.825000", "190445.315000", "190446.805000", "190448.295000", "190449.785000", "190451.275000", "190452.765000", "190454.255000", "190455.745000", "190457.235000", "190458.725000", "190500.215000", "190501.705000", "190503.195000", "190504.685000", "190506.175000", "190507.665000", "190509.155000", "190510.645000", "190512.135000", "190513.625000", "190515.115000", "190516.605000", "190518.095000", "190519.585000", "190521.075000", "190522.565000", "190524.055000", "190525.545000", "190527.035000", "190528.525000", "190530.015000", "190531.505000", "190532.995000", "190534.485000", "190535.975000", "190537.465000", "190538.955000", "190540.445000", "190541.935000", "190543.425000", "190544.915000", "190546.405000", "190547.895000", "190549.385000", "190550.875000", "190552.365000", "190553.855000", "190555.345000", "190556.835000", "190558.325000", "190559.815000", "190601.305000", "190602.795000", "190604.285000", "190605.775000", "190607.265000", "190608.755000", "190610.245000", "190611.735000", "190613.225000", "190614.715000", "190616.205000", "190617.695000", "190619.185000", "190620.675000", "190622.165000", "190623.655000", "190625.145000", "190626.635000", "190628.125000", "190629.615000", "190631.105000", "190632.595000", "190634.085000", "190635.575000", "190637.065000", "190638.555000", "190640.045000", "190641.535000", "190643.025000", "190644.515000", "190646.005000", "190647.495000", "190648.985000", "190650.475000", "190651.965000", "190653.455000", "190654.945000", "190656.435000", "190657.925000", "190659.415000", "190700.905000", "190702.395000", "190703.885000", "190705.375000", "190706.865000", "190708.355000", "190709.845000", "190711.335000", "190712.825000", "190714.315000", "190715.805000", "190717.295000", "190718.785000", "190720.275000", "190721.765000", "190723.255000", "190724.745000", "190726.235000", "190727.725000", "190729.215000", "190730.705000", "190732.195000", "190733.685000", "190735.175000", "190736.665000", "190738.155000", "190739.645000", "190741.135000", "190742.625000", "190744.115000", "190745.605000", "190747.095000", "190748.585000", "190750.075000", "190751.565000", "190753.055000", "190754.545000", "190756.035000", "190757.525000", "190759.015000", "190800.505000", "190801.995000", "190803.485000", "190804.975000", "190806.465000", "190807.955000", "190809.445000", "190810.935000", "190812.425000", "190813.915000", "190815.405000", "190816.895000", "190818.385000", "190819.875000", "190821.365000", "190822.855000", "190824.345000", "190825.835000", "190827.325000", "190828.815000", "190830.305000", "190831.795000", "190833.285000", "190834.775000", "190836.265000", "190837.755000", "190839.245000", "190840.735000", "190842.225000", "190843.715000", "190845.205000", "190846.695000", "190848.185000", "190849.675000", "190851.165000", "190852.655000", "190854.145000", "190855.635000", "190857.125000", "190858.615000", "190900.105000", "190901.595000", "190903.085000", "190904.575000", "190906.065000", "190907.555000", "190909.045000", "190910.535000", "190912.025000", "190913.515000", "190915.005000", "190916.495000", "190917.985000", "190919.475000", "190920.965000", "190922.455000", "190923.945000", "190925.435000", "190926.925000", "190928.415000", "190929.905000", "190931.395000", "190932.885000", "190934.375000", "190935.865000", "190937.355000", "190938.845000", "190940.335000", "190941.825000", "190943.315000", "190944.805000", "190946.295000", "190947.785000", "190949.275000", "190950.765000", "190952.255000", "190953.745000", "190955.235000", "190956.725000", "190958.215000", "190959.705000", "191001.195000", "191002.685000", "191004.175000", "191005.665000", "191007.155000", "191008.645000", "191010.135000", "191011.625000", "191013.115000", "191014.605000", "191016.095000", "191017.585000", "191019.075000", "191020.565000", "191022.055000", "191023.545000", "191025.035000", "191026.525000", "191028.015000", "191029.505000", "191030.995000", "191032.485000", "191033.975000", "191035.465000", "191036.955000", "191038.445000", "191039.935000", "191041.425000", "191042.915000", "191044.405000", "191045.895000", "191047.385000", "191048.875000", "191050.365000", "191051.855000", "191053.345000", "191054.835000", "191056.325000", "191057.815000", "191059.305000", "191100.795000", "191102.285000", "191103.775000", "191105.265000", "191106.755000", "191108.245000", "191109.735000", "191111.225000", "191112.715000", "191114.205000", "191115.695000", "191117.185000", "191118.675000", "191120.165000", "191121.655000", "191123.145000", "191124.635000", "191126.125000", "191127.615000", "191129.105000", "191130.595000", "191132.085000", "191133.575000", "191135.065000", "191136.555000", "191138.045000", "191139.535000", "191141.025000", "191142.515000", "191144.005000", "191145.495000", "191146.985000", "191148.475000", "191149.965000", "191151.455000", "191152.945000", "191154.435000", "191155.925000", "191157.415000", "191158.905000", "191200.395000", "191201.885000", "191203.375000", "191204.865000", "191206.355000", "191207.845000", "191209.335000", "191210.825000", "191212.315000", "191213.805000", "191215.295000", "191216.785000", "191218.275000", "191219.765000", "191221.255000", "191222.745000", "191224.235000", "191225.725000", "191227.215000", "191228.705000", "191230.195000", "191231.685000", "191233.175000", "191234.665000", "191236.155000", "191237.645000", "191239.135000", "191240.625000", "191242.115000", "191243.605000", "191245.095000", "191246.585000", "191248.075000", "191249.565000"],
      "ContentTime": ["190517.377000", "190517.380000", "190517.382000", "190517.385000", "190517.387000", "190517.390000", "190517.392000", "190517.400000", "190517.403000", "190517.405000", "190517.408000", "190517.410000", "190517.413000", "190517.416000", "190517.418000", "190517.421000", "190537.346000", "190537.349000", "190537.352000", "190537.354000", "190537.357000", "190537.359000", "190537.362000", "190537.364000", "190537.367000", "190537.369000", "190537.372000", "190537.374000", "190537.377000", "190537.379000", "190537.382000", "190537.384000", "190537.387000", "190537.389000", "190537.392000", "190537.395000", "190557.317000", "190557.319000", "190557.322000", "190557.324000", "190557.327000", "190557.329000", "190557.332000", "190557.334000", "190557.337000", "190557.339000", "190557.342000", "190557.345000", "190557.347000", "190557.350000", "190557.352000", "190557.355000", "190557.357000", "190557.360000", "190557.362000", "190557.365000", "190617.321000", "190617.324000", "190617.327000", "190617.329000", "190617.332000", "190617.335000", "190617.338000", "190617.341000", "190617.344000", "190617.346000", "190617.349000", "190617.351000", "190617.354000", "190617.356000", "190617.359000", "190617.361000", "190617.364000", "190617.366000", "190617.369000", "190617.372000", "190637.326000", "190637.329000", "190637.331000", "190637.334000", "190637.336000", "190637.339000", "190637.341000", "190637.344000", "190637.346000", "190637.350000", "190637.353000", "190637.355000", "190637.358000", "190637.361000", "190637.363000", "190637.366000", "190637.369000", "190637.371000", "190637.374000", "190637.376000", "190717.352000", "190717.355000", "190717.357000", "190717.360000", "190717.362000", "190717.365000", "190717.367000", "190717.370000", "190717.372000", "190717.375000", "190717.378000", "190717.380000", "190717.383000", "190717.385000", "190717.388000", "190717.390000", "190717.393000", "190717.395000", "190717.398000", "190717.400000", "190717.403000", "190717.406000", "190717.408000", "190717.411000", "190717.413000", "190717.416000", "190717.418000", "190757.787000", "190757.790000", "190757.793000", "190757.795000", "190757.798000", "190757.800000", "190757.803000", "190757.806000", "190757.808000", "190757.811000", "190757.813000", "190757.816000", "190757.818000", "190757.821000", "190757.823000", "190757.826000", "190757.829000", "190757.831000", "190757.834000", "190757.836000", "190757.839000", "190757.841000", "190757.844000", "190757.846000", "190757.849000", "190757.851000", "190757.854000", "190837.344000", "190837.347000", "190837.349000", "190837.352000", "190837.354000", "190837.357000", "190837.359000", "190837.362000", "190837.364000", "190837.367000", "190837.369000", "190837.372000", "190837.374000", "190837.377000", "190837.379000", "190837.382000", "190837.385000", "190837.387000", "190837.390000", "190837.392000", "190837.395000", "190837.397000", "190837.400000", "190837.402000", "190837.405000", "190837.407000", "190837.410000", "190917.345000", "190917.348000", "190917.350000", "190917.354000", "190917.356000", "190917.359000", "190917.361000", "190917.364000", "190917.367000", "190917.369000", "190917.372000", "190917.374000", "190917.377000", "190917.379000", "190917.382000", "190917.384000", "190917.387000", "190917.389000", "190917.392000", "190917.395000", "190917.397000", "190917.400000", "190917.402000", "190917.411000", "190917.414000", "190917.416000", "190917.419000", "190957.349000", "190957.351000", "190957.354000", "190957.356000", "190957.359000", "190957.362000", "190957.364000", "190957.367000", "190957.369000", "190957.372000", "190957.374000", "190957.377000", "190957.379000", "190957.382000", "190957.384000", "190957.387000", "190957.390000", "190957.392000", "190957.395000", "190957.397000", "190957.400000", "190957.402000", "190957.405000", "190957.407000", "190957.410000", "190957.412000", "190957.415000", "191037.350000", "191037.353000", "191037.356000", "191037.358000", "191037.361000", "191037.363000", "191037.366000", "191037.368000", "191037.371000", "191037.373000", "191037.376000", "191037.378000", "191037.381000", "191037.383000", "191037.386000", "191037.389000", "191037.391000", "191037.394000", "191037.396000", "191037.399000", "191037.401000", "191037.404000", "191037.406000", "191037.409000", "191037.411000", "191037.414000", "191117.347000", "191117.350000", "191117.352000", "191117.355000", "191117.357000", "191117.360000", "191117.363000", "191117.365000", "191117.368000", "191117.370000", "191117.373000", "191117.376000", "191117.378000", "191117.381000", "191117.383000", "191117.386000", "191117.388000", "191117.391000", "191117.393000", "191117.396000", "191117.398000", "191117.401000", "191117.404000", "191117.406000", "191117.409000", "191117.411000", "191117.414000", "191157.356000", "191157.359000", "191157.361000", "191157.364000", "191157.366000", "191157.369000", "191157.372000", "191157.374000", "191157.377000", "191157.379000", "191157.382000", "191157.384000", "191157.387000", "191157.389000", "191157.392000", "191157.394000", "191157.397000", "191157.400000", "191157.402000", "191157.405000", "191157.407000", "191157.410000", "191157.412000", "191157.415000", "191157.418000", "191157.420000", "191157.423000", "191237.347000", "191237.350000", "191237.352000", "191237.355000", "191237.357000", "191237.360000", "191237.363000", "191237.365000", "191237.368000", "191237.370000", "191237.373000", "191237.375000", "191237.378000", "191237.380000", "191237.383000", "191237.386000", "191237.388000", "191237.391000", "191237.393000", "191237.396000", "191237.398000", "191237.401000", "191237.403000", "191237.406000", "191237.409000", "191237.411000", "191237.414000", "191251.442000", "191251.445000", "191251.447000", "191251.450000", "191251.452000", "191251.455000", "191251.458000", "191251.460000", "191251.463000", "191251.465000"],
      "InstanceCreationTime": ["190517.377000", "190517.380000", "190517.382000", "190517.385000", "190517.387000", "190517.390000", "190517.392000", "190517.400000", "190517.403000", "190517.405000", "190517.408000", "190517.410000", "190517.413000", "190517.416000", "190517.418000", "190517.421000", "190537.346000", "190537.349000", "190537.352000", "190537.354000", "190537.357000", "190537.359000", "190537.362000", "190537.364000", "190537.367000", "190537.369000", "190537.372000", "190537.374000", "190537.377000", "190537.379000", "190537.382000", "190537.384000", "190537.387000", "190537.389000", "190537.392000", "190537.395000", "190557.317000", "190557.319000", "190557.322000", "190557.324000", "190557.327000", "190557.329000", "190557.332000", "190557.334000", "190557.337000", "190557.339000", "190557.342000", "190557.345000", "190557.347000", "190557.350000", "190557.352000", "190557.355000", "190557.357000", "190557.360000", "190557.362000", "190557.365000", "190617.321000", "190617.324000", "190617.327000", "190617.329000", "190617.332000", "190617.335000", "190617.338000", "190617.341000", "190617.344000", "190617.346000", "190617.349000", "190617.351000", "190617.354000", "190617.356000", "190617.359000", "190617.361000", "190617.364000", "190617.366000", "190617.369000", "190617.372000", "190637.326000", "190637.329000", "190637.331000", "190637.334000", "190637.336000", "190637.339000", "190637.341000", "190637.344000", "190637.346000", "190637.350000", "190637.353000", "190637.355000", "190637.358000", "190637.361000", "190637.363000", "190637.366000", "190637.369000", "190637.371000", "190637.374000", "190637.376000", "190717.352000", "190717.355000", "190717.357000", "190717.360000", "190717.362000", "190717.365000", "190717.367000", "190717.370000", "190717.372000", "190717.375000", "190717.378000", "190717.380000", "190717.383000", "190717.385000", "190717.388000", "190717.390000", "190717.393000", "190717.395000", "190717.398000", "190717.400000", "190717.403000", "190717.406000", "190717.408000", "190717.411000", "190717.413000", "190717.416000", "190717.418000", "190757.787000", "190757.790000", "190757.793000", "190757.795000", "190757.798000", "190757.800000", "190757.803000", "190757.806000", "190757.808000", "190757.811000", "190757.813000", "190757.816000", "190757.818000", "190757.821000", "190757.823000", "190757.826000", "190757.829000", "190757.831000", "190757.834000", "190757.836000", "190757.839000", "190757.841000", "190757.844000", "190757.846000", "190757.849000", "190757.851000", "190757.854000", "190837.344000", "190837.347000", "190837.349000", "190837.352000", "190837.354000", "190837.357000", "190837.359000", "190837.362000", "190837.364000", "190837.367000", "190837.369000", "190837.372000", "190837.374000", "190837.377000", "190837.379000", "190837.382000", "190837.385000", "190837.387000", "190837.390000", "190837.392000", "190837.395000", "190837.397000", "190837.400000", "190837.402000", "190837.405000", "190837.407000", "190837.410000", "190917.345000", "190917.348000", "190917.350000", "190917.354000", "190917.356000", "190917.359000", "190917.361000", "190917.364000", "190917.367000", "190917.369000", "190917.372000", "190917.374000", "190917.377000", "190917.379000", "190917.382000", "190917.384000", "190917.387000", "190917.389000", "190917.392000", "190917.395000", "190917.397000", "190917.400000", "190917.402000", "190917.411000", "190917.414000", "190917.416000", "190917.419000", "190957.349000", "190957.351000", "190957.354000", "190957.356000", "190957.359000", "190957.362000", "190957.364000", "190957.367000", "190957.369000", "190957.372000", "190957.374000", "190957.377000", "190957.379000", "190957.382000", "190957.384000", "190957.387000", "190957.390000", "190957.392000", "190957.395000", "190957.397000", "190957.400000", "190957.402000", "190957.405000", "190957.407000", "190957.410000", "190957.412000", "190957.415000", "191037.350000", "191037.353000", "191037.356000", "191037.358000", "191037.361000", "191037.363000", "191037.366000", "191037.368000", "191037.371000", "191037.373000", "191037.376000", "191037.378000", "191037.381000", "191037.383000", "191037.386000", "191037.389000", "191037.391000", "191037.394000", "191037.396000", "191037.399000", "191037.401000", "191037.404000", "191037.406000", "191037.409000", "191037.411000", "191037.414000", "191117.347000", "191117.350000", "191117.352000", "191117.355000", "191117.357000", "191117.360000", "191117.363000", "191117.365000", "191117.368000", "191117.370000", "191117.373000", "191117.376000", "191117.378000", "191117.381000", "191117.383000", "191117.386000", "191117.388000", "191117.391000", "191117.393000", "191117.396000", "191117.398000", "191117.401000", "191117.404000", "191117.406000", "191117.409000", "191117.411000", "191117.414000", "191157.356000", "191157.359000", "191157.361000", "191157.364000", "191157.366000", "191157.369000", "191157.372000", "191157.374000", "191157.377000", "191157.379000", "191157.382000", "191157.384000", "191157.387000", "191157.389000", "191157.392000", "191157.394000", "191157.397000", "191157.400000", "191157.402000", "191157.405000", "191157.407000", "191157.410000", "191157.412000", "191157.415000", "191157.418000", "191157.420000", "191157.423000", "191237.347000", "191237.350000", "191237.352000", "191237.355000", "191237.357000", "191237.360000", "191237.363000", "191237.365000", "191237.368000", "191237.370000", "191237.373000", "191237.375000", "191237.378000", "191237.380000", "191237.383000", "191237.386000", "191237.388000", "191237.391000", "191237.393000", "191237.396000", "191237.398000", "191237.401000", "191237.403000", "191237.406000", "191237.409000", "191237.411000", "191237.414000", "191251.442000", "191251.445000", "191251.447000", "191251.450000", "191251.452000", "191251.455000", "191251.458000", "191251.460000", "191251.463000", "191251.465000"],
      "InstanceNumber": [1, 2, 3, 4, 5, 6, 7, 8, 9, 10, 11, 12, 13, 14, 15, 16, 17, 18, 19, 20, 21, 22, 23, 24, 25, 26, 27, 28, 29, 30, 31, 32, 33, 34, 35, 36, 37, 38, 39, 40, 41, 42, 43, 44, 45, 46, 47, 48, 49, 50, 51, 52, 53, 54, 55, 56, 57, 58, 59, 60, 61, 62, 63, 64, 65, 66, 67, 68, 69, 70, 71, 72, 73, 74, 75, 76, 77, 78, 79, 80, 81, 82, 83, 84, 85, 86, 87, 88, 89, 90, 91, 92, 93, 94, 95, 96, 97, 98, 99, 100, 101, 102, 103, 104, 105, 106, 107, 108, 109, 110, 111, 112, 113, 114, 115, 116, 117, 118, 119, 120, 121, 122, 123, 124, 125, 126, 127, 128, 129, 130, 131, 132, 133, 134, 135, 136, 137, 138, 139, 140, 141, 142, 143, 144, 145, 146, 147, 148, 149, 150, 151, 152, 153, 154, 155, 156, 157, 158, 159, 160, 161, 162, 163, 164, 165, 166, 167, 168, 169, 170, 171, 172, 173, 174, 175, 176, 177, 178, 179, 180, 181, 182, 183, 184, 185, 186, 187, 188, 189, 190, 191, 192, 193, 194, 195, 196, 197, 198, 199, 200, 201, 202, 203, 204, 205, 206, 207, 208, 209, 210, 211, 212, 213, 214, 215, 216, 217, 218, 219, 220, 221, 222, 223, 224, 225, 226, 227, 228, 229, 230, 231, 232, 233, 234, 235, 236, 237, 238, 239, 240, 241, 242, 243, 244, 245, 246, 247, 248, 249, 250, 251, 252, 253, 254, 255, 256, 257, 258, 259, 260, 261, 262, 263, 264, 265, 266, 267, 268, 269, 270, 271, 272, 273, 274, 275, 276, 277, 278, 279, 280, 281, 282, 283, 284, 285, 286, 287, 288, 289, 290, 291, 292, 293, 294, 295, 296, 297, 298, 299, 300, 301, 302, 303, 304, 305, 306, 307, 308, 309, 310, 311, 312, 313, 314, 315, 316, 317, 318, 319, 320, 321, 322, 323, 324, 325, 326, 327, 328, 329, 330, 331, 332, 333, 334, 335, 336, 337, 338, 339, 340, 341, 342, 343, 344, 345, 346, 347, 348],
      "WindowCenter": [4794.0, 4792.0, 4792.0, 4816.0, 4818.0, 4816.0, 4818.0, 4816.0, 4816.0, 4816.0, 4792.0, 4818.0, 4820.0, 4816.0, 4818.0, 4816.0, 4814.0, 4816.0, 4816.0, 4816.0, 4818.0, 4826.0, 4846.0, 4818.0, 4814.0, 4816.0, 4814.0, 4814.0, 4814.0, 4818.0, 4820.0, 4820.0, 4820.0, 4818.0, 4818.0, 4820.0, 4816.0, 4816.0, 4812.0, 4816.0, 4816.0, 4816.0, 4818.0, 4816.0, 4822.0, 4818.0, 4816.0, 4816.0, 4814.0, 4820.0, 4818.0, 4818.0, 4816.0, 4818.0, 4818.0, 4814.0, 4818.0, 4820.0, 4818.0, 4816.0, 4816.0, 4818.0, 4816.0, 4814.0, 4816.0, 4818.0, 4814.0, 4816.0, 4820.0, 4816.0, 4818.0, 4812.0, 4814.0, 4814.0, 4816.0, 4816.0, 4816.0, 4812.0, 4820.0, 4814.0, 4818.0, 4818.0, 4816.0, 4818.0, 4816.0, 4820.0, 4812.0, 4814.0, 4816.0, 4818.0, 4816.0, 4816.0, 4816.0, 4814.0, 4818.0, 4814.0, 4816.0, 4816.0, 4816.0, 4818.0, 4818.0, 4818.0, 4814.0, 4818.0, 4816.0, 4814.0, 4816.0, 4816.0, 4820.0, 4818.0, 4816.0, 4818.0, 4816.0, 4814.0, 4816.0, 4818.0, 4816.0, 4816.0, 4814.0, 4840.0, 4818.0, 4816.0, 4818.0, 4816.0, 4816.0, 4814.0, 4840.0, 4814.0, 4816.0, 4818.0, 4812.0, 4818.0, 4838.0, 4814.0, 4812.0, 4820.0, 4814.0, 4812.0, 4814.0, 4816.0, 4814.0, 4816.0, 4816.0, 4816.0, 4816.0, 4838.0, 4840.0, 4814.0, 4816.0, 4816.0, 4814.0, 4814.0, 4816.0, 4812.0, 4816.0, 4818.0, 4818.0, 4814.0, 4816.0, 4816.0, 4812.0, 4818.0, 4816.0, 4812.0, 4816.0, 4814.0, 4816.0, 4814.0, 4816.0, 4816.0, 4812.0, 4816.0, 4818.0, 4840.0, 4816.0, 4818.0, 4816.0, 4818.0, 4812.0, 4816.0, 4816.0, 4816.0, 4814.0, 4814.0, 4812.0, 4814.0, 4818.0, 4816.0, 4812.0, 4814.0, 4816.0, 4814.0, 4816.0, 4814.0, 4818.0, 4814.0, 4814.0, 4816.0, 4818.0, 4818.0, 4816.0, 4816.0, 4816.0, 4812.0, 4816.0, 4814.0, 4818.0, 4816.0, 4816.0, 4816.0, 4816.0, 4816.0, 4818.0, 4814.0, 4838.0, 4818.0, 4816.0, 4808.0, 4814.0, 4818.0, 4818.0, 4818.0, 4818.0, 4814.0, 4818.0, 4816.0, 4814.0, 4816.0, 4816.0, 4816.0, 4814.0, 4812.0, 4816.0, 4814.0, 4818.0, 4842.0, 4842.0, 4814.0, 4816.0, 4814.0, 4816.0, 4818.0, 4816.0, 4818.0, 4818.0, 4816.0, 4816.0, 4818.0, 4818.0, 4814.0, 4812.0, 4818.0, 4816.0, 4818.0, 4814.0, 4816.0, 4814.0, 4814.0, 4816.0, 4816.0, 4816.0, 4814.0, 4816.0, 4814.0, 4818.0, 4814.0, 4812.0, 4814.0, 4816.0, 4820.0, 4816.0, 4814.0, 4816.0, 4816.0, 4818.0, 4816.0, 4816.0, 4818.0, 4814.0, 4812.0, 4818.0, 4816.0, 4816.0, 4818.0, 4816.0, 4814.0, 4818.0, 4816.0, 4820.0, 4816.0, 4816.0, 4844.0, 4814.0, 4814.0, 4812.0, 4814.0, 4818.0, 4818.0, 4818.0, 4818.0, 4820.0, 4818.0, 4820.0, 4818.0, 4814.0, 4816.0, 4816.0, 4820.0, 4818.0, 4818.0, 4814.0, 4816.0, 4816.0, 4818.0, 4816.0, 4816.0, 4820.0, 4816.0, 4812.0, 4820.0, 4816.0, 4816.0, 4818.0, 4816.0, 4814.0, 4842.0, 4818.0, 4814.0, 4818.0, 4816.0, 4816.0, 4816.0, 4814.0, 4816.0, 4818.0, 4818.0, 4816.0, 4812.0, 4812.0, 4818.0, 4816.0, 4814.0, 4816.0, 4820.0, 4844.0, 4844.0, 4818.0, 4814.0],
