{
  "AcquisitionMatrixPE": 104,
  "AcquisitionNumber": 1,
  "AcquisitionTime": "18:44:2.515000",
  "BandwidthPerPixelPhaseEncode": 17.17,
  "BaseResolution": 104,
  "BodyPartExamined": "BRAIN",
  "CoilCombinationMethod": "Sum of Squares",
  "ConsistencyInfo": "N4_VE11C_LATEST_20160120",
  "ConversionSoftware": "dcm2niix",
  "ConversionSoftwareVersion": "v1.0.20220505",
  "DerivedVendorReportedEchoSpacing": 0.000560011,
  "DeviceSerialNumber": "167006",
  "DwellTime": 2.1e-06,
  "EchoTime": 0.037,
  "EchoTrainLength": 104,
  "EffectiveEchoSpacing": 0.000560011,
  "FlipAngle": 52,
  "HeudiconvVersion": "0.5.3.post811+g6206e14",
  "ImageComments": "Unaliased MB4/PE3/LB",
  "ImageOrientationPatientDICOM": [0.992363, 0.117313, 0.0381114, -0.097477, 0.935182, -0.34049],
  "ImageOrientationText": "Tra>Cor(-19.6)>Sag(4.3)",
  "ImageType": [
    "ORIGINAL",
    "PRIMARY",
    "M",
    "MB",
    "ND",
    "MOSAIC"
],
  "ImagingFrequency": 123.259,
  "InPlanePhaseEncodingDirectionDICOM": "COL",
  "InstitutionAddress": "Chemin Queen-Mary 4565,Montreal,District,CA,H3W 1W5",
  "InstitutionName": "IUGM",
  "InstitutionalDepartmentName": "Department",
  "MRAcquisitionType": "2D",
  "MagneticFieldStrength": 3,
  "Manufacturer": "Siemens",
  "ManufacturersModelName": "Prisma_fit",
  "MatrixCoilMode": "SENSE",
  "Modality": "MR",
  "MultibandAccelerationFactor": 4,
  "PartialFourier": 1,
  "PatientPosition": "HFS",
  "PercentPhaseFOV": 100,
  "PercentSampling": 100,
  "PhaseEncodingDirection": "j",
  "PhaseEncodingSteps": 104,
  "PhaseResolution": 1,
  "PixelBandwidth": 2290,
  "ProcedureStepDescription": "games^mario3",
  "ProtocolName": "func_task-mario3_run-01",
  "PulseSequenceDetails": "%CustomerSeq%\\cmrr_mbep2d_bold",
  "ReceiveCoilActiveElements": "HC1-7;NC1,2",
  "ReceiveCoilName": "HeadNeck_64",
  "ReconMatrixPE": 104,
  "RepetitionTime": 1.49,
  "SAR": 0.0668599,
  "ScanOptions": "FS",
  "ScanningSequence": "EP",
  "SequenceName": "epfid2d1_104",
  "SequenceVariant": "SK\\SS",
  "SeriesDescription": "func_task-mario3_run-01",
  "SeriesNumber": 10,
  "ShimSetting": [636, -7186, -8759, 675, 79, 29, -17, 2],
  "SliceThickness": 2,
  "SliceTiming": [0, 0.785, 0.1, 0.8825, 0.1975, 0.98, 0.295, 1.08, 0.3925, 1.1775, 0.49, 1.275, 0.59, 1.3725, 0.6875, 0, 0.785, 0.1, 0.8825, 0.1975, 0.98, 0.295, 1.08, 0.3925, 1.1775, 0.49, 1.275, 0.59, 1.3725, 0.6875, 0, 0.785, 0.1, 0.8825, 0.1975, 0.98, 0.295, 1.08, 0.3925, 1.1775, 0.49, 1.275, 0.59, 1.3725, 0.6875, 0, 0.785, 0.1, 0.8825, 0.1975, 0.98, 0.295, 1.08, 0.3925, 1.1775, 0.49, 1.275, 0.59, 1.3725, 0.6875],
  "SoftwareVersions": "syngo MR E11",
  "SpacingBetweenSlices": 2,
  "StationName": "MRC35049",
  "TaskName": "mario3",
  "TotalReadoutTime": 0.0576811,
  "TxRefAmp": 298.577,
  "WipMemBlock": "4dcdc2d7-a141-48e5-95e2-6dfe8d3e1e84||Sequence: R017 ve11c/master r/75a17815+; Jun 28 2022 16:32:11 by eja",
  "dcmmeta_affine": [
    [-1.9847267866134644, -0.19495393335819244, 0.1511700600385666, 111.69878387451172],
    [-0.23462629318237305, 1.870363712310791, -0.6683487296104431, -55.47169494628906],
    [0.07622288912534714, 0.6809790730476379, 1.8789511919021606, -50.9786376953125],
    [0.0, 0.0, 0.0, 1.0]
],
  "dcmmeta_reorient_transform": [
    [0.0, -1.0, 0.0, 103.0],
    [1.0, 0.0, 0.0, 0.0],
    [0.0, 0.0, 1.0, 0.0],
    [0.0, 0.0, 0.0, 1.0]
],
  "dcmmeta_shape": [104, 104, 60, 366],
  "dcmmeta_slice_dim": 2,
  "dcmmeta_version": 0.6,
  "global": {
    "const": {
      "AcquisitionMatrix": [104, 0, 0, 104],
      "AngioFlag": "N",
      "BitsAllocated": 16,
      "BitsStored": 16,
      "BodyPartExamined": "BRAIN",
      "Columns": 832,
      "EchoNumbers": 1,
      "EchoTime": 37.0,
      "EchoTrainLength": 104,
      "FlipAngle": 52.0,
      "HighBit": 15,
      "ImageOrientationPatient": [0.99236341305853, 0.11731314566079, 0.03811144549858, -0.097476969273, 0.93518186377621, -0.3404895330629],
      "ImagePositionPatient": [-743.09585830576, -903.3921354645, 239.29345265787],
      "ImageType": [
        "ORIGINAL",
        "PRIMARY",
        "M",
        "MB",
        "ND",
        "MOSAIC"
],
      "ImagedNucleus": "1H",
      "ImagingFrequency": 123.258802,
      "InPlanePhaseEncodingDirection": "COL",
      "MRAcquisitionType": "2D",
      "MagneticFieldStrength": 3.0,
      "Manufacturer": "SIEMENS",
      "ManufacturerModelName": "Prisma_fit",
      "Modality": "MR",
      "NumberOfAverages": 1.0,
      "NumberOfPhaseEncodingSteps": 104,
      "PercentPhaseFieldOfView": 100.0,
      "PercentSampling": 100.0,
      "PerformedProcedureStepStartTime": "184044.405000",
      "PhotometricInterpretation": "MONOCHROME2",
      "PixelBandwidth": 2290.0,
      "PixelRepresentation": 0,
      "PixelSpacing": [2.0, 2.0],
      "ProtocolName": "func_task-mario3_run-01",
      "RepetitionTime": 1490.0,
      "Rows": 832,
      "SAR": 0.06685988080665,
      "SamplesPerPixel": 1,
      "ScanOptions": "FS",
      "ScanningSequence": "EP",
      "SequenceName": "epfid2d1_104",
      "SequenceVariant": [
        "SK",
        "SS"
],
      "SeriesDescription": "func_task-mario3_run-01",
      "SeriesNumber": 10,
      "SeriesTime": "184452.760000",
      "SliceLocation": -20.913212544357,
      "SliceThickness": 2.0,
      "SmallestImagePixelValue": 0,
      "SoftwareVersions": "syngo MR E11",
      "SpacingBetweenSlices": 2.0000000236086,
      "SpecificCharacterSet": "ISO_IR 100",
      "StudyID": "1",
      "StudyTime": "184044.333000",
      "TransmitCoilName": "Body",
      "VariableFlipAngleFlag": "N",
      "WindowCenterWidthExplanation": "Algo1",
      "dBdt": 0.0},
    "slices": {}
  },
  "time": {
    "samples": {
      "AcquisitionNumber": [1, 2, 3, 4, 5, 6, 7, 8, 9, 10, 11, 12, 13, 14, 15, 16, 17, 18, 19, 20, 21, 22, 23, 24, 25, 26, 27, 28, 29, 30, 31, 32, 33, 34, 35, 36, 37, 38, 39, 40, 41, 42, 43, 44, 45, 46, 47, 48, 49, 50, 51, 52, 53, 54, 55, 56, 57, 58, 59, 60, 61, 62, 63, 64, 65, 66, 67, 68, 69, 70, 71, 72, 73, 74, 75, 76, 77, 78, 79, 80, 81, 82, 83, 84, 85, 86, 87, 88, 89, 90, 91, 92, 93, 94, 95, 96, 97, 98, 99, 100, 101, 102, 103, 104, 105, 106, 107, 108, 109, 110, 111, 112, 113, 114, 115, 116, 117, 118, 119, 120, 121, 122, 123, 124, 125, 126, 127, 128, 129, 130, 131, 132, 133, 134, 135, 136, 137, 138, 139, 140, 141, 142, 143, 144, 145, 146, 147, 148, 149, 150, 151, 152, 153, 154, 155, 156, 157, 158, 159, 160, 161, 162, 163, 164, 165, 166, 167, 168, 169, 170, 171, 172, 173, 174, 175, 176, 177, 178, 179, 180, 181, 182, 183, 184, 185, 186, 187, 188, 189, 190, 191, 192, 193, 194, 195, 196, 197, 198, 199, 200, 201, 202, 203, 204, 205, 206, 207, 208, 209, 210, 211, 212, 213, 214, 215, 216, 217, 218, 219, 220, 221, 222, 223, 224, 225, 226, 227, 228, 229, 230, 231, 232, 233, 234, 235, 236, 237, 238, 239, 240, 241, 242, 243, 244, 245, 246, 247, 248, 249, 250, 251, 252, 253, 254, 255, 256, 257, 258, 259, 260, 261, 262, 263, 264, 265, 266, 267, 268, 269, 270, 271, 272, 273, 274, 275, 276, 277, 278, 279, 280, 281, 282, 283, 284, 285, 286, 287, 288, 289, 290, 291, 292, 293, 294, 295, 296, 297, 298, 299, 300, 301, 302, 303, 304, 305, 306, 307, 308, 309, 310, 311, 312, 313, 314, 315, 316, 317, 318, 319, 320, 321, 322, 323, 324, 325, 326, 327, 328, 329, 330, 331, 332, 333, 334, 335, 336, 337, 338, 339, 340, 341, 342, 343, 344, 345, 346, 347, 348, 349, 350, 351, 352, 353, 354, 355, 356, 357, 358, 359, 360, 361, 362, 363, 364, 365, 366],
      "AcquisitionTime": ["184402.515000", "184404.005000", "184405.495000", "184406.985000", "184408.475000", "184409.965000", "184411.455000", "184412.945000", "184414.435000", "184415.925000", "184417.415000", "184418.905000", "184420.395000", "184421.885000", "184423.375000", "184424.865000", "184426.355000", "184427.845000", "184429.335000", "184430.825000", "184432.315000", "184433.805000", "184435.295000", "184436.785000", "184438.275000", "184439.765000", "184441.255000", "184442.745000", "184444.235000", "184445.725000", "184447.215000", "184448.705000", "184450.195000", "184451.685000", "184453.175000", "184454.665000", "184456.155000", "184457.645000", "184459.135000", "184500.625000", "184502.115000", "184503.605000", "184505.095000", "184506.585000", "184508.075000", "184509.565000", "184511.055000", "184512.545000", "184514.035000", "184515.525000", "184517.015000", "184518.505000", "184519.995000", "184521.485000", "184522.975000", "184524.465000", "184525.955000", "184527.445000", "184528.935000", "184530.425000", "184531.915000", "184533.405000", "184534.895000", "184536.385000", "184537.875000", "184539.365000", "184540.855000", "184542.345000", "184543.835000", "184545.325000", "184546.815000", "184548.305000", "184549.795000", "184551.285000", "184552.775000", "184554.265000", "184555.755000", "184557.245000", "184558.735000", "184600.225000", "184601.715000", "184603.205000", "184604.695000", "184606.185000", "184607.675000", "184609.165000", "184610.655000", "184612.145000", "184613.635000", "184615.125000", "184616.615000", "184618.105000", "184619.595000", "184621.085000", "184622.575000", "184624.065000", "184625.555000", "184627.045000", "184628.535000", "184630.025000", "184631.515000", "184633.005000", "184634.495000", "184635.985000", "184637.475000", "184638.965000", "184640.455000", "184641.945000", "184643.435000", "184644.925000", "184646.415000", "184647.905000", "184649.395000", "184650.885000", "184652.375000", "184653.865000", "184655.355000", "184656.845000", "184658.335000", "184659.825000", "184701.315000", "184702.805000", "184704.295000", "184705.785000", "184707.275000", "184708.765000", "184710.255000", "184711.745000", "184713.235000", "184714.725000", "184716.215000", "184717.705000", "184719.195000", "184720.685000", "184722.175000", "184723.665000", "184725.155000", "184726.645000", "184728.135000", "184729.625000", "184731.115000", "184732.605000", "184734.095000", "184735.585000", "184737.075000", "184738.565000", "184740.055000", "184741.545000", "184743.035000", "184744.525000", "184746.015000", "184747.505000", "184748.995000", "184750.485000", "184751.975000", "184753.465000", "184754.955000", "184756.445000", "184757.935000", "184759.425000", "184800.915000", "184802.405000", "184803.895000", "184805.385000", "184806.875000", "184808.365000", "184809.855000", "184811.345000", "184812.835000", "184814.325000", "184815.815000", "184817.305000", "184818.795000", "184820.285000", "184821.775000", "184823.265000", "184824.755000", "184826.245000", "184827.735000", "184829.225000", "184830.715000", "184832.205000", "184833.695000", "184835.185000", "184836.675000", "184838.165000", "184839.655000", "184841.145000", "184842.635000", "184844.125000", "184845.615000", "184847.105000", "184848.595000", "184850.085000", "184851.575000", "184853.065000", "184854.555000", "184856.045000", "184857.535000", "184859.025000", "184900.515000", "184902.005000", "184903.495000", "184904.985000", "184906.475000", "184907.965000", "184909.455000", "184910.945000", "184912.435000", "184913.925000", "184915.415000", "184916.905000", "184918.395000", "184919.885000", "184921.375000", "184922.865000", "184924.355000", "184925.845000", "184927.335000", "184928.825000", "184930.315000", "184931.805000", "184933.295000", "184934.785000", "184936.275000", "184937.765000", "184939.255000", "184940.745000", "184942.235000", "184943.725000", "184945.215000", "184946.705000", "184948.195000", "184949.685000", "184951.175000", "184952.665000", "184954.155000", "184955.645000", "184957.135000", "184958.625000", "185000.115000", "185001.605000", "185003.095000", "185004.585000", "185006.075000", "185007.565000", "185009.055000", "185010.545000", "185012.035000", "185013.525000", "185015.015000", "185016.505000", "185017.995000", "185019.485000", "185020.975000", "185022.465000", "185023.955000", "185025.445000", "185026.935000", "185028.425000", "185029.915000", "185031.405000", "185032.895000", "185034.385000", "185035.875000", "185037.365000", "185038.855000", "185040.345000", "185041.835000", "185043.325000", "185044.815000", "185046.305000", "185047.795000", "185049.285000", "185050.775000", "185052.265000", "185053.755000", "185055.245000", "185056.735000", "185058.225000", "185059.715000", "185101.205000", "185102.695000", "185104.185000", "185105.675000", "185107.165000", "185108.655000", "185110.145000", "185111.635000", "185113.125000", "185114.615000", "185116.105000", "185117.595000", "185119.085000", "185120.575000", "185122.065000", "185123.555000", "185125.045000", "185126.535000", "185128.025000", "185129.515000", "185131.005000", "185132.495000", "185133.985000", "185135.475000", "185136.965000", "185138.455000", "185139.945000", "185141.435000", "185142.925000", "185144.415000", "185145.905000", "185147.395000", "185148.885000", "185150.375000", "185151.865000", "185153.355000", "185154.845000", "185156.335000", "185157.825000", "185159.315000", "185200.805000", "185202.295000", "185203.785000", "185205.275000", "185206.765000", "185208.255000", "185209.745000", "185211.235000", "185212.725000", "185214.215000", "185215.705000", "185217.195000", "185218.685000", "185220.175000", "185221.665000", "185223.155000", "185224.645000", "185226.135000", "185227.625000", "185229.115000", "185230.605000", "185232.095000", "185233.585000", "185235.075000", "185236.565000", "185238.055000", "185239.545000", "185241.035000", "185242.525000", "185244.015000", "185245.505000", "185246.995000", "185248.485000", "185249.975000", "185251.465000", "185252.955000", "185254.445000", "185255.935000", "185257.425000", "185258.915000", "185300.405000", "185301.895000", "185303.385000", "185304.875000", "185306.365000"],
      "ContentTime": ["184452.763000", "184512.730000", "184512.734000", "184512.737000", "184512.741000", "184512.753000", "184512.756000", "184512.760000", "184512.763000", "184512.766000", "184512.770000", "184512.773000", "184512.777000", "184512.780000", "184512.783000", "184512.787000", "184512.790000", "184512.794000", "184512.797000", "184512.800000", "184512.804000", "184532.730000", "184532.734000", "184532.737000", "184532.741000", "184532.744000", "184532.747000", "184532.751000", "184532.754000", "184532.757000", "184532.761000", "184532.764000", "184532.768000", "184532.771000", "184532.774000", "184532.778000", "184532.781000", "184532.785000", "184532.788000", "184532.791000", "184532.795000", "184552.730000", "184552.734000", "184552.737000", "184552.741000", "184552.744000", "184552.748000", "184552.751000", "184552.758000", "184552.761000", "184552.765000", "184552.768000", "184552.772000", "184552.775000", "184552.778000", "184552.782000", "184552.785000", "184552.788000", "184552.792000", "184552.795000", "184552.799000", "184612.730000", "184612.734000", "184612.737000", "184612.741000", "184612.744000", "184612.748000", "184612.751000", "184612.755000", "184612.759000", "184612.762000", "184612.766000", "184612.769000", "184612.773000", "184612.776000", "184612.779000", "184612.783000", "184612.786000", "184612.790000", "184612.793000", "184612.797000", "184652.730000", "184652.734000", "184652.737000", "184652.741000", "184652.752000", "184652.756000", "184652.759000", "184652.763000", "184652.766000", "184652.769000", "184652.773000", "184652.776000", "184652.780000", "184652.783000", "184652.787000", "184652.790000", "184652.793000", "184652.797000", "184652.800000", "184652.804000", "184652.807000", "184652.810000", "184652.814000", "184652.817000", "184652.821000", "184652.824000", "184652.828000", "184652.831000", "184652.835000", "184652.838000", "184652.841000", "184652.845000", "184732.730000", "184732.734000", "184732.738000", "184732.741000", "184732.745000", "184732.748000", "184732.751000", "184732.755000", "184732.758000", "184732.762000", "184732.788000", "184732.791000", "184732.794000", "184732.798000", "184732.801000", "184732.805000", "184732.808000", "184732.811000", "184732.815000", "184732.818000", "184732.822000", "184732.825000", "184732.829000", "184732.832000", "184732.835000", "184732.839000", "184732.842000", "184812.730000", "184812.739000", "184812.743000", "184812.746000", "184812.749000", "184812.753000", "184812.756000", "184812.759000", "184812.763000", "184812.766000", "184812.770000", "184812.773000", "184812.777000", "184812.780000", "184812.783000", "184812.787000", "184812.790000", "184812.794000", "184812.797000", "184812.800000", "184812.804000", "184812.807000", "184812.810000", "184812.814000", "184812.817000", "184812.821000", "184812.824000", "184852.729000", "184852.733000", "184852.737000", "184852.740000", "184852.743000", "184852.747000", "184852.750000", "184852.754000", "184852.757000", "184852.760000", "184852.764000", "184852.767000", "184852.771000", "184852.774000", "184852.778000", "184852.781000", "184852.784000", "184852.788000", "184852.791000", "184852.795000", "184852.798000", "184852.801000", "184852.805000", "184852.808000", "184852.812000", "184852.815000", "184852.818000", "184932.730000", "184932.734000", "184932.738000", "184932.741000", "184932.744000", "184932.748000", "184932.751000", "184932.755000", "184932.758000", "184932.761000", "184932.765000", "184932.768000", "184932.772000", "184932.775000", "184932.778000", "184932.782000", "184932.785000", "184932.789000", "184932.792000", "184932.796000", "184932.799000", "184932.802000", "184932.806000", "184932.809000", "184932.813000", "184932.816000", "184932.819000", "185012.730000", "185012.734000", "185012.737000", "185012.741000", "185012.744000", "185012.748000", "185012.751000", "185012.754000", "185012.758000", "185012.761000", "185012.765000", "185012.768000", "185012.772000", "185012.775000", "185012.778000", "185012.782000", "185012.785000", "185012.789000", "185012.792000", "185012.795000", "185012.799000", "185012.802000", "185012.805000", "185012.809000", "185012.812000", "185012.816000", "185012.819000", "185052.730000", "185052.734000", "185052.737000", "185052.741000", "185052.744000", "185052.748000", "185052.751000", "185052.755000", "185052.758000", "185052.761000", "185052.765000", "185052.768000", "185052.772000", "185052.775000", "185052.779000", "185052.782000", "185052.785000", "185052.789000", "185052.792000", "185052.795000", "185052.799000", "185052.802000", "185052.806000", "185052.809000", "185052.813000", "185052.816000", "185052.819000", "185132.730000", "185132.734000", "185132.738000", "185132.741000", "185132.745000", "185132.748000", "185132.751000", "185132.755000", "185132.758000", "185132.762000", "185132.765000", "185132.769000", "185132.772000", "185132.775000", "185132.779000", "185132.782000", "185132.786000", "185132.789000", "185132.792000", "185132.796000", "185132.799000", "185132.803000", "185132.807000", "185132.811000", "185132.814000", "185132.818000", "185212.730000", "185212.734000", "185212.738000", "185212.741000", "185212.751000", "185212.755000", "185212.758000", "185212.761000", "185212.765000", "185212.768000", "185212.772000", "185212.787000", "185212.790000", "185212.794000", "185212.797000", "185212.800000", "185212.804000", "185212.807000", "185212.810000", "185212.814000", "185212.817000", "185212.821000", "185212.824000", "185212.827000", "185212.831000", "185212.834000", "185212.838000", "185252.730000", "185252.734000", "185252.737000", "185252.741000", "185252.744000", "185252.748000", "185252.751000", "185252.754000", "185252.758000", "185252.761000", "185252.765000", "185252.768000", "185252.772000", "185252.775000", "185252.778000", "185252.782000", "185252.785000", "185252.789000", "185252.792000", "185252.796000", "185252.799000", "185252.802000", "185252.806000", "185252.809000", "185252.813000", "185252.816000", "185252.819000", "185308.926000", "185308.930000", "185308.933000", "185308.936000", "185308.940000", "185308.943000", "185308.947000", "185308.950000", "185308.953000", "185308.957000", "185308.960000"],
      "InstanceCreationTime": ["184452.763000", "184512.730000", "184512.734000", "184512.737000", "184512.741000", "184512.753000", "184512.756000", "184512.760000", "184512.763000", "184512.766000", "184512.770000", "184512.773000", "184512.777000", "184512.780000", "184512.783000", "184512.787000", "184512.790000", "184512.794000", "184512.797000", "184512.800000", "184512.804000", "184532.730000", "184532.734000", "184532.737000", "184532.741000", "184532.744000", "184532.747000", "184532.751000", "184532.754000", "184532.757000", "184532.761000", "184532.764000", "184532.768000", "184532.771000", "184532.774000", "184532.778000", "184532.781000", "184532.785000", "184532.788000", "184532.791000", "184532.795000", "184552.730000", "184552.734000", "184552.737000", "184552.741000", "184552.744000", "184552.748000", "184552.751000", "184552.758000", "184552.761000", "184552.765000", "184552.768000", "184552.772000", "184552.775000", "184552.778000", "184552.782000", "184552.785000", "184552.788000", "184552.792000", "184552.795000", "184552.799000", "184612.730000", "184612.734000", "184612.737000", "184612.741000", "184612.744000", "184612.748000", "184612.751000", "184612.755000", "184612.759000", "184612.762000", "184612.766000", "184612.769000", "184612.773000", "184612.776000", "184612.779000", "184612.783000", "184612.786000", "184612.790000", "184612.793000", "184612.797000", "184652.730000", "184652.734000", "184652.737000", "184652.741000", "184652.752000", "184652.756000", "184652.759000", "184652.763000", "184652.766000", "184652.769000", "184652.773000", "184652.776000", "184652.780000", "184652.783000", "184652.787000", "184652.790000", "184652.793000", "184652.797000", "184652.800000", "184652.804000", "184652.807000", "184652.810000", "184652.814000", "184652.817000", "184652.821000", "184652.824000", "184652.828000", "184652.831000", "184652.835000", "184652.838000", "184652.841000", "184652.845000", "184732.730000", "184732.734000", "184732.738000", "184732.741000", "184732.745000", "184732.748000", "184732.751000", "184732.755000", "184732.758000", "184732.762000", "184732.788000", "184732.791000", "184732.794000", "184732.798000", "184732.801000", "184732.805000", "184732.808000", "184732.811000", "184732.815000", "184732.818000", "184732.822000", "184732.825000", "184732.829000", "184732.832000", "184732.835000", "184732.839000", "184732.842000", "184812.730000", "184812.739000", "184812.743000", "184812.746000", "184812.749000", "184812.753000", "184812.756000", "184812.759000", "184812.763000", "184812.766000", "184812.770000", "184812.773000", "184812.777000", "184812.780000", "184812.783000", "184812.787000", "184812.790000", "184812.794000", "184812.797000", "184812.800000", "184812.804000", "184812.807000", "184812.810000", "184812.814000", "184812.817000", "184812.821000", "184812.824000", "184852.729000", "184852.733000", "184852.737000", "184852.740000", "184852.743000", "184852.747000", "184852.750000", "184852.754000", "184852.757000", "184852.760000", "184852.764000", "184852.767000", "184852.771000", "184852.774000", "184852.778000", "184852.781000", "184852.784000", "184852.788000", "184852.791000", "184852.795000", "184852.798000", "184852.801000", "184852.805000", "184852.808000", "184852.812000", "184852.815000", "184852.818000", "184932.730000", "184932.734000", "184932.738000", "184932.741000", "184932.744000", "184932.748000", "184932.751000", "184932.755000", "184932.758000", "184932.761000", "184932.765000", "184932.768000", "184932.772000", "184932.775000", "184932.778000", "184932.782000", "184932.785000", "184932.789000", "184932.792000", "184932.796000", "184932.799000", "184932.802000", "184932.806000", "184932.809000", "184932.813000", "184932.816000", "184932.819000", "185012.730000", "185012.734000", "185012.737000", "185012.741000", "185012.744000", "185012.748000", "185012.751000", "185012.754000", "185012.758000", "185012.761000", "185012.765000", "185012.768000", "185012.772000", "185012.775000", "185012.778000", "185012.782000", "185012.785000", "185012.789000", "185012.792000", "185012.795000", "185012.799000", "185012.802000", "185012.805000", "185012.809000", "185012.812000", "185012.816000", "185012.819000", "185052.730000", "185052.734000", "185052.737000", "185052.741000", "185052.744000", "185052.748000", "185052.751000", "185052.755000", "185052.758000", "185052.761000", "185052.765000", "185052.768000", "185052.772000", "185052.775000", "185052.779000", "185052.782000", "185052.785000", "185052.789000", "185052.792000", "185052.795000", "185052.799000", "185052.802000", "185052.806000", "185052.809000", "185052.813000", "185052.816000", "185052.819000", "185132.730000", "185132.734000", "185132.738000", "185132.741000", "185132.745000", "185132.748000", "185132.751000", "185132.755000", "185132.758000", "185132.762000", "185132.765000", "185132.769000", "185132.772000", "185132.775000", "185132.779000", "185132.782000", "185132.786000", "185132.789000", "185132.792000", "185132.796000", "185132.799000", "185132.803000", "185132.807000", "185132.811000", "185132.814000", "185132.818000", "185212.730000", "185212.734000", "185212.738000", "185212.741000", "185212.751000", "185212.755000", "185212.758000", "185212.761000", "185212.765000", "185212.768000", "185212.772000", "185212.787000", "185212.790000", "185212.794000", "185212.797000", "185212.800000", "185212.804000", "185212.807000", "185212.810000", "185212.814000", "185212.817000", "185212.821000", "185212.824000", "185212.827000", "185212.831000", "185212.834000", "185212.838000", "185252.730000", "185252.734000", "185252.737000", "185252.741000", "185252.744000", "185252.748000", "185252.751000", "185252.754000", "185252.758000", "185252.761000", "185252.765000", "185252.768000", "185252.772000", "185252.775000", "185252.778000", "185252.782000", "185252.785000", "185252.789000", "185252.792000", "185252.796000", "185252.799000", "185252.802000", "185252.806000", "185252.809000", "185252.813000", "185252.816000", "185252.819000", "185308.926000", "185308.930000", "185308.933000", "185308.936000", "185308.940000", "185308.943000", "185308.947000", "185308.950000", "185308.953000", "185308.957000", "185308.960000"],
      "InstanceNumber": [1, 2, 3, 4, 5, 6, 7, 8, 9, 10, 11, 12, 13, 14, 15, 16, 17, 18, 19, 20, 21, 22, 23, 24, 25, 26, 27, 28, 29, 30, 31, 32, 33, 34, 35, 36, 37, 38, 39, 40, 41, 42, 43, 44, 45, 46, 47, 48, 49, 50, 51, 52, 53, 54, 55, 56, 57, 58, 59, 60, 61, 62, 63, 64, 65, 66, 67, 68, 69, 70, 71, 72, 73, 74, 75, 76, 77, 78, 79, 80, 81, 82, 83, 84, 85, 86, 87, 88, 89, 90, 91, 92, 93, 94, 95, 96, 97, 98, 99, 100, 101, 102, 103, 104, 105, 106, 107, 108, 109, 110, 111, 112, 113, 114, 115, 116, 117, 118, 119, 120, 121, 122, 123, 124, 125, 126, 127, 128, 129, 130, 131, 132, 133, 134, 135, 136, 137, 138, 139, 140, 141, 142, 143, 144, 145, 146, 147, 148, 149, 150, 151, 152, 153, 154, 155, 156, 157, 158, 159, 160, 161, 162, 163, 164, 165, 166, 167, 168, 169, 170, 171, 172, 173, 174, 175, 176, 177, 178, 179, 180, 181, 182, 183, 184, 185, 186, 187, 188, 189, 190, 191, 192, 193, 194, 195, 196, 197, 198, 199, 200, 201, 202, 203, 204, 205, 206, 207, 208, 209, 210, 211, 212, 213, 214, 215, 216, 217, 218, 219, 220, 221, 222, 223, 224, 225, 226, 227, 228, 229, 230, 231, 232, 233, 234, 235, 236, 237, 238, 239, 240, 241, 242, 243, 244, 245, 246, 247, 248, 249, 250, 251, 252, 253, 254, 255, 256, 257, 258, 259, 260, 261, 262, 263, 264, 265, 266, 267, 268, 269, 270, 271, 272, 273, 274, 275, 276, 277, 278, 279, 280, 281, 282, 283, 284, 285, 286, 287, 288, 289, 290, 291, 292, 293, 294, 295, 296, 297, 298, 299, 300, 301, 302, 303, 304, 305, 306, 307, 308, 309, 310, 311, 312, 313, 314, 315, 316, 317, 318, 319, 320, 321, 322, 323, 324, 325, 326, 327, 328, 329, 330, 331, 332, 333, 334, 335, 336, 337, 338, 339, 340, 341, 342, 343, 344, 345, 346, 347, 348, 349, 350, 351, 352, 353, 354, 355, 356, 357, 358, 359, 360, 361, 362, 363, 364, 365, 366],
