{
  "AcquisitionMatrixPE": 104,
  "AcquisitionNumber": 1,
  "AcquisitionTime": "14:11:57.467500",
  "BandwidthPerPixelPhaseEncode": 17.17,
  "BaseResolution": 104,
  "BodyPartExamined": "BRAIN",
  "CoilCombinationMethod": "Sum of Squares",
  "ConsistencyInfo": "N4_VE11C_LATEST_20160120",
  "ConversionSoftware": "dcm2niix",
  "ConversionSoftwareVersion": "v1.0.20220505",
  "DerivedVendorReportedEchoSpacing": 0.000560011,
  "DeviceSerialNumber": "167006",
  "DwellTime": 2.1e-06,
  "EchoTime": 0.037,
  "EchoTime1": 0.037,
  "EchoTime2": 0.001,
  "EchoTrainLength": 104,
  "EffectiveEchoSpacing": 0.000560011,
  "FlipAngle": 52,
  "HeudiconvVersion": "0.5.3.post811+g6206e14",
  "ImageComments": "Unaliased MB4/PE3/LB",
  "ImageOrientationPatientDICOM": [0.999258, 0.0303676, 0.0236755, -0.0228508, 0.962543, -0.270165],
  "ImageOrientationText": "Tra>Cor(-15.6)>Sag(1.8)",
  "ImageType": [
    "ORIGINAL",
    "PRIMARY",
    "P",
    "MB",
    "ND",
    "MOSAIC",
    "PHASE"
],
  "ImagingFrequency": 123.26,
  "InPlanePhaseEncodingDirectionDICOM": "COL",
  "InstitutionAddress": "Chemin Queen-Mary 4565,Montreal,District,CA,H3W 1W5",
  "InstitutionName": "IUGM",
  "InstitutionalDepartmentName": "Department",
  "MRAcquisitionType": "2D",
  "MagneticFieldStrength": 3,
  "Manufacturer": "Siemens",
  "ManufacturersModelName": "Prisma_fit",
  "MatrixCoilMode": "SENSE",
  "Modality": "MR",
  "MultibandAccelerationFactor": 4,
  "PartialFourier": 1,
  "PatientPosition": "HFS",
  "PercentPhaseFOV": 100,
  "PercentSampling": 100,
  "PhaseEncodingDirection": "j",
  "PhaseEncodingSteps": 104,
  "PhaseResolution": 1,
  "PixelBandwidth": 2290,
  "ProcedureStepDescription": "games^mario3",
  "ProtocolName": "func_task-mario3_run-05",
  "PulseSequenceDetails": "%CustomerSeq%\\cmrr_mbep2d_bold",
  "ReceiveCoilActiveElements": "HC1-7;NC1,2",
  "ReceiveCoilName": "HeadNeck_64",
  "ReconMatrixPE": 104,
  "RepetitionTime": 1.49,
  "SAR": 0.0458441,
  "ScanOptions": "FS",
  "ScanningSequence": "EP",
  "SequenceName": "epfid2d1_104",
  "SequenceVariant": "SK\\SS",
  "SeriesDescription": "func_task-mario3_run-05",
  "SeriesNumber": 23,
  "ShimSetting": [627, -7201, -8753, 691, 75, 50, 40, -19],
  "SliceThickness": 2,
  "SliceTiming": [0, 0.7825, 0.0975, 0.88, 0.195, 0.98, 0.2925, 1.0775, 0.39, 1.175, 0.49, 1.2725, 0.5875, 1.37, 0.685, 0, 0.7825, 0.0975, 0.88, 0.195, 0.98, 0.2925, 1.0775, 0.39, 1.175, 0.49, 1.2725, 0.5875, 1.37, 0.685, 0, 0.7825, 0.0975, 0.88, 0.195, 0.98, 0.2925, 1.0775, 0.39, 1.175, 0.49, 1.2725, 0.5875, 1.37, 0.685, 0, 0.7825, 0.0975, 0.88, 0.195, 0.98, 0.2925, 1.0775, 0.39, 1.175, 0.49, 1.2725, 0.5875, 1.37, 0.685],
  "SoftwareVersions": "syngo MR E11",
  "SpacingBetweenSlices": 2,
  "StationName": "MRC35049",
  "TaskName": "mario3",
  "TotalReadoutTime": 0.0576811,
  "TxRefAmp": 212.617,
  "WipMemBlock": "960348bf-9a1b-4384-987b-92c9a91076af||Sequence: R017 ve11c/master r/75a17815+; Jun 28 2022 16:32:11 by eja",
  "dcmmeta_affine": [
    [-1.9985166788101196, -0.04570164903998375, 0.061985865235328674, 109.50057220458984],
    [-0.06073527783155441, 1.9250859022140503, -0.5388465523719788, -69.95941162109375],
    [0.04735096916556358, 0.5403293371200562, 1.9250459671020508, -55.88344955444336],
    [0.0, 0.0, 0.0, 1.0]
],
  "dcmmeta_reorient_transform": [
    [0.0, -1.0, 0.0, 103.0],
    [1.0, 0.0, 0.0, 0.0],
    [0.0, 0.0, 1.0, 0.0],
    [0.0, 0.0, 0.0, 1.0]
],
  "dcmmeta_shape": [104, 104, 60, 321],
  "dcmmeta_slice_dim": 2,
  "dcmmeta_version": 0.6,
  "global": {
    "const": {
      "AcquisitionMatrix": [104, 0, 0, 104],
      "AngioFlag": "N",
      "BitsAllocated": 16,
      "BitsStored": 16,
      "BodyPartExamined": "BRAIN",
      "Columns": 832,
      "EchoNumbers": 1,
      "EchoTime": 37.0,
      "EchoTrainLength": 104,
      "FlipAngle": 52.0,
      "HighBit": 15,
      "ImageOrientationPatient": [0.99925836395945, 0.030367639462, 0.02367548374564, -0.0228508248174, 0.96254293311826, -0.2701646566619],
      "ImagePositionPatient": [-815.61798814501, -851.16333153997, 179.21458718801],
      "ImageType": [
        "ORIGINAL",
        "PRIMARY",
        "P",
        "MB",
        "ND",
        "MOSAIC"
],
      "ImagedNucleus": "1H",
      "ImagingFrequency": 123.260412,
      "InPlanePhaseEncodingDirection": "COL",
      "LargestImagePixelValue": 4095,
      "MRAcquisitionType": "2D",
      "MagneticFieldStrength": 3.0,
      "Manufacturer": "SIEMENS",
      "ManufacturerModelName": "Prisma_fit",
      "Modality": "MR",
      "NumberOfAverages": 1.0,
      "NumberOfPhaseEncodingSteps": 104,
      "PercentPhaseFieldOfView": 100.0,
      "PercentSampling": 100.0,
      "PerformedProcedureStepStartTime": "115807.186000",
      "PhotometricInterpretation": "MONOCHROME2",
      "PixelBandwidth": 2290.0,
      "PixelRepresentation": 0,
      "PixelSpacing": [2.0, 2.0],
      "ProtocolName": "func_task-mario3_run-05",
      "RepetitionTime": 1490.0,
      "RescaleIntercept": -4096.0,
      "RescaleSlope": 2.0,
      "RescaleType": "US",
      "Rows": 832,
      "SAR": 0.04584407411812,
      "SamplesPerPixel": 1,
      "ScanOptions": "FS",
      "ScanningSequence": "EP",
      "SequenceName": "epfid2d1_104",
      "SequenceVariant": [
        "SK",
        "SS"
],
      "SeriesDescription": "func_task-mario3_run-05",
      "SeriesNumber": 23,
      "SeriesTime": "141314.776000",
      "SliceLocation": -31.546668105929,
      "SliceThickness": 2.0,
      "SmallestImagePixelValue": 0,
      "SoftwareVersions": "syngo MR E11",
      "SpacingBetweenSlices": 2.0000000145847,
      "SpecificCharacterSet": "ISO_IR 100",
      "StudyID": "1",
      "StudyTime": "115807.019000",
      "TransmitCoilName": "Body",
      "VariableFlipAngleFlag": "N",
      "WindowCenterWidthExplanation": "Algo1",
      "dBdt": 0.0},
    "slices": {}
  },
  "time": {
    "samples": {
      "AcquisitionNumber": [1, 2, 3, 4, 5, 6, 7, 8, 9, 10, 11, 12, 13, 14, 15, 16, 17, 18, 19, 20, 21, 22, 23, 24, 25, 26, 27, 28, 29, 30, 31, 32, 33, 34, 35, 36, 37, 38, 39, 40, 41, 42, 43, 44, 45, 46, 47, 48, 49, 50, 51, 52, 53, 54, 55, 56, 57, 58, 59, 60, 61, 62, 63, 64, 65, 66, 67, 68, 69, 70, 71, 72, 73, 74, 75, 76, 77, 78, 79, 80, 81, 82, 83, 84, 85, 86, 87, 88, 89, 90, 91, 92, 93, 94, 95, 96, 97, 98, 99, 100, 101, 102, 103, 104, 105, 106, 107, 108, 109, 110, 111, 112, 113, 114, 115, 116, 117, 118, 119, 120, 121, 122, 123, 124, 125, 126, 127, 128, 129, 130, 131, 132, 133, 134, 135, 136, 137, 138, 139, 140, 141, 142, 143, 144, 145, 146, 147, 148, 149, 150, 151, 152, 153, 154, 155, 156, 157, 158, 159, 160, 161, 162, 163, 164, 165, 166, 167, 168, 169, 170, 171, 172, 173, 174, 175, 176, 177, 178, 179, 180, 181, 182, 183, 184, 185, 186, 187, 188, 189, 190, 191, 192, 193, 194, 195, 196, 197, 198, 199, 200, 201, 202, 203, 204, 205, 206, 207, 208, 209, 210, 211, 212, 213, 214, 215, 216, 217, 218, 219, 220, 221, 222, 223, 224, 225, 226, 227, 228, 229, 230, 231, 232, 233, 234, 235, 236, 237, 238, 239, 240, 241, 242, 243, 244, 245, 246, 247, 248, 249, 250, 251, 252, 253, 254, 255, 256, 257, 258, 259, 260, 261, 262, 263, 264, 265, 266, 267, 268, 269, 270, 271, 272, 273, 274, 275, 276, 277, 278, 279, 280, 281, 282, 283, 284, 285, 286, 287, 288, 289, 290, 291, 292, 293, 294, 295, 296, 297, 298, 299, 300, 301, 302, 303, 304, 305, 306, 307, 308, 309, 310, 311, 312, 313, 314, 315, 316, 317, 318, 319, 320, 321],
      "AcquisitionTime": ["141157.467500", "141158.957500", "141200.447500", "141201.937500", "141203.427500", "141204.917500", "141206.407500", "141207.897500", "141209.387500", "141210.877500", "141212.367500", "141213.857500", "141215.347500", "141216.837500", "141218.327500", "141219.817500", "141221.307500", "141222.797500", "141224.287500", "141225.777500", "141227.267500", "141228.757500", "141230.247500", "141231.737500", "141233.227500", "141234.717500", "141236.207500", "141237.697500", "141239.187500", "141240.677500", "141242.167500", "141243.657500", "141245.147500", "141246.637500", "141248.127500", "141249.617500", "141251.107500", "141252.597500", "141254.087500", "141255.577500", "141257.067500", "141258.557500", "141300.047500", "141301.537500", "141303.027500", "141304.517500", "141306.007500", "141307.497500", "141308.987500", "141310.477500", "141311.967500", "141313.457500", "141314.947500", "141316.437500", "141317.927500", "141319.417500", "141320.907500", "141322.397500", "141323.887500", "141325.377500", "141326.867500", "141328.357500", "141329.847500", "141331.337500", "141332.827500", "141334.317500", "141335.807500", "141337.297500", "141338.787500", "141340.277500", "141341.767500", "141343.257500", "141344.747500", "141346.237500", "141347.727500", "141349.217500", "141350.707500", "141352.197500", "141353.687500", "141355.177500", "141356.667500", "141358.157500", "141359.647500", "141401.137500", "141402.627500", "141404.117500", "141405.607500", "141407.097500", "141408.587500", "141410.077500", "141411.567500", "141413.057500", "141414.547500", "141416.037500", "141417.527500", "141419.017500", "141420.507500", "141421.997500", "141423.487500", "141424.977500", "141426.467500", "141427.957500", "141429.447500", "141430.937500", "141432.427500", "141433.917500", "141435.407500", "141436.897500", "141438.387500", "141439.877500", "141441.367500", "141442.857500", "141444.347500", "141445.837500", "141447.327500", "141448.817500", "141450.307500", "141451.797500", "141453.287500", "141454.777500", "141456.267500", "141457.757500", "141459.247500", "141500.737500", "141502.227500", "141503.717500", "141505.207500", "141506.697500", "141508.187500", "141509.677500", "141511.167500", "141512.657500", "141514.147500", "141515.637500", "141517.127500", "141518.617500", "141520.107500", "141521.597500", "141523.087500", "141524.577500", "141526.067500", "141527.557500", "141529.047500", "141530.537500", "141532.027500", "141533.517500", "141535.007500", "141536.497500", "141537.987500", "141539.477500", "141540.967500", "141542.457500", "141543.947500", "141545.437500", "141546.927500", "141548.417500", "141549.907500", "141551.397500", "141552.887500", "141554.377500", "141555.867500", "141557.357500", "141558.847500", "141600.337500", "141601.827500", "141603.317500", "141604.807500", "141606.297500", "141607.787500", "141609.277500", "141610.767500", "141612.257500", "141613.747500", "141615.237500", "141616.727500", "141618.217500", "141619.707500", "141621.197500", "141622.687500", "141624.177500", "141625.667500", "141627.157500", "141628.647500", "141630.137500", "141631.627500", "141633.117500", "141634.607500", "141636.097500", "141637.587500", "141639.077500", "141640.567500", "141642.057500", "141643.547500", "141645.037500", "141646.527500", "141648.017500", "141649.507500", "141650.997500", "141652.487500", "141653.977500", "141655.467500", "141656.957500", "141658.447500", "141659.937500", "141701.427500", "141702.917500", "141704.407500", "141705.897500", "141707.387500", "141708.877500", "141710.367500", "141711.857500", "141713.347500", "141714.837500", "141716.327500", "141717.817500", "141719.307500", "141720.797500", "141722.287500", "141723.777500", "141725.267500", "141726.757500", "141728.247500", "141729.737500", "141731.227500", "141732.717500", "141734.207500", "141735.697500", "141737.187500", "141738.677500", "141740.167500", "141741.657500", "141743.147500", "141744.637500", "141746.127500", "141747.617500", "141749.107500", "141750.597500", "141752.087500", "141753.577500", "141755.067500", "141756.557500", "141758.047500", "141759.537500", "141801.027500", "141802.517500", "141804.007500", "141805.497500", "141806.987500", "141808.477500", "141809.967500", "141811.457500", "141812.947500", "141814.437500", "141815.927500", "141817.417500", "141818.907500", "141820.397500", "141821.887500", "141823.377500", "141824.867500", "141826.357500", "141827.847500", "141829.337500", "141830.827500", "141832.317500", "141833.807500", "141835.297500", "141836.787500", "141838.277500", "141839.767500", "141841.257500", "141842.747500", "141844.237500", "141845.727500", "141847.217500", "141848.707500", "141850.197500", "141851.687500", "141853.177500", "141854.667500", "141856.157500", "141857.647500", "141859.137500", "141900.627500", "141902.117500", "141903.607500", "141905.097500", "141906.587500", "141908.077500", "141909.567500", "141911.057500", "141912.547500", "141914.037500", "141915.527500", "141917.017500", "141918.507500", "141919.997500", "141921.487500", "141922.977500", "141924.467500", "141925.957500", "141927.447500", "141928.937500", "141930.427500", "141931.917500", "141933.407500", "141934.897500", "141936.387500", "141937.877500", "141939.367500", "141940.857500", "141942.347500", "141943.837500", "141945.327500", "141946.817500", "141948.307500", "141949.797500", "141951.287500", "141952.777500", "141954.267500"],
      "ContentTime": ["141314.778000", "141314.781000", "141314.783000", "141314.786000", "141314.788000", "141314.790000", "141314.793000", "141314.796000", "141314.798000", "141314.800000", "141314.803000", "141314.805000", "141314.808000", "141314.810000", "141314.813000", "141314.815000", "141314.818000", "141314.820000", "141314.823000", "141314.825000", "141314.828000", "141314.830000", "141314.832000", "141314.835000", "141314.837000", "141314.840000", "141314.842000", "141314.845000", "141334.701000", "141334.704000", "141334.707000", "141334.709000", "141334.712000", "141334.714000", "141334.716000", "141334.719000", "141334.721000", "141334.724000", "141334.726000", "141334.729000", "141334.731000", "141334.734000", "141334.736000", "141334.739000", "141334.741000", "141334.744000", "141334.746000", "141334.749000", "141354.690000", "141354.698000", "141354.700000", "141354.703000", "141354.705000", "141354.708000", "141354.710000", "141354.713000", "141354.715000", "141354.718000", "141354.720000", "141354.722000", "141354.725000", "141354.727000", "141354.730000", "141354.732000", "141354.735000", "141354.738000", "141354.741000", "141354.743000", "141414.706000", "141414.709000", "141414.711000", "141414.714000", "141414.716000", "141414.733000", "141414.735000", "141414.738000", "141414.740000", "141414.742000", "141414.745000", "141414.747000", "141414.750000", "141414.752000", "141414.755000", "141414.757000", "141414.760000", "141414.762000", "141414.765000", "141414.767000", "141454.741000", "141454.743000", "141454.746000", "141454.748000", "141454.751000", "141454.753000", "141454.756000", "141454.758000", "141454.761000", "141454.763000", "141454.766000", "141454.768000", "141454.772000", "141454.775000", "141454.777000", "141454.780000", "141454.782000", "141454.785000", "141454.787000", "141454.790000", "141454.792000", "141454.795000", "141454.797000", "141454.800000", "141454.802000", "141454.805000", "141454.807000", "141454.810000", "141454.812000", "141454.815000", "141534.720000", "141534.723000", "141534.725000", "141534.728000", "141534.730000", "141534.733000", "141534.735000", "141534.738000", "141534.740000", "141534.743000", "141534.745000", "141534.748000", "141534.750000", "141534.753000", "141534.755000", "141534.764000", "141534.767000", "141534.810000", "141534.813000", "141534.815000", "141534.818000", "141534.820000", "141534.823000", "141534.825000", "141534.828000", "141534.830000", "141534.833000", "141614.729000", "141614.731000", "141614.734000", "141614.736000", "141614.739000", "141614.741000", "141614.744000", "141614.746000", "141614.749000", "141614.751000", "141614.754000", "141614.756000", "141614.759000", "141614.761000", "141614.764000", "141614.766000", "141614.769000", "141614.771000", "141614.774000", "141614.776000", "141614.779000", "141614.781000", "141614.784000", "141614.786000", "141614.789000", "141614.791000", "141614.794000", "141654.744000", "141654.747000", "141654.749000", "141654.752000", "141654.754000", "141654.757000", "141654.759000", "141654.762000", "141654.764000", "141654.767000", "141654.769000", "141654.772000", "141654.774000", "141654.777000", "141654.779000", "141654.782000", "141654.784000", "141654.787000", "141654.789000", "141654.792000", "141654.794000", "141654.797000", "141654.799000", "141654.802000", "141654.804000", "141654.807000", "141654.809000", "141734.749000", "141734.752000", "141734.754000", "141734.757000", "141734.759000", "141734.762000", "141734.764000", "141734.767000", "141734.770000", "141734.772000", "141734.775000", "141734.777000", "141734.780000", "141734.782000", "141734.785000", "141734.787000", "141734.790000", "141734.792000", "141734.795000", "141734.797000", "141734.800000", "141734.802000", "141734.805000", "141734.807000", "141734.810000", "141734.812000", "141734.815000", "141814.723000", "141814.726000", "141814.728000", "141814.731000", "141814.733000", "141814.736000", "141814.738000", "141814.741000", "141814.743000", "141814.746000", "141814.748000", "141814.751000", "141814.753000", "141814.756000", "141814.758000", "141814.761000", "141814.763000", "141814.766000", "141814.780000", "141814.782000", "141814.785000", "141814.787000", "141814.789000", "141814.792000", "141814.794000", "141814.797000", "141854.732000", "141854.735000", "141854.737000", "141854.740000", "141854.742000", "141854.745000", "141854.747000", "141854.750000", "141854.752000", "141854.755000", "141854.757000", "141854.768000", "141854.782000", "141854.785000", "141854.787000", "141854.790000", "141854.793000", "141854.796000", "141854.800000", "141854.804000", "141854.807000", "141854.810000", "141854.822000", "141854.825000", "141854.828000", "141854.830000", "141854.833000", "141934.734000", "141934.736000", "141934.739000", "141934.741000", "141934.744000", "141934.746000", "141934.749000", "141934.751000", "141934.754000", "141934.757000", "141934.759000", "141934.762000", "141934.764000", "141934.767000", "141934.798000", "141934.801000", "141934.803000", "141934.806000", "141934.809000", "141934.811000", "141934.814000", "141934.816000", "141934.819000", "141934.821000", "141934.824000", "141934.826000", "141934.829000", "141956.387000", "141956.390000", "141956.392000", "141956.395000", "141956.397000", "141956.399000", "141956.402000", "141956.404000", "141956.407000", "141956.409000", "141956.412000", "141956.414000", "141956.417000", "141956.419000", "141956.422000"],
      "InstanceCreationTime": ["141314.778000", "141314.781000", "141314.783000", "141314.786000", "141314.788000", "141314.790000", "141314.793000", "141314.796000", "141314.798000", "141314.800000", "141314.803000", "141314.805000", "141314.808000", "141314.810000", "141314.813000", "141314.815000", "141314.818000", "141314.820000", "141314.823000", "141314.825000", "141314.828000", "141314.830000", "141314.832000", "141314.835000", "141314.837000", "141314.840000", "141314.842000", "141314.845000", "141334.701000", "141334.704000", "141334.707000", "141334.709000", "141334.712000", "141334.714000", "141334.716000", "141334.719000", "141334.721000", "141334.724000", "141334.726000", "141334.729000", "141334.731000", "141334.734000", "141334.736000", "141334.739000", "141334.741000", "141334.744000", "141334.746000", "141334.749000", "141354.690000", "141354.698000", "141354.700000", "141354.703000", "141354.705000", "141354.708000", "141354.710000", "141354.713000", "141354.715000", "141354.718000", "141354.720000", "141354.722000", "141354.725000", "141354.727000", "141354.730000", "141354.732000", "141354.735000", "141354.738000", "141354.741000", "141354.743000", "141414.706000", "141414.709000", "141414.711000", "141414.714000", "141414.716000", "141414.733000", "141414.735000", "141414.738000", "141414.740000", "141414.742000", "141414.745000", "141414.747000", "141414.750000", "141414.752000", "141414.755000", "141414.757000", "141414.760000", "141414.762000", "141414.765000", "141414.767000", "141454.741000", "141454.743000", "141454.746000", "141454.748000", "141454.751000", "141454.753000", "141454.756000", "141454.758000", "141454.761000", "141454.763000", "141454.766000", "141454.768000", "141454.772000", "141454.775000", "141454.777000", "141454.780000", "141454.782000", "141454.785000", "141454.787000", "141454.790000", "141454.792000", "141454.795000", "141454.797000", "141454.800000", "141454.802000", "141454.805000", "141454.807000", "141454.810000", "141454.812000", "141454.815000", "141534.720000", "141534.723000", "141534.725000", "141534.728000", "141534.730000", "141534.733000", "141534.735000", "141534.738000", "141534.740000", "141534.743000", "141534.745000", "141534.748000", "141534.750000", "141534.753000", "141534.755000", "141534.764000", "141534.767000", "141534.810000", "141534.813000", "141534.815000", "141534.818000", "141534.820000", "141534.823000", "141534.825000", "141534.828000", "141534.830000", "141534.833000", "141614.729000", "141614.731000", "141614.734000", "141614.736000", "141614.739000", "141614.741000", "141614.744000", "141614.746000", "141614.749000", "141614.751000", "141614.754000", "141614.756000", "141614.759000", "141614.761000", "141614.764000", "141614.766000", "141614.769000", "141614.771000", "141614.774000", "141614.776000", "141614.779000", "141614.781000", "141614.784000", "141614.786000", "141614.789000", "141614.791000", "141614.794000", "141654.744000", "141654.747000", "141654.749000", "141654.752000", "141654.754000", "141654.757000", "141654.759000", "141654.762000", "141654.764000", "141654.767000", "141654.769000", "141654.772000", "141654.774000", "141654.777000", "141654.779000", "141654.782000", "141654.784000", "141654.787000", "141654.789000", "141654.792000", "141654.794000", "141654.797000", "141654.799000", "141654.802000", "141654.804000", "141654.807000", "141654.809000", "141734.749000", "141734.752000", "141734.754000", "141734.757000", "141734.759000", "141734.762000", "141734.764000", "141734.767000", "141734.770000", "141734.772000", "141734.775000", "141734.777000", "141734.780000", "141734.782000", "141734.785000", "141734.787000", "141734.790000", "141734.792000", "141734.795000", "141734.797000", "141734.800000", "141734.802000", "141734.805000", "141734.807000", "141734.810000", "141734.812000", "141734.815000", "141814.723000", "141814.726000", "141814.728000", "141814.731000", "141814.733000", "141814.736000", "141814.738000", "141814.741000", "141814.743000", "141814.746000", "141814.748000", "141814.751000", "141814.753000", "141814.756000", "141814.758000", "141814.761000", "141814.763000", "141814.766000", "141814.780000", "141814.782000", "141814.785000", "141814.787000", "141814.789000", "141814.792000", "141814.794000", "141814.797000", "141854.732000", "141854.735000", "141854.737000", "141854.740000", "141854.742000", "141854.745000", "141854.747000", "141854.750000", "141854.752000", "141854.755000", "141854.757000", "141854.768000", "141854.782000", "141854.785000", "141854.787000", "141854.790000", "141854.793000", "141854.796000", "141854.800000", "141854.804000", "141854.807000", "141854.810000", "141854.822000", "141854.825000", "141854.828000", "141854.830000", "141854.833000", "141934.734000", "141934.736000", "141934.739000", "141934.741000", "141934.744000", "141934.746000", "141934.749000", "141934.751000", "141934.754000", "141934.757000", "141934.759000", "141934.762000", "141934.764000", "141934.767000", "141934.798000", "141934.801000", "141934.803000", "141934.806000", "141934.809000", "141934.811000", "141934.814000", "141934.816000", "141934.819000", "141934.821000", "141934.824000", "141934.826000", "141934.829000", "141956.387000", "141956.390000", "141956.392000", "141956.395000", "141956.397000", "141956.399000", "141956.402000", "141956.404000", "141956.407000", "141956.409000", "141956.412000", "141956.414000", "141956.417000", "141956.419000", "141956.422000"],
      "InstanceNumber": [1, 2, 3, 4, 5, 6, 7, 8, 9, 10, 11, 12, 13, 14, 15, 16, 17, 18, 19, 20, 21, 22, 23, 24, 25, 26, 27, 28, 29, 30, 31, 32, 33, 34, 35, 36, 37, 38, 39, 40, 41, 42, 43, 44, 45, 46, 47, 48, 49, 50, 51, 52, 53, 54, 55, 56, 57, 58, 59, 60, 61, 62, 63, 64, 65, 66, 67, 68, 69, 70, 71, 72, 73, 74, 75, 76, 77, 78, 79, 80, 81, 82, 83, 84, 85, 86, 87, 88, 89, 90, 91, 92, 93, 94, 95, 96, 97, 98, 99, 100, 101, 102, 103, 104, 105, 106, 107, 108, 109, 110, 111, 112, 113, 114, 115, 116, 117, 118, 119, 120, 121, 122, 123, 124, 125, 126, 127, 128, 129, 130, 131, 132, 133, 134, 135, 136, 137, 138, 139, 140, 141, 142, 143, 144, 145, 146, 147, 148, 149, 150, 151, 152, 153, 154, 155, 156, 157, 158, 159, 160, 161, 162, 163, 164, 165, 166, 167, 168, 169, 170, 171, 172, 173, 174, 175, 176, 177, 178, 179, 180, 181, 182, 183, 184, 185, 186, 187, 188, 189, 190, 191, 192, 193, 194, 195, 196, 197, 198, 199, 200, 201, 202, 203, 204, 205, 206, 207, 208, 209, 210, 211, 212, 213, 214, 215, 216, 217, 218, 219, 220, 221, 222, 223, 224, 225, 226, 227, 228, 229, 230, 231, 232, 233, 234, 235, 236, 237, 238, 239, 240, 241, 242, 243, 244, 245, 246, 247, 248, 249, 250, 251, 252, 253, 254, 255, 256, 257, 258, 259, 260, 261, 262, 263, 264, 265, 266, 267, 268, 269, 270, 271, 272, 273, 274, 275, 276, 277, 278, 279, 280, 281, 282, 283, 284, 285, 286, 287, 288, 289, 290, 291, 292, 293, 294, 295, 296, 297, 298, 299, 300, 301, 302, 303, 304, 305, 306, 307, 308, 309, 310, 311, 312, 313, 314, 315, 316, 317, 318, 319, 320, 321],
      "WindowCenter": [4772.0, 4770.0, 4772.0, 4770.0, 4770.0, 4774.0, 4774.0, 4772.0, 4776.0, 4776.0, 4774.0, 4766.0, 4774.0, 4768.0, 4772.0, 4774.0, 4750.0, 4744.0, 4750.0, 4746.0, 4744.0, 4772.0, 4746.0, 4770.0, 4770.0, 4770.0, 4748.0, 4770.0, 4772.0, 4748.0, 4774.0, 4770.0, 4772.0, 4770.0, 4768.0, 4772.0, 4748.0, 4774.0, 4746.0, 4768.0, 4750.0, 4774.0, 4770.0, 4770.0, 4772.0, 4772.0, 4770.0, 4776.0, 4776.0, 4776.0, 4776.0, 4772.0, 4772.0, 4772.0, 4770.0, 4744.0, 4772.0, 4770.0, 4774.0, 4774.0, 4766.0, 4772.0, 4770.0, 4772.0, 4772.0, 4774.0, 4774.0, 4770.0, 4774.0, 4774.0, 4772.0, 4770.0, 4770.0, 4770.0, 4770.0, 4770.0, 4776.0, 4772.0, 4774.0, 4774.0, 4778.0, 4774.0, 4776.0, 4750.0, 4774.0, 4770.0, 4774.0, 4778.0, 4770.0, 4772.0, 4774.0, 4776.0, 4752.0, 4776.0, 4778.0, 4774.0, 4772.0, 4772.0, 4766.0, 4770.0, 4772.0, 4770.0, 4772.0, 4772.0, 4772.0, 4770.0, 4776.0, 4774.0, 4774.0, 4768.0, 4772.0, 4772.0, 4748.0, 4748.0, 4772.0, 4772.0, 4772.0, 4774.0, 4778.0, 4778.0, 4774.0, 4774.0, 4772.0, 4770.0, 4772.0, 4768.0, 4772.0, 4770.0, 4772.0, 4772.0, 4774.0, 4774.0, 4774.0, 4772.0, 4774.0, 4772.0, 4772.0, 4772.0, 4770.0, 4772.0, 4770.0, 4774.0, 4770.0, 4748.0, 4772.0, 4772.0, 4774.0, 4774.0, 4772.0, 4772.0, 4774.0, 4772.0, 4796.0, 4772.0, 4774.0, 4776.0, 4778.0, 4778.0, 4774.0, 4774.0, 4772.0, 4776.0, 4774.0, 4772.0, 4776.0, 4772.0, 4776.0, 4774.0, 4778.0, 4774.0, 4776.0, 4772.0, 4774.0, 4774.0, 4776.0, 4768.0, 4774.0, 4774.0, 4750.0, 4774.0, 4754.0, 4774.0, 4774.0, 4774.0, 4768.0, 4768.0, 4768.0, 4774.0, 4772.0, 4770.0, 4750.0, 4770.0, 4776.0, 4778.0, 4774.0, 4774.0, 4772.0, 4776.0, 4770.0, 4772.0, 4772.0, 4750.0, 4776.0, 4774.0, 4774.0, 4774.0, 4772.0, 4768.0, 4770.0, 4772.0, 4772.0, 4778.0, 4774.0, 4776.0, 4776.0, 4776.0, 4776.0, 4778.0, 4776.0, 4776.0, 4776.0, 4774.0, 4774.0, 4772.0, 4776.0, 4772.0, 4774.0, 4776.0, 4778.0, 4774.0, 4772.0, 4748.0, 4772.0, 4772.0, 4774.0, 4772.0, 4776.0, 4774.0, 4776.0, 4772.0, 4774.0, 4776.0, 4774.0, 4774.0, 4776.0, 4778.0, 4772.0, 4772.0, 4776.0, 4778.0, 4778.0, 4778.0, 4774.0, 4770.0, 4770.0, 4774.0, 4774.0, 4776.0, 4768.0, 4770.0, 4776.0, 4780.0, 4780.0, 4778.0, 4778.0, 4774.0, 4776.0, 4774.0, 4772.0, 4772.0, 4774.0, 4774.0, 4776.0, 4778.0, 4778.0, 4776.0, 4774.0, 4774.0, 4772.0, 4772.0, 4774.0, 4774.0, 4776.0, 4774.0, 4776.0, 4774.0, 4774.0, 4778.0, 4772.0, 4772.0, 4770.0, 4770.0, 4772.0, 4772.0, 4776.0, 4774.0, 4778.0, 4772.0, 4770.0, 4776.0, 4776.0, 4774.0, 4772.0, 4774.0, 4774.0, 4774.0, 4772.0, 4772.0, 4776.0, 4774.0, 4780.0, 4780.0, 4776.0, 4770.0, 4774.0, 4772.0, 4776.0, 4800.0, 4772.0, 4772.0, 4774.0],
