{
  "AcquisitionMatrixPE": 104,
  "AcquisitionNumber": 1,
  "AcquisitionTime": "14:21:38.095000",
  "BandwidthPerPixelPhaseEncode": 17.17,
  "BaseResolution": 104,
  "BodyPartExamined": "BRAIN",
  "CoilCombinationMethod": "Sum of Squares",
  "ConsistencyInfo": "N4_VE11C_LATEST_20160120",
  "ConversionSoftware": "dcm2niix",
  "ConversionSoftwareVersion": "v1.0.20220505",
  "DerivedVendorReportedEchoSpacing": 0.000560011,
  "DeviceSerialNumber": "167006",
  "DwellTime": 2.1e-06,
  "EchoTime": 0.037,
  "EchoTrainLength": 104,
  "EffectiveEchoSpacing": 0.000560011,
  "FlipAngle": 52,
  "HeudiconvVersion": "0.5.3.post811+g6206e14",
  "ImageComments": "Unaliased MB4/PE3/LB",
  "ImageOrientationPatientDICOM": [0.999258, 0.0303676, 0.0236755, -0.0228508, 0.962543, -0.270165],
  "ImageOrientationText": "Tra>Cor(-15.6)>Sag(1.8)",
  "ImageType": [
    "ORIGINAL",
    "PRIMARY",
    "M",
    "MB",
    "ND",
    "MOSAIC"
],
  "ImagingFrequency": 123.26,
  "InPlanePhaseEncodingDirectionDICOM": "COL",
  "InstitutionAddress": "Chemin Queen-Mary 4565,Montreal,District,CA,H3W 1W5",
  "InstitutionName": "IUGM",
  "InstitutionalDepartmentName": "Department",
  "MRAcquisitionType": "2D",
  "MagneticFieldStrength": 3,
  "Manufacturer": "Siemens",
  "ManufacturersModelName": "Prisma_fit",
  "MatrixCoilMode": "SENSE",
  "Modality": "MR",
  "MultibandAccelerationFactor": 4,
  "PartialFourier": 1,
  "PatientPosition": "HFS",
  "PercentPhaseFOV": 100,
  "PercentSampling": 100,
  "PhaseEncodingDirection": "j",
  "PhaseEncodingSteps": 104,
  "PhaseResolution": 1,
  "PixelBandwidth": 2290,
  "ProcedureStepDescription": "games^mario3",
  "ProtocolName": "func_task-mario3_run-06",
  "PulseSequenceDetails": "%CustomerSeq%\\cmrr_mbep2d_bold",
  "ReceiveCoilActiveElements": "HC1-7;NC1,2",
  "ReceiveCoilName": "HeadNeck_64",
  "ReconMatrixPE": 104,
  "RepetitionTime": 1.49,
  "SAR": 0.0458441,
  "ScanOptions": "FS",
  "ScanningSequence": "EP",
  "SequenceName": "epfid2d1_104",
  "SequenceVariant": "SK\\SS",
  "SeriesDescription": "func_task-mario3_run-06",
  "SeriesNumber": 25,
  "ShimSetting": [627, -7201, -8753, 691, 75, 50, 40, -19],
  "SliceThickness": 2,
  "SliceTiming": [0, 0.7825, 0.0975, 0.8825, 0.195, 0.98, 0.2925, 1.0775, 0.3925, 1.175, 0.49, 1.2725, 0.5875, 1.3725, 0.685, 0, 0.7825, 0.0975, 0.8825, 0.195, 0.98, 0.2925, 1.0775, 0.3925, 1.175, 0.49, 1.2725, 0.5875, 1.3725, 0.685, 0, 0.7825, 0.0975, 0.8825, 0.195, 0.98, 0.2925, 1.0775, 0.3925, 1.175, 0.49, 1.2725, 0.5875, 1.3725, 0.685, 0, 0.7825, 0.0975, 0.8825, 0.195, 0.98, 0.2925, 1.0775, 0.3925, 1.175, 0.49, 1.2725, 0.5875, 1.3725, 0.685],
  "SoftwareVersions": "syngo MR E11",
  "SpacingBetweenSlices": 2,
  "StationName": "MRC35049",
  "TaskName": "mario3",
  "TotalReadoutTime": 0.0576811,
  "TxRefAmp": 212.617,
  "WipMemBlock": "40d17c6d-1f04-490d-8503-fd06bb6e3ae6||Sequence: R017 ve11c/master r/75a17815+; Jun 28 2022 16:32:11 by eja",
  "dcmmeta_affine": [
    [-1.9985166788101196, -0.04570164903998375, 0.061985865235328674, 109.50057220458984],
    [-0.06073527783155441, 1.9250859022140503, -0.5388465523719788, -69.95941162109375],
    [0.04735096916556358, 0.5403293371200562, 1.9250459671020508, -55.88344955444336],
    [0.0, 0.0, 0.0, 1.0]
],
  "dcmmeta_reorient_transform": [
    [0.0, -1.0, 0.0, 103.0],
    [1.0, 0.0, 0.0, 0.0],
    [0.0, 0.0, 1.0, 0.0],
    [0.0, 0.0, 0.0, 1.0]
],
  "dcmmeta_shape": [104, 104, 60, 466],
  "dcmmeta_slice_dim": 2,
  "dcmmeta_version": 0.6,
  "global": {
    "const": {
      "AcquisitionMatrix": [104, 0, 0, 104],
      "AngioFlag": "N",
      "BitsAllocated": 16,
      "BitsStored": 16,
      "BodyPartExamined": "BRAIN",
      "Columns": 832,
      "EchoNumbers": 1,
      "EchoTime": 37.0,
      "EchoTrainLength": 104,
      "FlipAngle": 52.0,
      "HighBit": 15,
      "ImageOrientationPatient": [0.99925836395945, 0.030367639462, 0.02367548374564, -0.0228508248174, 0.96254293311826, -0.2701646566619],
      "ImagePositionPatient": [-815.61798814501, -851.16333153997, 179.21458718801],
      "ImageType": [
        "ORIGINAL",
        "PRIMARY",
        "M",
        "MB",
        "ND",
        "MOSAIC"
],
      "ImagedNucleus": "1H",
      "ImagingFrequency": 123.260413,
      "InPlanePhaseEncodingDirection": "COL",
      "MRAcquisitionType": "2D",
      "MagneticFieldStrength": 3.0,
      "Manufacturer": "SIEMENS",
      "ManufacturerModelName": "Prisma_fit",
      "Modality": "MR",
      "NumberOfAverages": 1.0,
      "NumberOfPhaseEncodingSteps": 104,
      "PercentPhaseFieldOfView": 100.0,
      "PercentSampling": 100.0,
      "PerformedProcedureStepStartTime": "115807.186000",
      "PhotometricInterpretation": "MONOCHROME2",
      "PixelBandwidth": 2290.0,
      "PixelRepresentation": 0,
      "PixelSpacing": [2.0, 2.0],
      "ProtocolName": "func_task-mario3_run-06",
      "RepetitionTime": 1490.0,
      "Rows": 832,
      "SAR": 0.04584407411812,
      "SamplesPerPixel": 1,
      "ScanOptions": "FS",
      "ScanningSequence": "EP",
      "SequenceName": "epfid2d1_104",
      "SequenceVariant": [
        "SK",
        "SS"
],
      "SeriesDescription": "func_task-mario3_run-06",
      "SeriesNumber": 25,
      "SeriesTime": "142252.502000",
      "SliceLocation": -31.546668105929,
      "SliceThickness": 2.0,
      "SmallestImagePixelValue": 0,
      "SoftwareVersions": "syngo MR E11",
      "SpacingBetweenSlices": 2.0000000145847,
      "SpecificCharacterSet": "ISO_IR 100",
      "StudyID": "1",
      "StudyTime": "115807.019000",
      "TransmitCoilName": "Body",
      "VariableFlipAngleFlag": "N",
      "WindowCenterWidthExplanation": "Algo1",
      "dBdt": 0.0},
    "slices": {}
  },
  "time": {
    "samples": {
      "AcquisitionNumber": [1, 2, 3, 4, 5, 6, 7, 8, 9, 10, 11, 12, 13, 14, 15, 16, 17, 18, 19, 20, 21, 22, 23, 24, 25, 26, 27, 28, 29, 30, 31, 32, 33, 34, 35, 36, 37, 38, 39, 40, 41, 42, 43, 44, 45, 46, 47, 48, 49, 50, 51, 52, 53, 54, 55, 56, 57, 58, 59, 60, 61, 62, 63, 64, 65, 66, 67, 68, 69, 70, 71, 72, 73, 74, 75, 76, 77, 78, 79, 80, 81, 82, 83, 84, 85, 86, 87, 88, 89, 90, 91, 92, 93, 94, 95, 96, 97, 98, 99, 100, 101, 102, 103, 104, 105, 106, 107, 108, 109, 110, 111, 112, 113, 114, 115, 116, 117, 118, 119, 120, 121, 122, 123, 124, 125, 126, 127, 128, 129, 130, 131, 132, 133, 134, 135, 136, 137, 138, 139, 140, 141, 142, 143, 144, 145, 146, 147, 148, 149, 150, 151, 152, 153, 154, 155, 156, 157, 158, 159, 160, 161, 162, 163, 164, 165, 166, 167, 168, 169, 170, 171, 172, 173, 174, 175, 176, 177, 178, 179, 180, 181, 182, 183, 184, 185, 186, 187, 188, 189, 190, 191, 192, 193, 194, 195, 196, 197, 198, 199, 200, 201, 202, 203, 204, 205, 206, 207, 208, 209, 210, 211, 212, 213, 214, 215, 216, 217, 218, 219, 220, 221, 222, 223, 224, 225, 226, 227, 228, 229, 230, 231, 232, 233, 234, 235, 236, 237, 238, 239, 240, 241, 242, 243, 244, 245, 246, 247, 248, 249, 250, 251, 252, 253, 254, 255, 256, 257, 258, 259, 260, 261, 262, 263, 264, 265, 266, 267, 268, 269, 270, 271, 272, 273, 274, 275, 276, 277, 278, 279, 280, 281, 282, 283, 284, 285, 286, 287, 288, 289, 290, 291, 292, 293, 294, 295, 296, 297, 298, 299, 300, 301, 302, 303, 304, 305, 306, 307, 308, 309, 310, 311, 312, 313, 314, 315, 316, 317, 318, 319, 320, 321, 322, 323, 324, 325, 326, 327, 328, 329, 330, 331, 332, 333, 334, 335, 336, 337, 338, 339, 340, 341, 342, 343, 344, 345, 346, 347, 348, 349, 350, 351, 352, 353, 354, 355, 356, 357, 358, 359, 360, 361, 362, 363, 364, 365, 366, 367, 368, 369, 370, 371, 372, 373, 374, 375, 376, 377, 378, 379, 380, 381, 382, 383, 384, 385, 386, 387, 388, 389, 390, 391, 392, 393, 394, 395, 396, 397, 398, 399, 400, 401, 402, 403, 404, 405, 406, 407, 408, 409, 410, 411, 412, 413, 414, 415, 416, 417, 418, 419, 420, 421, 422, 423, 424, 425, 426, 427, 428, 429, 430, 431, 432, 433, 434, 435, 436, 437, 438, 439, 440, 441, 442, 443, 444, 445, 446, 447, 448, 449, 450, 451, 452, 453, 454, 455, 456, 457, 458, 459, 460, 461, 462, 463, 464, 465, 466],
      "AcquisitionTime": ["142138.095000", "142139.585000", "142141.075000", "142142.565000", "142144.055000", "142145.545000", "142147.035000", "142148.525000", "142150.015000", "142151.505000", "142152.995000", "142154.485000", "142155.975000", "142157.465000", "142158.955000", "142200.445000", "142201.935000", "142203.425000", "142204.915000", "142206.405000", "142207.895000", "142209.385000", "142210.875000", "142212.365000", "142213.855000", "142215.345000", "142216.835000", "142218.325000", "142219.815000", "142221.305000", "142222.795000", "142224.285000", "142225.775000", "142227.265000", "142228.755000", "142230.245000", "142231.735000", "142233.225000", "142234.715000", "142236.205000", "142237.695000", "142239.185000", "142240.675000", "142242.165000", "142243.655000", "142245.145000", "142246.635000", "142248.125000", "142249.615000", "142251.105000", "142252.595000", "142254.085000", "142255.575000", "142257.065000", "142258.555000", "142300.045000", "142301.535000", "142303.025000", "142304.515000", "142306.005000", "142307.495000", "142308.985000", "142310.475000", "142311.965000", "142313.455000", "142314.945000", "142316.435000", "142317.925000", "142319.415000", "142320.905000", "142322.395000", "142323.885000", "142325.375000", "142326.865000", "142328.355000", "142329.845000", "142331.335000", "142332.825000", "142334.315000", "142335.805000", "142337.295000", "142338.785000", "142340.275000", "142341.765000", "142343.255000", "142344.745000", "142346.235000", "142347.725000", "142349.215000", "142350.705000", "142352.195000", "142353.685000", "142355.175000", "142356.665000", "142358.155000", "142359.645000", "142401.135000", "142402.625000", "142404.115000", "142405.605000", "142407.095000", "142408.585000", "142410.075000", "142411.565000", "142413.055000", "142414.545000", "142416.035000", "142417.525000", "142419.015000", "142420.505000", "142421.995000", "142423.485000", "142424.975000", "142426.465000", "142427.955000", "142429.445000", "142430.935000", "142432.425000", "142433.915000", "142435.405000", "142436.895000", "142438.385000", "142439.875000", "142441.365000", "142442.855000", "142444.345000", "142445.835000", "142447.325000", "142448.815000", "142450.305000", "142451.795000", "142453.285000", "142454.775000", "142456.265000", "142457.755000", "142459.245000", "142500.735000", "142502.225000", "142503.715000", "142505.205000", "142506.695000", "142508.185000", "142509.675000", "142511.165000", "142512.655000", "142514.145000", "142515.635000", "142517.125000", "142518.615000", "142520.105000", "142521.595000", "142523.085000", "142524.575000", "142526.065000", "142527.555000", "142529.045000", "142530.535000", "142532.025000", "142533.515000", "142535.005000", "142536.495000", "142537.985000", "142539.475000", "142540.965000", "142542.455000", "142543.945000", "142545.435000", "142546.925000", "142548.415000", "142549.905000", "142551.395000", "142552.885000", "142554.375000", "142555.865000", "142557.355000", "142558.845000", "142600.335000", "142601.825000", "142603.315000", "142604.805000", "142606.295000", "142607.785000", "142609.275000", "142610.765000", "142612.255000", "142613.745000", "142615.235000", "142616.725000", "142618.215000", "142619.705000", "142621.195000", "142622.685000", "142624.175000", "142625.665000", "142627.155000", "142628.645000", "142630.135000", "142631.625000", "142633.115000", "142634.605000", "142636.095000", "142637.585000", "142639.075000", "142640.565000", "142642.055000", "142643.545000", "142645.035000", "142646.525000", "142648.015000", "142649.505000", "142650.995000", "142652.485000", "142653.975000", "142655.465000", "142656.955000", "142658.445000", "142659.935000", "142701.425000", "142702.915000", "142704.405000", "142705.895000", "142707.385000", "142708.875000", "142710.365000", "142711.855000", "142713.345000", "142714.835000", "142716.325000", "142717.815000", "142719.305000", "142720.795000", "142722.285000", "142723.775000", "142725.265000", "142726.755000", "142728.245000", "142729.735000", "142731.225000", "142732.715000", "142734.205000", "142735.695000", "142737.185000", "142738.675000", "142740.165000", "142741.655000", "142743.145000", "142744.635000", "142746.125000", "142747.615000", "142749.105000", "142750.595000", "142752.085000", "142753.575000", "142755.065000", "142756.555000", "142758.045000", "142759.535000", "142801.025000", "142802.515000", "142804.005000", "142805.495000", "142806.985000", "142808.475000", "142809.965000", "142811.455000", "142812.945000", "142814.435000", "142815.925000", "142817.415000", "142818.905000", "142820.395000", "142821.885000", "142823.375000", "142824.865000", "142826.355000", "142827.845000", "142829.335000", "142830.825000", "142832.315000", "142833.805000", "142835.295000", "142836.785000", "142838.275000", "142839.765000", "142841.255000", "142842.745000", "142844.235000", "142845.725000", "142847.215000", "142848.705000", "142850.195000", "142851.685000", "142853.175000", "142854.665000", "142856.155000", "142857.645000", "142859.135000", "142900.625000", "142902.115000", "142903.605000", "142905.095000", "142906.585000", "142908.075000", "142909.565000", "142911.055000", "142912.545000", "142914.035000", "142915.525000", "142917.015000", "142918.505000", "142919.995000", "142921.485000", "142922.975000", "142924.465000", "142925.955000", "142927.445000", "142928.935000", "142930.425000", "142931.915000", "142933.405000", "142934.895000", "142936.385000", "142937.875000", "142939.365000", "142940.855000", "142942.345000", "142943.835000", "142945.325000", "142946.815000", "142948.305000", "142949.795000", "142951.285000", "142952.775000", "142954.265000", "142955.755000", "142957.245000", "142958.735000", "143000.225000", "143001.715000", "143003.205000", "143004.695000", "143006.185000", "143007.675000", "143009.165000", "143010.655000", "143012.145000", "143013.635000", "143015.125000", "143016.615000", "143018.105000", "143019.595000", "143021.085000", "143022.575000", "143024.065000", "143025.555000", "143027.045000", "143028.535000", "143030.025000", "143031.515000", "143033.005000", "143034.495000", "143035.985000", "143037.475000", "143038.965000", "143040.455000", "143041.945000", "143043.435000", "143044.925000", "143046.415000", "143047.905000", "143049.395000", "143050.885000", "143052.375000", "143053.865000", "143055.355000", "143056.845000", "143058.335000", "143059.825000", "143101.315000", "143102.805000", "143104.295000", "143105.785000", "143107.275000", "143108.765000", "143110.255000", "143111.745000", "143113.235000", "143114.725000", "143116.215000", "143117.705000", "143119.195000", "143120.685000", "143122.175000", "143123.665000", "143125.155000", "143126.645000", "143128.135000", "143129.625000", "143131.115000", "143132.605000", "143134.095000", "143135.585000", "143137.075000", "143138.565000", "143140.055000", "143141.545000", "143143.035000", "143144.525000", "143146.015000", "143147.505000", "143148.995000", "143150.485000", "143151.975000", "143153.465000", "143154.955000", "143156.445000", "143157.935000", "143159.425000", "143200.915000", "143202.405000", "143203.895000", "143205.385000", "143206.875000", "143208.365000", "143209.855000", "143211.345000", "143212.835000", "143214.325000", "143215.815000", "143217.305000", "143218.795000", "143220.285000", "143221.775000", "143223.265000", "143224.755000", "143226.245000", "143227.735000", "143229.225000", "143230.715000", "143232.205000", "143233.695000", "143235.185000", "143236.675000", "143238.165000", "143239.655000", "143241.145000", "143242.635000", "143244.125000", "143245.615000", "143247.105000", "143248.595000", "143250.085000", "143251.575000", "143253.065000", "143254.555000", "143256.045000", "143257.535000", "143259.025000", "143300.515000", "143302.005000", "143303.495000", "143304.985000", "143306.475000", "143307.965000", "143309.455000", "143310.945000"],
      "ContentTime": ["142252.505000", "142252.509000", "142252.512000", "142252.515000", "142252.518000", "142252.522000", "142252.525000", "142252.528000", "142252.531000", "142252.535000", "142252.538000", "142252.541000", "142252.545000", "142252.548000", "142252.551000", "142252.554000", "142252.558000", "142252.561000", "142252.564000", "142252.567000", "142252.571000", "142252.574000", "142252.577000", "142252.581000", "142252.584000", "142252.587000", "142312.464000", "142312.468000", "142312.471000", "142312.474000", "142312.477000", "142312.481000", "142312.499000", "142312.502000", "142312.506000", "142312.509000", "142312.512000", "142312.519000", "142312.523000", "142312.526000", "142312.529000", "142312.533000", "142312.536000", "142312.539000", "142312.542000", "142312.546000", "142332.465000", "142332.469000", "142332.472000", "142332.475000", "142332.478000", "142332.482000", "142332.485000", "142332.488000", "142332.491000", "142332.495000", "142332.498000", "142332.501000", "142332.505000", "142332.508000", "142332.511000", "142332.514000", "142332.518000", "142332.521000", "142332.524000", "142332.527000", "142352.465000", "142352.469000", "142352.472000", "142352.475000", "142352.479000", "142352.482000", "142352.485000", "142352.488000", "142352.492000", "142352.495000", "142352.498000", "142352.501000", "142352.505000", "142352.508000", "142352.511000", "142352.514000", "142352.518000", "142352.521000", "142352.524000", "142352.527000", "142432.464000", "142432.468000", "142432.471000", "142432.474000", "142432.478000", "142432.481000", "142432.484000", "142432.487000", "142432.491000", "142432.494000", "142432.497000", "142432.501000", "142432.504000", "142432.507000", "142432.511000", "142432.514000", "142432.517000", "142432.521000", "142432.524000", "142432.527000", "142432.530000", "142432.534000", "142432.537000", "142432.540000", "142432.543000", "142432.547000", "142432.550000", "142432.553000", "142432.557000", "142432.560000", "142512.464000", "142512.468000", "142512.471000", "142512.474000", "142512.478000", "142512.481000", "142512.484000", "142512.487000", "142512.491000", "142512.494000", "142512.497000", "142512.500000", "142512.504000", "142512.507000", "142512.510000", "142512.514000", "142512.517000", "142512.520000", "142512.524000", "142512.527000", "142512.530000", "142512.533000", "142512.551000", "142512.555000", "142512.558000", "142512.561000", "142512.564000", "142552.465000", "142552.469000", "142552.472000", "142552.475000", "142552.479000", "142552.482000", "142552.485000", "142552.489000", "142552.492000", "142552.495000", "142552.498000", "142552.502000", "142552.505000", "142552.508000", "142552.512000", "142552.515000", "142552.518000", "142552.522000", "142552.525000", "142552.528000", "142552.532000", "142552.535000", "142552.538000", "142552.541000", "142552.545000", "142552.548000", "142552.551000", "142632.464000", "142632.468000", "142632.471000", "142632.474000", "142632.478000", "142632.481000", "142632.484000", "142632.488000", "142632.491000", "142632.494000", "142632.498000", "142632.501000", "142632.504000", "142632.507000", "142632.511000", "142632.514000", "142632.517000", "142632.520000", "142632.533000", "142632.536000", "142632.539000", "142632.543000", "142632.546000", "142632.549000", "142632.552000", "142632.556000", "142632.559000", "142712.464000", "142712.468000", "142712.471000", "142712.475000", "142712.478000", "142712.481000", "142712.485000", "142712.488000", "142712.491000", "142712.494000", "142712.498000", "142712.501000", "142712.505000", "142712.509000", "142712.512000", "142712.516000", "142712.521000", "142712.525000", "142712.529000", "142712.532000", "142712.535000", "142712.539000", "142712.542000", "142712.545000", "142712.548000", "142712.552000", "142752.465000", "142752.469000", "142752.472000", "142752.475000", "142752.479000", "142752.482000", "142752.485000", "142752.489000", "142752.492000", "142752.495000", "142752.498000", "142752.502000", "142752.505000", "142752.508000", "142752.512000", "142752.515000", "142752.518000", "142752.521000", "142752.525000", "142752.528000", "142752.531000", "142752.535000", "142752.538000", "142752.541000", "142752.544000", "142752.548000", "142752.551000", "142832.465000", "142832.469000", "142832.472000", "142832.475000", "142832.479000", "142832.482000", "142832.485000", "142832.489000", "142832.492000", "142832.495000", "142832.498000", "142832.502000", "142832.505000", "142832.508000", "142832.512000", "142832.515000", "142832.518000", "142832.527000", "142832.531000", "142832.534000", "142832.537000", "142832.541000", "142832.544000", "142832.547000", "142832.550000", "142832.554000", "142832.557000", "142912.464000", "142912.468000", "142912.471000", "142912.475000", "142912.478000", "142912.481000", "142912.484000", "142912.488000", "142912.491000", "142912.494000", "142912.498000", "142912.501000", "142912.504000", "142912.507000", "142912.511000", "142912.514000", "142912.517000", "142912.521000", "142912.524000", "142912.527000", "142912.530000", "142912.534000", "142912.537000", "142912.540000", "142912.544000", "142912.547000", "142912.550000", "142952.464000", "142952.468000", "142952.471000", "142952.475000", "142952.478000", "142952.481000", "142952.484000", "142952.488000", "142952.491000", "142952.494000", "142952.498000", "142952.501000", "142952.504000", "142952.508000", "142952.511000", "142952.526000", "142952.529000", "142952.532000", "142952.536000", "142952.539000", "142952.542000", "142952.545000", "142952.549000", "142952.552000", "142952.555000", "142952.559000", "142952.562000", "143032.465000", "143032.469000", "143032.472000", "143032.475000", "143032.479000", "143032.482000", "143032.485000", "143032.489000", "143032.492000", "143032.495000", "143032.498000", "143032.502000", "143032.505000", "143032.508000", "143032.511000", "143032.515000", "143032.518000", "143032.521000", "143032.525000", "143032.528000", "143032.531000", "143032.534000", "143032.538000", "143032.541000", "143032.544000", "143032.547000", "143032.551000", "143112.464000", "143112.468000", "143112.471000", "143112.474000", "143112.478000", "143112.481000", "143112.484000", "143112.488000", "143112.491000", "143112.494000", "143112.498000", "143112.501000", "143112.504000", "143112.507000", "143112.511000", "143112.514000", "143112.517000", "143112.521000", "143112.524000", "143112.527000", "143112.530000", "143112.534000", "143112.537000", "143112.540000", "143112.544000", "143112.547000", "143112.550000", "143152.464000", "143152.468000", "143152.471000", "143152.474000", "143152.478000", "143152.481000", "143152.484000", "143152.488000", "143152.492000", "143152.495000", "143152.499000", "143152.502000", "143152.505000", "143152.509000", "143152.512000", "143152.515000", "143152.518000", "143152.522000", "143152.525000", "143152.528000", "143152.540000", "143152.544000", "143152.547000", "143152.551000", "143152.554000", "143152.557000", "143232.465000", "143232.469000", "143232.472000", "143232.476000", "143232.479000", "143232.482000", "143232.485000", "143232.489000", "143232.492000", "143232.495000", "143232.499000", "143232.502000", "143232.505000", "143232.508000", "143232.512000", "143232.515000", "143232.518000", "143232.522000", "143232.525000", "143232.528000", "143232.531000", "143232.535000", "143232.538000", "143232.541000", "143232.544000", "143232.548000", "143232.551000", "143312.465000", "143312.469000", "143312.472000", "143312.475000", "143312.479000", "143312.482000", "143312.485000", "143312.489000", "143312.492000", "143312.495000", "143312.498000", "143312.502000", "143312.505000", "143312.508000", "143312.512000", "143312.515000", "143312.518000", "143312.522000", "143312.526000", "143312.529000", "143312.532000", "143312.535000", "143312.539000", "143312.542000", "143312.545000", "143312.549000", "143312.552000", "143313.306000"],
