{
  "AcquisitionMatrixPE": 104,
  "AcquisitionNumber": 1,
  "AcquisitionTime": "13:52:9.700000",
  "BandwidthPerPixelPhaseEncode": 17.17,
  "BaseResolution": 104,
  "BodyPartExamined": "BRAIN",
  "CoilCombinationMethod": "Sum of Squares",
  "ConsistencyInfo": "N4_VE11C_LATEST_20160120",
  "ConversionSoftware": "dcm2niix",
  "ConversionSoftwareVersion": "v1.0.20220505",
  "DerivedVendorReportedEchoSpacing": 0.000560011,
  "DeviceSerialNumber": "167006",
  "DwellTime": 2.1e-06,
  "EchoTime": 0.037,
  "EchoTime1": 0.037,
  "EchoTime2": 0.001,
  "EchoTrainLength": 104,
  "EffectiveEchoSpacing": 0.000560011,
  "FlipAngle": 52,
  "HeudiconvVersion": "0.5.3.post811+g6206e14",
  "ImageComments": "Unaliased MB4/PE3/LB",
  "ImageOrientationPatientDICOM": [0.999258, 0.0303676, 0.0236755, -0.0228508, 0.962543, -0.270165],
  "ImageOrientationText": "Tra>Cor(-15.6)>Sag(1.8)",
  "ImageType": [
    "ORIGINAL",
    "PRIMARY",
    "P",
    "MB",
    "ND",
    "MOSAIC",
    "PHASE"
],
  "ImagingFrequency": 123.26,
  "InPlanePhaseEncodingDirectionDICOM": "COL",
  "InstitutionAddress": "Chemin Queen-Mary 4565,Montreal,District,CA,H3W 1W5",
  "InstitutionName": "IUGM",
  "InstitutionalDepartmentName": "Department",
  "MRAcquisitionType": "2D",
  "MagneticFieldStrength": 3,
  "Manufacturer": "Siemens",
  "ManufacturersModelName": "Prisma_fit",
  "MatrixCoilMode": "SENSE",
  "Modality": "MR",
  "MultibandAccelerationFactor": 4,
  "PartialFourier": 1,
  "PatientPosition": "HFS",
  "PercentPhaseFOV": 100,
  "PercentSampling": 100,
  "PhaseEncodingDirection": "j",
  "PhaseEncodingSteps": 104,
  "PhaseResolution": 1,
  "PixelBandwidth": 2290,
  "ProcedureStepDescription": "games^mario3",
  "ProtocolName": "func_task-mario3_run-03",
  "PulseSequenceDetails": "%CustomerSeq%\\cmrr_mbep2d_bold",
  "ReceiveCoilActiveElements": "HC1-7;NC1,2",
  "ReceiveCoilName": "HeadNeck_64",
  "ReconMatrixPE": 104,
  "RepetitionTime": 1.49,
  "SAR": 0.0458441,
  "ScanOptions": "FS",
  "ScanningSequence": "EP",
  "SequenceName": "epfid2d1_104",
  "SequenceVariant": "SK\\SS",
  "SeriesDescription": "func_task-mario3_run-03",
  "SeriesNumber": 17,
  "ShimSetting": [627, -7201, -8753, 691, 75, 50, 40, -19],
  "SliceThickness": 2,
  "SliceTiming": [0, 0.7825, 0.0975, 0.88, 0.195, 0.98, 0.2925, 1.0775, 0.39, 1.175, 0.49, 1.2725, 0.5875, 1.37, 0.685, 0, 0.7825, 0.0975, 0.88, 0.195, 0.98, 0.2925, 1.0775, 0.39, 1.175, 0.49, 1.2725, 0.5875, 1.37, 0.685, 0, 0.7825, 0.0975, 0.88, 0.195, 0.98, 0.2925, 1.0775, 0.39, 1.175, 0.49, 1.2725, 0.5875, 1.37, 0.685, 0, 0.7825, 0.0975, 0.88, 0.195, 0.98, 0.2925, 1.0775, 0.39, 1.175, 0.49, 1.2725, 0.5875, 1.37, 0.685],
  "SoftwareVersions": "syngo MR E11",
  "SpacingBetweenSlices": 2,
  "StationName": "MRC35049",
  "TaskName": "mario3",
  "TotalReadoutTime": 0.0576811,
  "TxRefAmp": 212.617,
  "WipMemBlock": "ca6f6597-41bb-4406-9bde-133ab6557da6||Sequence: R017 ve11c/master r/75a17815+; Jun 28 2022 16:32:11 by eja",
  "dcmmeta_affine": [
    [-1.9985166788101196, -0.04570164903998375, 0.061985865235328674, 109.50057220458984],
    [-0.06073527783155441, 1.9250859022140503, -0.5388465523719788, -69.95941162109375],
    [0.04735096916556358, 0.5403293371200562, 1.9250459671020508, -55.88344955444336],
    [0.0, 0.0, 0.0, 1.0]
],
  "dcmmeta_reorient_transform": [
    [0.0, -1.0, 0.0, 103.0],
    [1.0, 0.0, 0.0, 0.0],
    [0.0, 0.0, 1.0, 0.0],
    [0.0, 0.0, 0.0, 1.0]
],
  "dcmmeta_shape": [104, 104, 60, 308],
  "dcmmeta_slice_dim": 2,
  "dcmmeta_version": 0.6,
  "global": {
    "const": {
      "AcquisitionMatrix": [104, 0, 0, 104],
      "AngioFlag": "N",
      "BitsAllocated": 16,
      "BitsStored": 16,
      "BodyPartExamined": "BRAIN",
      "Columns": 832,
      "EchoNumbers": 1,
      "EchoTime": 37.0,
      "EchoTrainLength": 104,
      "FlipAngle": 52.0,
      "HighBit": 15,
      "ImageOrientationPatient": [0.99925836395945, 0.030367639462, 0.02367548374564, -0.0228508248174, 0.96254293311826, -0.2701646566619],
      "ImagePositionPatient": [-815.61798814501, -851.16333153997, 179.21458718801],
      "ImageType": [
        "ORIGINAL",
        "PRIMARY",
        "P",
        "MB",
        "ND",
        "MOSAIC"
],
      "ImagedNucleus": "1H",
      "ImagingFrequency": 123.260405,
      "InPlanePhaseEncodingDirection": "COL",
      "LargestImagePixelValue": 4095,
      "MRAcquisitionType": "2D",
      "MagneticFieldStrength": 3.0,
      "Manufacturer": "SIEMENS",
      "ManufacturerModelName": "Prisma_fit",
      "Modality": "MR",
      "NumberOfAverages": 1.0,
      "NumberOfPhaseEncodingSteps": 104,
      "PercentPhaseFieldOfView": 100.0,
      "PercentSampling": 100.0,
      "PerformedProcedureStepStartTime": "115807.186000",
      "PhotometricInterpretation": "MONOCHROME2",
      "PixelBandwidth": 2290.0,
      "PixelRepresentation": 0,
      "PixelSpacing": [2.0, 2.0],
      "ProtocolName": "func_task-mario3_run-03",
      "RepetitionTime": 1490.0,
      "RescaleIntercept": -4096.0,
      "RescaleSlope": 2.0,
      "RescaleType": "US",
      "Rows": 832,
      "SAR": 0.04584407411812,
      "SamplesPerPixel": 1,
      "ScanOptions": "FS",
      "ScanningSequence": "EP",
      "SequenceName": "epfid2d1_104",
      "SequenceVariant": [
        "SK",
        "SS"
],
      "SeriesDescription": "func_task-mario3_run-03",
      "SeriesNumber": 17,
      "SeriesTime": "135333.524000",
      "SliceLocation": -31.546668105929,
      "SliceThickness": 2.0,
      "SmallestImagePixelValue": 0,
      "SoftwareVersions": "syngo MR E11",
      "SpacingBetweenSlices": 2.0000000145847,
      "SpecificCharacterSet": "ISO_IR 100",
      "StudyID": "1",
      "StudyTime": "115807.019000",
      "TransmitCoilName": "Body",
      "VariableFlipAngleFlag": "N",
      "WindowCenterWidthExplanation": "Algo1",
      "dBdt": 0.0},
    "slices": {}
  },
  "time": {
    "samples": {
      "AcquisitionNumber": [1, 2, 3, 4, 5, 6, 7, 8, 9, 10, 11, 12, 13, 14, 15, 16, 17, 18, 19, 20, 21, 22, 23, 24, 25, 26, 27, 28, 29, 30, 31, 32, 33, 34, 35, 36, 37, 38, 39, 40, 41, 42, 43, 44, 45, 46, 47, 48, 49, 50, 51, 52, 53, 54, 55, 56, 57, 58, 59, 60, 61, 62, 63, 64, 65, 66, 67, 68, 69, 70, 71, 72, 73, 74, 75, 76, 77, 78, 79, 80, 81, 82, 83, 84, 85, 86, 87, 88, 89, 90, 91, 92, 93, 94, 95, 96, 97, 98, 99, 100, 101, 102, 103, 104, 105, 106, 107, 108, 109, 110, 111, 112, 113, 114, 115, 116, 117, 118, 119, 120, 121, 122, 123, 124, 125, 126, 127, 128, 129, 130, 131, 132, 133, 134, 135, 136, 137, 138, 139, 140, 141, 142, 143, 144, 145, 146, 147, 148, 149, 150, 151, 152, 153, 154, 155, 156, 157, 158, 159, 160, 161, 162, 163, 164, 165, 166, 167, 168, 169, 170, 171, 172, 173, 174, 175, 176, 177, 178, 179, 180, 181, 182, 183, 184, 185, 186, 187, 188, 189, 190, 191, 192, 193, 194, 195, 196, 197, 198, 199, 200, 201, 202, 203, 204, 205, 206, 207, 208, 209, 210, 211, 212, 213, 214, 215, 216, 217, 218, 219, 220, 221, 222, 223, 224, 225, 226, 227, 228, 229, 230, 231, 232, 233, 234, 235, 236, 237, 238, 239, 240, 241, 242, 243, 244, 245, 246, 247, 248, 249, 250, 251, 252, 253, 254, 255, 256, 257, 258, 259, 260, 261, 262, 263, 264, 265, 266, 267, 268, 269, 270, 271, 272, 273, 274, 275, 276, 277, 278, 279, 280, 281, 282, 283, 284, 285, 286, 287, 288, 289, 290, 291, 292, 293, 294, 295, 296, 297, 298, 299, 300, 301, 302, 303, 304, 305, 306, 307, 308],
      "AcquisitionTime": ["135209.700000", "135211.190000", "135212.680000", "135214.170000", "135215.660000", "135217.150000", "135218.640000", "135220.130000", "135221.620000", "135223.110000", "135224.600000", "135226.090000", "135227.580000", "135229.070000", "135230.560000", "135232.050000", "135233.540000", "135235.030000", "135236.520000", "135238.010000", "135239.500000", "135240.990000", "135242.480000", "135243.970000", "135245.460000", "135246.950000", "135248.440000", "135249.930000", "135251.420000", "135252.910000", "135254.400000", "135255.890000", "135257.380000", "135258.870000", "135300.360000", "135301.850000", "135303.340000", "135304.830000", "135306.320000", "135307.810000", "135309.300000", "135310.790000", "135312.280000", "135313.770000", "135315.260000", "135316.750000", "135318.240000", "135319.730000", "135321.220000", "135322.710000", "135324.200000", "135325.690000", "135327.180000", "135328.670000", "135330.160000", "135331.650000", "135333.140000", "135334.630000", "135336.120000", "135337.610000", "135339.100000", "135340.590000", "135342.080000", "135343.570000", "135345.060000", "135346.550000", "135348.040000", "135349.530000", "135351.020000", "135352.510000", "135354.000000", "135355.490000", "135356.980000", "135358.470000", "135359.960000", "135401.450000", "135402.940000", "135404.430000", "135405.920000", "135407.410000", "135408.900000", "135410.390000", "135411.880000", "135413.370000", "135414.860000", "135416.350000", "135417.840000", "135419.330000", "135420.820000", "135422.310000", "135423.800000", "135425.290000", "135426.780000", "135428.270000", "135429.760000", "135431.250000", "135432.740000", "135434.230000", "135435.720000", "135437.210000", "135438.700000", "135440.190000", "135441.680000", "135443.170000", "135444.660000", "135446.150000", "135447.640000", "135449.130000", "135450.620000", "135452.110000", "135453.600000", "135455.090000", "135456.580000", "135458.070000", "135459.560000", "135501.050000", "135502.540000", "135504.030000", "135505.520000", "135507.010000", "135508.500000", "135509.990000", "135511.480000", "135512.970000", "135514.460000", "135515.950000", "135517.440000", "135518.930000", "135520.420000", "135521.910000", "135523.400000", "135524.890000", "135526.380000", "135527.870000", "135529.360000", "135530.850000", "135532.340000", "135533.830000", "135535.320000", "135536.810000", "135538.300000", "135539.790000", "135541.280000", "135542.770000", "135544.260000", "135545.750000", "135547.240000", "135548.730000", "135550.220000", "135551.710000", "135553.200000", "135554.690000", "135556.180000", "135557.670000", "135559.160000", "135600.650000", "135602.140000", "135603.630000", "135605.120000", "135606.610000", "135608.100000", "135609.590000", "135611.080000", "135612.570000", "135614.060000", "135615.550000", "135617.040000", "135618.530000", "135620.020000", "135621.510000", "135623.000000", "135624.490000", "135625.980000", "135627.470000", "135628.960000", "135630.450000", "135631.940000", "135633.430000", "135634.920000", "135636.410000", "135637.900000", "135639.390000", "135640.880000", "135642.370000", "135643.860000", "135645.350000", "135646.840000", "135648.330000", "135649.820000", "135651.310000", "135652.800000", "135654.290000", "135655.780000", "135657.270000", "135658.760000", "135700.250000", "135701.740000", "135703.230000", "135704.720000", "135706.210000", "135707.700000", "135709.190000", "135710.680000", "135712.170000", "135713.660000", "135715.150000", "135716.640000", "135718.130000", "135719.620000", "135721.110000", "135722.600000", "135724.090000", "135725.580000", "135727.070000", "135728.560000", "135730.050000", "135731.540000", "135733.030000", "135734.520000", "135736.010000", "135737.500000", "135738.990000", "135740.480000", "135741.970000", "135743.460000", "135744.950000", "135746.440000", "135747.930000", "135749.420000", "135750.910000", "135752.400000", "135753.890000", "135755.380000", "135756.870000", "135758.360000", "135759.850000", "135801.340000", "135802.830000", "135804.320000", "135805.810000", "135807.300000", "135808.790000", "135810.280000", "135811.770000", "135813.260000", "135814.750000", "135816.240000", "135817.730000", "135819.220000", "135820.710000", "135822.200000", "135823.690000", "135825.180000", "135826.670000", "135828.160000", "135829.650000", "135831.140000", "135832.630000", "135834.120000", "135835.610000", "135837.100000", "135838.590000", "135840.080000", "135841.570000", "135843.060000", "135844.550000", "135846.040000", "135847.530000", "135849.020000", "135850.510000", "135852.000000", "135853.490000", "135854.980000", "135856.470000", "135857.960000", "135859.450000", "135900.940000", "135902.430000", "135903.920000", "135905.410000", "135906.900000", "135908.390000", "135909.880000", "135911.370000", "135912.860000", "135914.350000", "135915.840000", "135917.330000", "135918.820000", "135920.310000", "135921.800000", "135923.290000", "135924.780000", "135926.270000", "135927.760000", "135929.250000", "135930.740000", "135932.230000", "135933.720000", "135935.210000", "135936.700000", "135938.190000", "135939.680000", "135941.170000", "135942.660000", "135944.150000", "135945.640000", "135947.130000"],
      "ContentTime": ["135333.526000", "135333.528000", "135333.531000", "135333.533000", "135333.536000", "135333.538000", "135333.541000", "135333.543000", "135333.546000", "135333.548000", "135333.551000", "135333.553000", "135333.556000", "135333.558000", "135333.560000", "135333.563000", "135333.565000", "135333.568000", "135333.570000", "135333.573000", "135333.575000", "135333.578000", "135333.580000", "135333.583000", "135333.585000", "135333.588000", "135333.590000", "135333.593000", "135333.595000", "135333.598000", "135333.600000", "135333.603000", "135333.605000", "135333.608000", "135333.610000", "135333.613000", "135333.615000", "135353.409000", "135353.411000", "135353.414000", "135353.416000", "135353.419000", "135353.421000", "135353.424000", "135353.426000", "135353.429000", "135353.431000", "135353.434000", "135353.436000", "135353.438000", "135353.441000", "135353.443000", "135353.446000", "135353.448000", "135353.451000", "135353.453000", "135353.456000", "135413.448000", "135413.450000", "135413.453000", "135413.456000", "135413.458000", "135413.461000", "135413.464000", "135413.466000", "135413.468000", "135413.471000", "135413.473000", "135413.476000", "135413.479000", "135413.481000", "135413.484000", "135413.486000", "135413.489000", "135413.491000", "135413.494000", "135413.496000", "135453.467000", "135453.470000", "135453.473000", "135453.475000", "135453.478000", "135453.480000", "135453.482000", "135453.485000", "135453.487000", "135453.490000", "135453.492000", "135453.495000", "135453.497000", "135453.500000", "135453.502000", "135453.505000", "135453.507000", "135453.509000", "135453.512000", "135453.514000", "135453.517000", "135453.519000", "135453.522000", "135453.524000", "135453.527000", "135453.529000", "135453.532000", "135453.534000", "135453.537000", "135453.539000", "135453.542000", "135453.544000", "135533.464000", "135533.467000", "135533.470000", "135533.472000", "135533.475000", "135533.477000", "135533.480000", "135533.482000", "135533.485000", "135533.487000", "135533.489000", "135533.492000", "135533.495000", "135533.497000", "135533.500000", "135533.502000", "135533.505000", "135533.507000", "135533.510000", "135533.512000", "135533.515000", "135533.517000", "135533.519000", "135533.522000", "135533.525000", "135533.527000", "135533.529000", "135613.455000", "135613.457000", "135613.460000", "135613.462000", "135613.465000", "135613.467000", "135613.470000", "135613.472000", "135613.475000", "135613.477000", "135613.480000", "135613.482000", "135613.485000", "135613.487000", "135613.490000", "135613.492000", "135613.515000", "135613.517000", "135613.520000", "135613.522000", "135613.525000", "135613.527000", "135613.530000", "135613.532000", "135613.535000", "135613.537000", "135613.540000", "135653.439000", "135653.442000", "135653.444000", "135653.447000", "135653.450000", "135653.452000", "135653.455000", "135653.457000", "135653.460000", "135653.462000", "135653.465000", "135653.467000", "135653.470000", "135653.472000", "135653.475000", "135653.477000", "135653.479000", "135653.482000", "135653.484000", "135653.487000", "135653.489000", "135653.492000", "135653.494000", "135653.497000", "135653.499000", "135653.502000", "135653.504000", "135733.458000", "135733.461000", "135733.464000", "135733.466000", "135733.469000", "135733.471000", "135733.474000", "135733.476000", "135733.479000", "135733.481000", "135733.484000", "135733.486000", "135733.489000", "135733.491000", "135733.501000", "135733.503000", "135733.506000", "135733.508000", "135733.511000", "135733.513000", "135733.516000", "135733.518000", "135733.521000", "135733.524000", "135733.526000", "135733.528000", "135733.531000", "135813.445000", "135813.448000", "135813.451000", "135813.453000", "135813.456000", "135813.458000", "135813.461000", "135813.463000", "135813.466000", "135813.469000", "135813.471000", "135813.483000", "135813.486000", "135813.488000", "135813.491000", "135813.493000", "135813.496000", "135813.499000", "135813.501000", "135813.504000", "135813.506000", "135813.509000", "135813.511000", "135813.514000", "135813.516000", "135813.519000", "135853.469000", "135853.472000", "135853.474000", "135853.481000", "135853.484000", "135853.486000", "135853.489000", "135853.491000", "135853.494000", "135853.496000", "135853.499000", "135853.501000", "135853.504000", "135853.506000", "135853.509000", "135853.512000", "135853.514000", "135853.517000", "135853.519000", "135853.523000", "135853.526000", "135853.528000", "135853.531000", "135853.534000", "135853.536000", "135853.539000", "135853.541000", "135933.447000", "135933.450000", "135933.453000", "135933.455000", "135933.458000", "135933.460000", "135933.463000", "135933.465000", "135933.468000", "135933.470000", "135933.473000", "135933.475000", "135933.478000", "135933.480000", "135933.483000", "135933.485000", "135933.488000", "135933.491000", "135933.493000", "135933.495000", "135933.498000", "135933.501000", "135933.503000", "135933.506000", "135933.508000", "135933.511000", "135933.513000", "135950.081000", "135950.084000", "135950.086000", "135950.089000", "135950.091000", "135950.094000", "135950.096000", "135950.099000", "135950.102000", "135950.104000", "135950.107000"],
      "InstanceCreationTime": ["135333.526000", "135333.528000", "135333.531000", "135333.533000", "135333.536000", "135333.538000", "135333.541000", "135333.543000", "135333.546000", "135333.548000", "135333.551000", "135333.553000", "135333.556000", "135333.558000", "135333.560000", "135333.563000", "135333.565000", "135333.568000", "135333.570000", "135333.573000", "135333.575000", "135333.578000", "135333.580000", "135333.583000", "135333.585000", "135333.588000", "135333.590000", "135333.593000", "135333.595000", "135333.598000", "135333.600000", "135333.603000", "135333.605000", "135333.608000", "135333.610000", "135333.613000", "135333.615000", "135353.409000", "135353.411000", "135353.414000", "135353.416000", "135353.419000", "135353.421000", "135353.424000", "135353.426000", "135353.429000", "135353.431000", "135353.434000", "135353.436000", "135353.438000", "135353.441000", "135353.443000", "135353.446000", "135353.448000", "135353.451000", "135353.453000", "135353.456000", "135413.448000", "135413.450000", "135413.453000", "135413.456000", "135413.458000", "135413.461000", "135413.464000", "135413.466000", "135413.468000", "135413.471000", "135413.473000", "135413.476000", "135413.479000", "135413.481000", "135413.484000", "135413.486000", "135413.489000", "135413.491000", "135413.494000", "135413.496000", "135453.467000", "135453.470000", "135453.473000", "135453.475000", "135453.478000", "135453.480000", "135453.482000", "135453.485000", "135453.487000", "135453.490000", "135453.492000", "135453.495000", "135453.497000", "135453.500000", "135453.502000", "135453.505000", "135453.507000", "135453.509000", "135453.512000", "135453.514000", "135453.517000", "135453.519000", "135453.522000", "135453.524000", "135453.527000", "135453.529000", "135453.532000", "135453.534000", "135453.537000", "135453.539000", "135453.542000", "135453.544000", "135533.464000", "135533.467000", "135533.470000", "135533.472000", "135533.475000", "135533.477000", "135533.480000", "135533.482000", "135533.485000", "135533.487000", "135533.489000", "135533.492000", "135533.495000", "135533.497000", "135533.500000", "135533.502000", "135533.505000", "135533.507000", "135533.510000", "135533.512000", "135533.515000", "135533.517000", "135533.519000", "135533.522000", "135533.525000", "135533.527000", "135533.529000", "135613.455000", "135613.457000", "135613.460000", "135613.462000", "135613.465000", "135613.467000", "135613.470000", "135613.472000", "135613.475000", "135613.477000", "135613.480000", "135613.482000", "135613.485000", "135613.487000", "135613.490000", "135613.492000", "135613.515000", "135613.517000", "135613.520000", "135613.522000", "135613.525000", "135613.527000", "135613.530000", "135613.532000", "135613.535000", "135613.537000", "135613.540000", "135653.439000", "135653.442000", "135653.444000", "135653.447000", "135653.450000", "135653.452000", "135653.455000", "135653.457000", "135653.460000", "135653.462000", "135653.465000", "135653.467000", "135653.470000", "135653.472000", "135653.475000", "135653.477000", "135653.479000", "135653.482000", "135653.484000", "135653.487000", "135653.489000", "135653.492000", "135653.494000", "135653.497000", "135653.499000", "135653.502000", "135653.504000", "135733.458000", "135733.461000", "135733.464000", "135733.466000", "135733.469000", "135733.471000", "135733.474000", "135733.476000", "135733.479000", "135733.481000", "135733.484000", "135733.486000", "135733.489000", "135733.491000", "135733.501000", "135733.503000", "135733.506000", "135733.508000", "135733.511000", "135733.513000", "135733.516000", "135733.518000", "135733.521000", "135733.524000", "135733.526000", "135733.528000", "135733.531000", "135813.445000", "135813.448000", "135813.451000", "135813.453000", "135813.456000", "135813.458000", "135813.461000", "135813.463000", "135813.466000", "135813.469000", "135813.471000", "135813.483000", "135813.486000", "135813.488000", "135813.491000", "135813.493000", "135813.496000", "135813.499000", "135813.501000", "135813.504000", "135813.506000", "135813.509000", "135813.511000", "135813.514000", "135813.516000", "135813.519000", "135853.469000", "135853.472000", "135853.474000", "135853.481000", "135853.484000", "135853.486000", "135853.489000", "135853.491000", "135853.494000", "135853.496000", "135853.499000", "135853.501000", "135853.504000", "135853.506000", "135853.509000", "135853.512000", "135853.514000", "135853.517000", "135853.519000", "135853.523000", "135853.526000", "135853.528000", "135853.531000", "135853.534000", "135853.536000", "135853.539000", "135853.541000", "135933.447000", "135933.450000", "135933.453000", "135933.455000", "135933.458000", "135933.460000", "135933.463000", "135933.465000", "135933.468000", "135933.470000", "135933.473000", "135933.475000", "135933.478000", "135933.480000", "135933.483000", "135933.485000", "135933.488000", "135933.491000", "135933.493000", "135933.495000", "135933.498000", "135933.501000", "135933.503000", "135933.506000", "135933.508000", "135933.511000", "135933.513000", "135950.081000", "135950.084000", "135950.086000", "135950.089000", "135950.091000", "135950.094000", "135950.096000", "135950.099000", "135950.102000", "135950.104000", "135950.107000"],
      "InstanceNumber": [1, 2, 3, 4, 5, 6, 7, 8, 9, 10, 11, 12, 13, 14, 15, 16, 17, 18, 19, 20, 21, 22, 23, 24, 25, 26, 27, 28, 29, 30, 31, 32, 33, 34, 35, 36, 37, 38, 39, 40, 41, 42, 43, 44, 45, 46, 47, 48, 49, 50, 51, 52, 53, 54, 55, 56, 57, 58, 59, 60, 61, 62, 63, 64, 65, 66, 67, 68, 69, 70, 71, 72, 73, 74, 75, 76, 77, 78, 79, 80, 81, 82, 83, 84, 85, 86, 87, 88, 89, 90, 91, 92, 93, 94, 95, 96, 97, 98, 99, 100, 101, 102, 103, 104, 105, 106, 107, 108, 109, 110, 111, 112, 113, 114, 115, 116, 117, 118, 119, 120, 121, 122, 123, 124, 125, 126, 127, 128, 129, 130, 131, 132, 133, 134, 135, 136, 137, 138, 139, 140, 141, 142, 143, 144, 145, 146, 147, 148, 149, 150, 151, 152, 153, 154, 155, 156, 157, 158, 159, 160, 161, 162, 163, 164, 165, 166, 167, 168, 169, 170, 171, 172, 173, 174, 175, 176, 177, 178, 179, 180, 181, 182, 183, 184, 185, 186, 187, 188, 189, 190, 191, 192, 193, 194, 195, 196, 197, 198, 199, 200, 201, 202, 203, 204, 205, 206, 207, 208, 209, 210, 211, 212, 213, 214, 215, 216, 217, 218, 219, 220, 221, 222, 223, 224, 225, 226, 227, 228, 229, 230, 231, 232, 233, 234, 235, 236, 237, 238, 239, 240, 241, 242, 243, 244, 245, 246, 247, 248, 249, 250, 251, 252, 253, 254, 255, 256, 257, 258, 259, 260, 261, 262, 263, 264, 265, 266, 267, 268, 269, 270, 271, 272, 273, 274, 275, 276, 277, 278, 279, 280, 281, 282, 283, 284, 285, 286, 287, 288, 289, 290, 291, 292, 293, 294, 295, 296, 297, 298, 299, 300, 301, 302, 303, 304, 305, 306, 307, 308],
      "WindowCenter": [4774.0, 4778.0, 4776.0, 4778.0, 4778.0, 4752.0, 4750.0, 4776.0, 4750.0, 4778.0, 4758.0, 4756.0, 4754.0, 4754.0, 4756.0, 4754.0, 4754.0, 4774.0, 4748.0, 4752.0, 4752.0, 4776.0, 4780.0, 4778.0, 4756.0, 4782.0, 4758.0, 4778.0, 4754.0, 4754.0, 4754.0, 4780.0, 4776.0, 4778.0, 4754.0, 4778.0, 4754.0, 4752.0, 4750.0, 4776.0, 4774.0, 4784.0, 4780.0, 4784.0, 4780.0, 4780.0, 4760.0, 4782.0, 4778.0, 4776.0, 4780.0, 4768.0, 4782.0, 4786.0, 4760.0, 4786.0, 4784.0, 4782.0, 4780.0, 4776.0, 4774.0, 4772.0, 4774.0, 4778.0, 4782.0, 4784.0, 4784.0, 4756.0, 4752.0, 4754.0, 4756.0, 4772.0, 4774.0, 4758.0, 4776.0, 4758.0, 4784.0, 4784.0, 4780.0, 4778.0, 4778.0, 4776.0, 4754.0, 4750.0, 4776.0, 4754.0, 4778.0, 4780.0, 4778.0, 4754.0, 4754.0, 4750.0, 4776.0, 4750.0, 4776.0, 4776.0, 4780.0, 4778.0, 4778.0, 4756.0, 4756.0, 4782.0, 4778.0, 4778.0, 4752.0, 4778.0, 4754.0, 4778.0, 4780.0, 4778.0, 4784.0, 4784.0, 4782.0, 4780.0, 4780.0, 4784.0, 4780.0, 4782.0, 4778.0, 4784.0, 4780.0, 4782.0, 4778.0, 4780.0, 4776.0, 4780.0, 4778.0, 4782.0, 4780.0, 4782.0, 4756.0, 4782.0, 4758.0, 4780.0, 4776.0, 4778.0, 4776.0, 4780.0, 4756.0, 4780.0, 4780.0, 4782.0, 4778.0, 4782.0, 4756.0, 4756.0, 4780.0, 4776.0, 4778.0, 4778.0, 4756.0, 4778.0, 4774.0, 4774.0, 4776.0, 4778.0, 4782.0, 4780.0, 4780.0, 4784.0, 4786.0, 4782.0, 4780.0, 4784.0, 4778.0, 4756.0, 4776.0, 4778.0, 4778.0, 4778.0, 4758.0, 4778.0, 4780.0, 4778.0, 4782.0, 4780.0, 4780.0, 4776.0, 4776.0, 4776.0, 4782.0, 4778.0, 4782.0, 4780.0, 4756.0, 4782.0, 4782.0, 4754.0, 4780.0, 4754.0, 4778.0, 4754.0, 4780.0, 4780.0, 4780.0, 4780.0, 4780.0, 4784.0, 4778.0, 4756.0, 4780.0, 4778.0, 4778.0, 4780.0, 4756.0, 4756.0, 4778.0, 4778.0, 4780.0, 4756.0, 4778.0, 4778.0, 4776.0, 4752.0, 4774.0, 4776.0, 4772.0, 4776.0, 4780.0, 4784.0, 4778.0, 4782.0, 4778.0, 4780.0, 4778.0, 4776.0, 4774.0, 4776.0, 4774.0, 4780.0, 4782.0, 4780.0, 4780.0, 4782.0, 4774.0, 4780.0, 4776.0, 4778.0, 4778.0, 4782.0, 4782.0, 4784.0, 4778.0, 4756.0, 4780.0, 4776.0, 4776.0, 4776.0, 4778.0, 4780.0, 4780.0, 4778.0, 4780.0, 4782.0, 4782.0, 4778.0, 4778.0, 4772.0, 4778.0, 4778.0, 4758.0, 4780.0, 4782.0, 4778.0, 4782.0, 4776.0, 4778.0, 4778.0, 4774.0, 4776.0, 4752.0, 4776.0, 4782.0, 4780.0, 4780.0, 4778.0, 4758.0, 4780.0, 4778.0, 4754.0, 4756.0, 4776.0, 4754.0, 4778.0, 4756.0, 4784.0, 4782.0, 4782.0, 4758.0, 4756.0, 4756.0, 4754.0, 4774.0, 4776.0, 4754.0, 4782.0, 4758.0, 4754.0, 4778.0, 4754.0, 4750.0, 4774.0, 4774.0, 4774.0, 4754.0, 4778.0, 4760.0, 4762.0],
      "WindowWidth": [18576.0, 18576.0, 18576.0, 18580.0, 18580.0, 18546.0, 18542.0, 18578.0, 18544.0, 18576.0, 18544.0, 18548.0, 18534.0, 18540.0, 18542.0, 18546.0, 18546.0, 18572.0, 18542.0, 18544.0, 18546.0, 18580.0, 18580.0, 18580.0, 18544.0, 18576.0, 18536.0, 18576.0, 18538.0, 18544.0, 18546.0, 18578.0, 18574.0, 18574.0, 18544.0, 18570.0, 18546.0, 18546.0, 18542.0, 18580.0, 18570.0, 18580.0, 18580.0, 18574.0, 18574.0, 18570.0, 18542.0, 18578.0, 18574.0, 18576.0, 18584.0, 18574.0, 18576.0, 18572.0, 18546.0, 18572.0, 18566.0, 18572.0, 18574.0, 18580.0, 18578.0, 18578.0, 18582.0, 18576.0, 18572.0, 18570.0, 18570.0, 18540.0, 18540.0, 18546.0, 18544.0, 18578.0, 18574.0, 18548.0, 18574.0, 18542.0, 18572.0, 18572.0, 18572.0, 18572.0, 18574.0, 18576.0, 18546.0, 18542.0, 18576.0, 18546.0, 18574.0, 18580.0, 18574.0, 18542.0, 18538.0, 18544.0, 18578.0, 18542.0, 18578.0, 18574.0, 18580.0, 18580.0, 18574.0, 18546.0, 18542.0, 18578.0, 18578.0, 18578.0, 18548.0, 18580.0, 18544.0, 18580.0, 18576.0, 18572.0, 18582.0, 18582.0, 18576.0, 18578.0, 18578.0, 18580.0, 18578.0, 18578.0, 18572.0, 18582.0, 18584.0, 18584.0, 18576.0, 18582.0, 18578.0, 18578.0, 18580.0, 18580.0, 18576.0, 18582.0, 18548.0, 18580.0, 18544.0, 18576.0, 18578.0, 18580.0, 18576.0, 18580.0, 18546.0, 18574.0, 18578.0, 18578.0, 18576.0, 18580.0, 18546.0, 18548.0, 18578.0, 18576.0, 18580.0, 18574.0, 18548.0, 18580.0, 18576.0, 18576.0, 18578.0, 18580.0, 18576.0, 18580.0, 18574.0, 18582.0, 18582.0, 18578.0, 18578.0, 18584.0, 18578.0, 18550.0, 18580.0, 18576.0, 18580.0, 18584.0, 18548.0, 18580.0, 18582.0, 18574.0, 18578.0, 18576.0, 18584.0, 18578.0, 18576.0, 18582.0, 18578.0, 18580.0, 18580.0, 18576.0, 18544.0, 18574.0, 18582.0, 18544.0, 18580.0, 18546.0, 18578.0, 18548.0, 18578.0, 18580.0, 18576.0, 18578.0, 18576.0, 18580.0, 18572.0, 18544.0, 18576.0, 18576.0, 18578.0, 18582.0, 18542.0, 18546.0, 18580.0, 18578.0, 18576.0, 18544.0, 18578.0, 18576.0, 18576.0, 18542.0, 18578.0, 18582.0, 18576.0, 18576.0, 18578.0, 18582.0, 18574.0, 18578.0, 18580.0, 18578.0, 18582.0, 18572.0, 18574.0, 18584.0, 18578.0, 18572.0, 18572.0, 18576.0, 18574.0, 18580.0, 18572.0, 18578.0, 18580.0, 18578.0, 18578.0, 18584.0, 18574.0, 18580.0, 18574.0, 18542.0, 18578.0, 18576.0, 18580.0, 18578.0, 18582.0, 18578.0, 18580.0, 18580.0, 18576.0, 18576.0, 18586.0, 18578.0, 18572.0, 18574.0, 18574.0, 18574.0, 18546.0, 18578.0, 18578.0, 18576.0, 18580.0, 18578.0, 18582.0, 18580.0, 18582.0, 18574.0, 18542.0, 18574.0, 18578.0, 18578.0, 18580.0, 18576.0, 18546.0, 18578.0, 18574.0, 18544.0, 18544.0, 18574.0, 18548.0, 18578.0, 18546.0, 18580.0, 18576.0, 18580.0, 18540.0, 18540.0, 18542.0, 18544.0, 18576.0, 18576.0, 18548.0, 18572.0, 18544.0, 18544.0, 18580.0, 18544.0, 18546.0, 18576.0, 18580.0, 18580.0, 18548.0, 18578.0, 18544.0, 18544.0]
    },
    "slices": {}
  }
}