{
  "AcquisitionMatrixPE": 104,
  "AcquisitionNumber": 1,
  "AcquisitionTime": "14:01:37.600000",
  "BandwidthPerPixelPhaseEncode": 17.17,
  "BaseResolution": 104,
  "BodyPartExamined": "BRAIN",
  "CoilCombinationMethod": "Sum of Squares",
  "ConsistencyInfo": "N4_VE11C_LATEST_20160120",
  "ConversionSoftware": "dcm2niix",
  "ConversionSoftwareVersion": "v1.0.20220505",
  "DerivedVendorReportedEchoSpacing": 0.000560011,
  "DeviceSerialNumber": "167006",
  "DwellTime": 2.1e-06,
  "EchoTime": 0.037,
  "EchoTrainLength": 104,
  "EffectiveEchoSpacing": 0.000560011,
  "FlipAngle": 52,
  "HeudiconvVersion": "0.5.3.post811+g6206e14",
  "ImageComments": "Unaliased MB4/PE3/LB",
  "ImageOrientationPatientDICOM": [0.999258, 0.0303676, 0.0236755, -0.0228508, 0.962543, -0.270165],
  "ImageOrientationText": "Tra>Cor(-15.6)>Sag(1.8)",
  "ImageType": [
    "ORIGINAL",
    "PRIMARY",
    "M",
    "MB",
    "ND",
    "MOSAIC"
],
  "ImagingFrequency": 123.26,
  "InPlanePhaseEncodingDirectionDICOM": "COL",
  "InstitutionAddress": "Chemin Queen-Mary 4565,Montreal,District,CA,H3W 1W5",
  "InstitutionName": "IUGM",
  "InstitutionalDepartmentName": "Department",
  "MRAcquisitionType": "2D",
  "MagneticFieldStrength": 3,
  "Manufacturer": "Siemens",
  "ManufacturersModelName": "Prisma_fit",
  "MatrixCoilMode": "SENSE",
  "Modality": "MR",
  "MultibandAccelerationFactor": 4,
  "PartialFourier": 1,
  "PatientPosition": "HFS",
  "PercentPhaseFOV": 100,
  "PercentSampling": 100,
  "PhaseEncodingDirection": "j",
  "PhaseEncodingSteps": 104,
  "PhaseResolution": 1,
  "PixelBandwidth": 2290,
  "ProcedureStepDescription": "games^mario3",
  "ProtocolName": "func_task-mario3_run-04",
  "PulseSequenceDetails": "%CustomerSeq%\\cmrr_mbep2d_bold",
  "ReceiveCoilActiveElements": "HC1-7;NC1,2",
  "ReceiveCoilName": "HeadNeck_64",
  "ReconMatrixPE": 104,
  "RepetitionTime": 1.49,
  "SAR": 0.0458441,
  "ScanOptions": "FS",
  "ScanningSequence": "EP",
  "SequenceName": "epfid2d1_104",
  "SequenceVariant": "SK\\SS",
  "SeriesDescription": "func_task-mario3_run-04",
  "SeriesNumber": 19,
  "ShimSetting": [627, -7201, -8753, 691, 75, 50, 40, -19],
  "SliceThickness": 2,
  "SliceTiming": [0, 0.785, 0.0975, 0.8825, 0.1975, 0.98, 0.295, 1.0775, 0.3925, 1.1775, 0.49, 1.275, 0.5875, 1.3725, 0.6875, 0, 0.785, 0.0975, 0.8825, 0.1975, 0.98, 0.295, 1.0775, 0.3925, 1.1775, 0.49, 1.275, 0.5875, 1.3725, 0.6875, 0, 0.785, 0.0975, 0.8825, 0.1975, 0.98, 0.295, 1.0775, 0.3925, 1.1775, 0.49, 1.275, 0.5875, 1.3725, 0.6875, 0, 0.785, 0.0975, 0.8825, 0.1975, 0.98, 0.295, 1.0775, 0.3925, 1.1775, 0.49, 1.275, 0.5875, 1.3725, 0.6875],
  "SoftwareVersions": "syngo MR E11",
  "SpacingBetweenSlices": 2,
  "StationName": "MRC35049",
  "TaskName": "mario3",
  "TotalReadoutTime": 0.0576811,
  "TxRefAmp": 212.617,
  "WipMemBlock": "3174ff05-e95d-49e2-a3c7-8f32b16ebe08||Sequence: R017 ve11c/master r/75a17815+; Jun 28 2022 16:32:11 by eja",
  "dcmmeta_affine": [
    [-1.9985166788101196, -0.04570164903998375, 0.061985865235328674, 109.50057220458984],
    [-0.06073527783155441, 1.9250859022140503, -0.5388465523719788, -69.95941162109375],
    [0.04735096916556358, 0.5403293371200562, 1.9250459671020508, -55.88344955444336],
    [0.0, 0.0, 0.0, 1.0]
],
  "dcmmeta_reorient_transform": [
    [0.0, -1.0, 0.0, 103.0],
    [1.0, 0.0, 0.0, 0.0],
    [0.0, 0.0, 1.0, 0.0],
    [0.0, 0.0, 0.0, 1.0]
],
  "dcmmeta_shape": [104, 104, 60, 325],
  "dcmmeta_slice_dim": 2,
  "dcmmeta_version": 0.6,
  "global": {
    "const": {
      "AcquisitionMatrix": [104, 0, 0, 104],
      "AngioFlag": "N",
      "BitsAllocated": 16,
      "BitsStored": 16,
      "BodyPartExamined": "BRAIN",
      "Columns": 832,
      "EchoNumbers": 1,
      "EchoTime": 37.0,
      "EchoTrainLength": 104,
      "FlipAngle": 52.0,
      "HighBit": 15,
      "ImageOrientationPatient": [0.99925836395945, 0.030367639462, 0.02367548374564, -0.0228508248174, 0.96254293311826, -0.2701646566619],
      "ImagePositionPatient": [-815.61798814501, -851.16333153997, 179.21458718801],
      "ImageType": [
        "ORIGINAL",
        "PRIMARY",
        "M",
        "MB",
        "ND",
        "MOSAIC"
],
      "ImagedNucleus": "1H",
      "ImagingFrequency": 123.260409,
      "InPlanePhaseEncodingDirection": "COL",
      "MRAcquisitionType": "2D",
      "MagneticFieldStrength": 3.0,
      "Manufacturer": "SIEMENS",
      "ManufacturerModelName": "Prisma_fit",
      "Modality": "MR",
      "NumberOfAverages": 1.0,
      "NumberOfPhaseEncodingSteps": 104,
      "PercentPhaseFieldOfView": 100.0,
      "PercentSampling": 100.0,
      "PerformedProcedureStepStartTime": "115807.186000",
      "PhotometricInterpretation": "MONOCHROME2",
      "PixelBandwidth": 2290.0,
      "PixelRepresentation": 0,
      "PixelSpacing": [2.0, 2.0],
      "ProtocolName": "func_task-mario3_run-04",
      "RepetitionTime": 1490.0,
      "Rows": 832,
      "SAR": 0.04584407411812,
      "SamplesPerPixel": 1,
      "ScanOptions": "FS",
      "ScanningSequence": "EP",
      "SequenceName": "epfid2d1_104",
      "SequenceVariant": [
        "SK",
        "SS"
],
      "SeriesDescription": "func_task-mario3_run-04",
      "SeriesNumber": 19,
      "SeriesTime": "140252.498000",
      "SliceLocation": -31.546668105929,
      "SliceThickness": 2.0,
      "SmallestImagePixelValue": 0,
      "SoftwareVersions": "syngo MR E11",
      "SpacingBetweenSlices": 2.0000000145847,
      "SpecificCharacterSet": "ISO_IR 100",
      "StudyID": "1",
      "StudyTime": "115807.019000",
      "TransmitCoilName": "Body",
      "VariableFlipAngleFlag": "N",
      "WindowCenterWidthExplanation": "Algo1",
      "dBdt": 0.0},
    "slices": {}
  },
  "time": {
    "samples": {
      "AcquisitionNumber": [1, 2, 3, 4, 5, 6, 7, 8, 9, 10, 11, 12, 13, 14, 15, 16, 17, 18, 19, 20, 21, 22, 23, 24, 25, 26, 27, 28, 29, 30, 31, 32, 33, 34, 35, 36, 37, 38, 39, 40, 41, 42, 43, 44, 45, 46, 47, 48, 49, 50, 51, 52, 53, 54, 55, 56, 57, 58, 59, 60, 61, 62, 63, 64, 65, 66, 67, 68, 69, 70, 71, 72, 73, 74, 75, 76, 77, 78, 79, 80, 81, 82, 83, 84, 85, 86, 87, 88, 89, 90, 91, 92, 93, 94, 95, 96, 97, 98, 99, 100, 101, 102, 103, 104, 105, 106, 107, 108, 109, 110, 111, 112, 113, 114, 115, 116, 117, 118, 119, 120, 121, 122, 123, 124, 125, 126, 127, 128, 129, 130, 131, 132, 133, 134, 135, 136, 137, 138, 139, 140, 141, 142, 143, 144, 145, 146, 147, 148, 149, 150, 151, 152, 153, 154, 155, 156, 157, 158, 159, 160, 161, 162, 163, 164, 165, 166, 167, 168, 169, 170, 171, 172, 173, 174, 175, 176, 177, 178, 179, 180, 181, 182, 183, 184, 185, 186, 187, 188, 189, 190, 191, 192, 193, 194, 195, 196, 197, 198, 199, 200, 201, 202, 203, 204, 205, 206, 207, 208, 209, 210, 211, 212, 213, 214, 215, 216, 217, 218, 219, 220, 221, 222, 223, 224, 225, 226, 227, 228, 229, 230, 231, 232, 233, 234, 235, 236, 237, 238, 239, 240, 241, 242, 243, 244, 245, 246, 247, 248, 249, 250, 251, 252, 253, 254, 255, 256, 257, 258, 259, 260, 261, 262, 263, 264, 265, 266, 267, 268, 269, 270, 271, 272, 273, 274, 275, 276, 277, 278, 279, 280, 281, 282, 283, 284, 285, 286, 287, 288, 289, 290, 291, 292, 293, 294, 295, 296, 297, 298, 299, 300, 301, 302, 303, 304, 305, 306, 307, 308, 309, 310, 311, 312, 313, 314, 315, 316, 317, 318, 319, 320, 321, 322, 323, 324, 325],
      "AcquisitionTime": ["140137.600000", "140139.090000", "140140.580000", "140142.070000", "140143.560000", "140145.050000", "140146.540000", "140148.030000", "140149.520000", "140151.010000", "140152.500000", "140153.990000", "140155.480000", "140156.970000", "140158.460000", "140159.950000", "140201.440000", "140202.930000", "140204.420000", "140205.910000", "140207.400000", "140208.890000", "140210.380000", "140211.870000", "140213.360000", "140214.850000", "140216.340000", "140217.830000", "140219.320000", "140220.810000", "140222.300000", "140223.790000", "140225.280000", "140226.770000", "140228.260000", "140229.750000", "140231.240000", "140232.730000", "140234.220000", "140235.710000", "140237.200000", "140238.690000", "140240.180000", "140241.670000", "140243.160000", "140244.650000", "140246.140000", "140247.630000", "140249.120000", "140250.610000", "140252.100000", "140253.590000", "140255.080000", "140256.570000", "140258.060000", "140259.550000", "140301.040000", "140302.530000", "140304.020000", "140305.510000", "140307.000000", "140308.490000", "140309.980000", "140311.470000", "140312.960000", "140314.450000", "140315.940000", "140317.430000", "140318.920000", "140320.410000", "140321.900000", "140323.390000", "140324.880000", "140326.370000", "140327.860000", "140329.350000", "140330.840000", "140332.330000", "140333.820000", "140335.310000", "140336.800000", "140338.290000", "140339.780000", "140341.270000", "140342.760000", "140344.250000", "140345.740000", "140347.230000", "140348.720000", "140350.210000", "140351.700000", "140353.190000", "140354.680000", "140356.170000", "140357.660000", "140359.150000", "140400.640000", "140402.130000", "140403.620000", "140405.110000", "140406.600000", "140408.090000", "140409.580000", "140411.070000", "140412.560000", "140414.050000", "140415.540000", "140417.030000", "140418.520000", "140420.010000", "140421.500000", "140422.990000", "140424.480000", "140425.970000", "140427.460000", "140428.950000", "140430.440000", "140431.930000", "140433.420000", "140434.910000", "140436.400000", "140437.890000", "140439.380000", "140440.870000", "140442.360000", "140443.850000", "140445.340000", "140446.830000", "140448.320000", "140449.810000", "140451.300000", "140452.790000", "140454.280000", "140455.770000", "140457.260000", "140458.750000", "140500.240000", "140501.730000", "140503.220000", "140504.710000", "140506.200000", "140507.690000", "140509.180000", "140510.670000", "140512.160000", "140513.650000", "140515.140000", "140516.630000", "140518.120000", "140519.610000", "140521.100000", "140522.590000", "140524.080000", "140525.570000", "140527.060000", "140528.550000", "140530.040000", "140531.530000", "140533.020000", "140534.510000", "140536.000000", "140537.490000", "140538.980000", "140540.470000", "140541.960000", "140543.450000", "140544.940000", "140546.430000", "140547.920000", "140549.410000", "140550.900000", "140552.390000", "140553.880000", "140555.370000", "140556.860000", "140558.350000", "140559.840000", "140601.330000", "140602.820000", "140604.310000", "140605.800000", "140607.290000", "140608.780000", "140610.270000", "140611.760000", "140613.250000", "140614.740000", "140616.230000", "140617.720000", "140619.210000", "140620.700000", "140622.190000", "140623.680000", "140625.170000", "140626.660000", "140628.150000", "140629.640000", "140631.130000", "140632.620000", "140634.110000", "140635.600000", "140637.090000", "140638.580000", "140640.070000", "140641.560000", "140643.050000", "140644.540000", "140646.030000", "140647.520000", "140649.010000", "140650.500000", "140651.990000", "140653.480000", "140654.970000", "140656.460000", "140657.950000", "140659.440000", "140700.930000", "140702.420000", "140703.910000", "140705.400000", "140706.890000", "140708.380000", "140709.870000", "140711.360000", "140712.850000", "140714.340000", "140715.830000", "140717.320000", "140718.810000", "140720.300000", "140721.790000", "140723.280000", "140724.770000", "140726.260000", "140727.750000", "140729.240000", "140730.730000", "140732.220000", "140733.710000", "140735.200000", "140736.690000", "140738.180000", "140739.670000", "140741.160000", "140742.650000", "140744.140000", "140745.630000", "140747.120000", "140748.610000", "140750.100000", "140751.590000", "140753.080000", "140754.570000", "140756.060000", "140757.550000", "140759.040000", "140800.530000", "140802.020000", "140803.510000", "140805.000000", "140806.490000", "140807.980000", "140809.470000", "140810.960000", "140812.450000", "140813.940000", "140815.430000", "140816.920000", "140818.410000", "140819.900000", "140821.390000", "140822.880000", "140824.370000", "140825.860000", "140827.350000", "140828.840000", "140830.330000", "140831.820000", "140833.310000", "140834.800000", "140836.290000", "140837.780000", "140839.270000", "140840.760000", "140842.250000", "140843.740000", "140845.230000", "140846.720000", "140848.210000", "140849.700000", "140851.190000", "140852.680000", "140854.170000", "140855.660000", "140857.150000", "140858.640000", "140900.130000", "140901.620000", "140903.110000", "140904.600000", "140906.090000", "140907.580000", "140909.070000", "140910.560000", "140912.050000", "140913.540000", "140915.030000", "140916.520000", "140918.010000", "140919.500000", "140920.990000", "140922.480000", "140923.970000", "140925.460000", "140926.950000", "140928.440000", "140929.930000", "140931.420000", "140932.910000", "140934.400000", "140935.890000", "140937.380000", "140938.870000", "140940.360000"],
      "ContentTime": ["140252.501000", "140252.505000", "140252.508000", "140252.512000", "140252.515000", "140252.518000", "140252.521000", "140252.525000", "140252.528000", "140252.531000", "140252.534000", "140252.538000", "140252.541000", "140252.544000", "140252.548000", "140252.551000", "140252.554000", "140252.557000", "140252.561000", "140252.564000", "140252.567000", "140252.571000", "140252.574000", "140252.577000", "140252.581000", "140252.592000", "140312.465000", "140312.469000", "140312.472000", "140312.475000", "140312.479000", "140312.482000", "140312.485000", "140312.488000", "140312.492000", "140312.495000", "140312.498000", "140312.501000", "140312.505000", "140312.524000", "140312.527000", "140312.530000", "140312.533000", "140312.537000", "140312.540000", "140312.543000", "140332.464000", "140332.468000", "140332.471000", "140332.474000", "140332.478000", "140332.481000", "140332.484000", "140332.487000", "140332.491000", "140332.500000", "140332.504000", "140332.507000", "140332.510000", "140332.514000", "140332.517000", "140332.520000", "140332.523000", "140332.527000", "140332.530000", "140332.533000", "140352.464000", "140352.468000", "140352.471000", "140352.475000", "140352.478000", "140352.482000", "140352.486000", "140352.489000", "140352.493000", "140352.496000", "140352.500000", "140352.503000", "140352.507000", "140352.511000", "140352.514000", "140352.518000", "140352.522000", "140352.526000", "140352.529000", "140352.565000", "140432.464000", "140432.468000", "140432.471000", "140432.474000", "140432.478000", "140432.481000", "140432.484000", "140432.488000", "140432.491000", "140432.494000", "140432.498000", "140432.501000", "140432.504000", "140432.508000", "140432.511000", "140432.514000", "140432.517000", "140432.521000", "140432.524000", "140432.527000", "140432.530000", "140432.534000", "140432.537000", "140432.540000", "140432.544000", "140432.547000", "140432.550000", "140432.554000", "140432.557000", "140432.560000", "140512.465000", "140512.469000", "140512.472000", "140512.475000", "140512.479000", "140512.482000", "140512.485000", "140512.488000", "140512.492000", "140512.495000", "140512.498000", "140512.502000", "140512.505000", "140512.509000", "140512.512000", "140512.515000", "140512.519000", "140512.522000", "140512.525000", "140512.529000", "140512.532000", "140512.535000", "140512.548000", "140512.552000", "140512.555000", "140512.558000", "140512.562000", "140552.464000", "140552.468000", "140552.471000", "140552.474000", "140552.478000", "140552.481000", "140552.484000", "140552.488000", "140552.491000", "140552.494000", "140552.497000", "140552.501000", "140552.504000", "140552.507000", "140552.511000", "140552.514000", "140552.517000", "140552.521000", "140552.524000", "140552.527000", "140552.530000", "140552.534000", "140552.537000", "140552.540000", "140552.544000", "140552.547000", "140552.550000", "140632.464000", "140632.468000", "140632.471000", "140632.474000", "140632.478000", "140632.481000", "140632.484000", "140632.488000", "140632.491000", "140632.494000", "140632.498000", "140632.501000", "140632.504000", "140632.507000", "140632.511000", "140632.514000", "140632.517000", "140632.521000", "140632.535000", "140632.539000", "140632.542000", "140632.545000", "140632.548000", "140632.552000", "140632.555000", "140632.558000", "140632.562000", "140712.465000", "140712.469000", "140712.472000", "140712.475000", "140712.479000", "140712.482000", "140712.485000", "140712.489000", "140712.492000", "140712.495000", "140712.499000", "140712.502000", "140712.505000", "140712.508000", "140712.512000", "140712.515000", "140712.518000", "140712.522000", "140712.525000", "140712.528000", "140712.531000", "140712.535000", "140712.538000", "140712.541000", "140712.544000", "140712.548000", "140712.551000", "140752.465000", "140752.469000", "140752.472000", "140752.485000", "140752.488000", "140752.492000", "140752.495000", "140752.499000", "140752.503000", "140752.506000", "140752.523000", "140752.526000", "140752.530000", "140752.533000", "140752.536000", "140752.540000", "140752.543000", "140752.546000", "140752.550000", "140752.553000", "140752.556000", "140752.559000", "140752.563000", "140752.566000", "140752.569000", "140752.573000", "140832.464000", "140832.468000", "140832.471000", "140832.475000", "140832.478000", "140832.481000", "140832.485000", "140832.488000", "140832.492000", "140832.496000", "140832.499000", "140832.502000", "140832.506000", "140832.509000", "140832.512000", "140832.516000", "140832.519000", "140832.522000", "140832.526000", "140832.529000", "140832.532000", "140832.535000", "140832.539000", "140832.542000", "140832.546000", "140832.549000", "140832.552000", "140912.464000", "140912.468000", "140912.471000", "140912.475000", "140912.478000", "140912.481000", "140912.485000", "140912.488000", "140912.491000", "140912.494000", "140912.498000", "140912.501000", "140912.504000", "140912.508000", "140912.511000", "140912.514000", "140912.518000", "140912.521000", "140912.524000", "140912.528000", "140912.531000", "140912.534000", "140912.537000", "140912.541000", "140912.544000", "140912.547000", "140912.551000", "140943.198000", "140943.202000", "140943.206000", "140943.210000", "140943.214000", "140943.217000", "140943.220000", "140943.224000", "140943.228000", "140943.231000", "140943.234000", "140943.238000", "140943.241000", "140943.244000", "140943.248000", "140943.251000", "140943.255000", "140943.258000", "140943.262000", "140943.265000", "140943.268000"],
      "InstanceCreationTime": ["140252.501000", "140252.505000", "140252.508000", "140252.512000", "140252.515000", "140252.518000", "140252.521000", "140252.525000", "140252.528000", "140252.531000", "140252.534000", "140252.538000", "140252.541000", "140252.544000", "140252.548000", "140252.551000", "140252.554000", "140252.557000", "140252.561000", "140252.564000", "140252.567000", "140252.571000", "140252.574000", "140252.577000", "140252.581000", "140252.592000", "140312.465000", "140312.469000", "140312.472000", "140312.475000", "140312.479000", "140312.482000", "140312.485000", "140312.488000", "140312.492000", "140312.495000", "140312.498000", "140312.501000", "140312.505000", "140312.524000", "140312.527000", "140312.530000", "140312.533000", "140312.537000", "140312.540000", "140312.543000", "140332.464000", "140332.468000", "140332.471000", "140332.474000", "140332.478000", "140332.481000", "140332.484000", "140332.487000", "140332.491000", "140332.500000", "140332.504000", "140332.507000", "140332.510000", "140332.514000", "140332.517000", "140332.520000", "140332.523000", "140332.527000", "140332.530000", "140332.533000", "140352.464000", "140352.468000", "140352.471000", "140352.475000", "140352.478000", "140352.482000", "140352.486000", "140352.489000", "140352.493000", "140352.496000", "140352.500000", "140352.503000", "140352.507000", "140352.511000", "140352.514000", "140352.518000", "140352.522000", "140352.526000", "140352.529000", "140352.565000", "140432.464000", "140432.468000", "140432.471000", "140432.474000", "140432.478000", "140432.481000", "140432.484000", "140432.488000", "140432.491000", "140432.494000", "140432.498000", "140432.501000", "140432.504000", "140432.508000", "140432.511000", "140432.514000", "140432.517000", "140432.521000", "140432.524000", "140432.527000", "140432.530000", "140432.534000", "140432.537000", "140432.540000", "140432.544000", "140432.547000", "140432.550000", "140432.554000", "140432.557000", "140432.560000", "140512.465000", "140512.469000", "140512.472000", "140512.475000", "140512.479000", "140512.482000", "140512.485000", "140512.488000", "140512.492000", "140512.495000", "140512.498000", "140512.502000", "140512.505000", "140512.509000", "140512.512000", "140512.515000", "140512.519000", "140512.522000", "140512.525000", "140512.529000", "140512.532000", "140512.535000", "140512.548000", "140512.552000", "140512.555000", "140512.558000", "140512.562000", "140552.464000", "140552.468000", "140552.471000", "140552.474000", "140552.478000", "140552.481000", "140552.484000", "140552.488000", "140552.491000", "140552.494000", "140552.497000", "140552.501000", "140552.504000", "140552.507000", "140552.511000", "140552.514000", "140552.517000", "140552.521000", "140552.524000", "140552.527000", "140552.530000", "140552.534000", "140552.537000", "140552.540000", "140552.544000", "140552.547000", "140552.550000", "140632.464000", "140632.468000", "140632.471000", "140632.474000", "140632.478000", "140632.481000", "140632.484000", "140632.488000", "140632.491000", "140632.494000", "140632.498000", "140632.501000", "140632.504000", "140632.507000", "140632.511000", "140632.514000", "140632.517000", "140632.521000", "140632.535000", "140632.539000", "140632.542000", "140632.545000", "140632.548000", "140632.552000", "140632.555000", "140632.558000", "140632.562000", "140712.465000", "140712.469000", "140712.472000", "140712.475000", "140712.479000", "140712.482000", "140712.485000", "140712.489000", "140712.492000", "140712.495000", "140712.499000", "140712.502000", "140712.505000", "140712.508000", "140712.512000", "140712.515000", "140712.518000", "140712.522000", "140712.525000", "140712.528000", "140712.531000", "140712.535000", "140712.538000", "140712.541000", "140712.544000", "140712.548000", "140712.551000", "140752.465000", "140752.469000", "140752.472000", "140752.485000", "140752.488000", "140752.492000", "140752.495000", "140752.499000", "140752.503000", "140752.506000", "140752.523000", "140752.526000", "140752.530000", "140752.533000", "140752.536000", "140752.540000", "140752.543000", "140752.546000", "140752.550000", "140752.553000", "140752.556000", "140752.559000", "140752.563000", "140752.566000", "140752.569000", "140752.573000", "140832.464000", "140832.468000", "140832.471000", "140832.475000", "140832.478000", "140832.481000", "140832.485000", "140832.488000", "140832.492000", "140832.496000", "140832.499000", "140832.502000", "140832.506000", "140832.509000", "140832.512000", "140832.516000", "140832.519000", "140832.522000", "140832.526000", "140832.529000", "140832.532000", "140832.535000", "140832.539000", "140832.542000", "140832.546000", "140832.549000", "140832.552000", "140912.464000", "140912.468000", "140912.471000", "140912.475000", "140912.478000", "140912.481000", "140912.485000", "140912.488000", "140912.491000", "140912.494000", "140912.498000", "140912.501000", "140912.504000", "140912.508000", "140912.511000", "140912.514000", "140912.518000", "140912.521000", "140912.524000", "140912.528000", "140912.531000", "140912.534000", "140912.537000", "140912.541000", "140912.544000", "140912.547000", "140912.551000", "140943.198000", "140943.202000", "140943.206000", "140943.210000", "140943.214000", "140943.217000", "140943.220000", "140943.224000", "140943.228000", "140943.231000", "140943.234000", "140943.238000", "140943.241000", "140943.244000", "140943.248000", "140943.251000", "140943.255000", "140943.258000", "140943.262000", "140943.265000", "140943.268000"],
      "InstanceNumber": [1, 2, 3, 4, 5, 6, 7, 8, 9, 10, 11, 12, 13, 14, 15, 16, 17, 18, 19, 20, 21, 22, 23, 24, 25, 26, 27, 28, 29, 30, 31, 32, 33, 34, 35, 36, 37, 38, 39, 40, 41, 42, 43, 44, 45, 46, 47, 48, 49, 50, 51, 52, 53, 54, 55, 56, 57, 58, 59, 60, 61, 62, 63, 64, 65, 66, 67, 68, 69, 70, 71, 72, 73, 74, 75, 76, 77, 78, 79, 80, 81, 82, 83, 84, 85, 86, 87, 88, 89, 90, 91, 92, 93, 94, 95, 96, 97, 98, 99, 100, 101, 102, 103, 104, 105, 106, 107, 108, 109, 110, 111, 112, 113, 114, 115, 116, 117, 118, 119, 120, 121, 122, 123, 124, 125, 126, 127, 128, 129, 130, 131, 132, 133, 134, 135, 136, 137, 138, 139, 140, 141, 142, 143, 144, 145, 146, 147, 148, 149, 150, 151, 152, 153, 154, 155, 156, 157, 158, 159, 160, 161, 162, 163, 164, 165, 166, 167, 168, 169, 170, 171, 172, 173, 174, 175, 176, 177, 178, 179, 180, 181, 182, 183, 184, 185, 186, 187, 188, 189, 190, 191, 192, 193, 194, 195, 196, 197, 198, 199, 200, 201, 202, 203, 204, 205, 206, 207, 208, 209, 210, 211, 212, 213, 214, 215, 216, 217, 218, 219, 220, 221, 222, 223, 224, 225, 226, 227, 228, 229, 230, 231, 232, 233, 234, 235, 236, 237, 238, 239, 240, 241, 242, 243, 244, 245, 246, 247, 248, 249, 250, 251, 252, 253, 254, 255, 256, 257, 258, 259, 260, 261, 262, 263, 264, 265, 266, 267, 268, 269, 270, 271, 272, 273, 274, 275, 276, 277, 278, 279, 280, 281, 282, 283, 284, 285, 286, 287, 288, 289, 290, 291, 292, 293, 294, 295, 296, 297, 298, 299, 300, 301, 302, 303, 304, 305, 306, 307, 308, 309, 310, 311, 312, 313, 314, 315, 316, 317, 318, 319, 320, 321, 322, 323, 324, 325],
      "LargestImagePixelValue": [41542, 40854, 39930, 39272, 39817, 39114, 38602, 39042, 39264, 39058, 38637, 38675, 39118, 38669, 38856, 38929, 38633, 38231, 38908, 38220, 38313, 39470, 38936, 38352, 38096, 37815, 38503, 38139, 38245, 38479, 38319, 38351, 38347, 38196, 37752, 37383, 37749, 37837, 37893, 37912, 37358, 37500, 37557, 37754, 37914, 37896, 37778, 37538, 38089, 37999, 38455, 37720, 38049, 38158, 38446, 38171, 38104, 38412, 38329, 38236, 38343, 37781, 37980, 37833, 38120, 38304, 37802, 38203, 38354, 38374, 38413, 38167, 37984, 38300, 38613, 38828, 38791, 37603, 37671, 38060, 37805, 38097, 38138, 38015, 38485, 37995, 37722, 37992, 37726, 37771, 37399, 37852, 38320, 38264, 38052, 37556, 38167, 38154, 37693, 38354, 38947, 38198, 38427, 38257, 37395, 37602, 37591, 37780, 37646, 38317, 38221, 38279, 38488, 38107, 38500, 38246, 38527, 38604, 37870, 37855, 37874, 38241, 37844, 37942, 38546, 37804, 38580, 38556, 38625, 38905, 38303, 37822, 38104, 38438, 38201, 37996, 37990, 38324, 38434, 38378, 38828, 38023, 37677, 38190, 38362, 38160, 38280, 38571, 38694, 38635, 39061, 38411, 38148, 37870, 38690, 38759, 39124, 39232, 39438, 38644, 39282, 39294, 38260, 38306, 38193, 38018, 38597, 39173, 38945, 38934, 38833, 38614, 38479, 38622, 39224, 38874, 37830, 38184, 37668, 39113, 39434, 39039, 39383, 39329, 39589, 39408, 39599, 39798, 39558, 39689, 39717, 39497, 39620, 39818, 39563, 39477, 39759, 39435, 39745, 39761, 39957, 39585, 39446, 39294, 39815, 39642, 39308, 39533, 39568, 40026, 39925, 40277, 39196, 38419, 38766, 38675, 38679, 38575, 38542, 38426, 38753, 38831, 38314, 38181, 38320, 38804, 37960, 38084, 37903, 38059, 38624, 38232, 39490, 39454, 39240, 39561, 39578, 39407, 38758, 38541, 38260, 38112, 37710, 38928, 38925, 38365, 37747, 38148, 38321, 39085, 39341, 37965, 37876, 38078, 38181, 38238, 37413, 37954, 37786, 37573, 37606, 37793, 37933, 37893, 38028, 37968, 37974, 37575, 37626, 37837, 37334, 38010, 38229, 37708, 37932, 37970, 37868, 37607, 37862, 37851, 37851, 38037, 37894, 37598, 37973, 37853, 38141, 37617, 37716, 37910, 38060, 37689, 38172, 38225, 38007, 37925, 38584, 38010, 38469, 37778, 38007, 37827, 37944, 37858, 37890, 37245, 37468, 37788, 37837, 37329, 38055, 40707, 38745, 37374, 37796, 37939, 38229, 38358, 38361, 37811, 37572, 37572, 37472, 37402, 37302],
