{
  "AcquisitionMatrixPE": 104,
  "AcquisitionNumber": 1,
  "AcquisitionTime": "14:01:37.600000",
  "BandwidthPerPixelPhaseEncode": 17.17,
  "BaseResolution": 104,
  "BodyPartExamined": "BRAIN",
  "CoilCombinationMethod": "Sum of Squares",
  "ConsistencyInfo": "N4_VE11C_LATEST_20160120",
  "ConversionSoftware": "dcm2niix",
  "ConversionSoftwareVersion": "v1.0.20220505",
  "DerivedVendorReportedEchoSpacing": 0.000560011,
  "DeviceSerialNumber": "167006",
  "DwellTime": 2.1e-06,
  "EchoTime": 0.037,
  "EchoTime1": 0.037,
  "EchoTime2": 0.001,
  "EchoTrainLength": 104,
  "EffectiveEchoSpacing": 0.000560011,
  "FlipAngle": 52,
  "HeudiconvVersion": "0.5.3.post811+g6206e14",
  "ImageComments": "Unaliased MB4/PE3/LB",
  "ImageOrientationPatientDICOM": [0.999258, 0.0303676, 0.0236755, -0.0228508, 0.962543, -0.270165],
  "ImageOrientationText": "Tra>Cor(-15.6)>Sag(1.8)",
  "ImageType": [
    "ORIGINAL",
    "PRIMARY",
    "P",
    "MB",
    "ND",
    "MOSAIC",
    "PHASE"
],
  "ImagingFrequency": 123.26,
  "InPlanePhaseEncodingDirectionDICOM": "COL",
  "InstitutionAddress": "Chemin Queen-Mary 4565,Montreal,District,CA,H3W 1W5",
  "InstitutionName": "IUGM",
  "InstitutionalDepartmentName": "Department",
  "MRAcquisitionType": "2D",
  "MagneticFieldStrength": 3,
  "Manufacturer": "Siemens",
  "ManufacturersModelName": "Prisma_fit",
  "MatrixCoilMode": "SENSE",
  "Modality": "MR",
  "MultibandAccelerationFactor": 4,
  "PartialFourier": 1,
  "PatientPosition": "HFS",
  "PercentPhaseFOV": 100,
  "PercentSampling": 100,
  "PhaseEncodingDirection": "j",
  "PhaseEncodingSteps": 104,
  "PhaseResolution": 1,
  "PixelBandwidth": 2290,
  "ProcedureStepDescription": "games^mario3",
  "ProtocolName": "func_task-mario3_run-04",
  "PulseSequenceDetails": "%CustomerSeq%\\cmrr_mbep2d_bold",
  "ReceiveCoilActiveElements": "HC1-7;NC1,2",
  "ReceiveCoilName": "HeadNeck_64",
  "ReconMatrixPE": 104,
  "RepetitionTime": 1.49,
  "SAR": 0.0458441,
  "ScanOptions": "FS",
  "ScanningSequence": "EP",
  "SequenceName": "epfid2d1_104",
  "SequenceVariant": "SK\\SS",
  "SeriesDescription": "func_task-mario3_run-04",
  "SeriesNumber": 20,
  "ShimSetting": [627, -7201, -8753, 691, 75, 50, 40, -19],
  "SliceThickness": 2,
  "SliceTiming": [0, 0.785, 0.0975, 0.8825, 0.1975, 0.98, 0.295, 1.0775, 0.3925, 1.1775, 0.49, 1.275, 0.5875, 1.3725, 0.6875, 0, 0.785, 0.0975, 0.8825, 0.1975, 0.98, 0.295, 1.0775, 0.3925, 1.1775, 0.49, 1.275, 0.5875, 1.3725, 0.6875, 0, 0.785, 0.0975, 0.8825, 0.1975, 0.98, 0.295, 1.0775, 0.3925, 1.1775, 0.49, 1.275, 0.5875, 1.3725, 0.6875, 0, 0.785, 0.0975, 0.8825, 0.1975, 0.98, 0.295, 1.0775, 0.3925, 1.1775, 0.49, 1.275, 0.5875, 1.3725, 0.6875],
  "SoftwareVersions": "syngo MR E11",
  "SpacingBetweenSlices": 2,
  "StationName": "MRC35049",
  "TaskName": "mario3",
  "TotalReadoutTime": 0.0576811,
  "TxRefAmp": 212.617,
  "WipMemBlock": "3174ff05-e95d-49e2-a3c7-8f32b16ebe08||Sequence: R017 ve11c/master r/75a17815+; Jun 28 2022 16:32:11 by eja",
  "dcmmeta_affine": [
    [-1.9985166788101196, -0.04570164903998375, 0.061985865235328674, 109.50057220458984],
    [-0.06073527783155441, 1.9250859022140503, -0.5388465523719788, -69.95941162109375],
    [0.04735096916556358, 0.5403293371200562, 1.9250459671020508, -55.88344955444336],
    [0.0, 0.0, 0.0, 1.0]
],
  "dcmmeta_reorient_transform": [
    [0.0, -1.0, 0.0, 103.0],
    [1.0, 0.0, 0.0, 0.0],
    [0.0, 0.0, 1.0, 0.0],
    [0.0, 0.0, 0.0, 1.0]
],
  "dcmmeta_shape": [104, 104, 60, 325],
  "dcmmeta_slice_dim": 2,
  "dcmmeta_version": 0.6,
  "global": {
    "const": {
      "AcquisitionMatrix": [104, 0, 0, 104],
      "AngioFlag": "N",
      "BitsAllocated": 16,
      "BitsStored": 16,
      "BodyPartExamined": "BRAIN",
      "Columns": 832,
      "EchoNumbers": 1,
      "EchoTime": 37.0,
      "EchoTrainLength": 104,
      "FlipAngle": 52.0,
      "HighBit": 15,
      "ImageOrientationPatient": [0.99925836395945, 0.030367639462, 0.02367548374564, -0.0228508248174, 0.96254293311826, -0.2701646566619],
      "ImagePositionPatient": [-815.61798814501, -851.16333153997, 179.21458718801],
      "ImageType": [
        "ORIGINAL",
        "PRIMARY",
        "P",
        "MB",
        "ND",
        "MOSAIC"
],
      "ImagedNucleus": "1H",
      "ImagingFrequency": 123.260409,
      "InPlanePhaseEncodingDirection": "COL",
      "LargestImagePixelValue": 4095,
      "MRAcquisitionType": "2D",
      "MagneticFieldStrength": 3.0,
      "Manufacturer": "SIEMENS",
      "ManufacturerModelName": "Prisma_fit",
      "Modality": "MR",
      "NumberOfAverages": 1.0,
      "NumberOfPhaseEncodingSteps": 104,
      "PercentPhaseFieldOfView": 100.0,
      "PercentSampling": 100.0,
      "PerformedProcedureStepStartTime": "115807.186000",
      "PhotometricInterpretation": "MONOCHROME2",
      "PixelBandwidth": 2290.0,
      "PixelRepresentation": 0,
      "PixelSpacing": [2.0, 2.0],
      "ProtocolName": "func_task-mario3_run-04",
      "RepetitionTime": 1490.0,
      "RescaleIntercept": -4096.0,
      "RescaleSlope": 2.0,
      "RescaleType": "US",
      "Rows": 832,
      "SAR": 0.04584407411812,
      "SamplesPerPixel": 1,
      "ScanOptions": "FS",
      "ScanningSequence": "EP",
      "SequenceName": "epfid2d1_104",
      "SequenceVariant": [
        "SK",
        "SS"
],
      "SeriesDescription": "func_task-mario3_run-04",
      "SeriesNumber": 20,
      "SeriesTime": "140252.639000",
      "SliceLocation": -31.546668105929,
      "SliceThickness": 2.0,
      "SmallestImagePixelValue": 0,
      "SoftwareVersions": "syngo MR E11",
      "SpacingBetweenSlices": 2.0000000145847,
      "SpecificCharacterSet": "ISO_IR 100",
      "StudyID": "1",
      "StudyTime": "115807.019000",
      "TransmitCoilName": "Body",
      "VariableFlipAngleFlag": "N",
      "WindowCenterWidthExplanation": "Algo1",
      "dBdt": 0.0},
    "slices": {}
  },
  "time": {
    "samples": {
      "AcquisitionNumber": [1, 2, 3, 4, 5, 6, 7, 8, 9, 10, 11, 12, 13, 14, 15, 16, 17, 18, 19, 20, 21, 22, 23, 24, 25, 26, 27, 28, 29, 30, 31, 32, 33, 34, 35, 36, 37, 38, 39, 40, 41, 42, 43, 44, 45, 46, 47, 48, 49, 50, 51, 52, 53, 54, 55, 56, 57, 58, 59, 60, 61, 62, 63, 64, 65, 66, 67, 68, 69, 70, 71, 72, 73, 74, 75, 76, 77, 78, 79, 80, 81, 82, 83, 84, 85, 86, 87, 88, 89, 90, 91, 92, 93, 94, 95, 96, 97, 98, 99, 100, 101, 102, 103, 104, 105, 106, 107, 108, 109, 110, 111, 112, 113, 114, 115, 116, 117, 118, 119, 120, 121, 122, 123, 124, 125, 126, 127, 128, 129, 130, 131, 132, 133, 134, 135, 136, 137, 138, 139, 140, 141, 142, 143, 144, 145, 146, 147, 148, 149, 150, 151, 152, 153, 154, 155, 156, 157, 158, 159, 160, 161, 162, 163, 164, 165, 166, 167, 168, 169, 170, 171, 172, 173, 174, 175, 176, 177, 178, 179, 180, 181, 182, 183, 184, 185, 186, 187, 188, 189, 190, 191, 192, 193, 194, 195, 196, 197, 198, 199, 200, 201, 202, 203, 204, 205, 206, 207, 208, 209, 210, 211, 212, 213, 214, 215, 216, 217, 218, 219, 220, 221, 222, 223, 224, 225, 226, 227, 228, 229, 230, 231, 232, 233, 234, 235, 236, 237, 238, 239, 240, 241, 242, 243, 244, 245, 246, 247, 248, 249, 250, 251, 252, 253, 254, 255, 256, 257, 258, 259, 260, 261, 262, 263, 264, 265, 266, 267, 268, 269, 270, 271, 272, 273, 274, 275, 276, 277, 278, 279, 280, 281, 282, 283, 284, 285, 286, 287, 288, 289, 290, 291, 292, 293, 294, 295, 296, 297, 298, 299, 300, 301, 302, 303, 304, 305, 306, 307, 308, 309, 310, 311, 312, 313, 314, 315, 316, 317, 318, 319, 320, 321, 322, 323, 324, 325],
      "AcquisitionTime": ["140137.600000", "140139.090000", "140140.580000", "140142.070000", "140143.560000", "140145.050000", "140146.540000", "140148.030000", "140149.520000", "140151.010000", "140152.500000", "140153.990000", "140155.480000", "140156.970000", "140158.460000", "140159.950000", "140201.440000", "140202.930000", "140204.420000", "140205.910000", "140207.400000", "140208.890000", "140210.380000", "140211.870000", "140213.360000", "140214.850000", "140216.340000", "140217.830000", "140219.320000", "140220.810000", "140222.300000", "140223.790000", "140225.280000", "140226.770000", "140228.260000", "140229.750000", "140231.240000", "140232.730000", "140234.220000", "140235.710000", "140237.200000", "140238.690000", "140240.180000", "140241.670000", "140243.160000", "140244.650000", "140246.140000", "140247.630000", "140249.120000", "140250.610000", "140252.100000", "140253.590000", "140255.080000", "140256.570000", "140258.060000", "140259.550000", "140301.040000", "140302.530000", "140304.020000", "140305.510000", "140307.000000", "140308.490000", "140309.980000", "140311.470000", "140312.960000", "140314.450000", "140315.940000", "140317.430000", "140318.920000", "140320.410000", "140321.900000", "140323.390000", "140324.880000", "140326.370000", "140327.860000", "140329.350000", "140330.840000", "140332.330000", "140333.820000", "140335.310000", "140336.800000", "140338.290000", "140339.780000", "140341.270000", "140342.760000", "140344.250000", "140345.740000", "140347.230000", "140348.720000", "140350.210000", "140351.700000", "140353.190000", "140354.680000", "140356.170000", "140357.660000", "140359.150000", "140400.640000", "140402.130000", "140403.620000", "140405.110000", "140406.600000", "140408.090000", "140409.580000", "140411.070000", "140412.560000", "140414.050000", "140415.540000", "140417.030000", "140418.520000", "140420.010000", "140421.500000", "140422.990000", "140424.480000", "140425.970000", "140427.460000", "140428.950000", "140430.440000", "140431.930000", "140433.420000", "140434.910000", "140436.400000", "140437.890000", "140439.380000", "140440.870000", "140442.360000", "140443.850000", "140445.340000", "140446.830000", "140448.320000", "140449.810000", "140451.300000", "140452.790000", "140454.280000", "140455.770000", "140457.260000", "140458.750000", "140500.240000", "140501.730000", "140503.220000", "140504.710000", "140506.200000", "140507.690000", "140509.180000", "140510.670000", "140512.160000", "140513.650000", "140515.140000", "140516.630000", "140518.120000", "140519.610000", "140521.100000", "140522.590000", "140524.080000", "140525.570000", "140527.060000", "140528.550000", "140530.040000", "140531.530000", "140533.020000", "140534.510000", "140536.000000", "140537.490000", "140538.980000", "140540.470000", "140541.960000", "140543.450000", "140544.940000", "140546.430000", "140547.920000", "140549.410000", "140550.900000", "140552.390000", "140553.880000", "140555.370000", "140556.860000", "140558.350000", "140559.840000", "140601.330000", "140602.820000", "140604.310000", "140605.800000", "140607.290000", "140608.780000", "140610.270000", "140611.760000", "140613.250000", "140614.740000", "140616.230000", "140617.720000", "140619.210000", "140620.700000", "140622.190000", "140623.680000", "140625.170000", "140626.660000", "140628.150000", "140629.640000", "140631.130000", "140632.620000", "140634.110000", "140635.600000", "140637.090000", "140638.580000", "140640.070000", "140641.560000", "140643.050000", "140644.540000", "140646.030000", "140647.520000", "140649.010000", "140650.500000", "140651.990000", "140653.480000", "140654.970000", "140656.460000", "140657.950000", "140659.440000", "140700.930000", "140702.420000", "140703.910000", "140705.400000", "140706.890000", "140708.380000", "140709.870000", "140711.360000", "140712.850000", "140714.340000", "140715.830000", "140717.320000", "140718.810000", "140720.300000", "140721.790000", "140723.280000", "140724.770000", "140726.260000", "140727.750000", "140729.240000", "140730.730000", "140732.220000", "140733.710000", "140735.200000", "140736.690000", "140738.180000", "140739.670000", "140741.160000", "140742.650000", "140744.140000", "140745.630000", "140747.120000", "140748.610000", "140750.100000", "140751.590000", "140753.080000", "140754.570000", "140756.060000", "140757.550000", "140759.040000", "140800.530000", "140802.020000", "140803.510000", "140805.000000", "140806.490000", "140807.980000", "140809.470000", "140810.960000", "140812.450000", "140813.940000", "140815.430000", "140816.920000", "140818.410000", "140819.900000", "140821.390000", "140822.880000", "140824.370000", "140825.860000", "140827.350000", "140828.840000", "140830.330000", "140831.820000", "140833.310000", "140834.800000", "140836.290000", "140837.780000", "140839.270000", "140840.760000", "140842.250000", "140843.740000", "140845.230000", "140846.720000", "140848.210000", "140849.700000", "140851.190000", "140852.680000", "140854.170000", "140855.660000", "140857.150000", "140858.640000", "140900.130000", "140901.620000", "140903.110000", "140904.600000", "140906.090000", "140907.580000", "140909.070000", "140910.560000", "140912.050000", "140913.540000", "140915.030000", "140916.520000", "140918.010000", "140919.500000", "140920.990000", "140922.480000", "140923.970000", "140925.460000", "140926.950000", "140928.440000", "140929.930000", "140931.420000", "140932.910000", "140934.400000", "140935.890000", "140937.380000", "140938.870000", "140940.360000"],
      "ContentTime": ["140252.641000", "140252.643000", "140252.646000", "140252.648000", "140252.651000", "140252.653000", "140252.656000", "140252.658000", "140252.661000", "140252.663000", "140252.666000", "140252.668000", "140252.670000", "140252.673000", "140252.675000", "140252.678000", "140252.680000", "140252.683000", "140252.685000", "140252.688000", "140252.690000", "140252.693000", "140252.695000", "140252.698000", "140252.700000", "140252.703000", "140312.575000", "140312.578000", "140312.581000", "140312.583000", "140312.585000", "140312.588000", "140312.590000", "140312.593000", "140312.600000", "140312.603000", "140312.610000", "140312.612000", "140312.615000", "140312.617000", "140312.620000", "140312.622000", "140312.624000", "140312.627000", "140312.629000", "140312.632000", "140332.574000", "140332.577000", "140332.579000", "140332.582000", "140332.585000", "140332.587000", "140332.589000", "140332.592000", "140332.594000", "140332.597000", "140332.599000", "140332.602000", "140332.604000", "140332.607000", "140332.609000", "140332.612000", "140332.614000", "140332.617000", "140332.619000", "140332.622000", "140352.619000", "140352.622000", "140352.624000", "140352.627000", "140352.629000", "140352.632000", "140352.634000", "140352.637000", "140352.639000", "140352.642000", "140352.644000", "140352.647000", "140352.649000", "140352.651000", "140352.654000", "140352.656000", "140352.659000", "140352.661000", "140352.664000", "140352.666000", "140432.604000", "140432.607000", "140432.609000", "140432.612000", "140432.614000", "140432.617000", "140432.619000", "140432.622000", "140432.624000", "140432.627000", "140432.629000", "140432.632000", "140432.634000", "140432.637000", "140432.639000", "140432.642000", "140432.644000", "140432.646000", "140432.649000", "140432.651000", "140432.654000", "140432.656000", "140432.659000", "140432.661000", "140432.664000", "140432.666000", "140432.669000", "140432.671000", "140432.674000", "140432.676000", "140512.612000", "140512.620000", "140512.623000", "140512.625000", "140512.628000", "140512.630000", "140512.633000", "140512.635000", "140512.638000", "140512.640000", "140512.643000", "140512.645000", "140512.648000", "140512.650000", "140512.652000", "140512.655000", "140512.657000", "140512.660000", "140512.662000", "140512.665000", "140512.667000", "140512.670000", "140512.672000", "140512.675000", "140512.677000", "140512.680000", "140512.682000", "140552.603000", "140552.606000", "140552.608000", "140552.611000", "140552.613000", "140552.615000", "140552.627000", "140552.629000", "140552.632000", "140552.634000", "140552.637000", "140552.639000", "140552.642000", "140552.644000", "140552.647000", "140552.649000", "140552.652000", "140552.654000", "140552.657000", "140552.659000", "140552.662000", "140552.664000", "140552.667000", "140552.669000", "140552.672000", "140552.674000", "140552.677000", "140632.628000", "140632.631000", "140632.633000", "140632.636000", "140632.638000", "140632.641000", "140632.643000", "140632.646000", "140632.648000", "140632.650000", "140632.653000", "140632.655000", "140632.658000", "140632.660000", "140632.663000", "140632.670000", "140632.672000", "140632.675000", "140632.677000", "140632.680000", "140632.683000", "140632.685000", "140632.687000", "140632.690000", "140632.693000", "140632.695000", "140632.698000", "140712.596000", "140712.599000", "140712.601000", "140712.604000", "140712.606000", "140712.609000", "140712.611000", "140712.614000", "140712.616000", "140712.619000", "140712.621000", "140712.624000", "140712.626000", "140712.635000", "140712.638000", "140712.640000", "140712.643000", "140712.645000", "140712.648000", "140712.650000", "140712.653000", "140712.656000", "140712.658000", "140712.661000", "140712.663000", "140712.666000", "140712.668000", "140752.621000", "140752.624000", "140752.626000", "140752.629000", "140752.631000", "140752.634000", "140752.636000", "140752.639000", "140752.642000", "140752.644000", "140752.647000", "140752.649000", "140752.652000", "140752.654000", "140752.657000", "140752.659000", "140752.661000", "140752.664000", "140752.666000", "140752.669000", "140752.671000", "140752.674000", "140752.676000", "140752.679000", "140752.681000", "140752.684000", "140832.601000", "140832.604000", "140832.607000", "140832.609000", "140832.612000", "140832.614000", "140832.617000", "140832.619000", "140832.622000", "140832.624000", "140832.627000", "140832.629000", "140832.631000", "140832.634000", "140832.636000", "140832.639000", "140832.642000", "140832.644000", "140832.646000", "140832.649000", "140832.651000", "140832.654000", "140832.657000", "140832.659000", "140832.662000", "140832.664000", "140832.667000", "140912.608000", "140912.611000", "140912.614000", "140912.616000", "140912.619000", "140912.621000", "140912.624000", "140912.626000", "140912.629000", "140912.631000", "140912.634000", "140912.636000", "140912.639000", "140912.641000", "140912.643000", "140912.646000", "140912.648000", "140912.651000", "140912.654000", "140912.656000", "140912.658000", "140912.661000", "140912.663000", "140912.666000", "140912.668000", "140912.671000", "140912.673000", "140943.308000", "140943.311000", "140943.314000", "140943.316000", "140943.319000", "140943.321000", "140943.324000", "140943.326000", "140943.329000", "140943.331000", "140943.334000", "140943.336000", "140943.339000", "140943.341000", "140943.344000", "140943.346000", "140943.362000", "140943.365000", "140943.370000", "140943.373000", "140943.376000"],
      "InstanceCreationTime": ["140252.641000", "140252.643000", "140252.646000", "140252.648000", "140252.651000", "140252.653000", "140252.656000", "140252.658000", "140252.661000", "140252.663000", "140252.666000", "140252.668000", "140252.670000", "140252.673000", "140252.675000", "140252.678000", "140252.680000", "140252.683000", "140252.685000", "140252.688000", "140252.690000", "140252.693000", "140252.695000", "140252.698000", "140252.700000", "140252.703000", "140312.575000", "140312.578000", "140312.581000", "140312.583000", "140312.585000", "140312.588000", "140312.590000", "140312.593000", "140312.600000", "140312.603000", "140312.610000", "140312.612000", "140312.615000", "140312.617000", "140312.620000", "140312.622000", "140312.624000", "140312.627000", "140312.629000", "140312.632000", "140332.574000", "140332.577000", "140332.579000", "140332.582000", "140332.585000", "140332.587000", "140332.589000", "140332.592000", "140332.594000", "140332.597000", "140332.599000", "140332.602000", "140332.604000", "140332.607000", "140332.609000", "140332.612000", "140332.614000", "140332.617000", "140332.619000", "140332.622000", "140352.619000", "140352.622000", "140352.624000", "140352.627000", "140352.629000", "140352.632000", "140352.634000", "140352.637000", "140352.639000", "140352.642000", "140352.644000", "140352.647000", "140352.649000", "140352.651000", "140352.654000", "140352.656000", "140352.659000", "140352.661000", "140352.664000", "140352.666000", "140432.604000", "140432.607000", "140432.609000", "140432.612000", "140432.614000", "140432.617000", "140432.619000", "140432.622000", "140432.624000", "140432.627000", "140432.629000", "140432.632000", "140432.634000", "140432.637000", "140432.639000", "140432.642000", "140432.644000", "140432.646000", "140432.649000", "140432.651000", "140432.654000", "140432.656000", "140432.659000", "140432.661000", "140432.664000", "140432.666000", "140432.669000", "140432.671000", "140432.674000", "140432.676000", "140512.612000", "140512.620000", "140512.623000", "140512.625000", "140512.628000", "140512.630000", "140512.633000", "140512.635000", "140512.638000", "140512.640000", "140512.643000", "140512.645000", "140512.648000", "140512.650000", "140512.652000", "140512.655000", "140512.657000", "140512.660000", "140512.662000", "140512.665000", "140512.667000", "140512.670000", "140512.672000", "140512.675000", "140512.677000", "140512.680000", "140512.682000", "140552.603000", "140552.606000", "140552.608000", "140552.611000", "140552.613000", "140552.615000", "140552.627000", "140552.629000", "140552.632000", "140552.634000", "140552.637000", "140552.639000", "140552.642000", "140552.644000", "140552.647000", "140552.649000", "140552.652000", "140552.654000", "140552.657000", "140552.659000", "140552.662000", "140552.664000", "140552.667000", "140552.669000", "140552.672000", "140552.674000", "140552.677000", "140632.628000", "140632.631000", "140632.633000", "140632.636000", "140632.638000", "140632.641000", "140632.643000", "140632.646000", "140632.648000", "140632.650000", "140632.653000", "140632.655000", "140632.658000", "140632.660000", "140632.663000", "140632.670000", "140632.672000", "140632.675000", "140632.677000", "140632.680000", "140632.683000", "140632.685000", "140632.687000", "140632.690000", "140632.693000", "140632.695000", "140632.698000", "140712.596000", "140712.599000", "140712.601000", "140712.604000", "140712.606000", "140712.609000", "140712.611000", "140712.614000", "140712.616000", "140712.619000", "140712.621000", "140712.624000", "140712.626000", "140712.635000", "140712.638000", "140712.640000", "140712.643000", "140712.645000", "140712.648000", "140712.650000", "140712.653000", "140712.656000", "140712.658000", "140712.661000", "140712.663000", "140712.666000", "140712.668000", "140752.621000", "140752.624000", "140752.626000", "140752.629000", "140752.631000", "140752.634000", "140752.636000", "140752.639000", "140752.642000", "140752.644000", "140752.647000", "140752.649000", "140752.652000", "140752.654000", "140752.657000", "140752.659000", "140752.661000", "140752.664000", "140752.666000", "140752.669000", "140752.671000", "140752.674000", "140752.676000", "140752.679000", "140752.681000", "140752.684000", "140832.601000", "140832.604000", "140832.607000", "140832.609000", "140832.612000", "140832.614000", "140832.617000", "140832.619000", "140832.622000", "140832.624000", "140832.627000", "140832.629000", "140832.631000", "140832.634000", "140832.636000", "140832.639000", "140832.642000", "140832.644000", "140832.646000", "140832.649000", "140832.651000", "140832.654000", "140832.657000", "140832.659000", "140832.662000", "140832.664000", "140832.667000", "140912.608000", "140912.611000", "140912.614000", "140912.616000", "140912.619000", "140912.621000", "140912.624000", "140912.626000", "140912.629000", "140912.631000", "140912.634000", "140912.636000", "140912.639000", "140912.641000", "140912.643000", "140912.646000", "140912.648000", "140912.651000", "140912.654000", "140912.656000", "140912.658000", "140912.661000", "140912.663000", "140912.666000", "140912.668000", "140912.671000", "140912.673000", "140943.308000", "140943.311000", "140943.314000", "140943.316000", "140943.319000", "140943.321000", "140943.324000", "140943.326000", "140943.329000", "140943.331000", "140943.334000", "140943.336000", "140943.339000", "140943.341000", "140943.344000", "140943.346000", "140943.362000", "140943.365000", "140943.370000", "140943.373000", "140943.376000"],
      "InstanceNumber": [1, 2, 3, 4, 5, 6, 7, 8, 9, 10, 11, 12, 13, 14, 15, 16, 17, 18, 19, 20, 21, 22, 23, 24, 25, 26, 27, 28, 29, 30, 31, 32, 33, 34, 35, 36, 37, 38, 39, 40, 41, 42, 43, 44, 45, 46, 47, 48, 49, 50, 51, 52, 53, 54, 55, 56, 57, 58, 59, 60, 61, 62, 63, 64, 65, 66, 67, 68, 69, 70, 71, 72, 73, 74, 75, 76, 77, 78, 79, 80, 81, 82, 83, 84, 85, 86, 87, 88, 89, 90, 91, 92, 93, 94, 95, 96, 97, 98, 99, 100, 101, 102, 103, 104, 105, 106, 107, 108, 109, 110, 111, 112, 113, 114, 115, 116, 117, 118, 119, 120, 121, 122, 123, 124, 125, 126, 127, 128, 129, 130, 131, 132, 133, 134, 135, 136, 137, 138, 139, 140, 141, 142, 143, 144, 145, 146, 147, 148, 149, 150, 151, 152, 153, 154, 155, 156, 157, 158, 159, 160, 161, 162, 163, 164, 165, 166, 167, 168, 169, 170, 171, 172, 173, 174, 175, 176, 177, 178, 179, 180, 181, 182, 183, 184, 185, 186, 187, 188, 189, 190, 191, 192, 193, 194, 195, 196, 197, 198, 199, 200, 201, 202, 203, 204, 205, 206, 207, 208, 209, 210, 211, 212, 213, 214, 215, 216, 217, 218, 219, 220, 221, 222, 223, 224, 225, 226, 227, 228, 229, 230, 231, 232, 233, 234, 235, 236, 237, 238, 239, 240, 241, 242, 243, 244, 245, 246, 247, 248, 249, 250, 251, 252, 253, 254, 255, 256, 257, 258, 259, 260, 261, 262, 263, 264, 265, 266, 267, 268, 269, 270, 271, 272, 273, 274, 275, 276, 277, 278, 279, 280, 281, 282, 283, 284, 285, 286, 287, 288, 289, 290, 291, 292, 293, 294, 295, 296, 297, 298, 299, 300, 301, 302, 303, 304, 305, 306, 307, 308, 309, 310, 311, 312, 313, 314, 315, 316, 317, 318, 319, 320, 321, 322, 323, 324, 325],
      "WindowCenter": [4776.0, 4772.0, 4774.0, 4770.0, 4776.0, 4800.0, 4774.0, 4776.0, 4774.0, 4780.0, 4774.0, 4774.0, 4772.0, 4768.0, 4772.0, 4772.0, 4772.0, 4774.0, 4774.0, 4776.0, 4770.0, 4746.0, 4744.0, 4768.0, 4770.0, 4770.0, 4772.0, 4772.0, 4772.0, 4774.0, 4774.0, 4774.0, 4774.0, 4774.0, 4774.0, 4772.0, 4772.0, 4776.0, 4746.0, 4750.0, 4776.0, 4772.0, 4772.0, 4776.0, 4772.0, 4772.0, 4770.0, 4776.0, 4774.0, 4772.0, 4774.0, 4774.0, 4778.0, 4750.0, 4772.0, 4774.0, 4772.0, 4750.0, 4746.0, 4752.0, 4754.0, 4776.0, 4752.0, 4750.0, 4772.0, 4774.0, 4770.0, 4772.0, 4772.0, 4772.0, 4778.0, 4750.0, 4750.0, 4776.0, 4776.0, 4770.0, 4770.0, 4770.0, 4776.0, 4776.0, 4776.0, 4774.0, 4774.0, 4776.0, 4774.0, 4774.0, 4772.0, 4772.0, 4774.0, 4774.0, 4748.0, 4752.0, 4752.0, 4772.0, 4774.0, 4778.0, 4772.0, 4774.0, 4774.0, 4772.0, 4776.0, 4774.0, 4750.0, 4752.0, 4772.0, 4770.0, 4778.0, 4774.0, 4752.0, 4752.0, 4776.0, 4750.0, 4776.0, 4774.0, 4776.0, 4750.0, 4772.0, 4774.0, 4754.0, 4752.0, 4752.0, 4772.0, 4774.0, 4750.0, 4772.0, 4748.0, 4774.0, 4774.0, 4750.0, 4748.0, 4752.0, 4752.0, 4772.0, 4752.0, 4776.0, 4754.0, 4754.0, 4752.0, 4750.0, 4772.0, 4750.0, 4750.0, 4780.0, 4778.0, 4774.0, 4752.0, 4774.0, 4774.0, 4776.0, 4750.0, 4752.0, 4750.0, 4772.0, 4772.0, 4776.0, 4774.0, 4778.0, 4774.0, 4776.0, 4774.0, 4774.0, 4776.0, 4774.0, 4774.0, 4752.0, 4750.0, 4776.0, 4752.0, 4776.0, 4774.0, 4774.0, 4776.0, 4776.0, 4776.0, 4774.0, 4774.0, 4774.0, 4752.0, 4774.0, 4772.0, 4776.0, 4772.0, 4774.0, 4774.0, 4778.0, 4776.0, 4780.0, 4776.0, 4776.0, 4772.0, 4776.0, 4776.0, 4774.0, 4774.0, 4774.0, 4778.0, 4776.0, 4776.0, 4776.0, 4776.0, 4778.0, 4774.0, 4778.0, 4772.0, 4770.0, 4772.0, 4772.0, 4770.0, 4772.0, 4774.0, 4768.0, 4774.0, 4780.0, 4774.0, 4770.0, 4776.0, 4774.0, 4772.0, 4772.0, 4772.0, 4776.0, 4774.0, 4776.0, 4770.0, 4770.0, 4748.0, 4772.0, 4774.0, 4772.0, 4774.0, 4772.0, 4746.0, 4774.0, 4772.0, 4776.0, 4772.0, 4776.0, 4772.0, 4772.0, 4772.0, 4774.0, 4772.0, 4774.0, 4774.0, 4776.0, 4778.0, 4774.0, 4774.0, 4750.0, 4774.0, 4776.0, 4770.0, 4770.0, 4774.0, 4770.0, 4774.0, 4772.0, 4776.0, 4774.0, 4776.0, 4774.0, 4770.0, 4778.0, 4772.0, 4776.0, 4776.0, 4774.0, 4772.0, 4774.0, 4772.0, 4748.0, 4750.0, 4750.0, 4772.0, 4772.0, 4768.0, 4774.0, 4770.0, 4748.0, 4770.0, 4750.0, 4776.0, 4774.0, 4770.0, 4772.0, 4774.0, 4780.0, 4776.0, 4776.0, 4772.0, 4750.0, 4774.0, 4750.0, 4772.0, 4774.0, 4774.0, 4776.0, 4776.0, 4750.0, 4752.0, 4750.0, 4774.0, 4770.0, 4752.0, 4772.0, 4774.0, 4754.0, 4778.0, 4752.0, 4750.0, 4772.0, 4770.0, 4776.0, 4756.0, 4752.0, 4756.0, 4776.0, 4748.0, 4776.0, 4770.0, 4764.0, 4768.0, 4772.0, 4776.0, 4778.0],
