{
  "AcquisitionMatrixPE": 104,
  "AcquisitionNumber": 1,
  "AcquisitionTime": "13:52:9.700000",
  "BandwidthPerPixelPhaseEncode": 17.17,
  "BaseResolution": 104,
  "BodyPartExamined": "BRAIN",
  "CoilCombinationMethod": "Sum of Squares",
  "ConsistencyInfo": "N4_VE11C_LATEST_20160120",
  "ConversionSoftware": "dcm2niix",
  "ConversionSoftwareVersion": "v1.0.20220505",
  "DerivedVendorReportedEchoSpacing": 0.000560011,
  "DeviceSerialNumber": "167006",
  "DwellTime": 2.1e-06,
  "EchoTime": 0.037,
  "EchoTrainLength": 104,
  "EffectiveEchoSpacing": 0.000560011,
  "FlipAngle": 52,
  "HeudiconvVersion": "0.5.3.post811+g6206e14",
  "ImageComments": "Unaliased MB4/PE3/LB",
  "ImageOrientationPatientDICOM": [0.999258, 0.0303676, 0.0236755, -0.0228508, 0.962543, -0.270165],
  "ImageOrientationText": "Tra>Cor(-15.6)>Sag(1.8)",
  "ImageType": [
    "ORIGINAL",
    "PRIMARY",
    "M",
    "MB",
    "ND",
    "MOSAIC"
],
  "ImagingFrequency": 123.26,
  "InPlanePhaseEncodingDirectionDICOM": "COL",
  "InstitutionAddress": "Chemin Queen-Mary 4565,Montreal,District,CA,H3W 1W5",
  "InstitutionName": "IUGM",
  "InstitutionalDepartmentName": "Department",
  "MRAcquisitionType": "2D",
  "MagneticFieldStrength": 3,
  "Manufacturer": "Siemens",
  "ManufacturersModelName": "Prisma_fit",
  "MatrixCoilMode": "SENSE",
  "Modality": "MR",
  "MultibandAccelerationFactor": 4,
  "PartialFourier": 1,
  "PatientPosition": "HFS",
  "PercentPhaseFOV": 100,
  "PercentSampling": 100,
  "PhaseEncodingDirection": "j",
  "PhaseEncodingSteps": 104,
  "PhaseResolution": 1,
  "PixelBandwidth": 2290,
  "ProcedureStepDescription": "games^mario3",
  "ProtocolName": "func_task-mario3_run-03",
  "PulseSequenceDetails": "%CustomerSeq%\\cmrr_mbep2d_bold",
  "ReceiveCoilActiveElements": "HC1-7;NC1,2",
  "ReceiveCoilName": "HeadNeck_64",
  "ReconMatrixPE": 104,
  "RepetitionTime": 1.49,
  "SAR": 0.0458441,
  "ScanOptions": "FS",
  "ScanningSequence": "EP",
  "SequenceName": "epfid2d1_104",
  "SequenceVariant": "SK\\SS",
  "SeriesDescription": "func_task-mario3_run-03",
  "SeriesNumber": 16,
  "ShimSetting": [627, -7201, -8753, 691, 75, 50, 40, -19],
  "SliceThickness": 2,
  "SliceTiming": [0, 0.7825, 0.0975, 0.88, 0.195, 0.98, 0.2925, 1.0775, 0.39, 1.175, 0.49, 1.2725, 0.5875, 1.37, 0.685, 0, 0.7825, 0.0975, 0.88, 0.195, 0.98, 0.2925, 1.0775, 0.39, 1.175, 0.49, 1.2725, 0.5875, 1.37, 0.685, 0, 0.7825, 0.0975, 0.88, 0.195, 0.98, 0.2925, 1.0775, 0.39, 1.175, 0.49, 1.2725, 0.5875, 1.37, 0.685, 0, 0.7825, 0.0975, 0.88, 0.195, 0.98, 0.2925, 1.0775, 0.39, 1.175, 0.49, 1.2725, 0.5875, 1.37, 0.685],
  "SoftwareVersions": "syngo MR E11",
  "SpacingBetweenSlices": 2,
  "StationName": "MRC35049",
  "TaskName": "mario3",
  "TotalReadoutTime": 0.0576811,
  "TxRefAmp": 212.617,
  "WipMemBlock": "ca6f6597-41bb-4406-9bde-133ab6557da6||Sequence: R017 ve11c/master r/75a17815+; Jun 28 2022 16:32:11 by eja",
  "dcmmeta_affine": [
    [-1.9985166788101196, -0.04570164903998375, 0.061985865235328674, 109.50057220458984],
    [-0.06073527783155441, 1.9250859022140503, -0.5388465523719788, -69.95941162109375],
    [0.04735096916556358, 0.5403293371200562, 1.9250459671020508, -55.88344955444336],
    [0.0, 0.0, 0.0, 1.0]
],
  "dcmmeta_reorient_transform": [
    [0.0, -1.0, 0.0, 103.0],
    [1.0, 0.0, 0.0, 0.0],
    [0.0, 0.0, 1.0, 0.0],
    [0.0, 0.0, 0.0, 1.0]
],
  "dcmmeta_shape": [104, 104, 60, 308],
  "dcmmeta_slice_dim": 2,
  "dcmmeta_version": 0.6,
  "global": {
    "const": {
      "AcquisitionMatrix": [104, 0, 0, 104],
      "AngioFlag": "N",
      "BitsAllocated": 16,
      "BitsStored": 16,
      "BodyPartExamined": "BRAIN",
      "Columns": 832,
      "EchoNumbers": 1,
      "EchoTime": 37.0,
      "EchoTrainLength": 104,
      "FlipAngle": 52.0,
      "HighBit": 15,
      "ImageOrientationPatient": [0.99925836395945, 0.030367639462, 0.02367548374564, -0.0228508248174, 0.96254293311826, -0.2701646566619],
      "ImagePositionPatient": [-815.61798814501, -851.16333153997, 179.21458718801],
      "ImageType": [
        "ORIGINAL",
        "PRIMARY",
        "M",
        "MB",
        "ND",
        "MOSAIC"
],
      "ImagedNucleus": "1H",
      "ImagingFrequency": 123.260405,
      "InPlanePhaseEncodingDirection": "COL",
      "MRAcquisitionType": "2D",
      "MagneticFieldStrength": 3.0,
      "Manufacturer": "SIEMENS",
      "ManufacturerModelName": "Prisma_fit",
      "Modality": "MR",
      "NumberOfAverages": 1.0,
      "NumberOfPhaseEncodingSteps": 104,
      "PercentPhaseFieldOfView": 100.0,
      "PercentSampling": 100.0,
      "PerformedProcedureStepStartTime": "115807.186000",
      "PhotometricInterpretation": "MONOCHROME2",
      "PixelBandwidth": 2290.0,
      "PixelRepresentation": 0,
      "PixelSpacing": [2.0, 2.0],
      "ProtocolName": "func_task-mario3_run-03",
      "RepetitionTime": 1490.0,
      "Rows": 832,
      "SAR": 0.04584407411812,
      "SamplesPerPixel": 1,
      "ScanOptions": "FS",
      "ScanningSequence": "EP",
      "SequenceName": "epfid2d1_104",
      "SequenceVariant": [
        "SK",
        "SS"
],
      "SeriesDescription": "func_task-mario3_run-03",
      "SeriesNumber": 16,
      "SeriesTime": "135333.336000",
      "SliceLocation": -31.546668105929,
      "SliceThickness": 2.0,
      "SmallestImagePixelValue": 0,
      "SoftwareVersions": "syngo MR E11",
      "SpacingBetweenSlices": 2.0000000145847,
      "SpecificCharacterSet": "ISO_IR 100",
      "StudyID": "1",
      "StudyTime": "115807.019000",
      "TransmitCoilName": "Body",
      "VariableFlipAngleFlag": "N",
      "WindowCenterWidthExplanation": "Algo1",
      "dBdt": 0.0},
    "slices": {}
  },
  "time": {
    "samples": {
      "AcquisitionNumber": [1, 2, 3, 4, 5, 6, 7, 8, 9, 10, 11, 12, 13, 14, 15, 16, 17, 18, 19, 20, 21, 22, 23, 24, 25, 26, 27, 28, 29, 30, 31, 32, 33, 34, 35, 36, 37, 38, 39, 40, 41, 42, 43, 44, 45, 46, 47, 48, 49, 50, 51, 52, 53, 54, 55, 56, 57, 58, 59, 60, 61, 62, 63, 64, 65, 66, 67, 68, 69, 70, 71, 72, 73, 74, 75, 76, 77, 78, 79, 80, 81, 82, 83, 84, 85, 86, 87, 88, 89, 90, 91, 92, 93, 94, 95, 96, 97, 98, 99, 100, 101, 102, 103, 104, 105, 106, 107, 108, 109, 110, 111, 112, 113, 114, 115, 116, 117, 118, 119, 120, 121, 122, 123, 124, 125, 126, 127, 128, 129, 130, 131, 132, 133, 134, 135, 136, 137, 138, 139, 140, 141, 142, 143, 144, 145, 146, 147, 148, 149, 150, 151, 152, 153, 154, 155, 156, 157, 158, 159, 160, 161, 162, 163, 164, 165, 166, 167, 168, 169, 170, 171, 172, 173, 174, 175, 176, 177, 178, 179, 180, 181, 182, 183, 184, 185, 186, 187, 188, 189, 190, 191, 192, 193, 194, 195, 196, 197, 198, 199, 200, 201, 202, 203, 204, 205, 206, 207, 208, 209, 210, 211, 212, 213, 214, 215, 216, 217, 218, 219, 220, 221, 222, 223, 224, 225, 226, 227, 228, 229, 230, 231, 232, 233, 234, 235, 236, 237, 238, 239, 240, 241, 242, 243, 244, 245, 246, 247, 248, 249, 250, 251, 252, 253, 254, 255, 256, 257, 258, 259, 260, 261, 262, 263, 264, 265, 266, 267, 268, 269, 270, 271, 272, 273, 274, 275, 276, 277, 278, 279, 280, 281, 282, 283, 284, 285, 286, 287, 288, 289, 290, 291, 292, 293, 294, 295, 296, 297, 298, 299, 300, 301, 302, 303, 304, 305, 306, 307, 308],
      "AcquisitionTime": ["135209.700000", "135211.190000", "135212.680000", "135214.170000", "135215.660000", "135217.150000", "135218.640000", "135220.130000", "135221.620000", "135223.110000", "135224.600000", "135226.090000", "135227.580000", "135229.070000", "135230.560000", "135232.050000", "135233.540000", "135235.030000", "135236.520000", "135238.010000", "135239.500000", "135240.990000", "135242.480000", "135243.970000", "135245.460000", "135246.950000", "135248.440000", "135249.930000", "135251.420000", "135252.910000", "135254.400000", "135255.890000", "135257.380000", "135258.870000", "135300.360000", "135301.850000", "135303.340000", "135304.830000", "135306.320000", "135307.810000", "135309.300000", "135310.790000", "135312.280000", "135313.770000", "135315.260000", "135316.750000", "135318.240000", "135319.730000", "135321.220000", "135322.710000", "135324.200000", "135325.690000", "135327.180000", "135328.670000", "135330.160000", "135331.650000", "135333.140000", "135334.630000", "135336.120000", "135337.610000", "135339.100000", "135340.590000", "135342.080000", "135343.570000", "135345.060000", "135346.550000", "135348.040000", "135349.530000", "135351.020000", "135352.510000", "135354.000000", "135355.490000", "135356.980000", "135358.470000", "135359.960000", "135401.450000", "135402.940000", "135404.430000", "135405.920000", "135407.410000", "135408.900000", "135410.390000", "135411.880000", "135413.370000", "135414.860000", "135416.350000", "135417.840000", "135419.330000", "135420.820000", "135422.310000", "135423.800000", "135425.290000", "135426.780000", "135428.270000", "135429.760000", "135431.250000", "135432.740000", "135434.230000", "135435.720000", "135437.210000", "135438.700000", "135440.190000", "135441.680000", "135443.170000", "135444.660000", "135446.150000", "135447.640000", "135449.130000", "135450.620000", "135452.110000", "135453.600000", "135455.090000", "135456.580000", "135458.070000", "135459.560000", "135501.050000", "135502.540000", "135504.030000", "135505.520000", "135507.010000", "135508.500000", "135509.990000", "135511.480000", "135512.970000", "135514.460000", "135515.950000", "135517.440000", "135518.930000", "135520.420000", "135521.910000", "135523.400000", "135524.890000", "135526.380000", "135527.870000", "135529.360000", "135530.850000", "135532.340000", "135533.830000", "135535.320000", "135536.810000", "135538.300000", "135539.790000", "135541.280000", "135542.770000", "135544.260000", "135545.750000", "135547.240000", "135548.730000", "135550.220000", "135551.710000", "135553.200000", "135554.690000", "135556.180000", "135557.670000", "135559.160000", "135600.650000", "135602.140000", "135603.630000", "135605.120000", "135606.610000", "135608.100000", "135609.590000", "135611.080000", "135612.570000", "135614.060000", "135615.550000", "135617.040000", "135618.530000", "135620.020000", "135621.510000", "135623.000000", "135624.490000", "135625.980000", "135627.470000", "135628.960000", "135630.450000", "135631.940000", "135633.430000", "135634.920000", "135636.410000", "135637.900000", "135639.390000", "135640.880000", "135642.370000", "135643.860000", "135645.350000", "135646.840000", "135648.330000", "135649.820000", "135651.310000", "135652.800000", "135654.290000", "135655.780000", "135657.270000", "135658.760000", "135700.250000", "135701.740000", "135703.230000", "135704.720000", "135706.210000", "135707.700000", "135709.190000", "135710.680000", "135712.170000", "135713.660000", "135715.150000", "135716.640000", "135718.130000", "135719.620000", "135721.110000", "135722.600000", "135724.090000", "135725.580000", "135727.070000", "135728.560000", "135730.050000", "135731.540000", "135733.030000", "135734.520000", "135736.010000", "135737.500000", "135738.990000", "135740.480000", "135741.970000", "135743.460000", "135744.950000", "135746.440000", "135747.930000", "135749.420000", "135750.910000", "135752.400000", "135753.890000", "135755.380000", "135756.870000", "135758.360000", "135759.850000", "135801.340000", "135802.830000", "135804.320000", "135805.810000", "135807.300000", "135808.790000", "135810.280000", "135811.770000", "135813.260000", "135814.750000", "135816.240000", "135817.730000", "135819.220000", "135820.710000", "135822.200000", "135823.690000", "135825.180000", "135826.670000", "135828.160000", "135829.650000", "135831.140000", "135832.630000", "135834.120000", "135835.610000", "135837.100000", "135838.590000", "135840.080000", "135841.570000", "135843.060000", "135844.550000", "135846.040000", "135847.530000", "135849.020000", "135850.510000", "135852.000000", "135853.490000", "135854.980000", "135856.470000", "135857.960000", "135859.450000", "135900.940000", "135902.430000", "135903.920000", "135905.410000", "135906.900000", "135908.390000", "135909.880000", "135911.370000", "135912.860000", "135914.350000", "135915.840000", "135917.330000", "135918.820000", "135920.310000", "135921.800000", "135923.290000", "135924.780000", "135926.270000", "135927.760000", "135929.250000", "135930.740000", "135932.230000", "135933.720000", "135935.210000", "135936.700000", "135938.190000", "135939.680000", "135941.170000", "135942.660000", "135944.150000", "135945.640000", "135947.130000"],
      "ContentTime": ["135333.339000", "135333.343000", "135333.346000", "135333.349000", "135333.353000", "135333.356000", "135333.359000", "135333.363000", "135333.366000", "135333.369000", "135333.373000", "135333.376000", "135333.379000", "135333.382000", "135333.386000", "135333.389000", "135333.392000", "135333.395000", "135333.399000", "135333.402000", "135333.405000", "135333.408000", "135333.412000", "135333.420000", "135333.424000", "135333.427000", "135333.430000", "135333.434000", "135333.437000", "135333.440000", "135333.443000", "135333.455000", "135333.458000", "135333.461000", "135333.464000", "135333.468000", "135333.471000", "135353.301000", "135353.305000", "135353.308000", "135353.311000", "135353.315000", "135353.318000", "135353.321000", "135353.325000", "135353.328000", "135353.331000", "135353.334000", "135353.338000", "135353.341000", "135353.344000", "135353.347000", "135353.356000", "135353.359000", "135353.363000", "135353.366000", "135353.369000", "135413.301000", "135413.305000", "135413.308000", "135413.311000", "135413.315000", "135413.318000", "135413.321000", "135413.339000", "135413.342000", "135413.345000", "135413.348000", "135413.352000", "135413.355000", "135413.358000", "135413.362000", "135413.365000", "135413.368000", "135413.372000", "135413.375000", "135413.378000", "135453.300000", "135453.304000", "135453.307000", "135453.310000", "135453.314000", "135453.317000", "135453.320000", "135453.324000", "135453.327000", "135453.330000", "135453.333000", "135453.337000", "135453.340000", "135453.343000", "135453.346000", "135453.350000", "135453.353000", "135453.356000", "135453.360000", "135453.363000", "135453.366000", "135453.369000", "135453.373000", "135453.376000", "135453.379000", "135453.383000", "135453.386000", "135453.389000", "135453.392000", "135453.396000", "135453.399000", "135453.402000", "135533.301000", "135533.305000", "135533.308000", "135533.311000", "135533.315000", "135533.318000", "135533.321000", "135533.325000", "135533.328000", "135533.331000", "135533.335000", "135533.338000", "135533.341000", "135533.344000", "135533.348000", "135533.351000", "135533.354000", "135533.358000", "135533.361000", "135533.365000", "135533.368000", "135533.371000", "135533.374000", "135533.378000", "135533.381000", "135533.384000", "135533.388000", "135613.301000", "135613.305000", "135613.308000", "135613.311000", "135613.315000", "135613.318000", "135613.321000", "135613.325000", "135613.328000", "135613.331000", "135613.335000", "135613.338000", "135613.341000", "135613.344000", "135613.348000", "135613.351000", "135613.354000", "135613.358000", "135613.361000", "135613.364000", "135613.368000", "135613.371000", "135613.374000", "135613.378000", "135613.381000", "135613.384000", "135613.388000", "135653.301000", "135653.305000", "135653.308000", "135653.311000", "135653.315000", "135653.318000", "135653.321000", "135653.325000", "135653.328000", "135653.331000", "135653.335000", "135653.338000", "135653.341000", "135653.345000", "135653.348000", "135653.351000", "135653.354000", "135653.358000", "135653.361000", "135653.364000", "135653.368000", "135653.371000", "135653.374000", "135653.381000", "135653.384000", "135653.387000", "135653.390000", "135733.300000", "135733.313000", "135733.316000", "135733.319000", "135733.323000", "135733.326000", "135733.330000", "135733.333000", "135733.336000", "135733.340000", "135733.343000", "135733.346000", "135733.350000", "135733.353000", "135733.356000", "135733.360000", "135733.363000", "135733.366000", "135733.370000", "135733.373000", "135733.376000", "135733.380000", "135733.383000", "135733.386000", "135733.390000", "135733.393000", "135733.396000", "135813.301000", "135813.305000", "135813.308000", "135813.311000", "135813.315000", "135813.318000", "135813.322000", "135813.325000", "135813.328000", "135813.332000", "135813.335000", "135813.339000", "135813.342000", "135813.345000", "135813.349000", "135813.352000", "135813.355000", "135813.359000", "135813.363000", "135813.366000", "135813.369000", "135813.373000", "135813.376000", "135813.380000", "135813.383000", "135813.386000", "135853.301000", "135853.305000", "135853.308000", "135853.312000", "135853.315000", "135853.318000", "135853.322000", "135853.325000", "135853.328000", "135853.332000", "135853.335000", "135853.339000", "135853.342000", "135853.345000", "135853.349000", "135853.352000", "135853.355000", "135853.358000", "135853.376000", "135853.379000", "135853.382000", "135853.386000", "135853.389000", "135853.393000", "135853.396000", "135853.399000", "135853.403000", "135933.300000", "135933.304000", "135933.307000", "135933.311000", "135933.321000", "135933.324000", "135933.327000", "135933.331000", "135933.334000", "135933.338000", "135933.341000", "135933.344000", "135933.348000", "135933.351000", "135933.354000", "135933.358000", "135933.361000", "135933.365000", "135933.368000", "135933.371000", "135933.375000", "135933.378000", "135933.381000", "135933.384000", "135933.388000", "135933.391000", "135933.394000", "135950.001000", "135950.005000", "135950.009000", "135950.013000", "135950.017000", "135950.020000", "135950.024000", "135950.028000", "135950.031000", "135950.034000", "135950.038000"],
      "InstanceCreationTime": ["135333.339000", "135333.343000", "135333.346000", "135333.349000", "135333.353000", "135333.356000", "135333.359000", "135333.363000", "135333.366000", "135333.369000", "135333.373000", "135333.376000", "135333.379000", "135333.382000", "135333.386000", "135333.389000", "135333.392000", "135333.395000", "135333.399000", "135333.402000", "135333.405000", "135333.408000", "135333.412000", "135333.420000", "135333.424000", "135333.427000", "135333.430000", "135333.434000", "135333.437000", "135333.440000", "135333.443000", "135333.455000", "135333.458000", "135333.461000", "135333.464000", "135333.468000", "135333.471000", "135353.301000", "135353.305000", "135353.308000", "135353.311000", "135353.315000", "135353.318000", "135353.321000", "135353.325000", "135353.328000", "135353.331000", "135353.334000", "135353.338000", "135353.341000", "135353.344000", "135353.347000", "135353.356000", "135353.359000", "135353.363000", "135353.366000", "135353.369000", "135413.301000", "135413.305000", "135413.308000", "135413.311000", "135413.315000", "135413.318000", "135413.321000", "135413.339000", "135413.342000", "135413.345000", "135413.348000", "135413.352000", "135413.355000", "135413.358000", "135413.362000", "135413.365000", "135413.368000", "135413.372000", "135413.375000", "135413.378000", "135453.300000", "135453.304000", "135453.307000", "135453.310000", "135453.314000", "135453.317000", "135453.320000", "135453.324000", "135453.327000", "135453.330000", "135453.333000", "135453.337000", "135453.340000", "135453.343000", "135453.346000", "135453.350000", "135453.353000", "135453.356000", "135453.360000", "135453.363000", "135453.366000", "135453.369000", "135453.373000", "135453.376000", "135453.379000", "135453.383000", "135453.386000", "135453.389000", "135453.392000", "135453.396000", "135453.399000", "135453.402000", "135533.301000", "135533.305000", "135533.308000", "135533.311000", "135533.315000", "135533.318000", "135533.321000", "135533.325000", "135533.328000", "135533.331000", "135533.335000", "135533.338000", "135533.341000", "135533.344000", "135533.348000", "135533.351000", "135533.354000", "135533.358000", "135533.361000", "135533.365000", "135533.368000", "135533.371000", "135533.374000", "135533.378000", "135533.381000", "135533.384000", "135533.388000", "135613.301000", "135613.305000", "135613.308000", "135613.311000", "135613.315000", "135613.318000", "135613.321000", "135613.325000", "135613.328000", "135613.331000", "135613.335000", "135613.338000", "135613.341000", "135613.344000", "135613.348000", "135613.351000", "135613.354000", "135613.358000", "135613.361000", "135613.364000", "135613.368000", "135613.371000", "135613.374000", "135613.378000", "135613.381000", "135613.384000", "135613.388000", "135653.301000", "135653.305000", "135653.308000", "135653.311000", "135653.315000", "135653.318000", "135653.321000", "135653.325000", "135653.328000", "135653.331000", "135653.335000", "135653.338000", "135653.341000", "135653.345000", "135653.348000", "135653.351000", "135653.354000", "135653.358000", "135653.361000", "135653.364000", "135653.368000", "135653.371000", "135653.374000", "135653.381000", "135653.384000", "135653.387000", "135653.390000", "135733.300000", "135733.313000", "135733.316000", "135733.319000", "135733.323000", "135733.326000", "135733.330000", "135733.333000", "135733.336000", "135733.340000", "135733.343000", "135733.346000", "135733.350000", "135733.353000", "135733.356000", "135733.360000", "135733.363000", "135733.366000", "135733.370000", "135733.373000", "135733.376000", "135733.380000", "135733.383000", "135733.386000", "135733.390000", "135733.393000", "135733.396000", "135813.301000", "135813.305000", "135813.308000", "135813.311000", "135813.315000", "135813.318000", "135813.322000", "135813.325000", "135813.328000", "135813.332000", "135813.335000", "135813.339000", "135813.342000", "135813.345000", "135813.349000", "135813.352000", "135813.355000", "135813.359000", "135813.363000", "135813.366000", "135813.369000", "135813.373000", "135813.376000", "135813.380000", "135813.383000", "135813.386000", "135853.301000", "135853.305000", "135853.308000", "135853.312000", "135853.315000", "135853.318000", "135853.322000", "135853.325000", "135853.328000", "135853.332000", "135853.335000", "135853.339000", "135853.342000", "135853.345000", "135853.349000", "135853.352000", "135853.355000", "135853.358000", "135853.376000", "135853.379000", "135853.382000", "135853.386000", "135853.389000", "135853.393000", "135853.396000", "135853.399000", "135853.403000", "135933.300000", "135933.304000", "135933.307000", "135933.311000", "135933.321000", "135933.324000", "135933.327000", "135933.331000", "135933.334000", "135933.338000", "135933.341000", "135933.344000", "135933.348000", "135933.351000", "135933.354000", "135933.358000", "135933.361000", "135933.365000", "135933.368000", "135933.371000", "135933.375000", "135933.378000", "135933.381000", "135933.384000", "135933.388000", "135933.391000", "135933.394000", "135950.001000", "135950.005000", "135950.009000", "135950.013000", "135950.017000", "135950.020000", "135950.024000", "135950.028000", "135950.031000", "135950.034000", "135950.038000"],
      "InstanceNumber": [1, 2, 3, 4, 5, 6, 7, 8, 9, 10, 11, 12, 13, 14, 15, 16, 17, 18, 19, 20, 21, 22, 23, 24, 25, 26, 27, 28, 29, 30, 31, 32, 33, 34, 35, 36, 37, 38, 39, 40, 41, 42, 43, 44, 45, 46, 47, 48, 49, 50, 51, 52, 53, 54, 55, 56, 57, 58, 59, 60, 61, 62, 63, 64, 65, 66, 67, 68, 69, 70, 71, 72, 73, 74, 75, 76, 77, 78, 79, 80, 81, 82, 83, 84, 85, 86, 87, 88, 89, 90, 91, 92, 93, 94, 95, 96, 97, 98, 99, 100, 101, 102, 103, 104, 105, 106, 107, 108, 109, 110, 111, 112, 113, 114, 115, 116, 117, 118, 119, 120, 121, 122, 123, 124, 125, 126, 127, 128, 129, 130, 131, 132, 133, 134, 135, 136, 137, 138, 139, 140, 141, 142, 143, 144, 145, 146, 147, 148, 149, 150, 151, 152, 153, 154, 155, 156, 157, 158, 159, 160, 161, 162, 163, 164, 165, 166, 167, 168, 169, 170, 171, 172, 173, 174, 175, 176, 177, 178, 179, 180, 181, 182, 183, 184, 185, 186, 187, 188, 189, 190, 191, 192, 193, 194, 195, 196, 197, 198, 199, 200, 201, 202, 203, 204, 205, 206, 207, 208, 209, 210, 211, 212, 213, 214, 215, 216, 217, 218, 219, 220, 221, 222, 223, 224, 225, 226, 227, 228, 229, 230, 231, 232, 233, 234, 235, 236, 237, 238, 239, 240, 241, 242, 243, 244, 245, 246, 247, 248, 249, 250, 251, 252, 253, 254, 255, 256, 257, 258, 259, 260, 261, 262, 263, 264, 265, 266, 267, 268, 269, 270, 271, 272, 273, 274, 275, 276, 277, 278, 279, 280, 281, 282, 283, 284, 285, 286, 287, 288, 289, 290, 291, 292, 293, 294, 295, 296, 297, 298, 299, 300, 301, 302, 303, 304, 305, 306, 307, 308],
      "LargestImagePixelValue": [41286, 40099, 39754, 39356, 38979, 38858, 38588, 38732, 38198, 37967, 38217, 37909, 38211, 38214, 38025, 37934, 38136, 37375, 37771, 37995, 37801, 37355, 37930, 37471, 37786, 37612, 37965, 38051, 38376, 38509, 38093, 37671, 37801, 37996, 38354, 37786, 37407, 37604, 37619, 38346, 38260, 38010, 38207, 38335, 38196, 38173, 38352, 37648, 38034, 37762, 38030, 38616, 37751, 37554, 37497, 37552, 38078, 38512, 37803, 38215, 37685, 37740, 38038, 37778, 37985, 37904, 38350, 37500, 37489, 37349, 37775, 37730, 37205, 37414, 37537, 38291, 37660, 37834, 38300, 37942, 37096, 37976, 37637, 37812, 37539, 37781, 37700, 37894, 37590, 37851, 38778, 37883, 38187, 37747, 37833, 37680, 37747, 37768, 38065, 38101, 37622, 38552, 37714, 37953, 37723, 37660, 37723, 37584, 37264, 37365, 37690, 37395, 37415, 37580, 37402, 37195, 37754, 37821, 38370, 37568, 37233, 37251, 37521, 37510, 37469, 37504, 37609, 37662, 37770, 37561, 37586, 37630, 37779, 38022, 37246, 37585, 38105, 37615, 37084, 37453, 38159, 38461, 38406, 37657, 37710, 37416, 37671, 38164, 37782, 37615, 37575, 37913, 37805, 37845, 37545, 37617, 37835, 37787, 37946, 37585, 37540, 37750, 37323, 37217, 37176, 37441, 37896, 37699, 37529, 37518, 37754, 37682, 37566, 37836, 37423, 38025, 38528, 38102, 37373, 37644, 37648, 37778, 37727, 37947, 37373, 37309, 37508, 37696, 37547, 37705, 37979, 37783, 37629, 37653, 37586, 37793, 37430, 37572, 37603, 37410, 37595, 37497, 37506, 37525, 37278, 37899, 37575, 37580, 37496, 37670, 37504, 37751, 37723, 37284, 37736, 37589, 37438, 37671, 37516, 37708, 37516, 37398, 37281, 37688, 37482, 37925, 40102, 39527, 38691, 39462, 38855, 38975, 38588, 38756, 39055, 38773, 39199, 38722, 38551, 38776, 38526, 38501, 38553, 38735, 38236, 38027, 38214, 38091, 38593, 38506, 38270, 38275, 38123, 38990, 38031, 38072, 38450, 38668, 38262, 38019, 38029, 38214, 37691, 37650, 37654, 37516, 37229, 37584, 37890, 37995, 38137, 37505, 37670, 37693, 37665, 37755, 37803, 37542, 37913, 37637, 37963, 37248, 38215, 37635, 37269, 38032, 37555, 37542, 37932, 38587, 38082, 38155, 37955, 37517, 37516, 37968, 37683, 38501, 37604, 37484, 37488, 37649, 37587, 38013, 37442, 37488, 37973, 37339],
      "WindowCenter": [9981.0, 9915.0, 9917.0, 9908.0, 9927.0, 9892.0, 9903.0, 9909.0, 9899.0, 9928.0, 9909.0, 9927.0, 9918.0, 9899.0, 9908.0, 9880.0, 9878.0, 9846.0, 9848.0, 9845.0, 9827.0, 9870.0, 9879.0, 9857.0, 9830.0, 9827.0, 9823.0, 9834.0, 9844.0, 9875.0, 9907.0, 9886.0, 9877.0, 9846.0, 9879.0, 9883.0, 9910.0, 9892.0, 9858.0, 9857.0, 9810.0, 9804.0, 9832.0, 9878.0, 9868.0, 9895.0, 9910.0, 9879.0, 9893.0, 9886.0, 9890.0, 9915.0, 9867.0, 9900.0, 9853.0, 9815.0, 9804.0, 9834.0, 9865.0, 9912.0, 9877.0, 9839.0, 9811.0, 9801.0, 9821.0, 9847.0, 9877.0, 9897.0, 9902.0, 9856.0, 9867.0, 9885.0, 9877.0, 9865.0, 9846.0, 9832.0, 9813.0, 9828.0, 9868.0, 9902.0, 9881.0, 9905.0, 9880.0, 9879.0, 9873.0, 9889.0, 9886.0, 9897.0, 9863.0, 9891.0, 9872.0, 9882.0, 9879.0, 9880.0, 9873.0, 9872.0, 9863.0, 9866.0, 9860.0, 9867.0, 9869.0, 9885.0, 9898.0, 9896.0, 9881.0, 9884.0, 9860.0, 9890.0, 9860.0, 9864.0, 9870.0, 9848.0, 9845.0, 9853.0, 9854.0, 9839.0, 9836.0, 9843.0, 9844.0, 9882.0, 9895.0, 9889.0, 9876.0, 9851.0, 9859.0, 9856.0, 9873.0, 9880.0, 9882.0, 9873.0, 9881.0, 9903.0, 9925.0, 9915.0, 9896.0, 9876.0, 9892.0, 9873.0, 9856.0, 9837.0, 9824.0, 9856.0, 9862.0, 9868.0, 9895.0, 9885.0, 9862.0, 9886.0, 9886.0, 9885.0, 9887.0, 9908.0, 9892.0, 9880.0, 9815.0, 9821.0, 9828.0, 9844.0, 9874.0, 9877.0, 9895.0, 9907.0, 9939.0, 9924.0, 9936.0, 9918.0, 9910.0, 9901.0, 9879.0, 9852.0, 9828.0, 9844.0, 9855.0, 9846.0, 9850.0, 9853.0, 9874.0, 9885.0, 9891.0, 9881.0, 9858.0, 9846.0, 9846.0, 9852.0, 9840.0, 9866.0, 9858.0, 9852.0, 9861.0, 9862.0, 9874.0, 9898.0, 9897.0, 9864.0, 9854.0, 9868.0, 9880.0, 9878.0, 9872.0, 9855.0, 9858.0, 9864.0, 9862.0, 9854.0, 9830.0, 9827.0, 9828.0, 9843.0, 9837.0, 9828.0, 9819.0, 9833.0, 9851.0, 9883.0, 9884.0, 9861.0, 9837.0, 9836.0, 9850.0, 9855.0, 9876.0, 9880.0, 9901.0, 9897.0, 9901.0, 9948.0, 9899.0, 9928.0, 9877.0, 9887.0, 9901.0, 9921.0, 9892.0, 9862.0, 9851.0, 9856.0, 9863.0, 9856.0, 9849.0, 9864.0, 9885.0, 9887.0, 9903.0, 9880.0, 9920.0, 9934.0, 9912.0, 9882.0, 9885.0, 9829.0, 9874.0, 9883.0, 9877.0, 9903.0, 9858.0, 9881.0, 9888.0, 9897.0, 9918.0, 9889.0, 9903.0, 9928.0, 9889.0, 9880.0, 9860.0, 9847.0, 9817.0, 9844.0, 9832.0, 9872.0, 9860.0, 9879.0, 9877.0, 9886.0, 9884.0, 9881.0, 9844.0, 9847.0, 9855.0, 9862.0, 9888.0, 9879.0, 9924.0, 9905.0, 9873.0, 9868.0, 9849.0, 9849.0, 9836.0, 9889.0, 9849.0, 9938.0, 9926.0, 9916.0, 9860.0, 9852.0, 9833.0, 9890.0, 9883.0, 9884.0, 9867.0, 9857.0, 9856.0, 9868.0, 9869.0, 9852.0, 9865.0, 9874.0],
