{
  "AcquisitionMatrixPE": 104,
  "AcquisitionNumber": 1,
  "AcquisitionTime": "13:42:8.480000",
  "BandwidthPerPixelPhaseEncode": 17.17,
  "BaseResolution": 104,
  "BodyPartExamined": "BRAIN",
  "CoilCombinationMethod": "Sum of Squares",
  "ConsistencyInfo": "N4_VE11C_LATEST_20160120",
  "ConversionSoftware": "dcm2niix",
  "ConversionSoftwareVersion": "v1.0.20220505",
  "DerivedVendorReportedEchoSpacing": 0.000560011,
  "DeviceSerialNumber": "167006",
  "DwellTime": 2.1e-06,
  "EchoTime": 0.037,
  "EchoTime1": 0.037,
  "EchoTime2": 0.001,
  "EchoTrainLength": 104,
  "EffectiveEchoSpacing": 0.000560011,
  "FlipAngle": 52,
  "HeudiconvVersion": "0.5.3.post811+g6206e14",
  "ImageComments": "Unaliased MB4/PE3/LB",
  "ImageOrientationPatientDICOM": [0.999258, 0.0303676, 0.0236755, -0.0228508, 0.962543, -0.270165],
  "ImageOrientationText": "Tra>Cor(-15.6)>Sag(1.8)",
  "ImageType": [
    "ORIGINAL",
    "PRIMARY",
    "P",
    "MB",
    "ND",
    "MOSAIC",
    "PHASE"
],
  "ImagingFrequency": 123.26,
  "InPlanePhaseEncodingDirectionDICOM": "COL",
  "InstitutionAddress": "Chemin Queen-Mary 4565,Montreal,District,CA,H3W 1W5",
  "InstitutionName": "IUGM",
  "InstitutionalDepartmentName": "Department",
  "MRAcquisitionType": "2D",
  "MagneticFieldStrength": 3,
  "Manufacturer": "Siemens",
  "ManufacturersModelName": "Prisma_fit",
  "MatrixCoilMode": "SENSE",
  "Modality": "MR",
  "MultibandAccelerationFactor": 4,
  "PartialFourier": 1,
  "PatientPosition": "HFS",
  "PercentPhaseFOV": 100,
  "PercentSampling": 100,
  "PhaseEncodingDirection": "j",
  "PhaseEncodingSteps": 104,
  "PhaseResolution": 1,
  "PixelBandwidth": 2290,
  "ProcedureStepDescription": "games^mario3",
  "ProtocolName": "func_task-mario3_run-02",
  "PulseSequenceDetails": "%CustomerSeq%\\cmrr_mbep2d_bold",
  "ReceiveCoilActiveElements": "HC1-7;NC1,2",
  "ReceiveCoilName": "HeadNeck_64",
  "ReconMatrixPE": 104,
  "RepetitionTime": 1.49,
  "SAR": 0.0458441,
  "ScanOptions": "FS",
  "ScanningSequence": "EP",
  "SequenceName": "epfid2d1_104",
  "SequenceVariant": "SK\\SS",
  "SeriesDescription": "func_task-mario3_run-02",
  "SeriesNumber": 14,
  "ShimSetting": [627, -7201, -8753, 691, 75, 50, 40, -19],
  "SliceThickness": 2,
  "SliceTiming": [0, 0.7825, 0.0975, 0.88, 0.195, 0.98, 0.2925, 1.0775, 0.39, 1.175, 0.49, 1.2725, 0.5875, 1.37, 0.685, 0, 0.7825, 0.0975, 0.88, 0.195, 0.98, 0.2925, 1.0775, 0.39, 1.175, 0.49, 1.2725, 0.5875, 1.37, 0.685, 0, 0.7825, 0.0975, 0.88, 0.195, 0.98, 0.2925, 1.0775, 0.39, 1.175, 0.49, 1.2725, 0.5875, 1.37, 0.685, 0, 0.7825, 0.0975, 0.88, 0.195, 0.98, 0.2925, 1.0775, 0.39, 1.175, 0.49, 1.2725, 0.5875, 1.37, 0.685],
  "SoftwareVersions": "syngo MR E11",
  "SpacingBetweenSlices": 2,
  "StationName": "MRC35049",
  "TaskName": "mario3",
  "TotalReadoutTime": 0.0576811,
  "TxRefAmp": 212.617,
  "WipMemBlock": "3f42eaca-717a-428f-ae06-fe562ea1b7a9||Sequence: R017 ve11c/master r/75a17815+; Jun 28 2022 16:32:11 by eja",
  "dcmmeta_affine": [
    [-1.9985166788101196, -0.04570164903998375, 0.061985865235328674, 109.50057220458984],
    [-0.06073527783155441, 1.9250859022140503, -0.5388465523719788, -69.95941162109375],
    [0.04735096916556358, 0.5403293371200562, 1.9250459671020508, -55.88344955444336],
    [0.0, 0.0, 0.0, 1.0]
],
  "dcmmeta_reorient_transform": [
    [0.0, -1.0, 0.0, 103.0],
    [1.0, 0.0, 0.0, 0.0],
    [0.0, 0.0, 1.0, 0.0],
    [0.0, 0.0, 0.0, 1.0]
],
  "dcmmeta_shape": [104, 104, 60, 311],
  "dcmmeta_slice_dim": 2,
  "dcmmeta_version": 0.6,
  "global": {
    "const": {
      "AcquisitionMatrix": [104, 0, 0, 104],
      "AngioFlag": "N",
      "BitsAllocated": 16,
      "BitsStored": 16,
      "BodyPartExamined": "BRAIN",
      "Columns": 832,
      "EchoNumbers": 1,
      "EchoTime": 37.0,
      "EchoTrainLength": 104,
      "FlipAngle": 52.0,
      "HighBit": 15,
      "ImageOrientationPatient": [0.99925836395945, 0.030367639462, 0.02367548374564, -0.0228508248174, 0.96254293311826, -0.2701646566619],
      "ImagePositionPatient": [-815.61798814501, -851.16333153997, 179.21458718801],
      "ImageType": [
        "ORIGINAL",
        "PRIMARY",
        "P",
        "MB",
        "ND",
        "MOSAIC"
],
      "ImagedNucleus": "1H",
      "ImagingFrequency": 123.260398,
      "InPlanePhaseEncodingDirection": "COL",
      "LargestImagePixelValue": 4095,
      "MRAcquisitionType": "2D",
      "MagneticFieldStrength": 3.0,
      "Manufacturer": "SIEMENS",
      "ManufacturerModelName": "Prisma_fit",
      "Modality": "MR",
      "NumberOfAverages": 1.0,
      "NumberOfPhaseEncodingSteps": 104,
      "PercentPhaseFieldOfView": 100.0,
      "PercentSampling": 100.0,
      "PerformedProcedureStepStartTime": "115807.186000",
      "PhotometricInterpretation": "MONOCHROME2",
      "PixelBandwidth": 2290.0,
      "PixelRepresentation": 0,
      "PixelSpacing": [2.0, 2.0],
      "ProtocolName": "func_task-mario3_run-02",
      "RepetitionTime": 1490.0,
      "RescaleIntercept": -4096.0,
      "RescaleSlope": 2.0,
      "RescaleType": "US",
      "Rows": 832,
      "SAR": 0.04584407411812,
      "SamplesPerPixel": 1,
      "ScanOptions": "FS",
      "ScanningSequence": "EP",
      "SequenceName": "epfid2d1_104",
      "SequenceVariant": [
        "SK",
        "SS"
],
      "SeriesDescription": "func_task-mario3_run-02",
      "SeriesNumber": 14,
      "SeriesTime": "134334.820000",
      "SliceLocation": -31.546668105929,
      "SliceThickness": 2.0,
      "SmallestImagePixelValue": 0,
      "SoftwareVersions": "syngo MR E11",
      "SpacingBetweenSlices": 2.0000000145847,
      "SpecificCharacterSet": "ISO_IR 100",
      "StudyID": "1",
      "StudyTime": "115807.019000",
      "TransmitCoilName": "Body",
      "VariableFlipAngleFlag": "N",
      "WindowCenterWidthExplanation": "Algo1",
      "dBdt": 0.0},
    "slices": {}
  },
  "time": {
    "samples": {
      "AcquisitionNumber": [1, 2, 3, 4, 5, 6, 7, 8, 9, 10, 11, 12, 13, 14, 15, 16, 17, 18, 19, 20, 21, 22, 23, 24, 25, 26, 27, 28, 29, 30, 31, 32, 33, 34, 35, 36, 37, 38, 39, 40, 41, 42, 43, 44, 45, 46, 47, 48, 49, 50, 51, 52, 53, 54, 55, 56, 57, 58, 59, 60, 61, 62, 63, 64, 65, 66, 67, 68, 69, 70, 71, 72, 73, 74, 75, 76, 77, 78, 79, 80, 81, 82, 83, 84, 85, 86, 87, 88, 89, 90, 91, 92, 93, 94, 95, 96, 97, 98, 99, 100, 101, 102, 103, 104, 105, 106, 107, 108, 109, 110, 111, 112, 113, 114, 115, 116, 117, 118, 119, 120, 121, 122, 123, 124, 125, 126, 127, 128, 129, 130, 131, 132, 133, 134, 135, 136, 137, 138, 139, 140, 141, 142, 143, 144, 145, 146, 147, 148, 149, 150, 151, 152, 153, 154, 155, 156, 157, 158, 159, 160, 161, 162, 163, 164, 165, 166, 167, 168, 169, 170, 171, 172, 173, 174, 175, 176, 177, 178, 179, 180, 181, 182, 183, 184, 185, 186, 187, 188, 189, 190, 191, 192, 193, 194, 195, 196, 197, 198, 199, 200, 201, 202, 203, 204, 205, 206, 207, 208, 209, 210, 211, 212, 213, 214, 215, 216, 217, 218, 219, 220, 221, 222, 223, 224, 225, 226, 227, 228, 229, 230, 231, 232, 233, 234, 235, 236, 237, 238, 239, 240, 241, 242, 243, 244, 245, 246, 247, 248, 249, 250, 251, 252, 253, 254, 255, 256, 257, 258, 259, 260, 261, 262, 263, 264, 265, 266, 267, 268, 269, 270, 271, 272, 273, 274, 275, 276, 277, 278, 279, 280, 281, 282, 283, 284, 285, 286, 287, 288, 289, 290, 291, 292, 293, 294, 295, 296, 297, 298, 299, 300, 301, 302, 303, 304, 305, 306, 307, 308, 309, 310, 311],
      "AcquisitionTime": ["134208.480000", "134209.970000", "134211.460000", "134212.950000", "134214.440000", "134215.930000", "134217.420000", "134218.910000", "134220.400000", "134221.890000", "134223.380000", "134224.870000", "134226.360000", "134227.850000", "134229.340000", "134230.830000", "134232.320000", "134233.810000", "134235.300000", "134236.790000", "134238.280000", "134239.770000", "134241.260000", "134242.750000", "134244.240000", "134245.730000", "134247.220000", "134248.710000", "134250.200000", "134251.690000", "134253.180000", "134254.670000", "134256.160000", "134257.650000", "134259.140000", "134300.630000", "134302.120000", "134303.610000", "134305.100000", "134306.590000", "134308.080000", "134309.570000", "134311.060000", "134312.550000", "134314.040000", "134315.530000", "134317.020000", "134318.510000", "134320.000000", "134321.490000", "134322.980000", "134324.470000", "134325.960000", "134327.450000", "134328.940000", "134330.430000", "134331.920000", "134333.410000", "134334.900000", "134336.390000", "134337.880000", "134339.370000", "134340.860000", "134342.350000", "134343.840000", "134345.330000", "134346.820000", "134348.310000", "134349.800000", "134351.290000", "134352.780000", "134354.270000", "134355.760000", "134357.250000", "134358.740000", "134400.230000", "134401.720000", "134403.210000", "134404.700000", "134406.190000", "134407.680000", "134409.170000", "134410.660000", "134412.150000", "134413.640000", "134415.130000", "134416.620000", "134418.110000", "134419.600000", "134421.090000", "134422.580000", "134424.070000", "134425.560000", "134427.050000", "134428.540000", "134430.030000", "134431.520000", "134433.010000", "134434.500000", "134435.990000", "134437.480000", "134438.970000", "134440.460000", "134441.950000", "134443.440000", "134444.930000", "134446.420000", "134447.910000", "134449.400000", "134450.890000", "134452.380000", "134453.870000", "134455.360000", "134456.850000", "134458.340000", "134459.830000", "134501.320000", "134502.810000", "134504.300000", "134505.790000", "134507.280000", "134508.770000", "134510.260000", "134511.750000", "134513.240000", "134514.730000", "134516.220000", "134517.710000", "134519.200000", "134520.690000", "134522.180000", "134523.670000", "134525.160000", "134526.650000", "134528.140000", "134529.630000", "134531.120000", "134532.610000", "134534.100000", "134535.590000", "134537.080000", "134538.570000", "134540.060000", "134541.550000", "134543.040000", "134544.530000", "134546.020000", "134547.510000", "134549.000000", "134550.490000", "134551.980000", "134553.470000", "134554.960000", "134556.450000", "134557.940000", "134559.430000", "134600.920000", "134602.410000", "134603.900000", "134605.390000", "134606.880000", "134608.370000", "134609.860000", "134611.350000", "134612.840000", "134614.330000", "134615.820000", "134617.310000", "134618.800000", "134620.290000", "134621.780000", "134623.270000", "134624.760000", "134626.250000", "134627.740000", "134629.230000", "134630.720000", "134632.210000", "134633.700000", "134635.190000", "134636.680000", "134638.170000", "134639.660000", "134641.150000", "134642.640000", "134644.130000", "134645.620000", "134647.110000", "134648.600000", "134650.090000", "134651.580000", "134653.070000", "134654.560000", "134656.050000", "134657.540000", "134659.030000", "134700.520000", "134702.010000", "134703.500000", "134704.990000", "134706.480000", "134707.970000", "134709.460000", "134710.950000", "134712.440000", "134713.930000", "134715.420000", "134716.910000", "134718.400000", "134719.890000", "134721.380000", "134722.870000", "134724.360000", "134725.850000", "134727.340000", "134728.830000", "134730.320000", "134731.810000", "134733.300000", "134734.790000", "134736.280000", "134737.770000", "134739.260000", "134740.750000", "134742.240000", "134743.730000", "134745.220000", "134746.710000", "134748.200000", "134749.690000", "134751.180000", "134752.670000", "134754.160000", "134755.650000", "134757.140000", "134758.630000", "134800.120000", "134801.610000", "134803.100000", "134804.590000", "134806.080000", "134807.570000", "134809.060000", "134810.550000", "134812.040000", "134813.530000", "134815.020000", "134816.510000", "134818.000000", "134819.490000", "134820.980000", "134822.470000", "134823.960000", "134825.450000", "134826.940000", "134828.430000", "134829.920000", "134831.410000", "134832.900000", "134834.390000", "134835.880000", "134837.370000", "134838.860000", "134840.350000", "134841.840000", "134843.330000", "134844.820000", "134846.310000", "134847.800000", "134849.290000", "134850.780000", "134852.270000", "134853.760000", "134855.250000", "134856.740000", "134858.230000", "134859.720000", "134901.210000", "134902.700000", "134904.190000", "134905.680000", "134907.170000", "134908.660000", "134910.150000", "134911.640000", "134913.130000", "134914.620000", "134916.110000", "134917.600000", "134919.090000", "134920.580000", "134922.070000", "134923.560000", "134925.050000", "134926.540000", "134928.030000", "134929.520000", "134931.010000", "134932.500000", "134933.990000", "134935.480000", "134936.970000", "134938.460000", "134939.950000", "134941.440000", "134942.930000", "134944.420000", "134945.910000", "134947.400000", "134948.890000", "134950.380000"],
      "ContentTime": ["134334.822000", "134334.825000", "134334.827000", "134334.830000", "134334.832000", "134334.835000", "134334.837000", "134334.840000", "134334.842000", "134334.845000", "134334.847000", "134334.850000", "134334.852000", "134334.854000", "134334.857000", "134334.859000", "134334.862000", "134334.864000", "134334.867000", "134334.869000", "134334.872000", "134334.874000", "134334.877000", "134334.879000", "134334.882000", "134334.884000", "134334.887000", "134334.889000", "134334.891000", "134334.894000", "134334.896000", "134334.899000", "134334.901000", "134334.904000", "134334.906000", "134334.909000", "134354.711000", "134354.713000", "134354.716000", "134354.718000", "134354.721000", "134354.723000", "134354.726000", "134354.734000", "134354.736000", "134354.739000", "134354.741000", "134354.744000", "134354.746000", "134354.749000", "134354.751000", "134354.753000", "134354.756000", "134354.758000", "134354.761000", "134354.763000", "134354.766000", "134414.709000", "134414.712000", "134414.715000", "134414.717000", "134414.719000", "134414.722000", "134414.724000", "134414.727000", "134414.729000", "134414.732000", "134414.734000", "134414.737000", "134414.739000", "134414.742000", "134414.744000", "134414.747000", "134414.749000", "134414.752000", "134414.754000", "134414.757000", "134434.708000", "134434.711000", "134434.714000", "134434.716000", "134434.718000", "134434.721000", "134434.723000", "134434.726000", "134434.728000", "134434.731000", "134434.733000", "134434.736000", "134434.738000", "134434.741000", "134434.743000", "134434.756000", "134434.758000", "134434.761000", "134434.763000", "134434.766000", "134514.739000", "134514.742000", "134514.744000", "134514.747000", "134514.749000", "134514.752000", "134514.754000", "134514.757000", "134514.759000", "134514.761000", "134514.764000", "134514.766000", "134514.769000", "134514.771000", "134514.774000", "134514.777000", "134514.779000", "134514.781000", "134514.784000", "134514.786000", "134514.789000", "134514.791000", "134514.794000", "134514.796000", "134514.799000", "134514.801000", "134514.804000", "134554.741000", "134554.744000", "134554.747000", "134554.749000", "134554.752000", "134554.754000", "134554.757000", "134554.759000", "134554.762000", "134554.764000", "134554.766000", "134554.769000", "134554.771000", "134554.774000", "134554.776000", "134554.779000", "134554.781000", "134554.784000", "134554.786000", "134554.789000", "134554.791000", "134554.794000", "134554.796000", "134554.799000", "134554.801000", "134554.804000", "134554.813000", "134634.736000", "134634.739000", "134634.741000", "134634.744000", "134634.746000", "134634.749000", "134634.751000", "134634.754000", "134634.756000", "134634.759000", "134634.761000", "134634.764000", "134634.766000", "134634.769000", "134634.771000", "134634.774000", "134634.776000", "134634.779000", "134634.781000", "134634.783000", "134634.786000", "134634.788000", "134634.791000", "134634.793000", "134634.796000", "134634.798000", "134634.801000", "134714.767000", "134714.770000", "134714.772000", "134714.775000", "134714.777000", "134714.780000", "134714.782000", "134714.785000", "134714.787000", "134714.790000", "134714.792000", "134714.794000", "134714.797000", "134714.799000", "134714.802000", "134714.804000", "134714.807000", "134714.809000", "134714.812000", "134714.814000", "134714.817000", "134714.819000", "134714.822000", "134714.824000", "134714.827000", "134714.829000", "134714.832000", "134754.735000", "134754.737000", "134754.740000", "134754.742000", "134754.745000", "134754.747000", "134754.750000", "134754.752000", "134754.755000", "134754.757000", "134754.760000", "134754.762000", "134754.765000", "134754.767000", "134754.770000", "134754.772000", "134754.775000", "134754.777000", "134754.780000", "134754.782000", "134754.785000", "134754.787000", "134754.790000", "134754.792000", "134754.795000", "134754.797000", "134834.738000", "134834.740000", "134834.743000", "134834.746000", "134834.749000", "134834.752000", "134834.754000", "134834.757000", "134834.759000", "134834.762000", "134834.764000", "134834.766000", "134834.769000", "134834.772000", "134834.774000", "134834.776000", "134834.779000", "134834.781000", "134834.784000", "134834.786000", "134834.789000", "134834.791000", "134834.794000", "134834.796000", "134834.799000", "134834.802000", "134834.804000", "134914.739000", "134914.742000", "134914.745000", "134914.747000", "134914.750000", "134914.752000", "134914.755000", "134914.757000", "134914.760000", "134914.762000", "134914.765000", "134914.767000", "134914.770000", "134914.772000", "134914.775000", "134914.777000", "134914.780000", "134914.782000", "134914.785000", "134914.787000", "134914.790000", "134914.792000", "134914.794000", "134914.797000", "134914.799000", "134914.802000", "134914.804000", "134953.417000", "134953.420000", "134953.423000", "134953.426000", "134953.429000", "134953.431000", "134953.434000", "134953.437000", "134953.439000", "134953.442000", "134953.444000", "134953.447000", "134953.450000", "134953.452000", "134953.455000", "134953.458000", "134953.460000", "134953.463000", "134953.466000", "134953.468000", "134953.471000", "134953.474000", "134953.476000", "134953.479000", "134953.482000", "134953.485000"],
      "InstanceCreationTime": ["134334.822000", "134334.825000", "134334.827000", "134334.830000", "134334.832000", "134334.835000", "134334.837000", "134334.840000", "134334.842000", "134334.845000", "134334.847000", "134334.850000", "134334.852000", "134334.854000", "134334.857000", "134334.859000", "134334.862000", "134334.864000", "134334.867000", "134334.869000", "134334.872000", "134334.874000", "134334.877000", "134334.879000", "134334.882000", "134334.884000", "134334.887000", "134334.889000", "134334.891000", "134334.894000", "134334.896000", "134334.899000", "134334.901000", "134334.904000", "134334.906000", "134334.909000", "134354.711000", "134354.713000", "134354.716000", "134354.718000", "134354.721000", "134354.723000", "134354.726000", "134354.734000", "134354.736000", "134354.739000", "134354.741000", "134354.744000", "134354.746000", "134354.749000", "134354.751000", "134354.753000", "134354.756000", "134354.758000", "134354.761000", "134354.763000", "134354.766000", "134414.709000", "134414.712000", "134414.715000", "134414.717000", "134414.719000", "134414.722000", "134414.724000", "134414.727000", "134414.729000", "134414.732000", "134414.734000", "134414.737000", "134414.739000", "134414.742000", "134414.744000", "134414.747000", "134414.749000", "134414.752000", "134414.754000", "134414.757000", "134434.708000", "134434.711000", "134434.714000", "134434.716000", "134434.718000", "134434.721000", "134434.723000", "134434.726000", "134434.728000", "134434.731000", "134434.733000", "134434.736000", "134434.738000", "134434.741000", "134434.743000", "134434.756000", "134434.758000", "134434.761000", "134434.763000", "134434.766000", "134514.739000", "134514.742000", "134514.744000", "134514.747000", "134514.749000", "134514.752000", "134514.754000", "134514.757000", "134514.759000", "134514.761000", "134514.764000", "134514.766000", "134514.769000", "134514.771000", "134514.774000", "134514.777000", "134514.779000", "134514.781000", "134514.784000", "134514.786000", "134514.789000", "134514.791000", "134514.794000", "134514.796000", "134514.799000", "134514.801000", "134514.804000", "134554.741000", "134554.744000", "134554.747000", "134554.749000", "134554.752000", "134554.754000", "134554.757000", "134554.759000", "134554.762000", "134554.764000", "134554.766000", "134554.769000", "134554.771000", "134554.774000", "134554.776000", "134554.779000", "134554.781000", "134554.784000", "134554.786000", "134554.789000", "134554.791000", "134554.794000", "134554.796000", "134554.799000", "134554.801000", "134554.804000", "134554.813000", "134634.736000", "134634.739000", "134634.741000", "134634.744000", "134634.746000", "134634.749000", "134634.751000", "134634.754000", "134634.756000", "134634.759000", "134634.761000", "134634.764000", "134634.766000", "134634.769000", "134634.771000", "134634.774000", "134634.776000", "134634.779000", "134634.781000", "134634.783000", "134634.786000", "134634.788000", "134634.791000", "134634.793000", "134634.796000", "134634.798000", "134634.801000", "134714.767000", "134714.770000", "134714.772000", "134714.775000", "134714.777000", "134714.780000", "134714.782000", "134714.785000", "134714.787000", "134714.790000", "134714.792000", "134714.794000", "134714.797000", "134714.799000", "134714.802000", "134714.804000", "134714.807000", "134714.809000", "134714.812000", "134714.814000", "134714.817000", "134714.819000", "134714.822000", "134714.824000", "134714.827000", "134714.829000", "134714.832000", "134754.735000", "134754.737000", "134754.740000", "134754.742000", "134754.745000", "134754.747000", "134754.750000", "134754.752000", "134754.755000", "134754.757000", "134754.760000", "134754.762000", "134754.765000", "134754.767000", "134754.770000", "134754.772000", "134754.775000", "134754.777000", "134754.780000", "134754.782000", "134754.785000", "134754.787000", "134754.790000", "134754.792000", "134754.795000", "134754.797000", "134834.738000", "134834.740000", "134834.743000", "134834.746000", "134834.749000", "134834.752000", "134834.754000", "134834.757000", "134834.759000", "134834.762000", "134834.764000", "134834.766000", "134834.769000", "134834.772000", "134834.774000", "134834.776000", "134834.779000", "134834.781000", "134834.784000", "134834.786000", "134834.789000", "134834.791000", "134834.794000", "134834.796000", "134834.799000", "134834.802000", "134834.804000", "134914.739000", "134914.742000", "134914.745000", "134914.747000", "134914.750000", "134914.752000", "134914.755000", "134914.757000", "134914.760000", "134914.762000", "134914.765000", "134914.767000", "134914.770000", "134914.772000", "134914.775000", "134914.777000", "134914.780000", "134914.782000", "134914.785000", "134914.787000", "134914.790000", "134914.792000", "134914.794000", "134914.797000", "134914.799000", "134914.802000", "134914.804000", "134953.417000", "134953.420000", "134953.423000", "134953.426000", "134953.429000", "134953.431000", "134953.434000", "134953.437000", "134953.439000", "134953.442000", "134953.444000", "134953.447000", "134953.450000", "134953.452000", "134953.455000", "134953.458000", "134953.460000", "134953.463000", "134953.466000", "134953.468000", "134953.471000", "134953.474000", "134953.476000", "134953.479000", "134953.482000", "134953.485000"],
      "InstanceNumber": [1, 2, 3, 4, 5, 6, 7, 8, 9, 10, 11, 12, 13, 14, 15, 16, 17, 18, 19, 20, 21, 22, 23, 24, 25, 26, 27, 28, 29, 30, 31, 32, 33, 34, 35, 36, 37, 38, 39, 40, 41, 42, 43, 44, 45, 46, 47, 48, 49, 50, 51, 52, 53, 54, 55, 56, 57, 58, 59, 60, 61, 62, 63, 64, 65, 66, 67, 68, 69, 70, 71, 72, 73, 74, 75, 76, 77, 78, 79, 80, 81, 82, 83, 84, 85, 86, 87, 88, 89, 90, 91, 92, 93, 94, 95, 96, 97, 98, 99, 100, 101, 102, 103, 104, 105, 106, 107, 108, 109, 110, 111, 112, 113, 114, 115, 116, 117, 118, 119, 120, 121, 122, 123, 124, 125, 126, 127, 128, 129, 130, 131, 132, 133, 134, 135, 136, 137, 138, 139, 140, 141, 142, 143, 144, 145, 146, 147, 148, 149, 150, 151, 152, 153, 154, 155, 156, 157, 158, 159, 160, 161, 162, 163, 164, 165, 166, 167, 168, 169, 170, 171, 172, 173, 174, 175, 176, 177, 178, 179, 180, 181, 182, 183, 184, 185, 186, 187, 188, 189, 190, 191, 192, 193, 194, 195, 196, 197, 198, 199, 200, 201, 202, 203, 204, 205, 206, 207, 208, 209, 210, 211, 212, 213, 214, 215, 216, 217, 218, 219, 220, 221, 222, 223, 224, 225, 226, 227, 228, 229, 230, 231, 232, 233, 234, 235, 236, 237, 238, 239, 240, 241, 242, 243, 244, 245, 246, 247, 248, 249, 250, 251, 252, 253, 254, 255, 256, 257, 258, 259, 260, 261, 262, 263, 264, 265, 266, 267, 268, 269, 270, 271, 272, 273, 274, 275, 276, 277, 278, 279, 280, 281, 282, 283, 284, 285, 286, 287, 288, 289, 290, 291, 292, 293, 294, 295, 296, 297, 298, 299, 300, 301, 302, 303, 304, 305, 306, 307, 308, 309, 310, 311],
      "WindowCenter": [4786.0, 4784.0, 4786.0, 4786.0, 4784.0, 4790.0, 4788.0, 4790.0, 4784.0, 4788.0, 4764.0, 4784.0, 4764.0, 4764.0, 4762.0, 4766.0, 4786.0, 4764.0, 4790.0, 4766.0, 4788.0, 4790.0, 4764.0, 4762.0, 4784.0, 4788.0, 4764.0, 4788.0, 4784.0, 4764.0, 4788.0, 4788.0, 4788.0, 4764.0, 4790.0, 4788.0, 4786.0, 4786.0, 4786.0, 4788.0, 4786.0, 4790.0, 4790.0, 4766.0, 4788.0, 4790.0, 4786.0, 4764.0, 4762.0, 4762.0, 4766.0, 4764.0, 4784.0, 4764.0, 4788.0, 4764.0, 4790.0, 4792.0, 4786.0, 4792.0, 4788.0, 4788.0, 4786.0, 4788.0, 4790.0, 4768.0, 4788.0, 4792.0, 4786.0, 4784.0, 4788.0, 4790.0, 4788.0, 4790.0, 4792.0, 4792.0, 4794.0, 4790.0, 4768.0, 4792.0, 4790.0, 4788.0, 4788.0, 4788.0, 4792.0, 4788.0, 4792.0, 4796.0, 4790.0, 4766.0, 4788.0, 4764.0, 4764.0, 4760.0, 4762.0, 4790.0, 4790.0, 4766.0, 4766.0, 4762.0, 4766.0, 4786.0, 4786.0, 4766.0, 4788.0, 4784.0, 4792.0, 4794.0, 4792.0, 4794.0, 4794.0, 4788.0, 4788.0, 4766.0, 4786.0, 4764.0, 4762.0, 4790.0, 4792.0, 4790.0, 4790.0, 4790.0, 4792.0, 4790.0, 4792.0, 4792.0, 4790.0, 4788.0, 4790.0, 4766.0, 4764.0, 4786.0, 4792.0, 4786.0, 4762.0, 4790.0, 4788.0, 4788.0, 4764.0, 4766.0, 4790.0, 4762.0, 4766.0, 4788.0, 4762.0, 4766.0, 4768.0, 4792.0, 4790.0, 4792.0, 4790.0, 4764.0, 4766.0, 4790.0, 4792.0, 4764.0, 4788.0, 4762.0, 4762.0, 4764.0, 4788.0, 4766.0, 4790.0, 4790.0, 4790.0, 4768.0, 4764.0, 4766.0, 4788.0, 4770.0, 4764.0, 4768.0, 4790.0, 4792.0, 4790.0, 4792.0, 4768.0, 4788.0, 4764.0, 4784.0, 4792.0, 4792.0, 4794.0, 4796.0, 4792.0, 4794.0, 4788.0, 4786.0, 4784.0, 4784.0, 4788.0, 4766.0, 4792.0, 4794.0, 4796.0, 4794.0, 4792.0, 4790.0, 4764.0, 4762.0, 4792.0, 4764.0, 4794.0, 4790.0, 4796.0, 4790.0, 4798.0, 4790.0, 4792.0, 4792.0, 4768.0, 4796.0, 4792.0, 4792.0, 4790.0, 4788.0, 4790.0, 4790.0, 4794.0, 4794.0, 4786.0, 4768.0, 4794.0, 4792.0, 4786.0, 4788.0, 4788.0, 4794.0, 4790.0, 4790.0, 4792.0, 4790.0, 4786.0, 4784.0, 4786.0, 4788.0, 4788.0, 4788.0, 4794.0, 4792.0, 4794.0, 4790.0, 4788.0, 4788.0, 4790.0, 4792.0, 4794.0, 4788.0, 4788.0, 4788.0, 4792.0, 4790.0, 4794.0, 4792.0, 4792.0, 4788.0, 4788.0, 4764.0, 4790.0, 4792.0, 4790.0, 4792.0, 4790.0, 4792.0, 4788.0, 4766.0, 4764.0, 4788.0, 4786.0, 4792.0, 4790.0, 4794.0, 4792.0, 4790.0, 4788.0, 4790.0, 4790.0, 4792.0, 4768.0, 4766.0, 4788.0, 4786.0, 4788.0, 4790.0, 4764.0, 4788.0, 4786.0, 4764.0, 4794.0, 4792.0, 4792.0, 4796.0, 4792.0, 4792.0, 4766.0, 4790.0, 4774.0, 4792.0, 4788.0, 4794.0, 4794.0, 4794.0, 4792.0, 4788.0, 4790.0, 4788.0, 4780.0, 4782.0, 4760.0, 4760.0, 4784.0],
