{
  "AcquisitionMatrixPE": 104,
  "AcquisitionNumber": 1,
  "AcquisitionTime": "11:51:4.612500",
  "BandwidthPerPixelPhaseEncode": 17.17,
  "BaseResolution": 104,
  "BodyPartExamined": "BRAIN",
  "CoilCombinationMethod": "Sum of Squares",
  "ConsistencyInfo": "N4_VE11C_LATEST_20160120",
  "ConversionSoftware": "dcm2niix",
  "ConversionSoftwareVersion": "v1.0.20220505",
  "DerivedVendorReportedEchoSpacing": 0.000560011,
  "DeviceSerialNumber": "167006",
  "DwellTime": 2.1e-06,
  "EchoTime": 0.037,
  "EchoTime1": 0.037,
  "EchoTime2": 0.001,
  "EchoTrainLength": 104,
  "EffectiveEchoSpacing": 0.000560011,
  "FlipAngle": 52,
  "HeudiconvVersion": "0.5.3.post811+g6206e14",
  "ImageComments": "Unaliased MB4/PE3/LB",
  "ImageOrientationPatientDICOM": [0.999267, -0.00206304, 0.038232, 0.0223275, 0.842582, -0.538105],
  "ImageOrientationText": "Tra>Cor(-32.6)>Sag(1.8)",
  "ImageType": [
    "ORIGINAL",
    "PRIMARY",
    "P",
    "MB",
    "ND",
    "MOSAIC",
    "PHASE"
],
  "ImagingFrequency": 123.26,
  "InPlanePhaseEncodingDirectionDICOM": "COL",
  "InstitutionAddress": "Chemin Queen-Mary 4565,Montreal,District,CA,H3W 1W5",
  "InstitutionName": "IUGM",
  "InstitutionalDepartmentName": "Department",
  "MRAcquisitionType": "2D",
  "MagneticFieldStrength": 3,
  "Manufacturer": "Siemens",
  "ManufacturersModelName": "Prisma_fit",
  "MatrixCoilMode": "SENSE",
  "Modality": "MR",
  "MultibandAccelerationFactor": 4,
  "PartialFourier": 1,
  "PatientPosition": "HFS",
  "PercentPhaseFOV": 100,
  "PercentSampling": 100,
  "PhaseEncodingDirection": "j",
  "PhaseEncodingSteps": 104,
  "PhaseResolution": 1,
  "PixelBandwidth": 2290,
  "ProcedureStepDescription": "games^mario3",
  "ProtocolName": "func_task-mario3_run-01",
  "PulseSequenceDetails": "%CustomerSeq%\\cmrr_mbep2d_bold",
  "ReceiveCoilActiveElements": "HC1-7;NC1,2",
  "ReceiveCoilName": "HeadNeck_64",
  "ReconMatrixPE": 104,
  "RepetitionTime": 1.49,
  "SAR": 0.0707352,
  "ScanOptions": "FS",
  "ScanningSequence": "EP",
  "SequenceName": "epfid2d1_104",
  "SequenceVariant": "SK\\SS",
  "SeriesDescription": "func_task-mario3_run-01",
  "SeriesNumber": 23,
  "ShimSetting": [611, -7191, -8859, 250, 60, -232, -46, 42],
  "SliceThickness": 2,
  "SliceTiming": [0, 0.785, 0.1, 0.8825, 0.1975, 0.98, 0.295, 1.08, 0.3925, 1.1775, 0.49, 1.275, 0.59, 1.3725, 0.6875, 0, 0.785, 0.1, 0.8825, 0.1975, 0.98, 0.295, 1.08, 0.3925, 1.1775, 0.49, 1.275, 0.59, 1.3725, 0.6875, 0, 0.785, 0.1, 0.8825, 0.1975, 0.98, 0.295, 1.08, 0.3925, 1.1775, 0.49, 1.275, 0.59, 1.3725, 0.6875, 0, 0.785, 0.1, 0.8825, 0.1975, 0.98, 0.295, 1.08, 0.3925, 1.1775, 0.49, 1.275, 0.59, 1.3725, 0.6875],
  "SoftwareVersions": "syngo MR E11",
  "SpacingBetweenSlices": 2,
  "StationName": "MRC35049",
  "TaskName": "mario3",
  "TotalReadoutTime": 0.0576811,
  "TxRefAmp": 299.478,
  "WipMemBlock": "ce240cf9-2ec0-4571-bc7d-97fb025c20d6||Sequence: R017 ve11c/master r/75a17815+; Jun 28 2022 16:32:11 by eja",
  "dcmmeta_affine": [
    [-1.9985334873199463, 0.044654980301856995, 0.06220702454447746, 103.44538879394531],
    [0.0041260793805122375, 1.6851645708084106, -1.0771273374557495, -48.16771697998047],
    [0.07646408677101135, 1.0762091875076294, 1.6840211153030396, -97.091552734375],
    [0.0, 0.0, 0.0, 1.0]
],
  "dcmmeta_reorient_transform": [
    [0.0, -1.0, 0.0, 103.0],
    [1.0, 0.0, 0.0, 0.0],
    [0.0, 0.0, 1.0, 0.0],
    [0.0, 0.0, 0.0, 1.0]
],
  "dcmmeta_shape": [104, 104, 60, 386],
  "dcmmeta_slice_dim": 2,
  "dcmmeta_version": 0.6,
  "global": {
    "const": {
      "AcquisitionMatrix": [104, 0, 0, 104],
      "AngioFlag": "N",
      "BitsAllocated": 16,
      "BitsStored": 16,
      "BodyPartExamined": "BRAIN",
      "Columns": 832,
      "EchoNumbers": 1,
      "EchoTime": 37.0,
      "EchoTrainLength": 104,
      "FlipAngle": 52.0,
      "HighBit": 15,
      "ImageOrientationPatient": [0.99926675856038, -0.0020630396016, 0.0382320428939, 0.02232749064866, 0.84258228704073, -0.5381046113225],
      "ImagePositionPatient": [-851.76546305043, -737.30224442965, 377.66522861107],
      "ImageType": [
        "ORIGINAL",
        "PRIMARY",
        "P",
        "MB",
        "ND",
        "MOSAIC"
],
      "ImagedNucleus": "1H",
      "ImagingFrequency": 123.260115,
      "InPlanePhaseEncodingDirection": "COL",
      "LargestImagePixelValue": 4095,
      "MRAcquisitionType": "2D",
      "MagneticFieldStrength": 3.0,
      "Manufacturer": "SIEMENS",
      "ManufacturerModelName": "Prisma_fit",
      "Modality": "MR",
      "NumberOfAverages": 1.0,
      "NumberOfPhaseEncodingSteps": 104,
      "PercentPhaseFieldOfView": 100.0,
      "PercentSampling": 100.0,
      "PerformedProcedureStepStartTime": "113457.362000",
      "PhotometricInterpretation": "MONOCHROME2",
      "PixelBandwidth": 2290.0,
      "PixelRepresentation": 0,
      "PixelSpacing": [2.0, 2.0],
      "ProtocolName": "func_task-mario3_run-01",
      "RepetitionTime": 1490.0,
      "RescaleIntercept": -4096.0,
      "RescaleSlope": 2.0,
      "RescaleType": "US",
      "Rows": 832,
      "SAR": 0.07073519879248,
      "SamplesPerPixel": 1,
      "ScanOptions": "FS",
      "ScanningSequence": "EP",
      "SequenceName": "epfid2d1_104",
      "SequenceVariant": [
        "SK",
        "SS"
],
      "SeriesDescription": "func_task-mario3_run-01",
      "SeriesNumber": 23,
      "SeriesTime": "115233.592000",
      "SliceLocation": -52.593210295112,
      "SliceThickness": 2.0,
      "SmallestImagePixelValue": 0,
      "SoftwareVersions": "syngo MR E11",
      "SpacingBetweenSlices": 2.0000000344855,
      "SpecificCharacterSet": "ISO_IR 100",
      "StudyID": "1",
      "StudyTime": "113457.280000",
      "TransmitCoilName": "Body",
      "VariableFlipAngleFlag": "N",
      "WindowCenterWidthExplanation": "Algo1",
      "dBdt": 0.0},
    "slices": {}
  },
  "time": {
    "samples": {
      "AcquisitionNumber": [1, 2, 3, 4, 5, 6, 7, 8, 9, 10, 11, 12, 13, 14, 15, 16, 17, 18, 19, 20, 21, 22, 23, 24, 25, 26, 27, 28, 29, 30, 31, 32, 33, 34, 35, 36, 37, 38, 39, 40, 41, 42, 43, 44, 45, 46, 47, 48, 49, 50, 51, 52, 53, 54, 55, 56, 57, 58, 59, 60, 61, 62, 63, 64, 65, 66, 67, 68, 69, 70, 71, 72, 73, 74, 75, 76, 77, 78, 79, 80, 81, 82, 83, 84, 85, 86, 87, 88, 89, 90, 91, 92, 93, 94, 95, 96, 97, 98, 99, 100, 101, 102, 103, 104, 105, 106, 107, 108, 109, 110, 111, 112, 113, 114, 115, 116, 117, 118, 119, 120, 121, 122, 123, 124, 125, 126, 127, 128, 129, 130, 131, 132, 133, 134, 135, 136, 137, 138, 139, 140, 141, 142, 143, 144, 145, 146, 147, 148, 149, 150, 151, 152, 153, 154, 155, 156, 157, 158, 159, 160, 161, 162, 163, 164, 165, 166, 167, 168, 169, 170, 171, 172, 173, 174, 175, 176, 177, 178, 179, 180, 181, 182, 183, 184, 185, 186, 187, 188, 189, 190, 191, 192, 193, 194, 195, 196, 197, 198, 199, 200, 201, 202, 203, 204, 205, 206, 207, 208, 209, 210, 211, 212, 213, 214, 215, 216, 217, 218, 219, 220, 221, 222, 223, 224, 225, 226, 227, 228, 229, 230, 231, 232, 233, 234, 235, 236, 237, 238, 239, 240, 241, 242, 243, 244, 245, 246, 247, 248, 249, 250, 251, 252, 253, 254, 255, 256, 257, 258, 259, 260, 261, 262, 263, 264, 265, 266, 267, 268, 269, 270, 271, 272, 273, 274, 275, 276, 277, 278, 279, 280, 281, 282, 283, 284, 285, 286, 287, 288, 289, 290, 291, 292, 293, 294, 295, 296, 297, 298, 299, 300, 301, 302, 303, 304, 305, 306, 307, 308, 309, 310, 311, 312, 313, 314, 315, 316, 317, 318, 319, 320, 321, 322, 323, 324, 325, 326, 327, 328, 329, 330, 331, 332, 333, 334, 335, 336, 337, 338, 339, 340, 341, 342, 343, 344, 345, 346, 347, 348, 349, 350, 351, 352, 353, 354, 355, 356, 357, 358, 359, 360, 361, 362, 363, 364, 365, 366, 367, 368, 369, 370, 371, 372, 373, 374, 375, 376, 377, 378, 379, 380, 381, 382, 383, 384, 385, 386],
      "AcquisitionTime": ["115104.612500", "115106.102500", "115107.592500", "115109.082500", "115110.572500", "115112.062500", "115113.552500", "115115.042500", "115116.532500", "115118.022500", "115119.512500", "115121.002500", "115122.492500", "115123.982500", "115125.472500", "115126.962500", "115128.452500", "115129.942500", "115131.432500", "115132.922500", "115134.412500", "115135.902500", "115137.392500", "115138.882500", "115140.372500", "115141.862500", "115143.352500", "115144.842500", "115146.332500", "115147.822500", "115149.312500", "115150.802500", "115152.292500", "115153.782500", "115155.272500", "115156.762500", "115158.252500", "115159.742500", "115201.232500", "115202.722500", "115204.212500", "115205.702500", "115207.192500", "115208.682500", "115210.172500", "115211.662500", "115213.152500", "115214.642500", "115216.132500", "115217.622500", "115219.112500", "115220.602500", "115222.092500", "115223.582500", "115225.072500", "115226.562500", "115228.052500", "115229.542500", "115231.032500", "115232.522500", "115234.012500", "115235.502500", "115236.992500", "115238.482500", "115239.972500", "115241.462500", "115242.952500", "115244.442500", "115245.932500", "115247.422500", "115248.912500", "115250.402500", "115251.892500", "115253.382500", "115254.872500", "115256.362500", "115257.852500", "115259.342500", "115300.832500", "115302.322500", "115303.812500", "115305.302500", "115306.792500", "115308.282500", "115309.772500", "115311.262500", "115312.752500", "115314.242500", "115315.732500", "115317.222500", "115318.712500", "115320.202500", "115321.692500", "115323.182500", "115324.672500", "115326.162500", "115327.652500", "115329.142500", "115330.632500", "115332.122500", "115333.612500", "115335.102500", "115336.592500", "115338.082500", "115339.572500", "115341.062500", "115342.552500", "115344.042500", "115345.532500", "115347.022500", "115348.512500", "115350.002500", "115351.492500", "115352.982500", "115354.472500", "115355.962500", "115357.452500", "115358.942500", "115400.432500", "115401.922500", "115403.412500", "115404.902500", "115406.392500", "115407.882500", "115409.372500", "115410.862500", "115412.352500", "115413.842500", "115415.332500", "115416.822500", "115418.312500", "115419.802500", "115421.292500", "115422.782500", "115424.272500", "115425.762500", "115427.252500", "115428.742500", "115430.232500", "115431.722500", "115433.212500", "115434.702500", "115436.192500", "115437.682500", "115439.172500", "115440.662500", "115442.152500", "115443.642500", "115445.132500", "115446.622500", "115448.112500", "115449.602500", "115451.092500", "115452.582500", "115454.072500", "115455.562500", "115457.052500", "115458.542500", "115500.032500", "115501.522500", "115503.012500", "115504.502500", "115505.992500", "115507.482500", "115508.972500", "115510.462500", "115511.952500", "115513.442500", "115514.932500", "115516.422500", "115517.912500", "115519.402500", "115520.892500", "115522.382500", "115523.872500", "115525.362500", "115526.852500", "115528.342500", "115529.832500", "115531.322500", "115532.812500", "115534.302500", "115535.792500", "115537.282500", "115538.772500", "115540.262500", "115541.752500", "115543.242500", "115544.732500", "115546.222500", "115547.712500", "115549.202500", "115550.692500", "115552.182500", "115553.672500", "115555.162500", "115556.652500", "115558.142500", "115559.632500", "115601.122500", "115602.612500", "115604.102500", "115605.592500", "115607.082500", "115608.572500", "115610.062500", "115611.552500", "115613.042500", "115614.532500", "115616.022500", "115617.512500", "115619.002500", "115620.492500", "115621.982500", "115623.472500", "115624.962500", "115626.452500", "115627.942500", "115629.432500", "115630.922500", "115632.412500", "115633.902500", "115635.392500", "115636.882500", "115638.372500", "115639.862500", "115641.352500", "115642.842500", "115644.332500", "115645.822500", "115647.312500", "115648.802500", "115650.292500", "115651.782500", "115653.272500", "115654.762500", "115656.252500", "115657.742500", "115659.232500", "115700.722500", "115702.212500", "115703.702500", "115705.192500", "115706.682500", "115708.172500", "115709.662500", "115711.152500", "115712.642500", "115714.132500", "115715.622500", "115717.112500", "115718.602500", "115720.092500", "115721.582500", "115723.072500", "115724.562500", "115726.052500", "115727.542500", "115729.032500", "115730.522500", "115732.012500", "115733.502500", "115734.992500", "115736.482500", "115737.972500", "115739.462500", "115740.952500", "115742.442500", "115743.932500", "115745.422500", "115746.912500", "115748.402500", "115749.892500", "115751.382500", "115752.872500", "115754.362500", "115755.852500", "115757.342500", "115758.832500", "115800.322500", "115801.812500", "115803.302500", "115804.792500", "115806.282500", "115807.772500", "115809.262500", "115810.752500", "115812.242500", "115813.732500", "115815.222500", "115816.712500", "115818.202500", "115819.692500", "115821.182500", "115822.672500", "115824.162500", "115825.652500", "115827.142500", "115828.632500", "115830.122500", "115831.612500", "115833.102500", "115834.592500", "115836.082500", "115837.572500", "115839.062500", "115840.552500", "115842.042500", "115843.532500", "115845.022500", "115846.512500", "115848.002500", "115849.492500", "115850.982500", "115852.472500", "115853.962500", "115855.452500", "115856.942500", "115858.432500", "115859.922500", "115901.412500", "115902.902500", "115904.392500", "115905.882500", "115907.372500", "115908.862500", "115910.352500", "115911.842500", "115913.332500", "115914.822500", "115916.312500", "115917.802500", "115919.292500", "115920.782500", "115922.272500", "115923.762500", "115925.252500", "115926.742500", "115928.232500", "115929.722500", "115931.212500", "115932.702500", "115934.192500", "115935.682500", "115937.172500", "115938.662500", "115940.152500", "115941.642500", "115943.132500", "115944.622500", "115946.112500", "115947.602500", "115949.092500", "115950.582500", "115952.072500", "115953.562500", "115955.052500", "115956.542500", "115958.032500", "115959.522500", "120001.012500", "120002.502500", "120003.992500", "120005.482500", "120006.972500", "120008.462500", "120009.952500", "120011.442500", "120012.932500", "120014.422500", "120015.912500", "120017.402500", "120018.892500", "120020.382500", "120021.872500", "120023.362500", "120024.852500", "120026.342500", "120027.832500", "120029.322500", "120030.812500", "120032.302500", "120033.792500", "120035.282500", "120036.772500", "120038.262500"],
      "ContentTime": ["115233.594000", "115233.597000", "115233.599000", "115233.602000", "115233.604000", "115233.607000", "115233.609000", "115233.612000", "115233.614000", "115233.617000", "115233.619000", "115233.626000", "115233.628000", "115233.631000", "115233.633000", "115233.636000", "115233.638000", "115233.641000", "115233.643000", "115233.646000", "115233.648000", "115233.651000", "115233.653000", "115233.656000", "115233.658000", "115233.661000", "115233.663000", "115233.666000", "115233.668000", "115233.671000", "115233.673000", "115233.676000", "115233.678000", "115233.681000", "115233.683000", "115233.686000", "115233.688000", "115233.691000", "115233.693000", "115253.470000", "115253.473000", "115253.476000", "115253.483000", "115253.485000", "115253.488000", "115253.490000", "115253.493000", "115253.495000", "115253.498000", "115253.500000", "115253.503000", "115253.505000", "115253.508000", "115253.510000", "115253.513000", "115253.515000", "115253.518000", "115253.520000", "115253.523000", "115313.515000", "115313.518000", "115313.521000", "115313.523000", "115313.526000", "115313.528000", "115313.531000", "115313.533000", "115313.536000", "115313.538000", "115313.541000", "115313.543000", "115313.545000", "115313.548000", "115313.550000", "115313.553000", "115313.555000", "115313.558000", "115313.560000", "115313.563000", "115313.565000", "115333.462000", "115333.465000", "115333.468000", "115333.470000", "115333.473000", "115333.475000", "115333.478000", "115333.480000", "115333.483000", "115333.485000", "115333.488000", "115333.490000", "115333.493000", "115333.495000", "115333.498000", "115333.500000", "115333.503000", "115333.505000", "115333.508000", "115413.498000", "115413.501000", "115413.504000", "115413.506000", "115413.509000", "115413.511000", "115413.514000", "115413.516000", "115413.519000", "115413.521000", "115413.524000", "115413.526000", "115413.529000", "115413.531000", "115413.534000", "115413.536000", "115413.539000", "115413.541000", "115413.544000", "115413.546000", "115413.549000", "115413.551000", "115413.554000", "115413.556000", "115413.559000", "115413.561000", "115453.490000", "115453.493000", "115453.496000", "115453.499000", "115453.501000", "115453.504000", "115453.506000", "115453.509000", "115453.511000", "115453.514000", "115453.516000", "115453.519000", "115453.521000", "115453.524000", "115453.526000", "115453.529000", "115453.532000", "115453.534000", "115453.537000", "115453.539000", "115453.542000", "115453.544000", "115453.547000", "115453.549000", "115453.552000", "115453.554000", "115453.557000", "115533.515000", "115533.517000", "115533.520000", "115533.522000", "115533.525000", "115533.527000", "115533.530000", "115533.532000", "115533.535000", "115533.537000", "115533.540000", "115533.542000", "115533.545000", "115533.547000", "115533.550000", "115533.552000", "115533.555000", "115533.557000", "115533.560000", "115533.562000", "115533.565000", "115533.567000", "115533.570000", "115533.572000", "115533.575000", "115533.577000", "115533.580000", "115613.505000", "115613.508000", "115613.510000", "115613.513000", "115613.515000", "115613.518000", "115613.521000", "115613.523000", "115613.526000", "115613.528000", "115613.531000", "115613.533000", "115613.536000", "115613.538000", "115613.541000", "115613.544000", "115613.546000", "115613.548000", "115613.551000", "115613.553000", "115613.556000", "115613.558000", "115613.561000", "115613.563000", "115613.566000", "115613.568000", "115613.571000", "115653.490000", "115653.493000", "115653.495000", "115653.498000", "115653.500000", "115653.503000", "115653.505000", "115653.508000", "115653.511000", "115653.513000", "115653.516000", "115653.518000", "115653.520000", "115653.523000", "115653.526000", "115653.528000", "115653.530000", "115653.533000", "115653.536000", "115653.538000", "115653.541000", "115653.543000", "115653.546000", "115653.548000", "115653.551000", "115653.553000", "115653.556000", "115733.493000", "115733.496000", "115733.499000", "115733.501000", "115733.504000", "115733.506000", "115733.509000", "115733.511000", "115733.514000", "115733.516000", "115733.519000", "115733.521000", "115733.524000", "115733.526000", "115733.529000", "115733.531000", "115733.534000", "115733.536000", "115733.539000", "115733.541000", "115733.544000", "115733.546000", "115733.549000", "115733.551000", "115733.554000", "115733.556000", "115733.559000", "115813.512000", "115813.515000", "115813.517000", "115813.520000", "115813.523000", "115813.525000", "115813.527000", "115813.530000", "115813.532000", "115813.535000", "115813.537000", "115813.540000", "115813.542000", "115813.545000", "115813.548000", "115813.550000", "115813.553000", "115813.555000", "115813.558000", "115813.560000", "115813.563000", "115813.565000", "115813.568000", "115813.571000", "115813.573000", "115813.576000", "115813.578000", "115853.503000", "115853.506000", "115853.508000", "115853.511000", "115853.514000", "115853.517000", "115853.521000", "115853.523000", "115853.526000", "115853.529000", "115853.532000", "115853.534000", "115853.537000", "115853.540000", "115853.542000", "115853.545000", "115853.547000", "115853.550000", "115853.552000", "115853.555000", "115853.557000", "115853.560000", "115853.562000", "115853.565000", "115853.567000", "115853.570000", "115933.489000", "115933.492000", "115933.494000", "115933.497000", "115933.499000", "115933.502000", "115933.504000", "115933.507000", "115933.510000", "115933.512000", "115933.521000", "115933.524000", "115933.526000", "115933.529000", "115933.531000", "115933.534000", "115933.536000", "115933.539000", "115933.541000", "115933.544000", "115933.546000", "115933.549000", "115933.551000", "115933.554000", "115933.556000", "115933.559000", "115933.562000", "120013.507000", "120013.510000", "120013.513000", "120013.515000", "120013.518000", "120013.520000", "120013.523000", "120013.525000", "120013.528000", "120013.530000", "120013.533000", "120013.535000", "120013.538000", "120013.540000", "120013.543000", "120013.545000", "120013.548000", "120013.550000", "120013.553000", "120013.555000", "120013.558000", "120013.560000", "120013.563000", "120013.565000", "120013.568000", "120013.570000", "120013.573000", "120041.046000", "120041.049000", "120041.052000", "120041.054000", "120041.057000", "120041.059000", "120041.062000", "120041.064000", "120041.067000", "120041.069000", "120041.072000", "120041.074000", "120041.077000", "120041.079000", "120041.082000", "120041.084000", "120041.087000", "120041.089000", "120041.092000"],
      "InstanceCreationTime": ["115233.594000", "115233.597000", "115233.599000", "115233.602000", "115233.604000", "115233.607000", "115233.609000", "115233.612000", "115233.614000", "115233.617000", "115233.619000", "115233.626000", "115233.628000", "115233.631000", "115233.633000", "115233.636000", "115233.638000", "115233.641000", "115233.643000", "115233.646000", "115233.648000", "115233.651000", "115233.653000", "115233.656000", "115233.658000", "115233.661000", "115233.663000", "115233.666000", "115233.668000", "115233.671000", "115233.673000", "115233.676000", "115233.678000", "115233.681000", "115233.683000", "115233.686000", "115233.688000", "115233.691000", "115233.693000", "115253.470000", "115253.473000", "115253.476000", "115253.483000", "115253.485000", "115253.488000", "115253.490000", "115253.493000", "115253.495000", "115253.498000", "115253.500000", "115253.503000", "115253.505000", "115253.508000", "115253.510000", "115253.513000", "115253.515000", "115253.518000", "115253.520000", "115253.523000", "115313.515000", "115313.518000", "115313.521000", "115313.523000", "115313.526000", "115313.528000", "115313.531000", "115313.533000", "115313.536000", "115313.538000", "115313.541000", "115313.543000", "115313.545000", "115313.548000", "115313.550000", "115313.553000", "115313.555000", "115313.558000", "115313.560000", "115313.563000", "115313.565000", "115333.462000", "115333.465000", "115333.468000", "115333.470000", "115333.473000", "115333.475000", "115333.478000", "115333.480000", "115333.483000", "115333.485000", "115333.488000", "115333.490000", "115333.493000", "115333.495000", "115333.498000", "115333.500000", "115333.503000", "115333.505000", "115333.508000", "115413.498000", "115413.501000", "115413.504000", "115413.506000", "115413.509000", "115413.511000", "115413.514000", "115413.516000", "115413.519000", "115413.521000", "115413.524000", "115413.526000", "115413.529000", "115413.531000", "115413.534000", "115413.536000", "115413.539000", "115413.541000", "115413.544000", "115413.546000", "115413.549000", "115413.551000", "115413.554000", "115413.556000", "115413.559000", "115413.561000", "115453.490000", "115453.493000", "115453.496000", "115453.499000", "115453.501000", "115453.504000", "115453.506000", "115453.509000", "115453.511000", "115453.514000", "115453.516000", "115453.519000", "115453.521000", "115453.524000", "115453.526000", "115453.529000", "115453.532000", "115453.534000", "115453.537000", "115453.539000", "115453.542000", "115453.544000", "115453.547000", "115453.549000", "115453.552000", "115453.554000", "115453.557000", "115533.515000", "115533.517000", "115533.520000", "115533.522000", "115533.525000", "115533.527000", "115533.530000", "115533.532000", "115533.535000", "115533.537000", "115533.540000", "115533.542000", "115533.545000", "115533.547000", "115533.550000", "115533.552000", "115533.555000", "115533.557000", "115533.560000", "115533.562000", "115533.565000", "115533.567000", "115533.570000", "115533.572000", "115533.575000", "115533.577000", "115533.580000", "115613.505000", "115613.508000", "115613.510000", "115613.513000", "115613.515000", "115613.518000", "115613.521000", "115613.523000", "115613.526000", "115613.528000", "115613.531000", "115613.533000", "115613.536000", "115613.538000", "115613.541000", "115613.544000", "115613.546000", "115613.548000", "115613.551000", "115613.553000", "115613.556000", "115613.558000", "115613.561000", "115613.563000", "115613.566000", "115613.568000", "115613.571000", "115653.490000", "115653.493000", "115653.495000", "115653.498000", "115653.500000", "115653.503000", "115653.505000", "115653.508000", "115653.511000", "115653.513000", "115653.516000", "115653.518000", "115653.520000", "115653.523000", "115653.526000", "115653.528000", "115653.530000", "115653.533000", "115653.536000", "115653.538000", "115653.541000", "115653.543000", "115653.546000", "115653.548000", "115653.551000", "115653.553000", "115653.556000", "115733.493000", "115733.496000", "115733.499000", "115733.501000", "115733.504000", "115733.506000", "115733.509000", "115733.511000", "115733.514000", "115733.516000", "115733.519000", "115733.521000", "115733.524000", "115733.526000", "115733.529000", "115733.531000", "115733.534000", "115733.536000", "115733.539000", "115733.541000", "115733.544000", "115733.546000", "115733.549000", "115733.551000", "115733.554000", "115733.556000", "115733.559000", "115813.512000", "115813.515000", "115813.517000", "115813.520000", "115813.523000", "115813.525000", "115813.527000", "115813.530000", "115813.532000", "115813.535000", "115813.537000", "115813.540000", "115813.542000", "115813.545000", "115813.548000", "115813.550000", "115813.553000", "115813.555000", "115813.558000", "115813.560000", "115813.563000", "115813.565000", "115813.568000", "115813.571000", "115813.573000", "115813.576000", "115813.578000", "115853.503000", "115853.506000", "115853.508000", "115853.511000", "115853.514000", "115853.517000", "115853.521000", "115853.523000", "115853.526000", "115853.529000", "115853.532000", "115853.534000", "115853.537000", "115853.540000", "115853.542000", "115853.545000", "115853.547000", "115853.550000", "115853.552000", "115853.555000", "115853.557000", "115853.560000", "115853.562000", "115853.565000", "115853.567000", "115853.570000", "115933.489000", "115933.492000", "115933.494000", "115933.497000", "115933.499000", "115933.502000", "115933.504000", "115933.507000", "115933.510000", "115933.512000", "115933.521000", "115933.524000", "115933.526000", "115933.529000", "115933.531000", "115933.534000", "115933.536000", "115933.539000", "115933.541000", "115933.544000", "115933.546000", "115933.549000", "115933.551000", "115933.554000", "115933.556000", "115933.559000", "115933.562000", "120013.507000", "120013.510000", "120013.513000", "120013.515000", "120013.518000", "120013.520000", "120013.523000", "120013.525000", "120013.528000", "120013.530000", "120013.533000", "120013.535000", "120013.538000", "120013.540000", "120013.543000", "120013.545000", "120013.548000", "120013.550000", "120013.553000", "120013.555000", "120013.558000", "120013.560000", "120013.563000", "120013.565000", "120013.568000", "120013.570000", "120013.573000", "120041.046000", "120041.049000", "120041.052000", "120041.054000", "120041.057000", "120041.059000", "120041.062000", "120041.064000", "120041.067000", "120041.069000", "120041.072000", "120041.074000", "120041.077000", "120041.079000", "120041.082000", "120041.084000", "120041.087000", "120041.089000", "120041.092000"],
      "InstanceNumber": [1, 2, 3, 4, 5, 6, 7, 8, 9, 10, 11, 12, 13, 14, 15, 16, 17, 18, 19, 20, 21, 22, 23, 24, 25, 26, 27, 28, 29, 30, 31, 32, 33, 34, 35, 36, 37, 38, 39, 40, 41, 42, 43, 44, 45, 46, 47, 48, 49, 50, 51, 52, 53, 54, 55, 56, 57, 58, 59, 60, 61, 62, 63, 64, 65, 66, 67, 68, 69, 70, 71, 72, 73, 74, 75, 76, 77, 78, 79, 80, 81, 82, 83, 84, 85, 86, 87, 88, 89, 90, 91, 92, 93, 94, 95, 96, 97, 98, 99, 100, 101, 102, 103, 104, 105, 106, 107, 108, 109, 110, 111, 112, 113, 114, 115, 116, 117, 118, 119, 120, 121, 122, 123, 124, 125, 126, 127, 128, 129, 130, 131, 132, 133, 134, 135, 136, 137, 138, 139, 140, 141, 142, 143, 144, 145, 146, 147, 148, 149, 150, 151, 152, 153, 154, 155, 156, 157, 158, 159, 160, 161, 162, 163, 164, 165, 166, 167, 168, 169, 170, 171, 172, 173, 174, 175, 176, 177, 178, 179, 180, 181, 182, 183, 184, 185, 186, 187, 188, 189, 190, 191, 192, 193, 194, 195, 196, 197, 198, 199, 200, 201, 202, 203, 204, 205, 206, 207, 208, 209, 210, 211, 212, 213, 214, 215, 216, 217, 218, 219, 220, 221, 222, 223, 224, 225, 226, 227, 228, 229, 230, 231, 232, 233, 234, 235, 236, 237, 238, 239, 240, 241, 242, 243, 244, 245, 246, 247, 248, 249, 250, 251, 252, 253, 254, 255, 256, 257, 258, 259, 260, 261, 262, 263, 264, 265, 266, 267, 268, 269, 270, 271, 272, 273, 274, 275, 276, 277, 278, 279, 280, 281, 282, 283, 284, 285, 286, 287, 288, 289, 290, 291, 292, 293, 294, 295, 296, 297, 298, 299, 300, 301, 302, 303, 304, 305, 306, 307, 308, 309, 310, 311, 312, 313, 314, 315, 316, 317, 318, 319, 320, 321, 322, 323, 324, 325, 326, 327, 328, 329, 330, 331, 332, 333, 334, 335, 336, 337, 338, 339, 340, 341, 342, 343, 344, 345, 346, 347, 348, 349, 350, 351, 352, 353, 354, 355, 356, 357, 358, 359, 360, 361, 362, 363, 364, 365, 366, 367, 368, 369, 370, 371, 372, 373, 374, 375, 376, 377, 378, 379, 380, 381, 382, 383, 384, 385, 386],
