{
  "AcquisitionMatrixPE": 104,
  "AcquisitionNumber": 1,
  "AcquisitionTime": "11:51:4.612500",
  "BandwidthPerPixelPhaseEncode": 17.17,
  "BaseResolution": 104,
  "BodyPartExamined": "BRAIN",
  "CoilCombinationMethod": "Sum of Squares",
  "ConsistencyInfo": "N4_VE11C_LATEST_20160120",
  "ConversionSoftware": "dcm2niix",
  "ConversionSoftwareVersion": "v1.0.20220505",
  "DerivedVendorReportedEchoSpacing": 0.000560011,
  "DeviceSerialNumber": "167006",
  "DwellTime": 2.1e-06,
  "EchoTime": 0.037,
  "EchoTrainLength": 104,
  "EffectiveEchoSpacing": 0.000560011,
  "FlipAngle": 52,
  "HeudiconvVersion": "0.5.3.post811+g6206e14",
  "ImageComments": "Unaliased MB4/PE3/LB",
  "ImageOrientationPatientDICOM": [0.999267, -0.00206304, 0.038232, 0.0223275, 0.842582, -0.538105],
  "ImageOrientationText": "Tra>Cor(-32.6)>Sag(1.8)",
  "ImageType": [
    "ORIGINAL",
    "PRIMARY",
    "M",
    "MB",
    "ND",
    "MOSAIC"
],
  "ImagingFrequency": 123.26,
  "InPlanePhaseEncodingDirectionDICOM": "COL",
  "InstitutionAddress": "Chemin Queen-Mary 4565,Montreal,District,CA,H3W 1W5",
  "InstitutionName": "IUGM",
  "InstitutionalDepartmentName": "Department",
  "MRAcquisitionType": "2D",
  "MagneticFieldStrength": 3,
  "Manufacturer": "Siemens",
  "ManufacturersModelName": "Prisma_fit",
  "MatrixCoilMode": "SENSE",
  "Modality": "MR",
  "MultibandAccelerationFactor": 4,
  "PartialFourier": 1,
  "PatientPosition": "HFS",
  "PercentPhaseFOV": 100,
  "PercentSampling": 100,
  "PhaseEncodingDirection": "j",
  "PhaseEncodingSteps": 104,
  "PhaseResolution": 1,
  "PixelBandwidth": 2290,
  "ProcedureStepDescription": "games^mario3",
  "ProtocolName": "func_task-mario3_run-01",
  "PulseSequenceDetails": "%CustomerSeq%\\cmrr_mbep2d_bold",
  "ReceiveCoilActiveElements": "HC1-7;NC1,2",
  "ReceiveCoilName": "HeadNeck_64",
  "ReconMatrixPE": 104,
  "RepetitionTime": 1.49,
  "SAR": 0.0707352,
  "ScanOptions": "FS",
  "ScanningSequence": "EP",
  "SequenceName": "epfid2d1_104",
  "SequenceVariant": "SK\\SS",
  "SeriesDescription": "func_task-mario3_run-01",
  "SeriesNumber": 22,
  "ShimSetting": [611, -7191, -8859, 250, 60, -232, -46, 42],
  "SliceThickness": 2,
  "SliceTiming": [0, 0.785, 0.1, 0.8825, 0.1975, 0.98, 0.295, 1.08, 0.3925, 1.1775, 0.49, 1.275, 0.59, 1.3725, 0.6875, 0, 0.785, 0.1, 0.8825, 0.1975, 0.98, 0.295, 1.08, 0.3925, 1.1775, 0.49, 1.275, 0.59, 1.3725, 0.6875, 0, 0.785, 0.1, 0.8825, 0.1975, 0.98, 0.295, 1.08, 0.3925, 1.1775, 0.49, 1.275, 0.59, 1.3725, 0.6875, 0, 0.785, 0.1, 0.8825, 0.1975, 0.98, 0.295, 1.08, 0.3925, 1.1775, 0.49, 1.275, 0.59, 1.3725, 0.6875],
  "SoftwareVersions": "syngo MR E11",
  "SpacingBetweenSlices": 2,
  "StationName": "MRC35049",
  "TaskName": "mario3",
  "TotalReadoutTime": 0.0576811,
  "TxRefAmp": 299.478,
  "WipMemBlock": "ce240cf9-2ec0-4571-bc7d-97fb025c20d6||Sequence: R017 ve11c/master r/75a17815+; Jun 28 2022 16:32:11 by eja",
  "dcmmeta_affine": [
    [-1.9985334873199463, 0.044654980301856995, 0.06220702454447746, 103.44538879394531],
    [0.0041260793805122375, 1.6851645708084106, -1.0771273374557495, -48.16771697998047],
    [0.07646408677101135, 1.0762091875076294, 1.6840211153030396, -97.091552734375],
    [0.0, 0.0, 0.0, 1.0]
],
  "dcmmeta_reorient_transform": [
    [0.0, -1.0, 0.0, 103.0],
    [1.0, 0.0, 0.0, 0.0],
    [0.0, 0.0, 1.0, 0.0],
    [0.0, 0.0, 0.0, 1.0]
],
  "dcmmeta_shape": [104, 104, 60, 386],
  "dcmmeta_slice_dim": 2,
  "dcmmeta_version": 0.6,
  "global": {
    "const": {
      "AcquisitionMatrix": [104, 0, 0, 104],
      "AngioFlag": "N",
      "BitsAllocated": 16,
      "BitsStored": 16,
      "BodyPartExamined": "BRAIN",
      "Columns": 832,
      "EchoNumbers": 1,
      "EchoTime": 37.0,
      "EchoTrainLength": 104,
      "FlipAngle": 52.0,
      "HighBit": 15,
      "ImageOrientationPatient": [0.99926675856038, -0.0020630396016, 0.0382320428939, 0.02232749064866, 0.84258228704073, -0.5381046113225],
      "ImagePositionPatient": [-851.76546305043, -737.30224442965, 377.66522861107],
      "ImageType": [
        "ORIGINAL",
        "PRIMARY",
        "M",
        "MB",
        "ND",
        "MOSAIC"
],
      "ImagedNucleus": "1H",
      "ImagingFrequency": 123.260115,
      "InPlanePhaseEncodingDirection": "COL",
      "MRAcquisitionType": "2D",
      "MagneticFieldStrength": 3.0,
      "Manufacturer": "SIEMENS",
      "ManufacturerModelName": "Prisma_fit",
      "Modality": "MR",
      "NumberOfAverages": 1.0,
      "NumberOfPhaseEncodingSteps": 104,
      "PercentPhaseFieldOfView": 100.0,
      "PercentSampling": 100.0,
      "PerformedProcedureStepStartTime": "113457.362000",
      "PhotometricInterpretation": "MONOCHROME2",
      "PixelBandwidth": 2290.0,
      "PixelRepresentation": 0,
      "PixelSpacing": [2.0, 2.0],
      "ProtocolName": "func_task-mario3_run-01",
      "RepetitionTime": 1490.0,
      "Rows": 832,
      "SAR": 0.07073519879248,
      "SamplesPerPixel": 1,
      "ScanOptions": "FS",
      "ScanningSequence": "EP",
      "SequenceName": "epfid2d1_104",
      "SequenceVariant": [
        "SK",
        "SS"
],
      "SeriesDescription": "func_task-mario3_run-01",
      "SeriesNumber": 22,
      "SeriesTime": "115233.397000",
      "SliceLocation": -52.593210295112,
      "SliceThickness": 2.0,
      "SmallestImagePixelValue": 0,
      "SoftwareVersions": "syngo MR E11",
      "SpacingBetweenSlices": 2.0000000344855,
      "SpecificCharacterSet": "ISO_IR 100",
      "StudyID": "1",
      "StudyTime": "113457.280000",
      "TransmitCoilName": "Body",
      "VariableFlipAngleFlag": "N",
      "WindowCenterWidthExplanation": "Algo1",
      "dBdt": 0.0},
    "slices": {}
  },
  "time": {
    "samples": {
      "AcquisitionNumber": [1, 2, 3, 4, 5, 6, 7, 8, 9, 10, 11, 12, 13, 14, 15, 16, 17, 18, 19, 20, 21, 22, 23, 24, 25, 26, 27, 28, 29, 30, 31, 32, 33, 34, 35, 36, 37, 38, 39, 40, 41, 42, 43, 44, 45, 46, 47, 48, 49, 50, 51, 52, 53, 54, 55, 56, 57, 58, 59, 60, 61, 62, 63, 64, 65, 66, 67, 68, 69, 70, 71, 72, 73, 74, 75, 76, 77, 78, 79, 80, 81, 82, 83, 84, 85, 86, 87, 88, 89, 90, 91, 92, 93, 94, 95, 96, 97, 98, 99, 100, 101, 102, 103, 104, 105, 106, 107, 108, 109, 110, 111, 112, 113, 114, 115, 116, 117, 118, 119, 120, 121, 122, 123, 124, 125, 126, 127, 128, 129, 130, 131, 132, 133, 134, 135, 136, 137, 138, 139, 140, 141, 142, 143, 144, 145, 146, 147, 148, 149, 150, 151, 152, 153, 154, 155, 156, 157, 158, 159, 160, 161, 162, 163, 164, 165, 166, 167, 168, 169, 170, 171, 172, 173, 174, 175, 176, 177, 178, 179, 180, 181, 182, 183, 184, 185, 186, 187, 188, 189, 190, 191, 192, 193, 194, 195, 196, 197, 198, 199, 200, 201, 202, 203, 204, 205, 206, 207, 208, 209, 210, 211, 212, 213, 214, 215, 216, 217, 218, 219, 220, 221, 222, 223, 224, 225, 226, 227, 228, 229, 230, 231, 232, 233, 234, 235, 236, 237, 238, 239, 240, 241, 242, 243, 244, 245, 246, 247, 248, 249, 250, 251, 252, 253, 254, 255, 256, 257, 258, 259, 260, 261, 262, 263, 264, 265, 266, 267, 268, 269, 270, 271, 272, 273, 274, 275, 276, 277, 278, 279, 280, 281, 282, 283, 284, 285, 286, 287, 288, 289, 290, 291, 292, 293, 294, 295, 296, 297, 298, 299, 300, 301, 302, 303, 304, 305, 306, 307, 308, 309, 310, 311, 312, 313, 314, 315, 316, 317, 318, 319, 320, 321, 322, 323, 324, 325, 326, 327, 328, 329, 330, 331, 332, 333, 334, 335, 336, 337, 338, 339, 340, 341, 342, 343, 344, 345, 346, 347, 348, 349, 350, 351, 352, 353, 354, 355, 356, 357, 358, 359, 360, 361, 362, 363, 364, 365, 366, 367, 368, 369, 370, 371, 372, 373, 374, 375, 376, 377, 378, 379, 380, 381, 382, 383, 384, 385, 386],
      "AcquisitionTime": ["115104.612500", "115106.102500", "115107.592500", "115109.082500", "115110.572500", "115112.062500", "115113.552500", "115115.042500", "115116.532500", "115118.022500", "115119.512500", "115121.002500", "115122.492500", "115123.982500", "115125.472500", "115126.962500", "115128.452500", "115129.942500", "115131.432500", "115132.922500", "115134.412500", "115135.902500", "115137.392500", "115138.882500", "115140.372500", "115141.862500", "115143.352500", "115144.842500", "115146.332500", "115147.822500", "115149.312500", "115150.802500", "115152.292500", "115153.782500", "115155.272500", "115156.762500", "115158.252500", "115159.742500", "115201.232500", "115202.722500", "115204.212500", "115205.702500", "115207.192500", "115208.682500", "115210.172500", "115211.662500", "115213.152500", "115214.642500", "115216.132500", "115217.622500", "115219.112500", "115220.602500", "115222.092500", "115223.582500", "115225.072500", "115226.562500", "115228.052500", "115229.542500", "115231.032500", "115232.522500", "115234.012500", "115235.502500", "115236.992500", "115238.482500", "115239.972500", "115241.462500", "115242.952500", "115244.442500", "115245.932500", "115247.422500", "115248.912500", "115250.402500", "115251.892500", "115253.382500", "115254.872500", "115256.362500", "115257.852500", "115259.342500", "115300.832500", "115302.322500", "115303.812500", "115305.302500", "115306.792500", "115308.282500", "115309.772500", "115311.262500", "115312.752500", "115314.242500", "115315.732500", "115317.222500", "115318.712500", "115320.202500", "115321.692500", "115323.182500", "115324.672500", "115326.162500", "115327.652500", "115329.142500", "115330.632500", "115332.122500", "115333.612500", "115335.102500", "115336.592500", "115338.082500", "115339.572500", "115341.062500", "115342.552500", "115344.042500", "115345.532500", "115347.022500", "115348.512500", "115350.002500", "115351.492500", "115352.982500", "115354.472500", "115355.962500", "115357.452500", "115358.942500", "115400.432500", "115401.922500", "115403.412500", "115404.902500", "115406.392500", "115407.882500", "115409.372500", "115410.862500", "115412.352500", "115413.842500", "115415.332500", "115416.822500", "115418.312500", "115419.802500", "115421.292500", "115422.782500", "115424.272500", "115425.762500", "115427.252500", "115428.742500", "115430.232500", "115431.722500", "115433.212500", "115434.702500", "115436.192500", "115437.682500", "115439.172500", "115440.662500", "115442.152500", "115443.642500", "115445.132500", "115446.622500", "115448.112500", "115449.602500", "115451.092500", "115452.582500", "115454.072500", "115455.562500", "115457.052500", "115458.542500", "115500.032500", "115501.522500", "115503.012500", "115504.502500", "115505.992500", "115507.482500", "115508.972500", "115510.462500", "115511.952500", "115513.442500", "115514.932500", "115516.422500", "115517.912500", "115519.402500", "115520.892500", "115522.382500", "115523.872500", "115525.362500", "115526.852500", "115528.342500", "115529.832500", "115531.322500", "115532.812500", "115534.302500", "115535.792500", "115537.282500", "115538.772500", "115540.262500", "115541.752500", "115543.242500", "115544.732500", "115546.222500", "115547.712500", "115549.202500", "115550.692500", "115552.182500", "115553.672500", "115555.162500", "115556.652500", "115558.142500", "115559.632500", "115601.122500", "115602.612500", "115604.102500", "115605.592500", "115607.082500", "115608.572500", "115610.062500", "115611.552500", "115613.042500", "115614.532500", "115616.022500", "115617.512500", "115619.002500", "115620.492500", "115621.982500", "115623.472500", "115624.962500", "115626.452500", "115627.942500", "115629.432500", "115630.922500", "115632.412500", "115633.902500", "115635.392500", "115636.882500", "115638.372500", "115639.862500", "115641.352500", "115642.842500", "115644.332500", "115645.822500", "115647.312500", "115648.802500", "115650.292500", "115651.782500", "115653.272500", "115654.762500", "115656.252500", "115657.742500", "115659.232500", "115700.722500", "115702.212500", "115703.702500", "115705.192500", "115706.682500", "115708.172500", "115709.662500", "115711.152500", "115712.642500", "115714.132500", "115715.622500", "115717.112500", "115718.602500", "115720.092500", "115721.582500", "115723.072500", "115724.562500", "115726.052500", "115727.542500", "115729.032500", "115730.522500", "115732.012500", "115733.502500", "115734.992500", "115736.482500", "115737.972500", "115739.462500", "115740.952500", "115742.442500", "115743.932500", "115745.422500", "115746.912500", "115748.402500", "115749.892500", "115751.382500", "115752.872500", "115754.362500", "115755.852500", "115757.342500", "115758.832500", "115800.322500", "115801.812500", "115803.302500", "115804.792500", "115806.282500", "115807.772500", "115809.262500", "115810.752500", "115812.242500", "115813.732500", "115815.222500", "115816.712500", "115818.202500", "115819.692500", "115821.182500", "115822.672500", "115824.162500", "115825.652500", "115827.142500", "115828.632500", "115830.122500", "115831.612500", "115833.102500", "115834.592500", "115836.082500", "115837.572500", "115839.062500", "115840.552500", "115842.042500", "115843.532500", "115845.022500", "115846.512500", "115848.002500", "115849.492500", "115850.982500", "115852.472500", "115853.962500", "115855.452500", "115856.942500", "115858.432500", "115859.922500", "115901.412500", "115902.902500", "115904.392500", "115905.882500", "115907.372500", "115908.862500", "115910.352500", "115911.842500", "115913.332500", "115914.822500", "115916.312500", "115917.802500", "115919.292500", "115920.782500", "115922.272500", "115923.762500", "115925.252500", "115926.742500", "115928.232500", "115929.722500", "115931.212500", "115932.702500", "115934.192500", "115935.682500", "115937.172500", "115938.662500", "115940.152500", "115941.642500", "115943.132500", "115944.622500", "115946.112500", "115947.602500", "115949.092500", "115950.582500", "115952.072500", "115953.562500", "115955.052500", "115956.542500", "115958.032500", "115959.522500", "120001.012500", "120002.502500", "120003.992500", "120005.482500", "120006.972500", "120008.462500", "120009.952500", "120011.442500", "120012.932500", "120014.422500", "120015.912500", "120017.402500", "120018.892500", "120020.382500", "120021.872500", "120023.362500", "120024.852500", "120026.342500", "120027.832500", "120029.322500", "120030.812500", "120032.302500", "120033.792500", "120035.282500", "120036.772500", "120038.262500"],
      "ContentTime": ["115233.401000", "115233.405000", "115233.408000", "115233.412000", "115233.415000", "115233.418000", "115233.422000", "115233.425000", "115233.428000", "115233.431000", "115233.446000", "115233.449000", "115233.452000", "115233.456000", "115233.459000", "115233.462000", "115233.466000", "115233.469000", "115233.472000", "115233.476000", "115233.479000", "115233.482000", "115233.486000", "115233.489000", "115233.492000", "115233.496000", "115233.499000", "115233.503000", "115233.506000", "115233.509000", "115233.513000", "115233.516000", "115233.519000", "115233.522000", "115233.526000", "115233.529000", "115233.533000", "115233.536000", "115233.539000", "115253.358000", "115253.362000", "115253.367000", "115253.370000", "115253.374000", "115253.378000", "115253.382000", "115253.385000", "115253.389000", "115253.392000", "115253.396000", "115253.399000", "115253.402000", "115253.406000", "115253.409000", "115253.412000", "115253.416000", "115253.419000", "115253.422000", "115253.432000", "115313.358000", "115313.362000", "115313.365000", "115313.368000", "115313.372000", "115313.375000", "115313.378000", "115313.382000", "115313.385000", "115313.388000", "115313.392000", "115313.426000", "115313.429000", "115313.433000", "115313.436000", "115313.440000", "115313.443000", "115313.446000", "115313.450000", "115313.453000", "115313.475000", "115333.358000", "115333.362000", "115333.365000", "115333.369000", "115333.372000", "115333.375000", "115333.378000", "115333.382000", "115333.385000", "115333.388000", "115333.392000", "115333.395000", "115333.398000", "115333.402000", "115333.405000", "115333.409000", "115333.412000", "115333.415000", "115333.419000", "115413.357000", "115413.361000", "115413.364000", "115413.368000", "115413.371000", "115413.374000", "115413.378000", "115413.381000", "115413.384000", "115413.388000", "115413.391000", "115413.394000", "115413.398000", "115413.403000", "115413.407000", "115413.410000", "115413.414000", "115413.418000", "115413.422000", "115413.425000", "115413.429000", "115413.432000", "115413.435000", "115413.439000", "115413.442000", "115413.445000", "115453.358000", "115453.362000", "115453.365000", "115453.369000", "115453.372000", "115453.375000", "115453.379000", "115453.382000", "115453.385000", "115453.389000", "115453.392000", "115453.395000", "115453.399000", "115453.402000", "115453.405000", "115453.409000", "115453.412000", "115453.415000", "115453.419000", "115453.422000", "115453.425000", "115453.429000", "115453.432000", "115453.435000", "115453.439000", "115453.442000", "115453.445000", "115533.358000", "115533.362000", "115533.365000", "115533.369000", "115533.372000", "115533.375000", "115533.379000", "115533.382000", "115533.385000", "115533.389000", "115533.392000", "115533.395000", "115533.408000", "115533.411000", "115533.415000", "115533.418000", "115533.421000", "115533.424000", "115533.428000", "115533.431000", "115533.434000", "115533.438000", "115533.441000", "115533.444000", "115533.448000", "115533.461000", "115533.465000", "115613.358000", "115613.362000", "115613.365000", "115613.368000", "115613.372000", "115613.375000", "115613.379000", "115613.382000", "115613.385000", "115613.389000", "115613.392000", "115613.395000", "115613.399000", "115613.402000", "115613.405000", "115613.409000", "115613.412000", "115613.415000", "115613.419000", "115613.422000", "115613.425000", "115613.429000", "115613.432000", "115613.435000", "115613.439000", "115613.442000", "115613.445000", "115653.357000", "115653.361000", "115653.364000", "115653.368000", "115653.371000", "115653.374000", "115653.378000", "115653.381000", "115653.384000", "115653.388000", "115653.391000", "115653.394000", "115653.398000", "115653.401000", "115653.404000", "115653.408000", "115653.411000", "115653.414000", "115653.418000", "115653.421000", "115653.424000", "115653.428000", "115653.431000", "115653.434000", "115653.438000", "115653.441000", "115653.444000", "115733.358000", "115733.362000", "115733.365000", "115733.369000", "115733.372000", "115733.375000", "115733.379000", "115733.382000", "115733.385000", "115733.389000", "115733.392000", "115733.396000", "115733.399000", "115733.402000", "115733.406000", "115733.409000", "115733.412000", "115733.416000", "115733.419000", "115733.422000", "115733.426000", "115733.429000", "115733.432000", "115733.436000", "115733.439000", "115733.442000", "115733.446000", "115813.358000", "115813.362000", "115813.365000", "115813.369000", "115813.372000", "115813.375000", "115813.396000", "115813.400000", "115813.403000", "115813.407000", "115813.410000", "115813.413000", "115813.416000", "115813.420000", "115813.423000", "115813.426000", "115813.430000", "115813.433000", "115813.436000", "115813.440000", "115813.443000", "115813.446000", "115813.450000", "115813.453000", "115813.456000", "115813.460000", "115813.463000", "115853.357000", "115853.361000", "115853.364000", "115853.368000", "115853.371000", "115853.374000", "115853.378000", "115853.382000", "115853.386000", "115853.389000", "115853.392000", "115853.396000", "115853.399000", "115853.403000", "115853.406000", "115853.410000", "115853.413000", "115853.416000", "115853.419000", "115853.423000", "115853.426000", "115853.429000", "115853.433000", "115853.436000", "115853.440000", "115853.443000", "115933.358000", "115933.362000", "115933.365000", "115933.369000", "115933.372000", "115933.375000", "115933.379000", "115933.382000", "115933.385000", "115933.389000", "115933.392000", "115933.395000", "115933.399000", "115933.402000", "115933.405000", "115933.409000", "115933.412000", "115933.415000", "115933.419000", "115933.422000", "115933.426000", "115933.429000", "115933.432000", "115933.436000", "115933.439000", "115933.442000", "115933.446000", "120013.358000", "120013.362000", "120013.365000", "120013.368000", "120013.372000", "120013.375000", "120013.379000", "120013.382000", "120013.385000", "120013.389000", "120013.392000", "120013.395000", "120013.399000", "120013.402000", "120013.406000", "120013.410000", "120013.413000", "120013.417000", "120013.420000", "120013.438000", "120013.442000", "120013.445000", "120013.448000", "120013.452000", "120013.455000", "120013.458000", "120013.462000", "120040.924000", "120040.927000", "120040.931000", "120040.934000", "120040.937000", "120040.941000", "120040.945000", "120040.949000", "120040.952000", "120040.955000", "120040.959000", "120040.962000", "120040.965000", "120040.969000", "120040.972000", "120040.975000", "120040.979000", "120040.982000", "120040.985000"],
      "InstanceCreationTime": ["115233.401000", "115233.405000", "115233.408000", "115233.412000", "115233.415000", "115233.418000", "115233.422000", "115233.425000", "115233.428000", "115233.431000", "115233.446000", "115233.449000", "115233.452000", "115233.456000", "115233.459000", "115233.462000", "115233.466000", "115233.469000", "115233.472000", "115233.476000", "115233.479000", "115233.482000", "115233.486000", "115233.489000", "115233.492000", "115233.496000", "115233.499000", "115233.503000", "115233.506000", "115233.509000", "115233.513000", "115233.516000", "115233.519000", "115233.522000", "115233.526000", "115233.529000", "115233.533000", "115233.536000", "115233.539000", "115253.358000", "115253.362000", "115253.367000", "115253.370000", "115253.374000", "115253.378000", "115253.382000", "115253.385000", "115253.389000", "115253.392000", "115253.396000", "115253.399000", "115253.402000", "115253.406000", "115253.409000", "115253.412000", "115253.416000", "115253.419000", "115253.422000", "115253.432000", "115313.358000", "115313.362000", "115313.365000", "115313.368000", "115313.372000", "115313.375000", "115313.378000", "115313.382000", "115313.385000", "115313.388000", "115313.392000", "115313.426000", "115313.429000", "115313.433000", "115313.436000", "115313.440000", "115313.443000", "115313.446000", "115313.450000", "115313.453000", "115313.475000", "115333.358000", "115333.362000", "115333.365000", "115333.369000", "115333.372000", "115333.375000", "115333.378000", "115333.382000", "115333.385000", "115333.388000", "115333.392000", "115333.395000", "115333.398000", "115333.402000", "115333.405000", "115333.409000", "115333.412000", "115333.415000", "115333.419000", "115413.357000", "115413.361000", "115413.364000", "115413.368000", "115413.371000", "115413.374000", "115413.378000", "115413.381000", "115413.384000", "115413.388000", "115413.391000", "115413.394000", "115413.398000", "115413.403000", "115413.407000", "115413.410000", "115413.414000", "115413.418000", "115413.422000", "115413.425000", "115413.429000", "115413.432000", "115413.435000", "115413.439000", "115413.442000", "115413.445000", "115453.358000", "115453.362000", "115453.365000", "115453.369000", "115453.372000", "115453.375000", "115453.379000", "115453.382000", "115453.385000", "115453.389000", "115453.392000", "115453.395000", "115453.399000", "115453.402000", "115453.405000", "115453.409000", "115453.412000", "115453.415000", "115453.419000", "115453.422000", "115453.425000", "115453.429000", "115453.432000", "115453.435000", "115453.439000", "115453.442000", "115453.445000", "115533.358000", "115533.362000", "115533.365000", "115533.369000", "115533.372000", "115533.375000", "115533.379000", "115533.382000", "115533.385000", "115533.389000", "115533.392000", "115533.395000", "115533.408000", "115533.411000", "115533.415000", "115533.418000", "115533.421000", "115533.424000", "115533.428000", "115533.431000", "115533.434000", "115533.438000", "115533.441000", "115533.444000", "115533.448000", "115533.461000", "115533.465000", "115613.358000", "115613.362000", "115613.365000", "115613.368000", "115613.372000", "115613.375000", "115613.379000", "115613.382000", "115613.385000", "115613.389000", "115613.392000", "115613.395000", "115613.399000", "115613.402000", "115613.405000", "115613.409000", "115613.412000", "115613.415000", "115613.419000", "115613.422000", "115613.425000", "115613.429000", "115613.432000", "115613.435000", "115613.439000", "115613.442000", "115613.445000", "115653.357000", "115653.361000", "115653.364000", "115653.368000", "115653.371000", "115653.374000", "115653.378000", "115653.381000", "115653.384000", "115653.388000", "115653.391000", "115653.394000", "115653.398000", "115653.401000", "115653.404000", "115653.408000", "115653.411000", "115653.414000", "115653.418000", "115653.421000", "115653.424000", "115653.428000", "115653.431000", "115653.434000", "115653.438000", "115653.441000", "115653.444000", "115733.358000", "115733.362000", "115733.365000", "115733.369000", "115733.372000", "115733.375000", "115733.379000", "115733.382000", "115733.385000", "115733.389000", "115733.392000", "115733.396000", "115733.399000", "115733.402000", "115733.406000", "115733.409000", "115733.412000", "115733.416000", "115733.419000", "115733.422000", "115733.426000", "115733.429000", "115733.432000", "115733.436000", "115733.439000", "115733.442000", "115733.446000", "115813.358000", "115813.362000", "115813.365000", "115813.369000", "115813.372000", "115813.375000", "115813.396000", "115813.400000", "115813.403000", "115813.407000", "115813.410000", "115813.413000", "115813.416000", "115813.420000", "115813.423000", "115813.426000", "115813.430000", "115813.433000", "115813.436000", "115813.440000", "115813.443000", "115813.446000", "115813.450000", "115813.453000", "115813.456000", "115813.460000", "115813.463000", "115853.357000", "115853.361000", "115853.364000", "115853.368000", "115853.371000", "115853.374000", "115853.378000", "115853.382000", "115853.386000", "115853.389000", "115853.392000", "115853.396000", "115853.399000", "115853.403000", "115853.406000", "115853.410000", "115853.413000", "115853.416000", "115853.419000", "115853.423000", "115853.426000", "115853.429000", "115853.433000", "115853.436000", "115853.440000", "115853.443000", "115933.358000", "115933.362000", "115933.365000", "115933.369000", "115933.372000", "115933.375000", "115933.379000", "115933.382000", "115933.385000", "115933.389000", "115933.392000", "115933.395000", "115933.399000", "115933.402000", "115933.405000", "115933.409000", "115933.412000", "115933.415000", "115933.419000", "115933.422000", "115933.426000", "115933.429000", "115933.432000", "115933.436000", "115933.439000", "115933.442000", "115933.446000", "120013.358000", "120013.362000", "120013.365000", "120013.368000", "120013.372000", "120013.375000", "120013.379000", "120013.382000", "120013.385000", "120013.389000", "120013.392000", "120013.395000", "120013.399000", "120013.402000", "120013.406000", "120013.410000", "120013.413000", "120013.417000", "120013.420000", "120013.438000", "120013.442000", "120013.445000", "120013.448000", "120013.452000", "120013.455000", "120013.458000", "120013.462000", "120040.924000", "120040.927000", "120040.931000", "120040.934000", "120040.937000", "120040.941000", "120040.945000", "120040.949000", "120040.952000", "120040.955000", "120040.959000", "120040.962000", "120040.965000", "120040.969000", "120040.972000", "120040.975000", "120040.979000", "120040.982000", "120040.985000"],
      "InstanceNumber": [1, 2, 3, 4, 5, 6, 7, 8, 9, 10, 11, 12, 13, 14, 15, 16, 17, 18, 19, 20, 21, 22, 23, 24, 25, 26, 27, 28, 29, 30, 31, 32, 33, 34, 35, 36, 37, 38, 39, 40, 41, 42, 43, 44, 45, 46, 47, 48, 49, 50, 51, 52, 53, 54, 55, 56, 57, 58, 59, 60, 61, 62, 63, 64, 65, 66, 67, 68, 69, 70, 71, 72, 73, 74, 75, 76, 77, 78, 79, 80, 81, 82, 83, 84, 85, 86, 87, 88, 89, 90, 91, 92, 93, 94, 95, 96, 97, 98, 99, 100, 101, 102, 103, 104, 105, 106, 107, 108, 109, 110, 111, 112, 113, 114, 115, 116, 117, 118, 119, 120, 121, 122, 123, 124, 125, 126, 127, 128, 129, 130, 131, 132, 133, 134, 135, 136, 137, 138, 139, 140, 141, 142, 143, 144, 145, 146, 147, 148, 149, 150, 151, 152, 153, 154, 155, 156, 157, 158, 159, 160, 161, 162, 163, 164, 165, 166, 167, 168, 169, 170, 171, 172, 173, 174, 175, 176, 177, 178, 179, 180, 181, 182, 183, 184, 185, 186, 187, 188, 189, 190, 191, 192, 193, 194, 195, 196, 197, 198, 199, 200, 201, 202, 203, 204, 205, 206, 207, 208, 209, 210, 211, 212, 213, 214, 215, 216, 217, 218, 219, 220, 221, 222, 223, 224, 225, 226, 227, 228, 229, 230, 231, 232, 233, 234, 235, 236, 237, 238, 239, 240, 241, 242, 243, 244, 245, 246, 247, 248, 249, 250, 251, 252, 253, 254, 255, 256, 257, 258, 259, 260, 261, 262, 263, 264, 265, 266, 267, 268, 269, 270, 271, 272, 273, 274, 275, 276, 277, 278, 279, 280, 281, 282, 283, 284, 285, 286, 287, 288, 289, 290, 291, 292, 293, 294, 295, 296, 297, 298, 299, 300, 301, 302, 303, 304, 305, 306, 307, 308, 309, 310, 311, 312, 313, 314, 315, 316, 317, 318, 319, 320, 321, 322, 323, 324, 325, 326, 327, 328, 329, 330, 331, 332, 333, 334, 335, 336, 337, 338, 339, 340, 341, 342, 343, 344, 345, 346, 347, 348, 349, 350, 351, 352, 353, 354, 355, 356, 357, 358, 359, 360, 361, 362, 363, 364, 365, 366, 367, 368, 369, 370, 371, 372, 373, 374, 375, 376, 377, 378, 379, 380, 381, 382, 383, 384, 385, 386],
