{
  "AcquisitionMatrixPE": 104,
  "AcquisitionNumber": 1,
  "AcquisitionTime": "14:54:7.735000",
  "BandwidthPerPixelPhaseEncode": 17.17,
  "BaseResolution": 104,
  "BodyPartExamined": "BRAIN",
  "CoilCombinationMethod": "Sum of Squares",
  "ConsistencyInfo": "N4_VE11C_LATEST_20160120",
  "ConversionSoftware": "dcm2niix",
  "ConversionSoftwareVersion": "v1.0.20220505",
  "DerivedVendorReportedEchoSpacing": 0.000560011,
  "DeviceSerialNumber": "167006",
  "DwellTime": 2.1e-06,
  "EchoTime": 0.037,
  "EchoTrainLength": 104,
  "EffectiveEchoSpacing": 0.000560011,
  "FlipAngle": 52,
  "HeudiconvVersion": "0.5.3.post811+g6206e14",
  "ImageComments": "Unaliased MB4/PE3/LB",
  "ImageOrientationPatientDICOM": [0.999895, 0.0100814, 0.0104242, -0.00698071, 0.964673, -0.263357],
  "ImageOrientationText": "Tra>Cor(-15.3)>Sag(0.7)",
  "ImageType": [
    "ORIGINAL",
    "PRIMARY",
    "M",
    "MB",
    "ND",
    "MOSAIC"
],
  "ImagingFrequency": 123.26,
  "InPlanePhaseEncodingDirectionDICOM": "COL",
  "InstitutionAddress": "Chemin Queen-Mary 4565,Montreal,District,CA,H3W 1W5",
  "InstitutionName": "IUGM",
  "InstitutionalDepartmentName": "Department",
  "MRAcquisitionType": "2D",
  "MagneticFieldStrength": 3,
  "Manufacturer": "Siemens",
  "ManufacturersModelName": "Prisma_fit",
  "MatrixCoilMode": "SENSE",
  "Modality": "MR",
  "MultibandAccelerationFactor": 4,
  "PartialFourier": 1,
  "PatientPosition": "HFS",
  "PercentPhaseFOV": 100,
  "PercentSampling": 100,
  "PhaseEncodingDirection": "j",
  "PhaseEncodingSteps": 104,
  "PhaseResolution": 1,
  "PixelBandwidth": 2290,
  "ProcedureStepDescription": "games^mario3",
  "ProtocolName": "func_task-mario3_run-03",
  "PulseSequenceDetails": "%CustomerSeq%\\cmrr_mbep2d_bold",
  "ReceiveCoilActiveElements": "HC1-7;NC1,2",
  "ReceiveCoilName": "HeadNeck_64",
  "ReconMatrixPE": 104,
  "RepetitionTime": 1.49,
  "SAR": 0.063618,
  "ScanOptions": "FS",
  "ScanningSequence": "EP",
  "SequenceName": "epfid2d1_104",
  "SequenceVariant": "SK\\SS",
  "SeriesDescription": "func_task-mario3_run-03",
  "SeriesNumber": 16,
  "ShimSetting": [626, -7221, -8773, 700, 80, 2, 26, 7],
  "SliceThickness": 2,
  "SliceTiming": [0, 0.7825, 0.0975, 0.88, 0.195, 0.98, 0.2925, 1.0775, 0.39, 1.175, 0.49, 1.2725, 0.5875, 1.37, 0.685, 0, 0.7825, 0.0975, 0.88, 0.195, 0.98, 0.2925, 1.0775, 0.39, 1.175, 0.49, 1.2725, 0.5875, 1.37, 0.685, 0, 0.7825, 0.0975, 0.88, 0.195, 0.98, 0.2925, 1.0775, 0.39, 1.175, 0.49, 1.2725, 0.5875, 1.37, 0.685, 0, 0.7825, 0.0975, 0.88, 0.195, 0.98, 0.2925, 1.0775, 0.39, 1.175, 0.49, 1.2725, 0.5875, 1.37, 0.685],
  "SoftwareVersions": "syngo MR E11",
  "SpacingBetweenSlices": 2,
  "StationName": "MRC35049",
  "TaskName": "mario3",
  "TotalReadoutTime": 0.0576811,
  "TxRefAmp": 235.411,
  "WipMemBlock": "fe4db19c-11e7-4970-803d-6ecc1e1401a5||Sequence: R017 ve11c/master r/75a17815+; Jun 28 2022 16:32:11 by eja",
  "dcmmeta_affine": [
    [-1.9997897148132324, -0.013961421325802803, 0.025421932339668274, 109.18267059326172],
    [-0.02016281895339489, 1.9293463230133057, -0.5265130996704102, -72.52210998535156],
    [0.02084842137992382, 0.526714026927948, 1.9292842149734497, -58.11174011230469],
    [0.0, 0.0, 0.0, 1.0]
],
  "dcmmeta_reorient_transform": [
    [0.0, -1.0, 0.0, 103.0],
    [1.0, 0.0, 0.0, 0.0],
    [0.0, 0.0, 1.0, 0.0],
    [0.0, 0.0, 0.0, 1.0]
],
  "dcmmeta_shape": [104, 104, 60, 415],
  "dcmmeta_slice_dim": 2,
  "dcmmeta_version": 0.6,
  "global": {
    "const": {
      "AcquisitionMatrix": [104, 0, 0, 104],
      "AngioFlag": "N",
      "BitsAllocated": 16,
      "BitsStored": 16,
      "BodyPartExamined": "BRAIN",
      "Columns": 832,
      "EchoNumbers": 1,
      "EchoTime": 37.0,
      "EchoTrainLength": 104,
      "FlipAngle": 52.0,
      "HighBit": 15,
      "ImageOrientationPatient": [0.99989484497648, 0.01008140972976, 0.01042421063263, -0.006980710753, 0.96467318559069, -0.2633570099308],
      "ImagePositionPatient": [-830.5861337325, -835.82191507297, 180.27488019955],
      "ImageType": [
        "ORIGINAL",
        "PRIMARY",
        "M",
        "MB",
        "ND",
        "MOSAIC"
],
      "ImagedNucleus": "1H",
      "ImagingFrequency": 123.260328,
      "InPlanePhaseEncodingDirection": "COL",
      "MRAcquisitionType": "2D",
      "MagneticFieldStrength": 3.0,
      "Manufacturer": "SIEMENS",
      "ManufacturerModelName": "Prisma_fit",
      "Modality": "MR",
      "NumberOfAverages": 1.0,
      "NumberOfPhaseEncodingSteps": 104,
      "PercentPhaseFieldOfView": 100.0,
      "PercentSampling": 100.0,
      "PerformedProcedureStepStartTime": "142903.650000",
      "PhotometricInterpretation": "MONOCHROME2",
      "PixelBandwidth": 2290.0,
      "PixelRepresentation": 0,
      "PixelSpacing": [2.0, 2.0],
      "ProtocolName": "func_task-mario3_run-03",
      "RepetitionTime": 1490.0,
      "Rows": 832,
      "SAR": 0.06361799417106,
      "SamplesPerPixel": 1,
      "ScanOptions": "FS",
      "ScanningSequence": "EP",
      "SequenceName": "epfid2d1_104",
      "SequenceVariant": [
        "SK",
        "SS"
],
      "SeriesDescription": "func_task-mario3_run-03",
      "SeriesNumber": 16,
      "SeriesTime": "145521.692000",
      "SliceLocation": -35.577297092978,
      "SliceThickness": 2.0,
      "SmallestImagePixelValue": 0,
      "SoftwareVersions": "syngo MR E11",
      "SpacingBetweenSlices": 1.999999965155,
      "SpecificCharacterSet": "ISO_IR 100",
      "StudyID": "1",
      "StudyTime": "142903.579000",
      "TransmitCoilName": "Body",
      "VariableFlipAngleFlag": "N",
      "WindowCenterWidthExplanation": "Algo1",
      "dBdt": 0.0},
    "slices": {}
  },
  "time": {
    "samples": {
      "AcquisitionNumber": [1, 2, 3, 4, 5, 6, 7, 8, 9, 10, 11, 12, 13, 14, 15, 16, 17, 18, 19, 20, 21, 22, 23, 24, 25, 26, 27, 28, 29, 30, 31, 32, 33, 34, 35, 36, 37, 38, 39, 40, 41, 42, 43, 44, 45, 46, 47, 48, 49, 50, 51, 52, 53, 54, 55, 56, 57, 58, 59, 60, 61, 62, 63, 64, 65, 66, 67, 68, 69, 70, 71, 72, 73, 74, 75, 76, 77, 78, 79, 80, 81, 82, 83, 84, 85, 86, 87, 88, 89, 90, 91, 92, 93, 94, 95, 96, 97, 98, 99, 100, 101, 102, 103, 104, 105, 106, 107, 108, 109, 110, 111, 112, 113, 114, 115, 116, 117, 118, 119, 120, 121, 122, 123, 124, 125, 126, 127, 128, 129, 130, 131, 132, 133, 134, 135, 136, 137, 138, 139, 140, 141, 142, 143, 144, 145, 146, 147, 148, 149, 150, 151, 152, 153, 154, 155, 156, 157, 158, 159, 160, 161, 162, 163, 164, 165, 166, 167, 168, 169, 170, 171, 172, 173, 174, 175, 176, 177, 178, 179, 180, 181, 182, 183, 184, 185, 186, 187, 188, 189, 190, 191, 192, 193, 194, 195, 196, 197, 198, 199, 200, 201, 202, 203, 204, 205, 206, 207, 208, 209, 210, 211, 212, 213, 214, 215, 216, 217, 218, 219, 220, 221, 222, 223, 224, 225, 226, 227, 228, 229, 230, 231, 232, 233, 234, 235, 236, 237, 238, 239, 240, 241, 242, 243, 244, 245, 246, 247, 248, 249, 250, 251, 252, 253, 254, 255, 256, 257, 258, 259, 260, 261, 262, 263, 264, 265, 266, 267, 268, 269, 270, 271, 272, 273, 274, 275, 276, 277, 278, 279, 280, 281, 282, 283, 284, 285, 286, 287, 288, 289, 290, 291, 292, 293, 294, 295, 296, 297, 298, 299, 300, 301, 302, 303, 304, 305, 306, 307, 308, 309, 310, 311, 312, 313, 314, 315, 316, 317, 318, 319, 320, 321, 322, 323, 324, 325, 326, 327, 328, 329, 330, 331, 332, 333, 334, 335, 336, 337, 338, 339, 340, 341, 342, 343, 344, 345, 346, 347, 348, 349, 350, 351, 352, 353, 354, 355, 356, 357, 358, 359, 360, 361, 362, 363, 364, 365, 366, 367, 368, 369, 370, 371, 372, 373, 374, 375, 376, 377, 378, 379, 380, 381, 382, 383, 384, 385, 386, 387, 388, 389, 390, 391, 392, 393, 394, 395, 396, 397, 398, 399, 400, 401, 402, 403, 404, 405, 406, 407, 408, 409, 410, 411, 412, 413, 414, 415],
      "AcquisitionTime": ["145407.735000", "145409.225000", "145410.715000", "145412.205000", "145413.695000", "145415.185000", "145416.675000", "145418.165000", "145419.655000", "145421.145000", "145422.635000", "145424.125000", "145425.615000", "145427.105000", "145428.595000", "145430.085000", "145431.575000", "145433.065000", "145434.555000", "145436.045000", "145437.535000", "145439.025000", "145440.515000", "145442.005000", "145443.495000", "145444.985000", "145446.475000", "145447.965000", "145449.455000", "145450.945000", "145452.435000", "145453.925000", "145455.415000", "145456.905000", "145458.395000", "145459.885000", "145501.375000", "145502.865000", "145504.355000", "145505.845000", "145507.335000", "145508.825000", "145510.315000", "145511.805000", "145513.295000", "145514.785000", "145516.275000", "145517.765000", "145519.255000", "145520.745000", "145522.235000", "145523.725000", "145525.215000", "145526.705000", "145528.195000", "145529.685000", "145531.175000", "145532.665000", "145534.155000", "145535.645000", "145537.135000", "145538.625000", "145540.115000", "145541.605000", "145543.095000", "145544.585000", "145546.075000", "145547.565000", "145549.055000", "145550.545000", "145552.035000", "145553.525000", "145555.015000", "145556.505000", "145557.995000", "145559.485000", "145600.975000", "145602.465000", "145603.955000", "145605.445000", "145606.935000", "145608.425000", "145609.915000", "145611.405000", "145612.895000", "145614.385000", "145615.875000", "145617.365000", "145618.855000", "145620.345000", "145621.835000", "145623.325000", "145624.815000", "145626.305000", "145627.795000", "145629.285000", "145630.775000", "145632.265000", "145633.755000", "145635.245000", "145636.735000", "145638.225000", "145639.715000", "145641.205000", "145642.695000", "145644.185000", "145645.675000", "145647.165000", "145648.655000", "145650.145000", "145651.635000", "145653.125000", "145654.615000", "145656.105000", "145657.595000", "145659.085000", "145700.575000", "145702.065000", "145703.555000", "145705.045000", "145706.535000", "145708.025000", "145709.515000", "145711.005000", "145712.495000", "145713.985000", "145715.475000", "145716.965000", "145718.455000", "145719.945000", "145721.435000", "145722.925000", "145724.415000", "145725.905000", "145727.395000", "145728.885000", "145730.375000", "145731.865000", "145733.355000", "145734.845000", "145736.335000", "145737.825000", "145739.315000", "145740.805000", "145742.295000", "145743.785000", "145745.275000", "145746.765000", "145748.255000", "145749.745000", "145751.235000", "145752.725000", "145754.215000", "145755.705000", "145757.195000", "145758.685000", "145800.175000", "145801.665000", "145803.155000", "145804.645000", "145806.135000", "145807.625000", "145809.115000", "145810.605000", "145812.095000", "145813.585000", "145815.075000", "145816.565000", "145818.055000", "145819.545000", "145821.035000", "145822.525000", "145824.015000", "145825.505000", "145826.995000", "145828.485000", "145829.975000", "145831.465000", "145832.955000", "145834.445000", "145835.935000", "145837.425000", "145838.915000", "145840.405000", "145841.895000", "145843.385000", "145844.875000", "145846.365000", "145847.855000", "145849.345000", "145850.835000", "145852.325000", "145853.815000", "145855.305000", "145856.795000", "145858.285000", "145859.775000", "145901.265000", "145902.755000", "145904.245000", "145905.735000", "145907.225000", "145908.715000", "145910.205000", "145911.695000", "145913.185000", "145914.675000", "145916.165000", "145917.655000", "145919.145000", "145920.635000", "145922.125000", "145923.615000", "145925.105000", "145926.595000", "145928.085000", "145929.575000", "145931.065000", "145932.555000", "145934.045000", "145935.535000", "145937.025000", "145938.515000", "145940.005000", "145941.495000", "145942.985000", "145944.475000", "145945.965000", "145947.455000", "145948.945000", "145950.435000", "145951.925000", "145953.415000", "145954.905000", "145956.395000", "145957.885000", "145959.375000", "150000.865000", "150002.355000", "150003.845000", "150005.335000", "150006.825000", "150008.315000", "150009.805000", "150011.295000", "150012.785000", "150014.275000", "150015.765000", "150017.255000", "150018.745000", "150020.235000", "150021.725000", "150023.215000", "150024.705000", "150026.195000", "150027.685000", "150029.175000", "150030.665000", "150032.155000", "150033.645000", "150035.135000", "150036.625000", "150038.115000", "150039.605000", "150041.095000", "150042.585000", "150044.075000", "150045.565000", "150047.055000", "150048.545000", "150050.035000", "150051.525000", "150053.015000", "150054.505000", "150055.995000", "150057.485000", "150058.975000", "150100.465000", "150101.955000", "150103.445000", "150104.935000", "150106.425000", "150107.915000", "150109.405000", "150110.895000", "150112.385000", "150113.875000", "150115.365000", "150116.855000", "150118.345000", "150119.835000", "150121.325000", "150122.815000", "150124.305000", "150125.795000", "150127.285000", "150128.775000", "150130.265000", "150131.755000", "150133.245000", "150134.735000", "150136.225000", "150137.715000", "150139.205000", "150140.695000", "150142.185000", "150143.675000", "150145.165000", "150146.655000", "150148.145000", "150149.635000", "150151.125000", "150152.615000", "150154.105000", "150155.595000", "150157.085000", "150158.575000", "150200.065000", "150201.555000", "150203.045000", "150204.535000", "150206.025000", "150207.515000", "150209.005000", "150210.495000", "150211.985000", "150213.475000", "150214.965000", "150216.455000", "150217.945000", "150219.435000", "150220.925000", "150222.415000", "150223.905000", "150225.395000", "150226.885000", "150228.375000", "150229.865000", "150231.355000", "150232.845000", "150234.335000", "150235.825000", "150237.315000", "150238.805000", "150240.295000", "150241.785000", "150243.275000", "150244.765000", "150246.255000", "150247.745000", "150249.235000", "150250.725000", "150252.215000", "150253.705000", "150255.195000", "150256.685000", "150258.175000", "150259.665000", "150301.155000", "150302.645000", "150304.135000", "150305.625000", "150307.115000", "150308.605000", "150310.095000", "150311.585000", "150313.075000", "150314.565000", "150316.055000", "150317.545000", "150319.035000", "150320.525000", "150322.015000", "150323.505000", "150324.995000", "150326.485000", "150327.975000", "150329.465000", "150330.955000", "150332.445000", "150333.935000", "150335.425000", "150336.915000", "150338.405000", "150339.895000", "150341.385000", "150342.875000", "150344.365000", "150345.855000", "150347.345000", "150348.835000", "150350.325000", "150351.815000", "150353.305000", "150354.795000", "150356.285000", "150357.775000", "150359.265000", "150400.755000", "150402.245000", "150403.735000", "150405.225000", "150406.715000", "150408.205000", "150409.695000", "150411.185000", "150412.675000", "150414.165000", "150415.655000", "150417.145000", "150418.635000", "150420.125000", "150421.615000", "150423.105000", "150424.595000"],
      "ContentTime": ["145521.695000", "145521.699000", "145521.702000", "145521.705000", "145521.708000", "145521.712000", "145521.715000", "145521.718000", "145521.722000", "145521.725000", "145521.728000", "145521.731000", "145521.735000", "145521.738000", "145521.741000", "145521.744000", "145521.748000", "145521.751000", "145521.754000", "145521.757000", "145521.761000", "145521.764000", "145521.767000", "145521.771000", "145521.774000", "145541.649000", "145541.653000", "145541.656000", "145541.659000", "145541.662000", "145541.665000", "145541.669000", "145541.676000", "145541.679000", "145541.682000", "145541.686000", "145541.689000", "145541.692000", "145541.695000", "145541.699000", "145541.703000", "145541.706000", "145541.709000", "145541.713000", "145541.716000", "145601.649000", "145601.653000", "145601.656000", "145601.659000", "145601.662000", "145601.666000", "145601.669000", "145601.672000", "145601.676000", "145601.679000", "145601.682000", "145601.686000", "145601.689000", "145601.692000", "145601.696000", "145601.699000", "145601.702000", "145601.705000", "145601.709000", "145601.712000", "145621.649000", "145621.653000", "145621.656000", "145621.659000", "145621.663000", "145621.666000", "145621.669000", "145621.672000", "145621.676000", "145621.679000", "145621.682000", "145621.685000", "145621.689000", "145621.692000", "145621.695000", "145621.699000", "145621.702000", "145621.705000", "145621.708000", "145621.711000", "145701.649000", "145701.653000", "145701.656000", "145701.659000", "145701.663000", "145701.666000", "145701.669000", "145701.672000", "145701.676000", "145701.679000", "145701.682000", "145701.686000", "145701.689000", "145701.692000", "145701.701000", "145701.704000", "145701.707000", "145701.710000", "145701.714000", "145701.717000", "145701.720000", "145701.724000", "145701.728000", "145701.731000", "145701.734000", "145701.737000", "145701.741000", "145701.744000", "145701.747000", "145701.751000", "145701.754000", "145741.649000", "145741.653000", "145741.656000", "145741.659000", "145741.663000", "145741.666000", "145741.669000", "145741.672000", "145741.676000", "145741.679000", "145741.682000", "145741.686000", "145741.689000", "145741.692000", "145741.695000", "145741.699000", "145741.702000", "145741.705000", "145741.708000", "145741.712000", "145741.715000", "145741.718000", "145741.721000", "145741.725000", "145741.728000", "145741.731000", "145741.735000", "145801.649000", "145801.653000", "145801.656000", "145801.659000", "145801.663000", "145801.666000", "145801.669000", "145801.672000", "145801.676000", "145801.679000", "145801.682000", "145801.686000", "145801.689000", "145841.649000", "145841.653000", "145841.656000", "145841.659000", "145841.663000", "145841.666000", "145841.669000", "145841.673000", "145841.676000", "145841.679000", "145841.683000", "145841.686000", "145841.689000", "145841.692000", "145841.696000", "145841.699000", "145841.702000", "145841.706000", "145841.709000", "145841.712000", "145841.715000", "145841.719000", "145841.722000", "145841.725000", "145841.729000", "145841.732000", "145841.735000", "145921.649000", "145921.653000", "145921.656000", "145921.659000", "145921.662000", "145921.666000", "145921.669000", "145921.672000", "145921.676000", "145921.679000", "145921.682000", "145921.686000", "145921.689000", "145921.692000", "145921.704000", "145921.707000", "145921.710000", "145921.713000", "145921.717000", "145921.720000", "145921.723000", "145921.726000", "145921.730000", "145921.733000", "145921.736000", "145921.739000", "145921.743000", "150001.649000", "150001.653000", "150001.656000", "150001.659000", "150001.663000", "150001.666000", "150001.669000", "150001.673000", "150001.676000", "150001.679000", "150001.683000", "150001.686000", "150001.689000", "150001.693000", "150001.696000", "150001.699000", "150001.702000", "150001.706000", "150001.709000", "150001.712000", "150001.715000", "150001.719000", "150001.722000", "150001.725000", "150001.728000", "150001.732000", "150001.735000", "150041.649000", "150041.653000", "150041.656000", "150041.659000", "150041.663000", "150041.666000", "150041.669000", "150041.672000", "150041.676000", "150041.679000", "150041.682000", "150041.686000", "150041.689000", "150041.692000", "150041.695000", "150041.699000", "150041.702000", "150041.705000", "150041.709000", "150041.712000", "150041.715000", "150041.718000", "150041.722000", "150041.725000", "150041.728000", "150041.732000", "150041.735000", "150121.649000", "150121.653000", "150121.656000", "150121.659000", "150121.663000", "150121.666000", "150121.669000", "150121.672000", "150121.676000", "150121.692000", "150121.695000", "150121.698000", "150121.701000", "150121.705000", "150121.708000", "150121.715000", "150121.719000", "150121.722000", "150121.725000", "150121.729000", "150121.732000", "150121.735000", "150121.738000", "150121.742000", "150121.745000", "150121.748000", "150121.751000", "150201.649000", "150201.658000", "150201.662000", "150201.665000", "150201.668000", "150201.672000", "150201.675000", "150201.678000", "150201.682000", "150201.685000", "150201.688000", "150201.692000", "150201.695000", "150201.699000", "150201.702000", "150201.706000", "150201.709000", "150201.713000", "150201.716000", "150201.719000", "150201.722000", "150201.726000", "150201.729000", "150201.733000", "150201.736000", "150201.739000", "150241.649000", "150241.653000", "150241.656000", "150241.659000", "150241.663000", "150241.666000", "150241.669000", "150241.673000", "150241.676000", "150241.679000", "150241.683000", "150241.686000", "150241.689000", "150241.692000", "150241.696000", "150241.699000", "150241.702000", "150241.706000", "150241.709000", "150241.712000", "150241.715000", "150241.719000", "150241.722000", "150241.725000", "150241.728000", "150241.732000", "150241.735000", "150321.649000", "150321.653000", "150321.656000", "150321.660000", "150321.663000", "150321.667000", "150321.670000", "150321.673000", "150321.677000", "150321.680000", "150321.683000", "150321.686000", "150321.690000", "150321.693000", "150321.696000", "150321.700000", "150321.703000", "150321.706000", "150321.709000", "150321.713000", "150321.716000", "150321.719000", "150321.723000", "150321.726000", "150321.729000", "150321.732000", "150321.736000", "150401.649000", "150401.653000", "150401.656000", "150401.660000", "150401.663000", "150401.666000", "150401.670000", "150401.673000", "150401.676000", "150401.680000", "150401.683000", "150401.686000", "150401.689000", "150401.693000", "150401.696000", "150401.699000", "150401.703000", "150401.706000", "150401.709000", "150401.713000", "150401.716000", "150401.719000", "150401.723000", "150401.726000", "150401.729000", "150401.732000", "150401.736000", "150426.452000", "150426.455000", "150426.459000", "150426.462000", "150426.465000", "150426.469000", "150426.472000", "150426.475000", "150426.479000", "150426.482000", "150426.485000", "150426.489000", "150426.492000", "150426.495000", "150426.498000", "150426.502000", "150426.505000"],
      "InstanceCreationTime": ["145521.695000", "145521.699000", "145521.702000", "145521.705000", "145521.708000", "145521.712000", "145521.715000", "145521.718000", "145521.722000", "145521.725000", "145521.728000", "145521.731000", "145521.735000", "145521.738000", "145521.741000", "145521.744000", "145521.748000", "145521.751000", "145521.754000", "145521.757000", "145521.761000", "145521.764000", "145521.767000", "145521.771000", "145521.774000", "145541.649000", "145541.653000", "145541.656000", "145541.659000", "145541.662000", "145541.665000", "145541.669000", "145541.676000", "145541.679000", "145541.682000", "145541.686000", "145541.689000", "145541.692000", "145541.695000", "145541.699000", "145541.703000", "145541.706000", "145541.709000", "145541.713000", "145541.716000", "145601.649000", "145601.653000", "145601.656000", "145601.659000", "145601.662000", "145601.666000", "145601.669000", "145601.672000", "145601.676000", "145601.679000", "145601.682000", "145601.686000", "145601.689000", "145601.692000", "145601.696000", "145601.699000", "145601.702000", "145601.705000", "145601.709000", "145601.712000", "145621.649000", "145621.653000", "145621.656000", "145621.659000", "145621.663000", "145621.666000", "145621.669000", "145621.672000", "145621.676000", "145621.679000", "145621.682000", "145621.685000", "145621.689000", "145621.692000", "145621.695000", "145621.699000", "145621.702000", "145621.705000", "145621.708000", "145621.711000", "145701.649000", "145701.653000", "145701.656000", "145701.659000", "145701.663000", "145701.666000", "145701.669000", "145701.672000", "145701.676000", "145701.679000", "145701.682000", "145701.686000", "145701.689000", "145701.692000", "145701.701000", "145701.704000", "145701.707000", "145701.710000", "145701.714000", "145701.717000", "145701.720000", "145701.724000", "145701.728000", "145701.731000", "145701.734000", "145701.737000", "145701.741000", "145701.744000", "145701.747000", "145701.751000", "145701.754000", "145741.649000", "145741.653000", "145741.656000", "145741.659000", "145741.663000", "145741.666000", "145741.669000", "145741.672000", "145741.676000", "145741.679000", "145741.682000", "145741.686000", "145741.689000", "145741.692000", "145741.695000", "145741.699000", "145741.702000", "145741.705000", "145741.708000", "145741.712000", "145741.715000", "145741.718000", "145741.721000", "145741.725000", "145741.728000", "145741.731000", "145741.735000", "145801.649000", "145801.653000", "145801.656000", "145801.659000", "145801.663000", "145801.666000", "145801.669000", "145801.672000", "145801.676000", "145801.679000", "145801.682000", "145801.686000", "145801.689000", "145841.649000", "145841.653000", "145841.656000", "145841.659000", "145841.663000", "145841.666000", "145841.669000", "145841.673000", "145841.676000", "145841.679000", "145841.683000", "145841.686000", "145841.689000", "145841.692000", "145841.696000", "145841.699000", "145841.702000", "145841.706000", "145841.709000", "145841.712000", "145841.715000", "145841.719000", "145841.722000", "145841.725000", "145841.729000", "145841.732000", "145841.735000", "145921.649000", "145921.653000", "145921.656000", "145921.659000", "145921.662000", "145921.666000", "145921.669000", "145921.672000", "145921.676000", "145921.679000", "145921.682000", "145921.686000", "145921.689000", "145921.692000", "145921.704000", "145921.707000", "145921.710000", "145921.713000", "145921.717000", "145921.720000", "145921.723000", "145921.726000", "145921.730000", "145921.733000", "145921.736000", "145921.739000", "145921.743000", "150001.649000", "150001.653000", "150001.656000", "150001.659000", "150001.663000", "150001.666000", "150001.669000", "150001.673000", "150001.676000", "150001.679000", "150001.683000", "150001.686000", "150001.689000", "150001.693000", "150001.696000", "150001.699000", "150001.702000", "150001.706000", "150001.709000", "150001.712000", "150001.715000", "150001.719000", "150001.722000", "150001.725000", "150001.728000", "150001.732000", "150001.735000", "150041.649000", "150041.653000", "150041.656000", "150041.659000", "150041.663000", "150041.666000", "150041.669000", "150041.672000", "150041.676000", "150041.679000", "150041.682000", "150041.686000", "150041.689000", "150041.692000", "150041.695000", "150041.699000", "150041.702000", "150041.705000", "150041.709000", "150041.712000", "150041.715000", "150041.718000", "150041.722000", "150041.725000", "150041.728000", "150041.732000", "150041.735000", "150121.649000", "150121.653000", "150121.656000", "150121.659000", "150121.663000", "150121.666000", "150121.669000", "150121.672000", "150121.676000", "150121.692000", "150121.695000", "150121.698000", "150121.701000", "150121.705000", "150121.708000", "150121.715000", "150121.719000", "150121.722000", "150121.725000", "150121.729000", "150121.732000", "150121.735000", "150121.738000", "150121.742000", "150121.745000", "150121.748000", "150121.751000", "150201.649000", "150201.658000", "150201.662000", "150201.665000", "150201.668000", "150201.672000", "150201.675000", "150201.678000", "150201.682000", "150201.685000", "150201.688000", "150201.692000", "150201.695000", "150201.699000", "150201.702000", "150201.706000", "150201.709000", "150201.713000", "150201.716000", "150201.719000", "150201.722000", "150201.726000", "150201.729000", "150201.733000", "150201.736000", "150201.739000", "150241.649000", "150241.653000", "150241.656000", "150241.659000", "150241.663000", "150241.666000", "150241.669000", "150241.673000", "150241.676000", "150241.679000", "150241.683000", "150241.686000", "150241.689000", "150241.692000", "150241.696000", "150241.699000", "150241.702000", "150241.706000", "150241.709000", "150241.712000", "150241.715000", "150241.719000", "150241.722000", "150241.725000", "150241.728000", "150241.732000", "150241.735000", "150321.649000", "150321.653000", "150321.656000", "150321.660000", "150321.663000", "150321.667000", "150321.670000", "150321.673000", "150321.677000", "150321.680000", "150321.683000", "150321.686000", "150321.690000", "150321.693000", "150321.696000", "150321.700000", "150321.703000", "150321.706000", "150321.709000", "150321.713000", "150321.716000", "150321.719000", "150321.723000", "150321.726000", "150321.729000", "150321.732000", "150321.736000", "150401.649000", "150401.653000", "150401.656000", "150401.660000", "150401.663000", "150401.666000", "150401.670000", "150401.673000", "150401.676000", "150401.680000", "150401.683000", "150401.686000", "150401.689000", "150401.693000", "150401.696000", "150401.699000", "150401.703000", "150401.706000", "150401.709000", "150401.713000", "150401.716000", "150401.719000", "150401.723000", "150401.726000", "150401.729000", "150401.732000", "150401.736000", "150426.452000", "150426.455000", "150426.459000", "150426.462000", "150426.465000", "150426.469000", "150426.472000", "150426.475000", "150426.479000", "150426.482000", "150426.485000", "150426.489000", "150426.492000", "150426.495000", "150426.498000", "150426.502000", "150426.505000"],
