{
  "AcquisitionMatrixPE": 104,
  "AcquisitionNumber": 1,
  "AcquisitionTime": "14:44:7.817500",
  "BandwidthPerPixelPhaseEncode": 17.17,
  "BaseResolution": 104,
  "BodyPartExamined": "BRAIN",
  "CoilCombinationMethod": "Sum of Squares",
  "ConsistencyInfo": "N4_VE11C_LATEST_20160120",
  "ConversionSoftware": "dcm2niix",
  "ConversionSoftwareVersion": "v1.0.20220505",
  "DerivedVendorReportedEchoSpacing": 0.000560011,
  "DeviceSerialNumber": "167006",
  "DwellTime": 2.1e-06,
  "EchoTime": 0.037,
  "EchoTrainLength": 104,
  "EffectiveEchoSpacing": 0.000560011,
  "FlipAngle": 52,
  "HeudiconvVersion": "0.5.3.post811+g6206e14",
  "ImageComments": "Unaliased MB4/PE3/LB",
  "ImageOrientationPatientDICOM": [0.999895, 0.0100814, 0.0104242, -0.00698071, 0.964673, -0.263357],
  "ImageOrientationText": "Tra>Cor(-15.3)>Sag(0.7)",
  "ImageType": [
    "ORIGINAL",
    "PRIMARY",
    "M",
    "MB",
    "ND",
    "MOSAIC"
],
  "ImagingFrequency": 123.26,
  "InPlanePhaseEncodingDirectionDICOM": "COL",
  "InstitutionAddress": "Chemin Queen-Mary 4565,Montreal,District,CA,H3W 1W5",
  "InstitutionName": "IUGM",
  "InstitutionalDepartmentName": "Department",
  "MRAcquisitionType": "2D",
  "MagneticFieldStrength": 3,
  "Manufacturer": "Siemens",
  "ManufacturersModelName": "Prisma_fit",
  "MatrixCoilMode": "SENSE",
  "Modality": "MR",
  "MultibandAccelerationFactor": 4,
  "PartialFourier": 1,
  "PatientPosition": "HFS",
  "PercentPhaseFOV": 100,
  "PercentSampling": 100,
  "PhaseEncodingDirection": "j",
  "PhaseEncodingSteps": 104,
  "PhaseResolution": 1,
  "PixelBandwidth": 2290,
  "ProcedureStepDescription": "games^mario3",
  "ProtocolName": "func_task-mario3_run-02",
  "PulseSequenceDetails": "%CustomerSeq%\\cmrr_mbep2d_bold",
  "ReceiveCoilActiveElements": "HC1-7;NC1,2",
  "ReceiveCoilName": "HeadNeck_64",
  "ReconMatrixPE": 104,
  "RepetitionTime": 1.49,
  "SAR": 0.063618,
  "ScanOptions": "FS",
  "ScanningSequence": "EP",
  "SequenceName": "epfid2d1_104",
  "SequenceVariant": "SK\\SS",
  "SeriesDescription": "func_task-mario3_run-02",
  "SeriesNumber": 13,
  "ShimSetting": [626, -7221, -8773, 700, 80, 2, 26, 7],
  "SliceThickness": 2,
  "SliceTiming": [0, 0.785, 0.0975, 0.8825, 0.1975, 0.98, 0.295, 1.0775, 0.3925, 1.1775, 0.49, 1.275, 0.5875, 1.3725, 0.6875, 0, 0.785, 0.0975, 0.8825, 0.1975, 0.98, 0.295, 1.0775, 0.3925, 1.1775, 0.49, 1.275, 0.5875, 1.3725, 0.6875, 0, 0.785, 0.0975, 0.8825, 0.1975, 0.98, 0.295, 1.0775, 0.3925, 1.1775, 0.49, 1.275, 0.5875, 1.3725, 0.6875, 0, 0.785, 0.0975, 0.8825, 0.1975, 0.98, 0.295, 1.0775, 0.3925, 1.1775, 0.49, 1.275, 0.5875, 1.3725, 0.6875],
  "SoftwareVersions": "syngo MR E11",
  "SpacingBetweenSlices": 2,
  "StationName": "MRC35049",
  "TaskName": "mario3",
  "TotalReadoutTime": 0.0576811,
  "TxRefAmp": 235.411,
  "WipMemBlock": "534c0a0a-ca9d-4e77-b379-21aa51883c71||Sequence: R017 ve11c/master r/75a17815+; Jun 28 2022 16:32:11 by eja",
  "dcmmeta_affine": [
    [-1.9997897148132324, -0.013961421325802803, 0.025421932339668274, 109.18267059326172],
    [-0.02016281895339489, 1.9293463230133057, -0.5265130996704102, -72.52210998535156],
    [0.02084842137992382, 0.526714026927948, 1.9292842149734497, -58.11174011230469],
    [0.0, 0.0, 0.0, 1.0]
],
  "dcmmeta_reorient_transform": [
    [0.0, -1.0, 0.0, 103.0],
    [1.0, 0.0, 0.0, 0.0],
    [0.0, 0.0, 1.0, 0.0],
    [0.0, 0.0, 0.0, 1.0]
],
  "dcmmeta_shape": [104, 104, 60, 325],
  "dcmmeta_slice_dim": 2,
  "dcmmeta_version": 0.6,
  "global": {
    "const": {
      "AcquisitionMatrix": [104, 0, 0, 104],
      "AngioFlag": "N",
      "BitsAllocated": 16,
      "BitsStored": 16,
      "BodyPartExamined": "BRAIN",
      "Columns": 832,
      "EchoNumbers": 1,
      "EchoTime": 37.0,
      "EchoTrainLength": 104,
      "FlipAngle": 52.0,
      "HighBit": 15,
      "ImageOrientationPatient": [0.99989484497648, 0.01008140972976, 0.01042421063263, -0.006980710753, 0.96467318559069, -0.2633570099308],
      "ImagePositionPatient": [-830.5861337325, -835.82191507297, 180.27488019955],
      "ImageType": [
        "ORIGINAL",
        "PRIMARY",
        "M",
        "MB",
        "ND",
        "MOSAIC"
],
      "ImagedNucleus": "1H",
      "ImagingFrequency": 123.260324,
      "InPlanePhaseEncodingDirection": "COL",
      "MRAcquisitionType": "2D",
      "MagneticFieldStrength": 3.0,
      "Manufacturer": "SIEMENS",
      "ManufacturerModelName": "Prisma_fit",
      "Modality": "MR",
      "NumberOfAverages": 1.0,
      "NumberOfPhaseEncodingSteps": 104,
      "PercentPhaseFieldOfView": 100.0,
      "PercentSampling": 100.0,
      "PerformedProcedureStepStartTime": "142903.650000",
      "PhotometricInterpretation": "MONOCHROME2",
      "PixelBandwidth": 2290.0,
      "PixelRepresentation": 0,
      "PixelSpacing": [2.0, 2.0],
      "ProtocolName": "func_task-mario3_run-02",
      "RepetitionTime": 1490.0,
      "Rows": 832,
      "SAR": 0.06361799417106,
      "SamplesPerPixel": 1,
      "ScanOptions": "FS",
      "ScanningSequence": "EP",
      "SequenceName": "epfid2d1_104",
      "SequenceVariant": [
        "SK",
        "SS"
],
      "SeriesDescription": "func_task-mario3_run-02",
      "SeriesNumber": 13,
      "SeriesTime": "144528.009000",
      "SliceLocation": -35.577297092978,
      "SliceThickness": 2.0,
      "SmallestImagePixelValue": 0,
      "SoftwareVersions": "syngo MR E11",
      "SpacingBetweenSlices": 1.999999965155,
      "SpecificCharacterSet": "ISO_IR 100",
      "StudyID": "1",
      "StudyTime": "142903.579000",
      "TransmitCoilName": "Body",
      "VariableFlipAngleFlag": "N",
      "WindowCenterWidthExplanation": "Algo1",
      "dBdt": 0.0},
    "slices": {}
  },
  "time": {
    "samples": {
      "AcquisitionNumber": [1, 2, 3, 4, 5, 6, 7, 8, 9, 10, 11, 12, 13, 14, 15, 16, 17, 18, 19, 20, 21, 22, 23, 24, 25, 26, 27, 28, 29, 30, 31, 32, 33, 34, 35, 36, 37, 38, 39, 40, 41, 42, 43, 44, 45, 46, 47, 48, 49, 50, 51, 52, 53, 54, 55, 56, 57, 58, 59, 60, 61, 62, 63, 64, 65, 66, 67, 68, 69, 70, 71, 72, 73, 74, 75, 76, 77, 78, 79, 80, 81, 82, 83, 84, 85, 86, 87, 88, 89, 90, 91, 92, 93, 94, 95, 96, 97, 98, 99, 100, 101, 102, 103, 104, 105, 106, 107, 108, 109, 110, 111, 112, 113, 114, 115, 116, 117, 118, 119, 120, 121, 122, 123, 124, 125, 126, 127, 128, 129, 130, 131, 132, 133, 134, 135, 136, 137, 138, 139, 140, 141, 142, 143, 144, 145, 146, 147, 148, 149, 150, 151, 152, 153, 154, 155, 156, 157, 158, 159, 160, 161, 162, 163, 164, 165, 166, 167, 168, 169, 170, 171, 172, 173, 174, 175, 176, 177, 178, 179, 180, 181, 182, 183, 184, 185, 186, 187, 188, 189, 190, 191, 192, 193, 194, 195, 196, 197, 198, 199, 200, 201, 202, 203, 204, 205, 206, 207, 208, 209, 210, 211, 212, 213, 214, 215, 216, 217, 218, 219, 220, 221, 222, 223, 224, 225, 226, 227, 228, 229, 230, 231, 232, 233, 234, 235, 236, 237, 238, 239, 240, 241, 242, 243, 244, 245, 246, 247, 248, 249, 250, 251, 252, 253, 254, 255, 256, 257, 258, 259, 260, 261, 262, 263, 264, 265, 266, 267, 268, 269, 270, 271, 272, 273, 274, 275, 276, 277, 278, 279, 280, 281, 282, 283, 284, 285, 286, 287, 288, 289, 290, 291, 292, 293, 294, 295, 296, 297, 298, 299, 300, 301, 302, 303, 304, 305, 306, 307, 308, 309, 310, 311, 312, 313, 314, 315, 316, 317, 318, 319, 320, 321, 322, 323, 324, 325],
      "AcquisitionTime": ["144407.817500", "144409.307500", "144410.797500", "144412.287500", "144413.777500", "144415.267500", "144416.757500", "144418.247500", "144419.737500", "144421.227500", "144422.717500", "144424.207500", "144425.697500", "144427.187500", "144428.677500", "144430.167500", "144431.657500", "144433.147500", "144434.637500", "144436.127500", "144437.617500", "144439.107500", "144440.597500", "144442.087500", "144443.577500", "144445.067500", "144446.557500", "144448.047500", "144449.537500", "144451.027500", "144452.517500", "144454.007500", "144455.497500", "144456.987500", "144458.477500", "144459.967500", "144501.457500", "144502.947500", "144504.437500", "144505.927500", "144507.417500", "144508.907500", "144510.397500", "144511.887500", "144513.377500", "144514.867500", "144516.357500", "144517.847500", "144519.337500", "144520.827500", "144522.317500", "144523.807500", "144525.297500", "144526.787500", "144528.277500", "144529.767500", "144531.257500", "144532.747500", "144534.237500", "144535.727500", "144537.217500", "144538.707500", "144540.197500", "144541.687500", "144543.177500", "144544.667500", "144546.157500", "144547.647500", "144549.137500", "144550.627500", "144552.117500", "144553.607500", "144555.097500", "144556.587500", "144558.077500", "144559.567500", "144601.057500", "144602.547500", "144604.037500", "144605.527500", "144607.017500", "144608.507500", "144609.997500", "144611.487500", "144612.977500", "144614.467500", "144615.957500", "144617.447500", "144618.937500", "144620.427500", "144621.917500", "144623.407500", "144624.897500", "144626.387500", "144627.877500", "144629.367500", "144630.857500", "144632.347500", "144633.837500", "144635.327500", "144636.817500", "144638.307500", "144639.797500", "144641.287500", "144642.777500", "144644.267500", "144645.757500", "144647.247500", "144648.737500", "144650.227500", "144651.717500", "144653.207500", "144654.697500", "144656.187500", "144657.677500", "144659.167500", "144700.657500", "144702.147500", "144703.637500", "144705.127500", "144706.617500", "144708.107500", "144709.597500", "144711.087500", "144712.577500", "144714.067500", "144715.557500", "144717.047500", "144718.537500", "144720.027500", "144721.517500", "144723.007500", "144724.497500", "144725.987500", "144727.477500", "144728.967500", "144730.457500", "144731.947500", "144733.437500", "144734.927500", "144736.417500", "144737.907500", "144739.397500", "144740.887500", "144742.377500", "144743.867500", "144745.357500", "144746.847500", "144748.337500", "144749.827500", "144751.317500", "144752.807500", "144754.297500", "144755.787500", "144757.277500", "144758.767500", "144800.257500", "144801.747500", "144803.237500", "144804.727500", "144806.217500", "144807.707500", "144809.197500", "144810.687500", "144812.177500", "144813.667500", "144815.157500", "144816.647500", "144818.137500", "144819.627500", "144821.117500", "144822.607500", "144824.097500", "144825.587500", "144827.077500", "144828.567500", "144830.057500", "144831.547500", "144833.037500", "144834.527500", "144836.017500", "144837.507500", "144838.997500", "144840.487500", "144841.977500", "144843.467500", "144844.957500", "144846.447500", "144847.937500", "144849.427500", "144850.917500", "144852.407500", "144853.897500", "144855.387500", "144856.877500", "144858.367500", "144859.857500", "144901.347500", "144902.837500", "144904.327500", "144905.817500", "144907.307500", "144908.797500", "144910.287500", "144911.777500", "144913.267500", "144914.757500", "144916.247500", "144917.737500", "144919.227500", "144920.717500", "144922.207500", "144923.697500", "144925.187500", "144926.677500", "144928.167500", "144929.657500", "144931.147500", "144932.637500", "144934.127500", "144935.617500", "144937.107500", "144938.597500", "144940.087500", "144941.577500", "144943.067500", "144944.557500", "144946.047500", "144947.537500", "144949.027500", "144950.517500", "144952.007500", "144953.497500", "144954.987500", "144956.477500", "144957.967500", "144959.457500", "145000.947500", "145002.437500", "145003.927500", "145005.417500", "145006.907500", "145008.397500", "145009.887500", "145011.377500", "145012.867500", "145014.357500", "145015.847500", "145017.337500", "145018.827500", "145020.317500", "145021.807500", "145023.297500", "145024.787500", "145026.277500", "145027.767500", "145029.257500", "145030.747500", "145032.237500", "145033.727500", "145035.217500", "145036.707500", "145038.197500", "145039.687500", "145041.177500", "145042.667500", "145044.157500", "145045.647500", "145047.137500", "145048.627500", "145050.117500", "145051.607500", "145053.097500", "145054.587500", "145056.077500", "145057.567500", "145059.057500", "145100.547500", "145102.037500", "145103.527500", "145105.017500", "145106.507500", "145107.997500", "145109.487500", "145110.977500", "145112.467500", "145113.957500", "145115.447500", "145116.937500", "145118.427500", "145119.917500", "145121.407500", "145122.897500", "145124.387500", "145125.877500", "145127.367500", "145128.857500", "145130.347500", "145131.837500", "145133.327500", "145134.817500", "145136.307500", "145137.797500", "145139.287500", "145140.777500", "145142.267500", "145143.757500", "145145.247500", "145146.737500", "145148.227500", "145149.717500", "145151.207500", "145152.697500", "145154.187500", "145155.677500", "145157.167500", "145158.657500", "145200.147500", "145201.637500", "145203.127500", "145204.617500", "145206.107500", "145207.597500", "145209.087500", "145210.577500"],
      "ContentTime": ["144528.012000", "144528.016000", "144528.019000", "144528.022000", "144528.025000", "144528.029000", "144528.032000", "144528.035000", "144528.039000", "144528.047000", "144528.050000", "144528.054000", "144528.057000", "144528.060000", "144528.063000", "144528.067000", "144528.070000", "144528.073000", "144528.076000", "144528.080000", "144528.083000", "144528.086000", "144528.089000", "144528.093000", "144528.096000", "144528.099000", "144528.102000", "144528.106000", "144528.109000", "144528.112000", "144547.979000", "144547.995000", "144547.998000", "144548.003000", "144548.006000", "144548.009000", "144548.012000", "144548.016000", "144548.019000", "144548.022000", "144548.026000", "144548.029000", "144548.032000", "144548.035000", "144548.039000", "144548.042000", "144548.045000", "144548.049000", "144548.052000", "144548.055000", "144607.979000", "144607.983000", "144607.986000", "144607.990000", "144607.993000", "144607.996000", "144608.001000", "144608.004000", "144608.007000", "144608.010000", "144608.014000", "144608.017000", "144608.020000", "144608.023000", "144608.027000", "144608.030000", "144608.033000", "144608.036000", "144608.040000", "144608.043000", "144608.046000", "144627.979000", "144627.983000", "144627.986000", "144627.989000", "144627.992000", "144627.996000", "144628.000000", "144628.003000", "144628.006000", "144628.010000", "144628.013000", "144628.016000", "144628.019000", "144628.023000", "144628.026000", "144628.029000", "144628.033000", "144628.036000", "144628.050000", "144628.053000", "144707.979000", "144707.983000", "144707.986000", "144707.989000", "144707.992000", "144707.996000", "144708.000000", "144708.003000", "144708.006000", "144708.010000", "144708.013000", "144708.016000", "144708.020000", "144708.023000", "144708.026000", "144708.029000", "144708.033000", "144708.036000", "144708.039000", "144708.043000", "144708.046000", "144708.049000", "144708.053000", "144708.056000", "144708.059000", "144708.062000", "144708.066000", "144708.069000", "144708.072000", "144747.979000", "144747.983000", "144747.986000", "144747.989000", "144747.993000", "144747.996000", "144748.000000", "144748.004000", "144748.007000", "144748.010000", "144748.026000", "144748.029000", "144748.032000", "144748.035000", "144748.039000", "144748.042000", "144748.045000", "144748.048000", "144748.052000", "144748.055000", "144748.058000", "144748.062000", "144748.065000", "144748.068000", "144748.071000", "144748.075000", "144748.078000", "144827.979000", "144827.983000", "144827.986000", "144827.989000", "144827.993000", "144827.996000", "144828.000000", "144828.004000", "144828.007000", "144828.010000", "144828.014000", "144828.017000", "144828.020000", "144828.024000", "144828.027000", "144828.030000", "144828.033000", "144828.037000", "144828.040000", "144828.043000", "144828.046000", "144828.050000", "144828.053000", "144828.063000", "144828.066000", "144828.069000", "144828.073000", "144907.978000", "144907.982000", "144907.985000", "144907.989000", "144907.992000", "144907.995000", "144907.998000", "144908.003000", "144908.006000", "144908.009000", "144908.013000", "144908.016000", "144908.019000", "144908.023000", "144908.026000", "144908.029000", "144908.032000", "144908.036000", "144908.039000", "144908.042000", "144908.045000", "144908.050000", "144908.054000", "144908.058000", "144908.061000", "144908.066000", "144947.979000", "144947.983000", "144947.986000", "144947.989000", "144947.992000", "144947.996000", "144948.000000", "144948.003000", "144948.007000", "144948.010000", "144948.013000", "144948.016000", "144948.020000", "144948.023000", "144948.026000", "144948.030000", "144948.033000", "144948.036000", "144948.039000", "144948.043000", "144948.046000", "144948.049000", "144948.052000", "144948.056000", "144948.059000", "144948.062000", "144948.065000", "145027.979000", "145027.983000", "145027.986000", "145027.990000", "145027.993000", "145027.996000", "145028.000000", "145028.004000", "145028.007000", "145028.010000", "145028.014000", "145028.017000", "145028.020000", "145028.023000", "145028.033000", "145028.036000", "145028.039000", "145028.042000", "145028.046000", "145028.049000", "145028.057000", "145028.061000", "145028.064000", "145028.067000", "145028.071000", "145028.074000", "145028.077000", "145107.979000", "145107.983000", "145107.986000", "145107.989000", "145107.993000", "145107.996000", "145108.000000", "145108.004000", "145108.007000", "145108.010000", "145108.013000", "145108.017000", "145108.020000", "145108.023000", "145108.027000", "145108.030000", "145108.033000", "145108.036000", "145108.040000", "145108.043000", "145108.046000", "145108.050000", "145108.053000", "145108.056000", "145108.060000", "145108.063000", "145108.066000", "145147.979000", "145147.983000", "145147.986000", "145147.989000", "145147.993000", "145147.996000", "145148.000000", "145148.003000", "145148.007000", "145148.010000", "145148.013000", "145148.017000", "145148.020000", "145148.023000", "145148.026000", "145148.030000", "145148.033000", "145148.036000", "145148.039000", "145148.043000", "145148.046000", "145148.049000", "145148.053000", "145148.056000", "145148.059000", "145148.062000", "145148.066000", "145213.346000", "145213.350000", "145213.353000", "145213.356000", "145213.360000", "145213.363000", "145213.366000", "145213.370000", "145213.373000", "145213.376000", "145213.379000", "145213.383000", "145213.386000", "145213.389000", "145213.393000", "145213.396000", "145213.399000"],
      "InstanceCreationTime": ["144528.012000", "144528.016000", "144528.019000", "144528.022000", "144528.025000", "144528.029000", "144528.032000", "144528.035000", "144528.039000", "144528.047000", "144528.050000", "144528.054000", "144528.057000", "144528.060000", "144528.063000", "144528.067000", "144528.070000", "144528.073000", "144528.076000", "144528.080000", "144528.083000", "144528.086000", "144528.089000", "144528.093000", "144528.096000", "144528.099000", "144528.102000", "144528.106000", "144528.109000", "144528.112000", "144547.979000", "144547.995000", "144547.998000", "144548.003000", "144548.006000", "144548.009000", "144548.012000", "144548.016000", "144548.019000", "144548.022000", "144548.026000", "144548.029000", "144548.032000", "144548.035000", "144548.039000", "144548.042000", "144548.045000", "144548.049000", "144548.052000", "144548.055000", "144607.979000", "144607.983000", "144607.986000", "144607.990000", "144607.993000", "144607.996000", "144608.001000", "144608.004000", "144608.007000", "144608.010000", "144608.014000", "144608.017000", "144608.020000", "144608.023000", "144608.027000", "144608.030000", "144608.033000", "144608.036000", "144608.040000", "144608.043000", "144608.046000", "144627.979000", "144627.983000", "144627.986000", "144627.989000", "144627.992000", "144627.996000", "144628.000000", "144628.003000", "144628.006000", "144628.010000", "144628.013000", "144628.016000", "144628.019000", "144628.023000", "144628.026000", "144628.029000", "144628.033000", "144628.036000", "144628.050000", "144628.053000", "144707.979000", "144707.983000", "144707.986000", "144707.989000", "144707.992000", "144707.996000", "144708.000000", "144708.003000", "144708.006000", "144708.010000", "144708.013000", "144708.016000", "144708.020000", "144708.023000", "144708.026000", "144708.029000", "144708.033000", "144708.036000", "144708.039000", "144708.043000", "144708.046000", "144708.049000", "144708.053000", "144708.056000", "144708.059000", "144708.062000", "144708.066000", "144708.069000", "144708.072000", "144747.979000", "144747.983000", "144747.986000", "144747.989000", "144747.993000", "144747.996000", "144748.000000", "144748.004000", "144748.007000", "144748.010000", "144748.026000", "144748.029000", "144748.032000", "144748.035000", "144748.039000", "144748.042000", "144748.045000", "144748.048000", "144748.052000", "144748.055000", "144748.058000", "144748.062000", "144748.065000", "144748.068000", "144748.071000", "144748.075000", "144748.078000", "144827.979000", "144827.983000", "144827.986000", "144827.989000", "144827.993000", "144827.996000", "144828.000000", "144828.004000", "144828.007000", "144828.010000", "144828.014000", "144828.017000", "144828.020000", "144828.024000", "144828.027000", "144828.030000", "144828.033000", "144828.037000", "144828.040000", "144828.043000", "144828.046000", "144828.050000", "144828.053000", "144828.063000", "144828.066000", "144828.069000", "144828.073000", "144907.978000", "144907.982000", "144907.985000", "144907.989000", "144907.992000", "144907.995000", "144907.998000", "144908.003000", "144908.006000", "144908.009000", "144908.013000", "144908.016000", "144908.019000", "144908.023000", "144908.026000", "144908.029000", "144908.032000", "144908.036000", "144908.039000", "144908.042000", "144908.045000", "144908.050000", "144908.054000", "144908.058000", "144908.061000", "144908.066000", "144947.979000", "144947.983000", "144947.986000", "144947.989000", "144947.992000", "144947.996000", "144948.000000", "144948.003000", "144948.007000", "144948.010000", "144948.013000", "144948.016000", "144948.020000", "144948.023000", "144948.026000", "144948.030000", "144948.033000", "144948.036000", "144948.039000", "144948.043000", "144948.046000", "144948.049000", "144948.052000", "144948.056000", "144948.059000", "144948.062000", "144948.065000", "145027.979000", "145027.983000", "145027.986000", "145027.990000", "145027.993000", "145027.996000", "145028.000000", "145028.004000", "145028.007000", "145028.010000", "145028.014000", "145028.017000", "145028.020000", "145028.023000", "145028.033000", "145028.036000", "145028.039000", "145028.042000", "145028.046000", "145028.049000", "145028.057000", "145028.061000", "145028.064000", "145028.067000", "145028.071000", "145028.074000", "145028.077000", "145107.979000", "145107.983000", "145107.986000", "145107.989000", "145107.993000", "145107.996000", "145108.000000", "145108.004000", "145108.007000", "145108.010000", "145108.013000", "145108.017000", "145108.020000", "145108.023000", "145108.027000", "145108.030000", "145108.033000", "145108.036000", "145108.040000", "145108.043000", "145108.046000", "145108.050000", "145108.053000", "145108.056000", "145108.060000", "145108.063000", "145108.066000", "145147.979000", "145147.983000", "145147.986000", "145147.989000", "145147.993000", "145147.996000", "145148.000000", "145148.003000", "145148.007000", "145148.010000", "145148.013000", "145148.017000", "145148.020000", "145148.023000", "145148.026000", "145148.030000", "145148.033000", "145148.036000", "145148.039000", "145148.043000", "145148.046000", "145148.049000", "145148.053000", "145148.056000", "145148.059000", "145148.062000", "145148.066000", "145213.346000", "145213.350000", "145213.353000", "145213.356000", "145213.360000", "145213.363000", "145213.366000", "145213.370000", "145213.373000", "145213.376000", "145213.379000", "145213.383000", "145213.386000", "145213.389000", "145213.393000", "145213.396000", "145213.399000"],
      "InstanceNumber": [1, 2, 3, 4, 5, 6, 7, 8, 9, 10, 11, 12, 13, 14, 15, 16, 17, 18, 19, 20, 21, 22, 23, 24, 25, 26, 27, 28, 29, 30, 31, 32, 33, 34, 35, 36, 37, 38, 39, 40, 41, 42, 43, 44, 45, 46, 47, 48, 49, 50, 51, 52, 53, 54, 55, 56, 57, 58, 59, 60, 61, 62, 63, 64, 65, 66, 67, 68, 69, 70, 71, 72, 73, 74, 75, 76, 77, 78, 79, 80, 81, 82, 83, 84, 85, 86, 87, 88, 89, 90, 91, 92, 93, 94, 95, 96, 97, 98, 99, 100, 101, 102, 103, 104, 105, 106, 107, 108, 109, 110, 111, 112, 113, 114, 115, 116, 117, 118, 119, 120, 121, 122, 123, 124, 125, 126, 127, 128, 129, 130, 131, 132, 133, 134, 135, 136, 137, 138, 139, 140, 141, 142, 143, 144, 145, 146, 147, 148, 149, 150, 151, 152, 153, 154, 155, 156, 157, 158, 159, 160, 161, 162, 163, 164, 165, 166, 167, 168, 169, 170, 171, 172, 173, 174, 175, 176, 177, 178, 179, 180, 181, 182, 183, 184, 185, 186, 187, 188, 189, 190, 191, 192, 193, 194, 195, 196, 197, 198, 199, 200, 201, 202, 203, 204, 205, 206, 207, 208, 209, 210, 211, 212, 213, 214, 215, 216, 217, 218, 219, 220, 221, 222, 223, 224, 225, 226, 227, 228, 229, 230, 231, 232, 233, 234, 235, 236, 237, 238, 239, 240, 241, 242, 243, 244, 245, 246, 247, 248, 249, 250, 251, 252, 253, 254, 255, 256, 257, 258, 259, 260, 261, 262, 263, 264, 265, 266, 267, 268, 269, 270, 271, 272, 273, 274, 275, 276, 277, 278, 279, 280, 281, 282, 283, 284, 285, 286, 287, 288, 289, 290, 291, 292, 293, 294, 295, 296, 297, 298, 299, 300, 301, 302, 303, 304, 305, 306, 307, 308, 309, 310, 311, 312, 313, 314, 315, 316, 317, 318, 319, 320, 321, 322, 323, 324, 325],
      "LargestImagePixelValue": [41809, 40612, 39892, 39124, 38985, 38972, 39303, 39202, 39184, 38961, 38573, 38583, 38650, 38367, 38359, 38880, 38933, 39137, 38867, 38872, 38997, 39142, 39033, 38825, 39179, 39297, 39225, 39429, 39208, 39317, 39454, 39217, 39201, 38964, 38897, 39224, 38987, 39228, 39531, 39350, 39156, 39460, 39092, 38406, 38566, 38594, 39062, 39146, 39075, 39255, 39114, 39410, 39243, 39474, 39115, 39092, 38759, 38445, 38662, 39146, 39612, 39135, 38804, 38987, 39248, 39155, 39560, 39810, 38907, 38719, 38997, 38922, 39280, 38947, 38996, 39052, 39248, 39268, 39639, 39199, 39221, 39254, 39439, 39502, 39060, 38803, 39157, 39353, 39318, 39280, 38929, 39147, 39079, 39261, 39192, 39212, 38959, 39226, 38924, 39144, 39057, 39222, 39198, 39140, 39318, 39127, 38720, 38985, 38613, 39061, 38940, 39209, 38928, 38897, 38752, 39198, 38771, 38419, 39112, 39182, 39340, 38765, 39157, 38767, 39319, 38469, 38369, 38584, 39037, 38667, 38631, 39618, 39587, 39132, 38985, 38986, 38750, 38848, 39216, 38732, 38789, 38703, 38601, 38707, 38487, 39068, 38747, 38597, 39341, 38810, 38645, 38535, 38287, 38790, 38857, 38816, 38943, 38740, 38374, 38426, 38768, 38800, 38180, 38019, 38005, 38731, 38430, 38650, 39095, 39095, 39112, 38718, 38816, 38737, 38709, 38784, 38674, 38474, 38953, 38575, 38762, 38191, 38418, 38475, 39473, 39158, 39103, 38736, 39077, 39040, 38362, 38674, 39517, 38810, 38996, 39029, 38691, 39086, 38584, 38363, 37867, 38622, 38616, 38742, 38695, 38667, 38596, 38865, 38115, 38225, 38349, 41363, 39332, 38395, 38013, 37993, 38517, 38948, 38182, 38706, 38796, 38403, 38803, 38889, 38955, 39090, 38145, 38795, 38340, 38108, 37894, 37926, 39303, 38695, 38692, 38816, 39505, 39853, 39236, 39446, 39029, 38952, 38226, 38507, 38739, 38728, 38103, 38740, 38540, 39365, 38344, 38628, 39154, 37807, 35359, 35611, 42164, 40983, 40069, 39824, 39430, 39140, 38890, 39035, 39308, 39351, 39551, 39385, 39314, 39486, 39496, 39308, 39289, 39521, 37556, 39366, 39445, 38539, 38230, 37982, 38338, 38249, 38136, 38175, 38110, 38914, 38369, 38159, 38388, 38192, 38046, 38436, 38280, 38136, 38138, 37956, 38256, 37801, 37776, 37855, 38087, 38290, 37852, 38118, 38505, 38556, 38626, 38094, 37903, 37756, 37882, 38183, 38536, 39043, 38770, 38779, 38486, 39246, 39433, 38856, 38881, 38456, 38586, 39102, 38933],
