{
  "AcquisitionMatrixPE": 104,
  "AcquisitionNumber": 1,
  "AcquisitionTime": "14:54:7.735000",
  "BandwidthPerPixelPhaseEncode": 17.17,
  "BaseResolution": 104,
  "BodyPartExamined": "BRAIN",
  "CoilCombinationMethod": "Sum of Squares",
  "ConsistencyInfo": "N4_VE11C_LATEST_20160120",
  "ConversionSoftware": "dcm2niix",
  "ConversionSoftwareVersion": "v1.0.20220505",
  "DerivedVendorReportedEchoSpacing": 0.000560011,
  "DeviceSerialNumber": "167006",
  "DwellTime": 2.1e-06,
  "EchoTime": 0.037,
  "EchoTime1": 0.037,
  "EchoTime2": 0.001,
  "EchoTrainLength": 104,
  "EffectiveEchoSpacing": 0.000560011,
  "FlipAngle": 52,
  "HeudiconvVersion": "0.5.3.post811+g6206e14",
  "ImageComments": "Unaliased MB4/PE3/LB",
  "ImageOrientationPatientDICOM": [0.999895, 0.0100814, 0.0104242, -0.00698071, 0.964673, -0.263357],
  "ImageOrientationText": "Tra>Cor(-15.3)>Sag(0.7)",
  "ImageType": [
    "ORIGINAL",
    "PRIMARY",
    "P",
    "MB",
    "ND",
    "MOSAIC",
    "PHASE"
],
  "ImagingFrequency": 123.26,
  "InPlanePhaseEncodingDirectionDICOM": "COL",
  "InstitutionAddress": "Chemin Queen-Mary 4565,Montreal,District,CA,H3W 1W5",
  "InstitutionName": "IUGM",
  "InstitutionalDepartmentName": "Department",
  "MRAcquisitionType": "2D",
  "MagneticFieldStrength": 3,
  "Manufacturer": "Siemens",
  "ManufacturersModelName": "Prisma_fit",
  "MatrixCoilMode": "SENSE",
  "Modality": "MR",
  "MultibandAccelerationFactor": 4,
  "PartialFourier": 1,
  "PatientPosition": "HFS",
  "PercentPhaseFOV": 100,
  "PercentSampling": 100,
  "PhaseEncodingDirection": "j",
  "PhaseEncodingSteps": 104,
  "PhaseResolution": 1,
  "PixelBandwidth": 2290,
  "ProcedureStepDescription": "games^mario3",
  "ProtocolName": "func_task-mario3_run-03",
  "PulseSequenceDetails": "%CustomerSeq%\\cmrr_mbep2d_bold",
  "ReceiveCoilActiveElements": "HC1-7;NC1,2",
  "ReceiveCoilName": "HeadNeck_64",
  "ReconMatrixPE": 104,
  "RepetitionTime": 1.49,
  "SAR": 0.063618,
  "ScanOptions": "FS",
  "ScanningSequence": "EP",
  "SequenceName": "epfid2d1_104",
  "SequenceVariant": "SK\\SS",
  "SeriesDescription": "func_task-mario3_run-03",
  "SeriesNumber": 17,
  "ShimSetting": [626, -7221, -8773, 700, 80, 2, 26, 7],
  "SliceThickness": 2,
  "SliceTiming": [0, 0.7825, 0.0975, 0.88, 0.195, 0.98, 0.2925, 1.0775, 0.39, 1.175, 0.49, 1.2725, 0.5875, 1.37, 0.685, 0, 0.7825, 0.0975, 0.88, 0.195, 0.98, 0.2925, 1.0775, 0.39, 1.175, 0.49, 1.2725, 0.5875, 1.37, 0.685, 0, 0.7825, 0.0975, 0.88, 0.195, 0.98, 0.2925, 1.0775, 0.39, 1.175, 0.49, 1.2725, 0.5875, 1.37, 0.685, 0, 0.7825, 0.0975, 0.88, 0.195, 0.98, 0.2925, 1.0775, 0.39, 1.175, 0.49, 1.2725, 0.5875, 1.37, 0.685],
  "SoftwareVersions": "syngo MR E11",
  "SpacingBetweenSlices": 2,
  "StationName": "MRC35049",
  "TaskName": "mario3",
  "TotalReadoutTime": 0.0576811,
  "TxRefAmp": 235.411,
  "WipMemBlock": "fe4db19c-11e7-4970-803d-6ecc1e1401a5||Sequence: R017 ve11c/master r/75a17815+; Jun 28 2022 16:32:11 by eja",
  "dcmmeta_affine": [
    [-1.9997897148132324, -0.013961421325802803, 0.025421932339668274, 109.18267059326172],
    [-0.02016281895339489, 1.9293463230133057, -0.5265130996704102, -72.52210998535156],
    [0.02084842137992382, 0.526714026927948, 1.9292842149734497, -58.11174011230469],
    [0.0, 0.0, 0.0, 1.0]
],
  "dcmmeta_reorient_transform": [
    [0.0, -1.0, 0.0, 103.0],
    [1.0, 0.0, 0.0, 0.0],
    [0.0, 0.0, 1.0, 0.0],
    [0.0, 0.0, 0.0, 1.0]
],
  "dcmmeta_shape": [104, 104, 60, 415],
  "dcmmeta_slice_dim": 2,
  "dcmmeta_version": 0.6,
  "global": {
    "const": {
      "AcquisitionMatrix": [104, 0, 0, 104],
      "AngioFlag": "N",
      "BitsAllocated": 16,
      "BitsStored": 16,
      "BodyPartExamined": "BRAIN",
      "Columns": 832,
      "EchoNumbers": 1,
      "EchoTime": 37.0,
      "EchoTrainLength": 104,
      "FlipAngle": 52.0,
      "HighBit": 15,
      "ImageOrientationPatient": [0.99989484497648, 0.01008140972976, 0.01042421063263, -0.006980710753, 0.96467318559069, -0.2633570099308],
      "ImagePositionPatient": [-830.5861337325, -835.82191507297, 180.27488019955],
      "ImageType": [
        "ORIGINAL",
        "PRIMARY",
        "P",
        "MB",
        "ND",
        "MOSAIC"
],
      "ImagedNucleus": "1H",
      "ImagingFrequency": 123.260328,
      "InPlanePhaseEncodingDirection": "COL",
      "LargestImagePixelValue": 4095,
      "MRAcquisitionType": "2D",
      "MagneticFieldStrength": 3.0,
      "Manufacturer": "SIEMENS",
      "ManufacturerModelName": "Prisma_fit",
      "Modality": "MR",
      "NumberOfAverages": 1.0,
      "NumberOfPhaseEncodingSteps": 104,
      "PercentPhaseFieldOfView": 100.0,
      "PercentSampling": 100.0,
      "PerformedProcedureStepStartTime": "142903.650000",
      "PhotometricInterpretation": "MONOCHROME2",
      "PixelBandwidth": 2290.0,
      "PixelRepresentation": 0,
      "PixelSpacing": [2.0, 2.0],
      "ProtocolName": "func_task-mario3_run-03",
      "RepetitionTime": 1490.0,
      "RescaleIntercept": -4096.0,
      "RescaleSlope": 2.0,
      "RescaleType": "US",
      "Rows": 832,
      "SAR": 0.06361799417106,
      "SamplesPerPixel": 1,
      "ScanOptions": "FS",
      "ScanningSequence": "EP",
      "SequenceName": "epfid2d1_104",
      "SequenceVariant": [
        "SK",
        "SS"
],
      "SeriesDescription": "func_task-mario3_run-03",
      "SeriesNumber": 17,
      "SeriesTime": "145521.809000",
      "SliceLocation": -35.577297092978,
      "SliceThickness": 2.0,
      "SmallestImagePixelValue": 0,
      "SoftwareVersions": "syngo MR E11",
      "SpacingBetweenSlices": 1.999999965155,
      "SpecificCharacterSet": "ISO_IR 100",
      "StudyID": "1",
      "StudyTime": "142903.579000",
      "TransmitCoilName": "Body",
      "VariableFlipAngleFlag": "N",
      "WindowCenterWidthExplanation": "Algo1",
      "dBdt": 0.0},
    "slices": {}
  },
  "time": {
    "samples": {
      "AcquisitionNumber": [1, 2, 3, 4, 5, 6, 7, 8, 9, 10, 11, 12, 13, 14, 15, 16, 17, 18, 19, 20, 21, 22, 23, 24, 25, 26, 27, 28, 29, 30, 31, 32, 33, 34, 35, 36, 37, 38, 39, 40, 41, 42, 43, 44, 45, 46, 47, 48, 49, 50, 51, 52, 53, 54, 55, 56, 57, 58, 59, 60, 61, 62, 63, 64, 65, 66, 67, 68, 69, 70, 71, 72, 73, 74, 75, 76, 77, 78, 79, 80, 81, 82, 83, 84, 85, 86, 87, 88, 89, 90, 91, 92, 93, 94, 95, 96, 97, 98, 99, 100, 101, 102, 103, 104, 105, 106, 107, 108, 109, 110, 111, 112, 113, 114, 115, 116, 117, 118, 119, 120, 121, 122, 123, 124, 125, 126, 127, 128, 129, 130, 131, 132, 133, 134, 135, 136, 137, 138, 139, 140, 141, 142, 143, 144, 145, 146, 147, 148, 149, 150, 151, 152, 153, 154, 155, 156, 157, 158, 159, 160, 161, 162, 163, 164, 165, 166, 167, 168, 169, 170, 171, 172, 173, 174, 175, 176, 177, 178, 179, 180, 181, 182, 183, 184, 185, 186, 187, 188, 189, 190, 191, 192, 193, 194, 195, 196, 197, 198, 199, 200, 201, 202, 203, 204, 205, 206, 207, 208, 209, 210, 211, 212, 213, 214, 215, 216, 217, 218, 219, 220, 221, 222, 223, 224, 225, 226, 227, 228, 229, 230, 231, 232, 233, 234, 235, 236, 237, 238, 239, 240, 241, 242, 243, 244, 245, 246, 247, 248, 249, 250, 251, 252, 253, 254, 255, 256, 257, 258, 259, 260, 261, 262, 263, 264, 265, 266, 267, 268, 269, 270, 271, 272, 273, 274, 275, 276, 277, 278, 279, 280, 281, 282, 283, 284, 285, 286, 287, 288, 289, 290, 291, 292, 293, 294, 295, 296, 297, 298, 299, 300, 301, 302, 303, 304, 305, 306, 307, 308, 309, 310, 311, 312, 313, 314, 315, 316, 317, 318, 319, 320, 321, 322, 323, 324, 325, 326, 327, 328, 329, 330, 331, 332, 333, 334, 335, 336, 337, 338, 339, 340, 341, 342, 343, 344, 345, 346, 347, 348, 349, 350, 351, 352, 353, 354, 355, 356, 357, 358, 359, 360, 361, 362, 363, 364, 365, 366, 367, 368, 369, 370, 371, 372, 373, 374, 375, 376, 377, 378, 379, 380, 381, 382, 383, 384, 385, 386, 387, 388, 389, 390, 391, 392, 393, 394, 395, 396, 397, 398, 399, 400, 401, 402, 403, 404, 405, 406, 407, 408, 409, 410, 411, 412, 413, 414, 415],
      "AcquisitionTime": ["145407.735000", "145409.225000", "145410.715000", "145412.205000", "145413.695000", "145415.185000", "145416.675000", "145418.165000", "145419.655000", "145421.145000", "145422.635000", "145424.125000", "145425.615000", "145427.105000", "145428.595000", "145430.085000", "145431.575000", "145433.065000", "145434.555000", "145436.045000", "145437.535000", "145439.025000", "145440.515000", "145442.005000", "145443.495000", "145444.985000", "145446.475000", "145447.965000", "145449.455000", "145450.945000", "145452.435000", "145453.925000", "145455.415000", "145456.905000", "145458.395000", "145459.885000", "145501.375000", "145502.865000", "145504.355000", "145505.845000", "145507.335000", "145508.825000", "145510.315000", "145511.805000", "145513.295000", "145514.785000", "145516.275000", "145517.765000", "145519.255000", "145520.745000", "145522.235000", "145523.725000", "145525.215000", "145526.705000", "145528.195000", "145529.685000", "145531.175000", "145532.665000", "145534.155000", "145535.645000", "145537.135000", "145538.625000", "145540.115000", "145541.605000", "145543.095000", "145544.585000", "145546.075000", "145547.565000", "145549.055000", "145550.545000", "145552.035000", "145553.525000", "145555.015000", "145556.505000", "145557.995000", "145559.485000", "145600.975000", "145602.465000", "145603.955000", "145605.445000", "145606.935000", "145608.425000", "145609.915000", "145611.405000", "145612.895000", "145614.385000", "145615.875000", "145617.365000", "145618.855000", "145620.345000", "145621.835000", "145623.325000", "145624.815000", "145626.305000", "145627.795000", "145629.285000", "145630.775000", "145632.265000", "145633.755000", "145635.245000", "145636.735000", "145638.225000", "145639.715000", "145641.205000", "145642.695000", "145644.185000", "145645.675000", "145647.165000", "145648.655000", "145650.145000", "145651.635000", "145653.125000", "145654.615000", "145656.105000", "145657.595000", "145659.085000", "145700.575000", "145702.065000", "145703.555000", "145705.045000", "145706.535000", "145708.025000", "145709.515000", "145711.005000", "145712.495000", "145713.985000", "145715.475000", "145716.965000", "145718.455000", "145719.945000", "145721.435000", "145722.925000", "145724.415000", "145725.905000", "145727.395000", "145728.885000", "145730.375000", "145731.865000", "145733.355000", "145734.845000", "145736.335000", "145737.825000", "145739.315000", "145740.805000", "145742.295000", "145743.785000", "145745.275000", "145746.765000", "145748.255000", "145749.745000", "145751.235000", "145752.725000", "145754.215000", "145755.705000", "145757.195000", "145758.685000", "145800.175000", "145801.665000", "145803.155000", "145804.645000", "145806.135000", "145807.625000", "145809.115000", "145810.605000", "145812.095000", "145813.585000", "145815.075000", "145816.565000", "145818.055000", "145819.545000", "145821.035000", "145822.525000", "145824.015000", "145825.505000", "145826.995000", "145828.485000", "145829.975000", "145831.465000", "145832.955000", "145834.445000", "145835.935000", "145837.425000", "145838.915000", "145840.405000", "145841.895000", "145843.385000", "145844.875000", "145846.365000", "145847.855000", "145849.345000", "145850.835000", "145852.325000", "145853.815000", "145855.305000", "145856.795000", "145858.285000", "145859.775000", "145901.265000", "145902.755000", "145904.245000", "145905.735000", "145907.225000", "145908.715000", "145910.205000", "145911.695000", "145913.185000", "145914.675000", "145916.165000", "145917.655000", "145919.145000", "145920.635000", "145922.125000", "145923.615000", "145925.105000", "145926.595000", "145928.085000", "145929.575000", "145931.065000", "145932.555000", "145934.045000", "145935.535000", "145937.025000", "145938.515000", "145940.005000", "145941.495000", "145942.985000", "145944.475000", "145945.965000", "145947.455000", "145948.945000", "145950.435000", "145951.925000", "145953.415000", "145954.905000", "145956.395000", "145957.885000", "145959.375000", "150000.865000", "150002.355000", "150003.845000", "150005.335000", "150006.825000", "150008.315000", "150009.805000", "150011.295000", "150012.785000", "150014.275000", "150015.765000", "150017.255000", "150018.745000", "150020.235000", "150021.725000", "150023.215000", "150024.705000", "150026.195000", "150027.685000", "150029.175000", "150030.665000", "150032.155000", "150033.645000", "150035.135000", "150036.625000", "150038.115000", "150039.605000", "150041.095000", "150042.585000", "150044.075000", "150045.565000", "150047.055000", "150048.545000", "150050.035000", "150051.525000", "150053.015000", "150054.505000", "150055.995000", "150057.485000", "150058.975000", "150100.465000", "150101.955000", "150103.445000", "150104.935000", "150106.425000", "150107.915000", "150109.405000", "150110.895000", "150112.385000", "150113.875000", "150115.365000", "150116.855000", "150118.345000", "150119.835000", "150121.325000", "150122.815000", "150124.305000", "150125.795000", "150127.285000", "150128.775000", "150130.265000", "150131.755000", "150133.245000", "150134.735000", "150136.225000", "150137.715000", "150139.205000", "150140.695000", "150142.185000", "150143.675000", "150145.165000", "150146.655000", "150148.145000", "150149.635000", "150151.125000", "150152.615000", "150154.105000", "150155.595000", "150157.085000", "150158.575000", "150200.065000", "150201.555000", "150203.045000", "150204.535000", "150206.025000", "150207.515000", "150209.005000", "150210.495000", "150211.985000", "150213.475000", "150214.965000", "150216.455000", "150217.945000", "150219.435000", "150220.925000", "150222.415000", "150223.905000", "150225.395000", "150226.885000", "150228.375000", "150229.865000", "150231.355000", "150232.845000", "150234.335000", "150235.825000", "150237.315000", "150238.805000", "150240.295000", "150241.785000", "150243.275000", "150244.765000", "150246.255000", "150247.745000", "150249.235000", "150250.725000", "150252.215000", "150253.705000", "150255.195000", "150256.685000", "150258.175000", "150259.665000", "150301.155000", "150302.645000", "150304.135000", "150305.625000", "150307.115000", "150308.605000", "150310.095000", "150311.585000", "150313.075000", "150314.565000", "150316.055000", "150317.545000", "150319.035000", "150320.525000", "150322.015000", "150323.505000", "150324.995000", "150326.485000", "150327.975000", "150329.465000", "150330.955000", "150332.445000", "150333.935000", "150335.425000", "150336.915000", "150338.405000", "150339.895000", "150341.385000", "150342.875000", "150344.365000", "150345.855000", "150347.345000", "150348.835000", "150350.325000", "150351.815000", "150353.305000", "150354.795000", "150356.285000", "150357.775000", "150359.265000", "150400.755000", "150402.245000", "150403.735000", "150405.225000", "150406.715000", "150408.205000", "150409.695000", "150411.185000", "150412.675000", "150414.165000", "150415.655000", "150417.145000", "150418.635000", "150420.125000", "150421.615000", "150423.105000", "150424.595000"],
      "ContentTime": ["145521.811000", "145521.814000", "145521.816000", "145521.819000", "145521.821000", "145521.824000", "145521.826000", "145521.829000", "145521.831000", "145521.834000", "145521.836000", "145521.839000", "145521.841000", "145521.844000", "145521.846000", "145521.849000", "145521.851000", "145521.858000", "145521.865000", "145521.867000", "145521.870000", "145521.873000", "145521.875000", "145521.877000", "145521.880000", "145541.780000", "145541.783000", "145541.794000", "145541.796000", "145541.798000", "145541.801000", "145541.803000", "145541.806000", "145541.808000", "145541.811000", "145541.813000", "145541.816000", "145541.818000", "145541.821000", "145541.823000", "145541.826000", "145541.829000", "145541.831000", "145541.834000", "145541.836000", "145601.768000", "145601.771000", "145601.773000", "145601.776000", "145601.778000", "145601.780000", "145601.783000", "145601.785000", "145601.788000", "145601.790000", "145601.793000", "145601.796000", "145601.798000", "145601.801000", "145601.803000", "145601.806000", "145601.808000", "145601.810000", "145601.813000", "145601.815000", "145621.790000", "145621.793000", "145621.795000", "145621.797000", "145621.800000", "145621.802000", "145621.805000", "145621.814000", "145621.816000", "145621.819000", "145621.821000", "145621.824000", "145621.826000", "145621.829000", "145621.831000", "145621.834000", "145621.836000", "145621.839000", "145621.841000", "145621.844000", "145701.804000", "145701.807000", "145701.809000", "145701.812000", "145701.814000", "145701.817000", "145701.820000", "145701.822000", "145701.825000", "145701.827000", "145701.830000", "145701.832000", "145701.835000", "145701.837000", "145701.839000", "145701.842000", "145701.845000", "145701.847000", "145701.850000", "145701.852000", "145701.855000", "145701.857000", "145701.860000", "145701.862000", "145701.864000", "145701.867000", "145701.869000", "145701.872000", "145701.874000", "145701.877000", "145701.879000", "145742.205000", "145742.208000", "145742.210000", "145742.213000", "145742.215000", "145742.218000", "145742.220000", "145742.223000", "145742.225000", "145742.228000", "145742.230000", "145742.233000", "145742.235000", "145742.238000", "145742.240000", "145742.243000", "145742.246000", "145742.248000", "145742.250000", "145742.253000", "145742.256000", "145742.258000", "145742.261000", "145742.263000", "145742.266000", "145742.268000", "145742.271000", "145801.729000", "145801.732000", "145801.734000", "145801.737000", "145801.739000", "145801.742000", "145801.744000", "145801.747000", "145801.749000", "145801.752000", "145801.755000", "145801.758000", "145801.760000", "145841.815000", "145841.818000", "145841.820000", "145841.823000", "145841.825000", "145841.828000", "145841.830000", "145841.833000", "145841.835000", "145841.838000", "145841.840000", "145841.843000", "145841.854000", "145841.856000", "145841.859000", "145841.861000", "145841.864000", "145841.866000", "145841.869000", "145841.871000", "145841.874000", "145841.876000", "145841.879000", "145841.881000", "145841.884000", "145841.886000", "145841.889000", "145921.814000", "145921.816000", "145921.819000", "145921.821000", "145921.824000", "145921.826000", "145921.829000", "145921.831000", "145921.834000", "145921.836000", "145921.839000", "145921.841000", "145921.844000", "145921.846000", "145921.849000", "145921.851000", "145921.854000", "145921.856000", "145921.859000", "145921.861000", "145921.864000", "145921.866000", "145921.869000", "145921.871000", "145921.874000", "145921.876000", "145921.879000", "150001.782000", "150001.784000", "150001.787000", "150001.789000", "150001.792000", "150001.794000", "150001.797000", "150001.810000", "150001.812000", "150001.815000", "150001.817000", "150001.820000", "150001.822000", "150001.825000", "150001.827000", "150001.830000", "150001.832000", "150001.835000", "150001.837000", "150001.839000", "150001.842000", "150001.844000", "150001.847000", "150001.849000", "150001.852000", "150001.854000", "150001.857000", "150041.799000", "150041.802000", "150041.804000", "150041.807000", "150041.810000", "150041.812000", "150041.819000", "150041.821000", "150041.824000", "150041.826000", "150041.829000", "150041.831000", "150041.834000", "150041.836000", "150041.839000", "150041.841000", "150041.844000", "150041.846000", "150041.849000", "150041.851000", "150041.854000", "150041.856000", "150041.859000", "150041.862000", "150041.864000", "150041.867000", "150041.869000", "150121.807000", "150121.810000", "150121.813000", "150121.815000", "150121.818000", "150121.820000", "150121.823000", "150121.825000", "150121.828000", "150121.830000", "150121.833000", "150121.835000", "150121.838000", "150121.840000", "150121.843000", "150121.845000", "150121.848000", "150121.850000", "150121.853000", "150121.855000", "150121.858000", "150121.860000", "150121.863000", "150121.865000", "150121.868000", "150121.870000", "150121.873000", "150201.794000", "150201.797000", "150201.800000", "150201.803000", "150201.805000", "150201.808000", "150201.810000", "150201.813000", "150201.815000", "150201.818000", "150201.820000", "150201.823000", "150201.825000", "150201.828000", "150201.830000", "150201.833000", "150201.835000", "150201.838000", "150201.840000", "150201.843000", "150201.845000", "150201.848000", "150201.850000", "150201.853000", "150201.856000", "150201.858000", "150241.785000", "150241.787000", "150241.790000", "150241.792000", "150241.795000", "150241.797000", "150241.800000", "150241.802000", "150241.805000", "150241.807000", "150241.810000", "150241.812000", "150241.815000", "150241.817000", "150241.820000", "150241.822000", "150241.824000", "150241.827000", "150241.829000", "150241.832000", "150241.835000", "150241.837000", "150241.840000", "150241.842000", "150241.845000", "150241.847000", "150241.850000", "150321.787000", "150321.789000", "150321.792000", "150321.794000", "150321.797000", "150321.799000", "150321.802000", "150321.805000", "150321.807000", "150321.810000", "150321.812000", "150321.816000", "150321.819000", "150321.821000", "150321.824000", "150321.826000", "150321.829000", "150321.831000", "150321.834000", "150321.859000", "150321.861000", "150321.864000", "150321.866000", "150321.869000", "150321.871000", "150321.874000", "150321.876000", "150401.795000", "150401.798000", "150401.800000", "150401.803000", "150401.806000", "150401.808000", "150401.811000", "150401.813000", "150401.816000", "150401.818000", "150401.821000", "150401.823000", "150401.826000", "150401.828000", "150401.831000", "150401.834000", "150401.836000", "150401.839000", "150401.841000", "150401.844000", "150401.846000", "150401.849000", "150401.851000", "150401.854000", "150401.856000", "150401.859000", "150401.861000", "150426.569000", "150426.571000", "150426.574000", "150426.576000", "150426.579000", "150426.581000", "150426.584000", "150426.586000", "150426.589000", "150426.591000", "150426.594000", "150426.596000", "150426.599000", "150426.601000", "150426.604000", "150426.606000", "150426.609000"],
      "InstanceCreationTime": ["145521.811000", "145521.814000", "145521.816000", "145521.819000", "145521.821000", "145521.824000", "145521.826000", "145521.829000", "145521.831000", "145521.834000", "145521.836000", "145521.839000", "145521.841000", "145521.844000", "145521.846000", "145521.849000", "145521.851000", "145521.858000", "145521.865000", "145521.867000", "145521.870000", "145521.873000", "145521.875000", "145521.877000", "145521.880000", "145541.780000", "145541.783000", "145541.794000", "145541.796000", "145541.798000", "145541.801000", "145541.803000", "145541.806000", "145541.808000", "145541.811000", "145541.813000", "145541.816000", "145541.818000", "145541.821000", "145541.823000", "145541.826000", "145541.829000", "145541.831000", "145541.834000", "145541.836000", "145601.768000", "145601.771000", "145601.773000", "145601.776000", "145601.778000", "145601.780000", "145601.783000", "145601.785000", "145601.788000", "145601.790000", "145601.793000", "145601.796000", "145601.798000", "145601.801000", "145601.803000", "145601.806000", "145601.808000", "145601.810000", "145601.813000", "145601.815000", "145621.790000", "145621.793000", "145621.795000", "145621.797000", "145621.800000", "145621.802000", "145621.805000", "145621.814000", "145621.816000", "145621.819000", "145621.821000", "145621.824000", "145621.826000", "145621.829000", "145621.831000", "145621.834000", "145621.836000", "145621.839000", "145621.841000", "145621.844000", "145701.804000", "145701.807000", "145701.809000", "145701.812000", "145701.814000", "145701.817000", "145701.820000", "145701.822000", "145701.825000", "145701.827000", "145701.830000", "145701.832000", "145701.835000", "145701.837000", "145701.839000", "145701.842000", "145701.845000", "145701.847000", "145701.850000", "145701.852000", "145701.855000", "145701.857000", "145701.860000", "145701.862000", "145701.864000", "145701.867000", "145701.869000", "145701.872000", "145701.874000", "145701.877000", "145701.879000", "145742.205000", "145742.208000", "145742.210000", "145742.213000", "145742.215000", "145742.218000", "145742.220000", "145742.223000", "145742.225000", "145742.228000", "145742.230000", "145742.233000", "145742.235000", "145742.238000", "145742.240000", "145742.243000", "145742.246000", "145742.248000", "145742.250000", "145742.253000", "145742.256000", "145742.258000", "145742.261000", "145742.263000", "145742.266000", "145742.268000", "145742.271000", "145801.729000", "145801.732000", "145801.734000", "145801.737000", "145801.739000", "145801.742000", "145801.744000", "145801.747000", "145801.749000", "145801.752000", "145801.755000", "145801.758000", "145801.760000", "145841.815000", "145841.818000", "145841.820000", "145841.823000", "145841.825000", "145841.828000", "145841.830000", "145841.833000", "145841.835000", "145841.838000", "145841.840000", "145841.843000", "145841.854000", "145841.856000", "145841.859000", "145841.861000", "145841.864000", "145841.866000", "145841.869000", "145841.871000", "145841.874000", "145841.876000", "145841.879000", "145841.881000", "145841.884000", "145841.886000", "145841.889000", "145921.814000", "145921.816000", "145921.819000", "145921.821000", "145921.824000", "145921.826000", "145921.829000", "145921.831000", "145921.834000", "145921.836000", "145921.839000", "145921.841000", "145921.844000", "145921.846000", "145921.849000", "145921.851000", "145921.854000", "145921.856000", "145921.859000", "145921.861000", "145921.864000", "145921.866000", "145921.869000", "145921.871000", "145921.874000", "145921.876000", "145921.879000", "150001.782000", "150001.784000", "150001.787000", "150001.789000", "150001.792000", "150001.794000", "150001.797000", "150001.810000", "150001.812000", "150001.815000", "150001.817000", "150001.820000", "150001.822000", "150001.825000", "150001.827000", "150001.830000", "150001.832000", "150001.835000", "150001.837000", "150001.839000", "150001.842000", "150001.844000", "150001.847000", "150001.849000", "150001.852000", "150001.854000", "150001.857000", "150041.799000", "150041.802000", "150041.804000", "150041.807000", "150041.810000", "150041.812000", "150041.819000", "150041.821000", "150041.824000", "150041.826000", "150041.829000", "150041.831000", "150041.834000", "150041.836000", "150041.839000", "150041.841000", "150041.844000", "150041.846000", "150041.849000", "150041.851000", "150041.854000", "150041.856000", "150041.859000", "150041.862000", "150041.864000", "150041.867000", "150041.869000", "150121.807000", "150121.810000", "150121.813000", "150121.815000", "150121.818000", "150121.820000", "150121.823000", "150121.825000", "150121.828000", "150121.830000", "150121.833000", "150121.835000", "150121.838000", "150121.840000", "150121.843000", "150121.845000", "150121.848000", "150121.850000", "150121.853000", "150121.855000", "150121.858000", "150121.860000", "150121.863000", "150121.865000", "150121.868000", "150121.870000", "150121.873000", "150201.794000", "150201.797000", "150201.800000", "150201.803000", "150201.805000", "150201.808000", "150201.810000", "150201.813000", "150201.815000", "150201.818000", "150201.820000", "150201.823000", "150201.825000", "150201.828000", "150201.830000", "150201.833000", "150201.835000", "150201.838000", "150201.840000", "150201.843000", "150201.845000", "150201.848000", "150201.850000", "150201.853000", "150201.856000", "150201.858000", "150241.785000", "150241.787000", "150241.790000", "150241.792000", "150241.795000", "150241.797000", "150241.800000", "150241.802000", "150241.805000", "150241.807000", "150241.810000", "150241.812000", "150241.815000", "150241.817000", "150241.820000", "150241.822000", "150241.824000", "150241.827000", "150241.829000", "150241.832000", "150241.835000", "150241.837000", "150241.840000", "150241.842000", "150241.845000", "150241.847000", "150241.850000", "150321.787000", "150321.789000", "150321.792000", "150321.794000", "150321.797000", "150321.799000", "150321.802000", "150321.805000", "150321.807000", "150321.810000", "150321.812000", "150321.816000", "150321.819000", "150321.821000", "150321.824000", "150321.826000", "150321.829000", "150321.831000", "150321.834000", "150321.859000", "150321.861000", "150321.864000", "150321.866000", "150321.869000", "150321.871000", "150321.874000", "150321.876000", "150401.795000", "150401.798000", "150401.800000", "150401.803000", "150401.806000", "150401.808000", "150401.811000", "150401.813000", "150401.816000", "150401.818000", "150401.821000", "150401.823000", "150401.826000", "150401.828000", "150401.831000", "150401.834000", "150401.836000", "150401.839000", "150401.841000", "150401.844000", "150401.846000", "150401.849000", "150401.851000", "150401.854000", "150401.856000", "150401.859000", "150401.861000", "150426.569000", "150426.571000", "150426.574000", "150426.576000", "150426.579000", "150426.581000", "150426.584000", "150426.586000", "150426.589000", "150426.591000", "150426.594000", "150426.596000", "150426.599000", "150426.601000", "150426.604000", "150426.606000", "150426.609000"],
