{
  "AcquisitionMatrixPE": 104,
  "AcquisitionNumber": 1,
  "AcquisitionTime": "14:33:47.260000",
  "BandwidthPerPixelPhaseEncode": 17.17,
  "BaseResolution": 104,
  "BodyPartExamined": "BRAIN",
  "CoilCombinationMethod": "Sum of Squares",
  "ConsistencyInfo": "N4_VE11C_LATEST_20160120",
  "ConversionSoftware": "dcm2niix",
  "ConversionSoftwareVersion": "v1.0.20220505",
  "DerivedVendorReportedEchoSpacing": 0.000560011,
  "DeviceSerialNumber": "167006",
  "DwellTime": 2.1e-06,
  "EchoTime": 0.037,
  "EchoTime1": 0.037,
  "EchoTime2": 0.001,
  "EchoTrainLength": 104,
  "EffectiveEchoSpacing": 0.000560011,
  "FlipAngle": 52,
  "HeudiconvVersion": "0.5.3.post811+g6206e14",
  "ImageComments": "Unaliased MB4/PE3/LB",
  "ImageOrientationPatientDICOM": [0.999895, 0.0100814, 0.0104242, -0.00698071, 0.964673, -0.263357],
  "ImageOrientationText": "Tra>Cor(-15.3)>Sag(0.7)",
  "ImageType": [
    "ORIGINAL",
    "PRIMARY",
    "P",
    "MB",
    "ND",
    "MOSAIC",
    "PHASE"
],
  "ImagingFrequency": 123.26,
  "InPlanePhaseEncodingDirectionDICOM": "COL",
  "InstitutionAddress": "Chemin Queen-Mary 4565,Montreal,District,CA,H3W 1W5",
  "InstitutionName": "IUGM",
  "InstitutionalDepartmentName": "Department",
  "MRAcquisitionType": "2D",
  "MagneticFieldStrength": 3,
  "Manufacturer": "Siemens",
  "ManufacturersModelName": "Prisma_fit",
  "MatrixCoilMode": "SENSE",
  "Modality": "MR",
  "MultibandAccelerationFactor": 4,
  "PartialFourier": 1,
  "PatientPosition": "HFS",
  "PercentPhaseFOV": 100,
  "PercentSampling": 100,
  "PhaseEncodingDirection": "j",
  "PhaseEncodingSteps": 104,
  "PhaseResolution": 1,
  "PixelBandwidth": 2290,
  "ProcedureStepDescription": "games^mario3",
  "ProtocolName": "func_task-mario3_run-01",
  "PulseSequenceDetails": "%CustomerSeq%\\cmrr_mbep2d_bold",
  "ReceiveCoilActiveElements": "HC1-7;NC1,2",
  "ReceiveCoilName": "HeadNeck_64",
  "ReconMatrixPE": 104,
  "RepetitionTime": 1.49,
  "SAR": 0.063618,
  "ScanOptions": "FS",
  "ScanningSequence": "EP",
  "SequenceName": "epfid2d1_104",
  "SequenceVariant": "SK\\SS",
  "SeriesDescription": "func_task-mario3_run-01",
  "SeriesNumber": 11,
  "ShimSetting": [626, -7221, -8773, 700, 80, 2, 26, 7],
  "SliceThickness": 2,
  "SliceTiming": [0, 0.785, 0.0975, 0.8825, 0.1975, 0.98, 0.295, 1.0775, 0.3925, 1.1775, 0.49, 1.275, 0.5875, 1.3725, 0.6875, 0, 0.785, 0.0975, 0.8825, 0.1975, 0.98, 0.295, 1.0775, 0.3925, 1.1775, 0.49, 1.275, 0.5875, 1.3725, 0.6875, 0, 0.785, 0.0975, 0.8825, 0.1975, 0.98, 0.295, 1.0775, 0.3925, 1.1775, 0.49, 1.275, 0.5875, 1.3725, 0.6875, 0, 0.785, 0.0975, 0.8825, 0.1975, 0.98, 0.295, 1.0775, 0.3925, 1.1775, 0.49, 1.275, 0.5875, 1.3725, 0.6875],
  "SoftwareVersions": "syngo MR E11",
  "SpacingBetweenSlices": 2,
  "StationName": "MRC35049",
  "TaskName": "mario3",
  "TotalReadoutTime": 0.0576811,
  "TxRefAmp": 235.411,
  "WipMemBlock": "c0807dce-ca47-4b0a-93ee-fe9f6201642b||Sequence: R017 ve11c/master r/75a17815+; Jun 28 2022 16:32:11 by eja",
  "dcmmeta_affine": [
    [-1.9997897148132324, -0.013961421325802803, 0.025421932339668274, 109.18267059326172],
    [-0.02016281895339489, 1.9293463230133057, -0.5265130996704102, -72.52210998535156],
    [0.02084842137992382, 0.526714026927948, 1.9292842149734497, -58.11174011230469],
    [0.0, 0.0, 0.0, 1.0]
],
  "dcmmeta_reorient_transform": [
    [0.0, -1.0, 0.0, 103.0],
    [1.0, 0.0, 0.0, 0.0],
    [0.0, 0.0, 1.0, 0.0],
    [0.0, 0.0, 0.0, 1.0]
],
  "dcmmeta_shape": [104, 104, 60, 308],
  "dcmmeta_slice_dim": 2,
  "dcmmeta_version": 0.6,
  "global": {
    "const": {
      "AcquisitionMatrix": [104, 0, 0, 104],
      "AngioFlag": "N",
      "BitsAllocated": 16,
      "BitsStored": 16,
      "BodyPartExamined": "BRAIN",
      "Columns": 832,
      "EchoNumbers": 1,
      "EchoTime": 37.0,
      "EchoTrainLength": 104,
      "FlipAngle": 52.0,
      "HighBit": 15,
      "ImageOrientationPatient": [0.99989484497648, 0.01008140972976, 0.01042421063263, -0.006980710753, 0.96467318559069, -0.2633570099308],
      "ImagePositionPatient": [-830.5861337325, -835.82191507297, 180.27488019955],
      "ImageType": [
        "ORIGINAL",
        "PRIMARY",
        "P",
        "MB",
        "ND",
        "MOSAIC"
],
      "ImagedNucleus": "1H",
      "ImagingFrequency": 123.260318,
      "InPlanePhaseEncodingDirection": "COL",
      "LargestImagePixelValue": 4095,
      "MRAcquisitionType": "2D",
      "MagneticFieldStrength": 3.0,
      "Manufacturer": "SIEMENS",
      "ManufacturerModelName": "Prisma_fit",
      "Modality": "MR",
      "NumberOfAverages": 1.0,
      "NumberOfPhaseEncodingSteps": 104,
      "PercentPhaseFieldOfView": 100.0,
      "PercentSampling": 100.0,
      "PerformedProcedureStepStartTime": "142903.650000",
      "PhotometricInterpretation": "MONOCHROME2",
      "PixelBandwidth": 2290.0,
      "PixelRepresentation": 0,
      "PixelSpacing": [2.0, 2.0],
      "ProtocolName": "func_task-mario3_run-01",
      "RepetitionTime": 1490.0,
      "RescaleIntercept": -4096.0,
      "RescaleSlope": 2.0,
      "RescaleType": "US",
      "Rows": 832,
      "SAR": 0.06361799417106,
      "SamplesPerPixel": 1,
      "ScanOptions": "FS",
      "ScanningSequence": "EP",
      "SequenceName": "epfid2d1_104",
      "SequenceVariant": [
        "SK",
        "SS"
],
      "SeriesDescription": "func_task-mario3_run-01",
      "SeriesNumber": 11,
      "SeriesTime": "143509.405000",
      "SliceLocation": -35.577297092978,
      "SliceThickness": 2.0,
      "SmallestImagePixelValue": 0,
      "SoftwareVersions": "syngo MR E11",
      "SpacingBetweenSlices": 1.999999965155,
      "SpecificCharacterSet": "ISO_IR 100",
      "StudyID": "1",
      "StudyTime": "142903.579000",
      "TransmitCoilName": "Body",
      "VariableFlipAngleFlag": "N",
      "WindowCenterWidthExplanation": "Algo1",
      "dBdt": 0.0},
    "slices": {}
  },
  "time": {
    "samples": {
      "AcquisitionNumber": [1, 2, 3, 4, 5, 6, 7, 8, 9, 10, 11, 12, 13, 14, 15, 16, 17, 18, 19, 20, 21, 22, 23, 24, 25, 26, 27, 28, 29, 30, 31, 32, 33, 34, 35, 36, 37, 38, 39, 40, 41, 42, 43, 44, 45, 46, 47, 48, 49, 50, 51, 52, 53, 54, 55, 56, 57, 58, 59, 60, 61, 62, 63, 64, 65, 66, 67, 68, 69, 70, 71, 72, 73, 74, 75, 76, 77, 78, 79, 80, 81, 82, 83, 84, 85, 86, 87, 88, 89, 90, 91, 92, 93, 94, 95, 96, 97, 98, 99, 100, 101, 102, 103, 104, 105, 106, 107, 108, 109, 110, 111, 112, 113, 114, 115, 116, 117, 118, 119, 120, 121, 122, 123, 124, 125, 126, 127, 128, 129, 130, 131, 132, 133, 134, 135, 136, 137, 138, 139, 140, 141, 142, 143, 144, 145, 146, 147, 148, 149, 150, 151, 152, 153, 154, 155, 156, 157, 158, 159, 160, 161, 162, 163, 164, 165, 166, 167, 168, 169, 170, 171, 172, 173, 174, 175, 176, 177, 178, 179, 180, 181, 182, 183, 184, 185, 186, 187, 188, 189, 190, 191, 192, 193, 194, 195, 196, 197, 198, 199, 200, 201, 202, 203, 204, 205, 206, 207, 208, 209, 210, 211, 212, 213, 214, 215, 216, 217, 218, 219, 220, 221, 222, 223, 224, 225, 226, 227, 228, 229, 230, 231, 232, 233, 234, 235, 236, 237, 238, 239, 240, 241, 242, 243, 244, 245, 246, 247, 248, 249, 250, 251, 252, 253, 254, 255, 256, 257, 258, 259, 260, 261, 262, 263, 264, 265, 266, 267, 268, 269, 270, 271, 272, 273, 274, 275, 276, 277, 278, 279, 280, 281, 282, 283, 284, 285, 286, 287, 288, 289, 290, 291, 292, 293, 294, 295, 296, 297, 298, 299, 300, 301, 302, 303, 304, 305, 306, 307, 308],
      "AcquisitionTime": ["143347.260000", "143348.750000", "143350.240000", "143351.730000", "143353.220000", "143354.710000", "143356.200000", "143357.690000", "143359.180000", "143400.670000", "143402.160000", "143403.650000", "143405.140000", "143406.630000", "143408.120000", "143409.610000", "143411.100000", "143412.590000", "143414.080000", "143415.570000", "143417.060000", "143418.550000", "143420.040000", "143421.530000", "143423.020000", "143424.510000", "143426.000000", "143427.490000", "143428.980000", "143430.470000", "143431.960000", "143433.450000", "143434.940000", "143436.430000", "143437.920000", "143439.410000", "143440.900000", "143442.390000", "143443.880000", "143445.370000", "143446.860000", "143448.350000", "143449.840000", "143451.330000", "143452.820000", "143454.310000", "143455.800000", "143457.290000", "143458.780000", "143500.270000", "143501.760000", "143503.250000", "143504.740000", "143506.230000", "143507.720000", "143509.210000", "143510.700000", "143512.190000", "143513.680000", "143515.170000", "143516.660000", "143518.150000", "143519.640000", "143521.130000", "143522.620000", "143524.110000", "143525.600000", "143527.090000", "143528.580000", "143530.070000", "143531.560000", "143533.050000", "143534.540000", "143536.030000", "143537.520000", "143539.010000", "143540.500000", "143541.990000", "143543.480000", "143544.970000", "143546.460000", "143547.950000", "143549.440000", "143550.930000", "143552.420000", "143553.910000", "143555.400000", "143556.890000", "143558.380000", "143559.870000", "143601.360000", "143602.850000", "143604.340000", "143605.830000", "143607.320000", "143608.810000", "143610.300000", "143611.790000", "143613.280000", "143614.770000", "143616.260000", "143617.750000", "143619.240000", "143620.730000", "143622.220000", "143623.710000", "143625.200000", "143626.690000", "143628.180000", "143629.670000", "143631.160000", "143632.650000", "143634.140000", "143635.630000", "143637.120000", "143638.610000", "143640.100000", "143641.590000", "143643.080000", "143644.570000", "143646.060000", "143647.550000", "143649.040000", "143650.530000", "143652.020000", "143653.510000", "143655.000000", "143656.490000", "143657.980000", "143659.470000", "143700.960000", "143702.450000", "143703.940000", "143705.430000", "143706.920000", "143708.410000", "143709.900000", "143711.390000", "143712.880000", "143714.370000", "143715.860000", "143717.350000", "143718.840000", "143720.330000", "143721.820000", "143723.310000", "143724.800000", "143726.290000", "143727.780000", "143729.270000", "143730.760000", "143732.250000", "143733.740000", "143735.230000", "143736.720000", "143738.210000", "143739.700000", "143741.190000", "143742.680000", "143744.170000", "143745.660000", "143747.150000", "143748.640000", "143750.130000", "143751.620000", "143753.110000", "143754.600000", "143756.090000", "143757.580000", "143759.070000", "143800.560000", "143802.050000", "143803.540000", "143805.030000", "143806.520000", "143808.010000", "143809.500000", "143810.990000", "143812.480000", "143813.970000", "143815.460000", "143816.950000", "143818.440000", "143819.930000", "143821.420000", "143822.910000", "143824.400000", "143825.890000", "143827.380000", "143828.870000", "143830.360000", "143831.850000", "143833.340000", "143834.830000", "143836.320000", "143837.810000", "143839.300000", "143840.790000", "143842.280000", "143843.770000", "143845.260000", "143846.750000", "143848.240000", "143849.730000", "143851.220000", "143852.710000", "143854.200000", "143855.690000", "143857.180000", "143858.670000", "143900.160000", "143901.650000", "143903.140000", "143904.630000", "143906.120000", "143907.610000", "143909.100000", "143910.590000", "143912.080000", "143913.570000", "143915.060000", "143916.550000", "143918.040000", "143919.530000", "143921.020000", "143922.510000", "143924.000000", "143925.490000", "143926.980000", "143928.470000", "143929.960000", "143931.450000", "143932.940000", "143934.430000", "143935.920000", "143937.410000", "143938.900000", "143940.390000", "143941.880000", "143943.370000", "143944.860000", "143946.350000", "143947.840000", "143949.330000", "143950.820000", "143952.310000", "143953.800000", "143955.290000", "143956.780000", "143958.270000", "143959.760000", "144001.250000", "144002.740000", "144004.230000", "144005.720000", "144007.210000", "144008.700000", "144010.190000", "144011.680000", "144013.170000", "144014.660000", "144016.150000", "144017.640000", "144019.130000", "144020.620000", "144022.110000", "144023.600000", "144025.090000", "144026.580000", "144028.070000", "144029.560000", "144031.050000", "144032.540000", "144034.030000", "144035.520000", "144037.010000", "144038.500000", "144039.990000", "144041.480000", "144042.970000", "144044.460000", "144045.950000", "144047.440000", "144048.930000", "144050.420000", "144051.910000", "144053.400000", "144054.890000", "144056.380000", "144057.870000", "144059.360000", "144100.850000", "144102.340000", "144103.830000", "144105.320000", "144106.810000", "144108.300000", "144109.790000", "144111.280000", "144112.770000", "144114.260000", "144115.750000", "144117.240000", "144118.730000", "144120.220000", "144121.710000", "144123.200000", "144124.690000"],
      "ContentTime": ["143509.408000", "143509.410000", "143509.413000", "143509.415000", "143509.418000", "143509.420000", "143509.423000", "143509.425000", "143509.428000", "143509.430000", "143509.433000", "143509.435000", "143509.438000", "143509.465000", "143509.468000", "143509.470000", "143509.473000", "143509.475000", "143509.478000", "143509.480000", "143509.483000", "143509.486000", "143509.488000", "143509.491000", "143509.493000", "143509.496000", "143509.498000", "143509.501000", "143509.505000", "143509.507000", "143509.510000", "143509.512000", "143509.515000", "143509.517000", "143529.371000", "143529.374000", "143529.376000", "143529.379000", "143529.381000", "143529.384000", "143529.386000", "143529.389000", "143529.391000", "143529.394000", "143529.396000", "143529.399000", "143529.401000", "143529.404000", "143529.406000", "143529.409000", "143529.411000", "143529.414000", "143529.416000", "143529.419000", "143549.325000", "143549.327000", "143549.330000", "143549.333000", "143549.335000", "143549.338000", "143549.340000", "143549.343000", "143549.345000", "143549.348000", "143549.350000", "143549.353000", "143549.355000", "143549.358000", "143549.360000", "143549.363000", "143549.365000", "143549.368000", "143549.370000", "143549.372000", "143549.375000", "143609.324000", "143609.326000", "143609.329000", "143609.332000", "143609.334000", "143609.337000", "143609.339000", "143609.342000", "143609.344000", "143609.347000", "143609.349000", "143609.351000", "143609.354000", "143609.356000", "143609.359000", "143609.361000", "143609.364000", "143609.367000", "143609.369000", "143609.371000", "143649.366000", "143649.369000", "143649.372000", "143649.374000", "143649.377000", "143649.379000", "143649.382000", "143649.384000", "143649.387000", "143649.389000", "143649.392000", "143649.394000", "143649.397000", "143649.399000", "143649.402000", "143649.404000", "143649.407000", "143649.409000", "143649.412000", "143649.414000", "143649.417000", "143649.419000", "143649.421000", "143649.424000", "143649.426000", "143649.429000", "143729.361000", "143729.364000", "143729.367000", "143729.369000", "143729.372000", "143729.374000", "143729.377000", "143729.379000", "143729.382000", "143729.384000", "143729.387000", "143729.389000", "143729.392000", "143729.394000", "143729.397000", "143729.399000", "143729.401000", "143729.405000", "143729.408000", "143729.410000", "143729.412000", "143729.415000", "143729.417000", "143729.420000", "143729.423000", "143729.425000", "143729.428000", "143749.292000", "143749.294000", "143749.297000", "143749.299000", "143749.302000", "143749.304000", "143749.307000", "143749.309000", "143749.319000", "143749.322000", "143749.324000", "143749.327000", "143749.329000", "143749.332000", "143829.392000", "143829.395000", "143829.397000", "143829.400000", "143829.402000", "143829.405000", "143829.408000", "143829.410000", "143829.413000", "143829.415000", "143829.418000", "143829.421000", "143829.423000", "143829.426000", "143829.428000", "143829.431000", "143829.433000", "143829.436000", "143829.438000", "143829.441000", "143829.443000", "143829.446000", "143829.448000", "143829.451000", "143829.453000", "143829.456000", "143829.458000", "143909.354000", "143909.358000", "143909.362000", "143909.365000", "143909.367000", "143909.370000", "143909.373000", "143909.376000", "143909.379000", "143909.381000", "143909.384000", "143909.387000", "143909.389000", "143909.392000", "143909.394000", "143909.397000", "143909.399000", "143909.402000", "143909.404000", "143909.407000", "143909.409000", "143909.412000", "143909.414000", "143909.417000", "143909.419000", "143909.422000", "143949.350000", "143949.353000", "143949.356000", "143949.358000", "143949.361000", "143949.363000", "143949.366000", "143949.368000", "143949.371000", "143949.373000", "143949.376000", "143949.378000", "143949.381000", "143949.384000", "143949.386000", "143949.389000", "143949.391000", "143949.394000", "143949.396000", "143949.399000", "143949.417000", "143949.420000", "143949.422000", "143949.425000", "143949.427000", "143949.430000", "143949.433000", "144029.348000", "144029.351000", "144029.354000", "144029.356000", "144029.359000", "144029.361000", "144029.364000", "144029.366000", "144029.369000", "144029.372000", "144029.374000", "144029.377000", "144029.379000", "144029.382000", "144029.384000", "144029.387000", "144029.390000", "144029.392000", "144029.395000", "144029.397000", "144029.400000", "144029.402000", "144029.405000", "144029.407000", "144029.410000", "144029.412000", "144029.415000", "144109.345000", "144109.348000", "144109.351000", "144109.353000", "144109.356000", "144109.358000", "144109.361000", "144109.363000", "144109.366000", "144109.368000", "144109.371000", "144109.373000", "144109.376000", "144109.378000", "144109.381000", "144109.383000", "144109.386000", "144109.388000", "144109.391000", "144109.393000", "144109.396000", "144109.398000", "144109.401000", "144109.403000", "144109.406000", "144109.408000", "144109.411000", "144127.941000", "144127.944000", "144127.946000", "144127.949000", "144127.952000", "144127.954000", "144127.957000", "144127.960000", "144127.963000", "144127.966000", "144127.969000", "144127.972000"],
      "InstanceCreationTime": ["143509.408000", "143509.410000", "143509.413000", "143509.415000", "143509.418000", "143509.420000", "143509.423000", "143509.425000", "143509.428000", "143509.430000", "143509.433000", "143509.435000", "143509.438000", "143509.465000", "143509.468000", "143509.470000", "143509.473000", "143509.475000", "143509.478000", "143509.480000", "143509.483000", "143509.486000", "143509.488000", "143509.491000", "143509.493000", "143509.496000", "143509.498000", "143509.501000", "143509.505000", "143509.507000", "143509.510000", "143509.512000", "143509.515000", "143509.517000", "143529.371000", "143529.374000", "143529.376000", "143529.379000", "143529.381000", "143529.384000", "143529.386000", "143529.389000", "143529.391000", "143529.394000", "143529.396000", "143529.399000", "143529.401000", "143529.404000", "143529.406000", "143529.409000", "143529.411000", "143529.414000", "143529.416000", "143529.419000", "143549.325000", "143549.327000", "143549.330000", "143549.333000", "143549.335000", "143549.338000", "143549.340000", "143549.343000", "143549.345000", "143549.348000", "143549.350000", "143549.353000", "143549.355000", "143549.358000", "143549.360000", "143549.363000", "143549.365000", "143549.368000", "143549.370000", "143549.372000", "143549.375000", "143609.324000", "143609.326000", "143609.329000", "143609.332000", "143609.334000", "143609.337000", "143609.339000", "143609.342000", "143609.344000", "143609.347000", "143609.349000", "143609.351000", "143609.354000", "143609.356000", "143609.359000", "143609.361000", "143609.364000", "143609.367000", "143609.369000", "143609.371000", "143649.366000", "143649.369000", "143649.372000", "143649.374000", "143649.377000", "143649.379000", "143649.382000", "143649.384000", "143649.387000", "143649.389000", "143649.392000", "143649.394000", "143649.397000", "143649.399000", "143649.402000", "143649.404000", "143649.407000", "143649.409000", "143649.412000", "143649.414000", "143649.417000", "143649.419000", "143649.421000", "143649.424000", "143649.426000", "143649.429000", "143729.361000", "143729.364000", "143729.367000", "143729.369000", "143729.372000", "143729.374000", "143729.377000", "143729.379000", "143729.382000", "143729.384000", "143729.387000", "143729.389000", "143729.392000", "143729.394000", "143729.397000", "143729.399000", "143729.401000", "143729.405000", "143729.408000", "143729.410000", "143729.412000", "143729.415000", "143729.417000", "143729.420000", "143729.423000", "143729.425000", "143729.428000", "143749.292000", "143749.294000", "143749.297000", "143749.299000", "143749.302000", "143749.304000", "143749.307000", "143749.309000", "143749.319000", "143749.322000", "143749.324000", "143749.327000", "143749.329000", "143749.332000", "143829.392000", "143829.395000", "143829.397000", "143829.400000", "143829.402000", "143829.405000", "143829.408000", "143829.410000", "143829.413000", "143829.415000", "143829.418000", "143829.421000", "143829.423000", "143829.426000", "143829.428000", "143829.431000", "143829.433000", "143829.436000", "143829.438000", "143829.441000", "143829.443000", "143829.446000", "143829.448000", "143829.451000", "143829.453000", "143829.456000", "143829.458000", "143909.354000", "143909.358000", "143909.362000", "143909.365000", "143909.367000", "143909.370000", "143909.373000", "143909.376000", "143909.379000", "143909.381000", "143909.384000", "143909.387000", "143909.389000", "143909.392000", "143909.394000", "143909.397000", "143909.399000", "143909.402000", "143909.404000", "143909.407000", "143909.409000", "143909.412000", "143909.414000", "143909.417000", "143909.419000", "143909.422000", "143949.350000", "143949.353000", "143949.356000", "143949.358000", "143949.361000", "143949.363000", "143949.366000", "143949.368000", "143949.371000", "143949.373000", "143949.376000", "143949.378000", "143949.381000", "143949.384000", "143949.386000", "143949.389000", "143949.391000", "143949.394000", "143949.396000", "143949.399000", "143949.417000", "143949.420000", "143949.422000", "143949.425000", "143949.427000", "143949.430000", "143949.433000", "144029.348000", "144029.351000", "144029.354000", "144029.356000", "144029.359000", "144029.361000", "144029.364000", "144029.366000", "144029.369000", "144029.372000", "144029.374000", "144029.377000", "144029.379000", "144029.382000", "144029.384000", "144029.387000", "144029.390000", "144029.392000", "144029.395000", "144029.397000", "144029.400000", "144029.402000", "144029.405000", "144029.407000", "144029.410000", "144029.412000", "144029.415000", "144109.345000", "144109.348000", "144109.351000", "144109.353000", "144109.356000", "144109.358000", "144109.361000", "144109.363000", "144109.366000", "144109.368000", "144109.371000", "144109.373000", "144109.376000", "144109.378000", "144109.381000", "144109.383000", "144109.386000", "144109.388000", "144109.391000", "144109.393000", "144109.396000", "144109.398000", "144109.401000", "144109.403000", "144109.406000", "144109.408000", "144109.411000", "144127.941000", "144127.944000", "144127.946000", "144127.949000", "144127.952000", "144127.954000", "144127.957000", "144127.960000", "144127.963000", "144127.966000", "144127.969000", "144127.972000"],
      "InstanceNumber": [1, 2, 3, 4, 5, 6, 7, 8, 9, 10, 11, 12, 13, 14, 15, 16, 17, 18, 19, 20, 21, 22, 23, 24, 25, 26, 27, 28, 29, 30, 31, 32, 33, 34, 35, 36, 37, 38, 39, 40, 41, 42, 43, 44, 45, 46, 47, 48, 49, 50, 51, 52, 53, 54, 55, 56, 57, 58, 59, 60, 61, 62, 63, 64, 65, 66, 67, 68, 69, 70, 71, 72, 73, 74, 75, 76, 77, 78, 79, 80, 81, 82, 83, 84, 85, 86, 87, 88, 89, 90, 91, 92, 93, 94, 95, 96, 97, 98, 99, 100, 101, 102, 103, 104, 105, 106, 107, 108, 109, 110, 111, 112, 113, 114, 115, 116, 117, 118, 119, 120, 121, 122, 123, 124, 125, 126, 127, 128, 129, 130, 131, 132, 133, 134, 135, 136, 137, 138, 139, 140, 141, 142, 143, 144, 145, 146, 147, 148, 149, 150, 151, 152, 153, 154, 155, 156, 157, 158, 159, 160, 161, 162, 163, 164, 165, 166, 167, 168, 169, 170, 171, 172, 173, 174, 175, 176, 177, 178, 179, 180, 181, 182, 183, 184, 185, 186, 187, 188, 189, 190, 191, 192, 193, 194, 195, 196, 197, 198, 199, 200, 201, 202, 203, 204, 205, 206, 207, 208, 209, 210, 211, 212, 213, 214, 215, 216, 217, 218, 219, 220, 221, 222, 223, 224, 225, 226, 227, 228, 229, 230, 231, 232, 233, 234, 235, 236, 237, 238, 239, 240, 241, 242, 243, 244, 245, 246, 247, 248, 249, 250, 251, 252, 253, 254, 255, 256, 257, 258, 259, 260, 261, 262, 263, 264, 265, 266, 267, 268, 269, 270, 271, 272, 273, 274, 275, 276, 277, 278, 279, 280, 281, 282, 283, 284, 285, 286, 287, 288, 289, 290, 291, 292, 293, 294, 295, 296, 297, 298, 299, 300, 301, 302, 303, 304, 305, 306, 307, 308],
      "WindowCenter": [4804.0, 4804.0, 4802.0, 4800.0, 4802.0, 4798.0, 4802.0, 4800.0, 4806.0, 4826.0, 4802.0, 4804.0, 4804.0, 4800.0, 4802.0, 4802.0, 4804.0, 4806.0, 4806.0, 4804.0, 4806.0, 4830.0, 4830.0, 4806.0, 4802.0, 4798.0, 4804.0, 4800.0, 4802.0, 4806.0, 4804.0, 4826.0, 4806.0, 4830.0, 4804.0, 4808.0, 4804.0, 4804.0, 4806.0, 4828.0, 4802.0, 4802.0, 4804.0, 4802.0, 4804.0, 4806.0, 4806.0, 4806.0, 4804.0, 4806.0, 4806.0, 4804.0, 4804.0, 4802.0, 4804.0, 4804.0, 4806.0, 4800.0, 4802.0, 4804.0, 4804.0, 4804.0, 4808.0, 4800.0, 4802.0, 4806.0, 4808.0, 4804.0, 4800.0, 4806.0, 4800.0, 4806.0, 4828.0, 4832.0, 4806.0, 4802.0, 4804.0, 4804.0, 4800.0, 4806.0, 4802.0, 4804.0, 4804.0, 4804.0, 4828.0, 4806.0, 4826.0, 4806.0, 4804.0, 4802.0, 4806.0, 4826.0, 4810.0, 4804.0, 4806.0, 4802.0, 4806.0, 4802.0, 4804.0, 4808.0, 4800.0, 4806.0, 4804.0, 4802.0, 4804.0, 4802.0, 4804.0, 4804.0, 4802.0, 4804.0, 4830.0, 4806.0, 4804.0, 4802.0, 4800.0, 4802.0, 4804.0, 4802.0, 4800.0, 4806.0, 4806.0, 4826.0, 4806.0, 4802.0, 4806.0, 4828.0, 4826.0, 4800.0, 4806.0, 4798.0, 4802.0, 4806.0, 4804.0, 4804.0, 4806.0, 4806.0, 4800.0, 4802.0, 4808.0, 4800.0, 4808.0, 4804.0, 4804.0, 4804.0, 4806.0, 4806.0, 4804.0, 4804.0, 4806.0, 4800.0, 4804.0, 4804.0, 4806.0, 4804.0, 4806.0, 4806.0, 4834.0, 4830.0, 4806.0, 4800.0, 4796.0, 4800.0, 4800.0, 4802.0, 4830.0, 4832.0, 4832.0, 4832.0, 4830.0, 4806.0, 4806.0, 4800.0, 4802.0, 4800.0, 4830.0, 4804.0, 4802.0, 4804.0, 4808.0, 4806.0, 4802.0, 4804.0, 4806.0, 4828.0, 4830.0, 4802.0, 4830.0, 4806.0, 4804.0, 4804.0, 4804.0, 4802.0, 4804.0, 4808.0, 4806.0, 4832.0, 4806.0, 4806.0, 4828.0, 4808.0, 4808.0, 4806.0, 4806.0, 4804.0, 4804.0, 4800.0, 4806.0, 4804.0, 4806.0, 4804.0, 4834.0, 4806.0, 4830.0, 4808.0, 4806.0, 4802.0, 4802.0, 4804.0, 4804.0, 4806.0, 4808.0, 4806.0, 4808.0, 4808.0, 4804.0, 4804.0, 4806.0, 4804.0, 4802.0, 4806.0, 4804.0, 4804.0, 4804.0, 4808.0, 4806.0, 4806.0, 4806.0, 4808.0, 4808.0, 4806.0, 4806.0, 4808.0, 4804.0, 4802.0, 4802.0, 4800.0, 4808.0, 4804.0, 4826.0, 4806.0, 4806.0, 4808.0, 4802.0, 4808.0, 4804.0, 4806.0, 4804.0, 4808.0, 4804.0, 4804.0, 4802.0, 4830.0, 4832.0, 4832.0, 4830.0, 4806.0, 4804.0, 4804.0, 4798.0, 4804.0, 4808.0, 4806.0, 4806.0, 4802.0, 4804.0, 4810.0, 4828.0, 4806.0, 4804.0, 4806.0, 4810.0, 4800.0, 4806.0, 4806.0, 4806.0, 4804.0, 4830.0, 4806.0, 4806.0, 4804.0, 4802.0, 4808.0, 4808.0, 4808.0, 4806.0, 4806.0, 4828.0, 4828.0, 4804.0, 4804.0, 4806.0, 4802.0, 4802.0, 4830.0, 4802.0, 4804.0, 4804.0, 4802.0],
      "WindowWidth": [18564.0, 18560.0, 18552.0, 18558.0, 18560.0, 18554.0, 18556.0, 18562.0, 18560.0, 18592.0, 18560.0, 18566.0, 18562.0, 18556.0, 18556.0, 18560.0, 18556.0, 18556.0, 18558.0, 18562.0, 18554.0, 18580.0, 18586.0, 18554.0, 18556.0, 18554.0, 18558.0, 18554.0, 18552.0, 18552.0, 18558.0, 18584.0, 18552.0, 18586.0, 18548.0, 18552.0, 18556.0, 18550.0, 18556.0, 18586.0, 18554.0, 18556.0, 18556.0, 18552.0, 18554.0, 18560.0, 18554.0, 18558.0, 18560.0, 18558.0, 18552.0, 18550.0, 18554.0, 18550.0, 18550.0, 18548.0, 18552.0, 18550.0, 18552.0, 18550.0, 18556.0, 18552.0, 18552.0, 18548.0, 18550.0, 18556.0, 18550.0, 18546.0, 18550.0, 18552.0, 18546.0, 18546.0, 18576.0, 18584.0, 18548.0, 18546.0, 18552.0, 18550.0, 18546.0, 18552.0, 18552.0, 18556.0, 18552.0, 18554.0, 18580.0, 18548.0, 18580.0, 18556.0, 18554.0, 18552.0, 18554.0, 18582.0, 18550.0, 18552.0, 18550.0, 18548.0, 18550.0, 18550.0, 18554.0, 18554.0, 18546.0, 18552.0, 18546.0, 18550.0, 18554.0, 18554.0, 18548.0, 18548.0, 18550.0, 18550.0, 18584.0, 18554.0, 18550.0, 18548.0, 18554.0, 18552.0, 18554.0, 18550.0, 18550.0, 18550.0, 18554.0, 18586.0, 18552.0, 18554.0, 18550.0, 18582.0, 18580.0, 18544.0, 18552.0, 18544.0, 18556.0, 18552.0, 18548.0, 18550.0, 18546.0, 18546.0, 18544.0, 18550.0, 18556.0, 18548.0, 18554.0, 18554.0, 18548.0, 18548.0, 18548.0, 18548.0, 18548.0, 18546.0, 18550.0, 18550.0, 18556.0, 18552.0, 18548.0, 18548.0, 18550.0, 18554.0, 18578.0, 18576.0, 18554.0, 18554.0, 18554.0, 18560.0, 18558.0, 18554.0, 18580.0, 18584.0, 18578.0, 18584.0, 18584.0, 18554.0, 18552.0, 18554.0, 18552.0, 18552.0, 18584.0, 18546.0, 18554.0, 18552.0, 18554.0, 18558.0, 18556.0, 18556.0, 18552.0, 18586.0, 18584.0, 18550.0, 18576.0, 18552.0, 18548.0, 18556.0, 18548.0, 18550.0, 18550.0, 18550.0, 18548.0, 18580.0, 18552.0, 18550.0, 18580.0, 18554.0, 18554.0, 18548.0, 18552.0, 18558.0, 18556.0, 18558.0, 18558.0, 18552.0, 18554.0, 18548.0, 18576.0, 18542.0, 18582.0, 18548.0, 18552.0, 18550.0, 18548.0, 18556.0, 18546.0, 18554.0, 18548.0, 18548.0, 18546.0, 18546.0, 18552.0, 18550.0, 18550.0, 18548.0, 18542.0, 18550.0, 18544.0, 18552.0, 18550.0, 18556.0, 18552.0, 18552.0, 18552.0, 18554.0, 18552.0, 18548.0, 18552.0, 18552.0, 18550.0, 18548.0, 18552.0, 18550.0, 18550.0, 18544.0, 18578.0, 18548.0, 18548.0, 18552.0, 18546.0, 18552.0, 18552.0, 18552.0, 18550.0, 18556.0, 18548.0, 18548.0, 18540.0, 18582.0, 18576.0, 18580.0, 18576.0, 18552.0, 18548.0, 18546.0, 18546.0, 18552.0, 18550.0, 18544.0, 18548.0, 18546.0, 18550.0, 18556.0, 18584.0, 18552.0, 18546.0, 18544.0, 18548.0, 18546.0, 18550.0, 18544.0, 18550.0, 18556.0, 18580.0, 18548.0, 18554.0, 18556.0, 18548.0, 18558.0, 18556.0, 18550.0, 18554.0, 18558.0, 18588.0, 18586.0, 18554.0, 18550.0, 18550.0, 18550.0, 18552.0, 18578.0, 18554.0, 18560.0, 18566.0, 18556.0]
    },
    "slices": {}
  }
}