{
  "AcquisitionMatrixPE": 104,
  "AcquisitionNumber": 1,
  "AcquisitionTime": "11:38:8.240000",
  "BandwidthPerPixelPhaseEncode": 17.17,
  "BaseResolution": 104,
  "BodyPartExamined": "BRAIN",
  "CoilCombinationMethod": "Sum of Squares",
  "ConsistencyInfo": "N4_VE11C_LATEST_20160120",
  "ConversionSoftware": "dcm2niix",
  "ConversionSoftwareVersion": "v1.0.20220505",
  "DerivedVendorReportedEchoSpacing": 0.000560011,
  "DeviceSerialNumber": "167006",
  "DwellTime": 2.1e-06,
  "EchoTime": 0.037,
  "EchoTime1": 0.037,
  "EchoTime2": 0.001,
  "EchoTrainLength": 104,
  "EffectiveEchoSpacing": 0.000560011,
  "FlipAngle": 52,
  "HeudiconvVersion": "0.5.3.post811+g6206e14",
  "ImageComments": "Unaliased MB4/PE3/LB",
  "ImageOrientationPatientDICOM": [0.999348, 0.0113317, 0.0342759, 0.00889558, 0.842886, -0.538019],
  "ImageOrientationText": "Tra>Cor(-32.6)>Sag(2.0)",
  "ImageType": [
    "ORIGINAL",
    "PRIMARY",
    "P",
    "MB",
    "ND",
    "MOSAIC",
    "PHASE"
],
  "ImagingFrequency": 123.259,
  "InPlanePhaseEncodingDirectionDICOM": "COL",
  "InstitutionAddress": "Chemin Queen-Mary 4565,Montreal,District,CA,H3W 1W5",
  "InstitutionName": "IUGM",
  "InstitutionalDepartmentName": "Department",
  "MRAcquisitionType": "2D",
  "MagneticFieldStrength": 3,
  "Manufacturer": "Siemens",
  "ManufacturersModelName": "Prisma_fit",
  "MatrixCoilMode": "SENSE",
  "Modality": "MR",
  "MultibandAccelerationFactor": 4,
  "PartialFourier": 1,
  "PatientPosition": "HFS",
  "PercentPhaseFOV": 100,
  "PercentSampling": 100,
  "PhaseEncodingDirection": "j",
  "PhaseEncodingSteps": 104,
  "PhaseResolution": 1,
  "PixelBandwidth": 2290,
  "ProcedureStepDescription": "games^mario3",
  "ProtocolName": "func_task-mario3_run-02",
  "PulseSequenceDetails": "%CustomerSeq%\\cmrr_mbep2d_bold",
  "ReceiveCoilActiveElements": "HC1-7;NC1,2",
  "ReceiveCoilName": "HeadNeck_64",
  "ReconMatrixPE": 104,
  "RepetitionTime": 1.49,
  "SAR": 0.0560539,
  "ScanOptions": "FS",
  "ScanningSequence": "EP",
  "SequenceName": "epfid2d1_104",
  "SequenceVariant": "SK\\SS",
  "SeriesDescription": "func_task-mario3_run-02",
  "SeriesNumber": 14,
  "ShimSetting": [625, -7183, -8879, 232, 8, -217, 1, 26],
  "SliceThickness": 2,
  "SliceTiming": [0, 0.7825, 0.0975, 0.88, 0.195, 0.98, 0.2925, 1.0775, 0.39, 1.175, 0.49, 1.2725, 0.5875, 1.37, 0.685, 0, 0.7825, 0.0975, 0.88, 0.195, 0.98, 0.2925, 1.0775, 0.39, 1.175, 0.49, 1.2725, 0.5875, 1.37, 0.685, 0, 0.7825, 0.0975, 0.88, 0.195, 0.98, 0.2925, 1.0775, 0.39, 1.175, 0.49, 1.2725, 0.5875, 1.37, 0.685, 0, 0.7825, 0.0975, 0.88, 0.195, 0.98, 0.2925, 1.0775, 0.39, 1.175, 0.49, 1.2725, 0.5875, 1.37, 0.685],
  "SoftwareVersions": "syngo MR E11",
  "SpacingBetweenSlices": 2,
  "StationName": "MRC35049",
  "TaskName": "mario3",
  "TotalReadoutTime": 0.0576811,
  "TxRefAmp": 275.739,
  "WipMemBlock": "4ae2897e-d921-4223-8195-e239ba45da13||Sequence: R017 ve11c/master r/75a17815+; Jun 28 2022 16:32:11 by eja",
  "dcmmeta_affine": [
    [-1.9986963272094727, 0.017791157588362694, 0.06997464597225189, 104.50016021728516],
    [-0.02266332507133484, 1.6857718229293823, -1.0759458541870117, -46.75326156616211],
    [0.06855180859565735, 1.0760375261306763, 1.6844713687896729, -96.80511474609375],
    [0.0, 0.0, 0.0, 1.0]
],
  "dcmmeta_reorient_transform": [
    [0.0, -1.0, 0.0, 103.0],
    [1.0, 0.0, 0.0, 0.0],
    [0.0, 0.0, 1.0, 0.0],
    [0.0, 0.0, 0.0, 1.0]
],
  "dcmmeta_shape": [104, 104, 60, 314],
  "dcmmeta_slice_dim": 2,
  "dcmmeta_version": 0.6,
  "global": {
    "const": {
      "AcquisitionMatrix": [104, 0, 0, 104],
      "AngioFlag": "N",
      "BitsAllocated": 16,
      "BitsStored": 16,
      "BodyPartExamined": "BRAIN",
      "Columns": 832,
      "EchoNumbers": 1,
      "EchoTime": 37.0,
      "EchoTrainLength": 104,
      "FlipAngle": 52.0,
      "HighBit": 15,
      "ImageOrientationPatient": [0.99934816550407, 0.01133166228179, 0.03427590310381, 0.00889557859011, 0.84288592648711, -0.5380187576763],
      "ImagePositionPatient": [-840.33409361026, -748.75164402418, 380.75154813784],
      "ImageType": [
        "ORIGINAL",
        "PRIMARY",
        "P",
        "MB",
        "ND",
        "MOSAIC"
],
      "ImagedNucleus": "1H",
      "ImagingFrequency": 123.258798,
      "InPlanePhaseEncodingDirection": "COL",
      "LargestImagePixelValue": 4095,
      "MRAcquisitionType": "2D",
      "MagneticFieldStrength": 3.0,
      "Manufacturer": "SIEMENS",
      "ManufacturerModelName": "Prisma_fit",
      "Modality": "MR",
      "NumberOfAverages": 1.0,
      "NumberOfPhaseEncodingSteps": 104,
      "PercentPhaseFieldOfView": 100.0,
      "PercentSampling": 100.0,
      "PerformedProcedureStepStartTime": "111300.243000",
      "PhotometricInterpretation": "MONOCHROME2",
      "PixelBandwidth": 2290.0,
      "PixelRepresentation": 0,
      "PixelSpacing": [2.0, 2.0],
      "ProtocolName": "func_task-mario3_run-02",
      "RepetitionTime": 1490.0,
      "RescaleIntercept": -4096.0,
      "RescaleSlope": 2.0,
      "RescaleType": "US",
      "Rows": 832,
      "SAR": 0.05605394005105,
      "SamplesPerPixel": 1,
      "ScanOptions": "FS",
      "ScanningSequence": "EP",
      "SequenceName": "epfid2d1_104",
      "SequenceVariant": [
        "SK",
        "SS"
],
      "SeriesDescription": "func_task-mario3_run-02",
      "SeriesNumber": 14,
      "SeriesTime": "113922.369000",
      "SliceLocation": -52.724551873445,
      "SliceThickness": 2.0,
      "SmallestImagePixelValue": 0,
      "SoftwareVersions": "syngo MR E11",
      "SpacingBetweenSlices": 1.999999973689,
      "SpecificCharacterSet": "ISO_IR 100",
      "StudyID": "1",
      "StudyTime": "111300.163000",
      "TransmitCoilName": "Body",
      "VariableFlipAngleFlag": "N",
      "WindowCenterWidthExplanation": "Algo1",
      "dBdt": 0.0},
    "slices": {}
  },
  "time": {
    "samples": {
      "AcquisitionNumber": [1, 2, 3, 4, 5, 6, 7, 8, 9, 10, 11, 12, 13, 14, 15, 16, 17, 18, 19, 20, 21, 22, 23, 24, 25, 26, 27, 28, 29, 30, 31, 32, 33, 34, 35, 36, 37, 38, 39, 40, 41, 42, 43, 44, 45, 46, 47, 48, 49, 50, 51, 52, 53, 54, 55, 56, 57, 58, 59, 60, 61, 62, 63, 64, 65, 66, 67, 68, 69, 70, 71, 72, 73, 74, 75, 76, 77, 78, 79, 80, 81, 82, 83, 84, 85, 86, 87, 88, 89, 90, 91, 92, 93, 94, 95, 96, 97, 98, 99, 100, 101, 102, 103, 104, 105, 106, 107, 108, 109, 110, 111, 112, 113, 114, 115, 116, 117, 118, 119, 120, 121, 122, 123, 124, 125, 126, 127, 128, 129, 130, 131, 132, 133, 134, 135, 136, 137, 138, 139, 140, 141, 142, 143, 144, 145, 146, 147, 148, 149, 150, 151, 152, 153, 154, 155, 156, 157, 158, 159, 160, 161, 162, 163, 164, 165, 166, 167, 168, 169, 170, 171, 172, 173, 174, 175, 176, 177, 178, 179, 180, 181, 182, 183, 184, 185, 186, 187, 188, 189, 190, 191, 192, 193, 194, 195, 196, 197, 198, 199, 200, 201, 202, 203, 204, 205, 206, 207, 208, 209, 210, 211, 212, 213, 214, 215, 216, 217, 218, 219, 220, 221, 222, 223, 224, 225, 226, 227, 228, 229, 230, 231, 232, 233, 234, 235, 236, 237, 238, 239, 240, 241, 242, 243, 244, 245, 246, 247, 248, 249, 250, 251, 252, 253, 254, 255, 256, 257, 258, 259, 260, 261, 262, 263, 264, 265, 266, 267, 268, 269, 270, 271, 272, 273, 274, 275, 276, 277, 278, 279, 280, 281, 282, 283, 284, 285, 286, 287, 288, 289, 290, 291, 292, 293, 294, 295, 296, 297, 298, 299, 300, 301, 302, 303, 304, 305, 306, 307, 308, 309, 310, 311, 312, 313, 314],
      "AcquisitionTime": ["113808.240000", "113809.730000", "113811.220000", "113812.710000", "113814.200000", "113815.690000", "113817.180000", "113818.670000", "113820.160000", "113821.650000", "113823.140000", "113824.630000", "113826.120000", "113827.610000", "113829.100000", "113830.590000", "113832.080000", "113833.570000", "113835.060000", "113836.550000", "113838.040000", "113839.530000", "113841.020000", "113842.510000", "113844.000000", "113845.490000", "113846.980000", "113848.470000", "113849.960000", "113851.450000", "113852.940000", "113854.430000", "113855.920000", "113857.410000", "113858.900000", "113900.390000", "113901.880000", "113903.370000", "113904.860000", "113906.350000", "113907.840000", "113909.330000", "113910.820000", "113912.310000", "113913.800000", "113915.290000", "113916.780000", "113918.270000", "113919.760000", "113921.250000", "113922.740000", "113924.230000", "113925.720000", "113927.210000", "113928.700000", "113930.190000", "113931.680000", "113933.170000", "113934.660000", "113936.150000", "113937.640000", "113939.130000", "113940.620000", "113942.110000", "113943.600000", "113945.090000", "113946.580000", "113948.070000", "113949.560000", "113951.050000", "113952.540000", "113954.030000", "113955.520000", "113957.010000", "113958.500000", "113959.990000", "114001.480000", "114002.970000", "114004.460000", "114005.950000", "114007.440000", "114008.930000", "114010.420000", "114011.910000", "114013.400000", "114014.890000", "114016.380000", "114017.870000", "114019.360000", "114020.850000", "114022.340000", "114023.830000", "114025.320000", "114026.810000", "114028.300000", "114029.790000", "114031.280000", "114032.770000", "114034.260000", "114035.750000", "114037.240000", "114038.730000", "114040.220000", "114041.710000", "114043.200000", "114044.690000", "114046.180000", "114047.670000", "114049.160000", "114050.650000", "114052.140000", "114053.630000", "114055.120000", "114056.610000", "114058.100000", "114059.590000", "114101.080000", "114102.570000", "114104.060000", "114105.550000", "114107.040000", "114108.530000", "114110.020000", "114111.510000", "114113.000000", "114114.490000", "114115.980000", "114117.470000", "114118.960000", "114120.450000", "114121.940000", "114123.430000", "114124.920000", "114126.410000", "114127.900000", "114129.390000", "114130.880000", "114132.370000", "114133.860000", "114135.350000", "114136.840000", "114138.330000", "114139.820000", "114141.310000", "114142.800000", "114144.290000", "114145.780000", "114147.270000", "114148.760000", "114150.250000", "114151.740000", "114153.230000", "114154.720000", "114156.210000", "114157.700000", "114159.190000", "114200.680000", "114202.170000", "114203.660000", "114205.150000", "114206.640000", "114208.130000", "114209.620000", "114211.110000", "114212.600000", "114214.090000", "114215.580000", "114217.070000", "114218.560000", "114220.050000", "114221.540000", "114223.030000", "114224.520000", "114226.010000", "114227.500000", "114228.990000", "114230.480000", "114231.970000", "114233.460000", "114234.950000", "114236.440000", "114237.930000", "114239.420000", "114240.910000", "114242.400000", "114243.890000", "114245.380000", "114246.870000", "114248.360000", "114249.850000", "114251.340000", "114252.830000", "114254.320000", "114255.810000", "114257.300000", "114258.790000", "114300.280000", "114301.770000", "114303.260000", "114304.750000", "114306.240000", "114307.730000", "114309.220000", "114310.710000", "114312.200000", "114313.690000", "114315.180000", "114316.670000", "114318.160000", "114319.650000", "114321.140000", "114322.630000", "114324.120000", "114325.610000", "114327.100000", "114328.590000", "114330.080000", "114331.570000", "114333.060000", "114334.550000", "114336.040000", "114337.530000", "114339.020000", "114340.510000", "114342.000000", "114343.490000", "114344.980000", "114346.470000", "114347.960000", "114349.450000", "114350.940000", "114352.430000", "114353.920000", "114355.410000", "114356.900000", "114358.390000", "114359.880000", "114401.370000", "114402.860000", "114404.350000", "114405.840000", "114407.330000", "114408.820000", "114410.310000", "114411.800000", "114413.290000", "114414.780000", "114416.270000", "114417.760000", "114419.250000", "114420.740000", "114422.230000", "114423.720000", "114425.210000", "114426.700000", "114428.190000", "114429.680000", "114431.170000", "114432.660000", "114434.150000", "114435.640000", "114437.130000", "114438.620000", "114440.110000", "114441.600000", "114443.090000", "114444.580000", "114446.070000", "114447.560000", "114449.050000", "114450.540000", "114452.030000", "114453.520000", "114455.010000", "114456.500000", "114457.990000", "114459.480000", "114500.970000", "114502.460000", "114503.950000", "114505.440000", "114506.930000", "114508.420000", "114509.910000", "114511.400000", "114512.890000", "114514.380000", "114515.870000", "114517.360000", "114518.850000", "114520.340000", "114521.830000", "114523.320000", "114524.810000", "114526.300000", "114527.790000", "114529.280000", "114530.770000", "114532.260000", "114533.750000", "114535.240000", "114536.730000", "114538.220000", "114539.710000", "114541.200000", "114542.690000", "114544.180000", "114545.670000", "114547.160000", "114548.650000", "114550.140000", "114551.630000", "114553.120000", "114554.610000"],
      "ContentTime": ["113922.371000", "113922.374000", "113922.378000", "113922.381000", "113922.384000", "113922.386000", "113922.389000", "113922.392000", "113922.410000", "113922.412000", "113922.415000", "113922.417000", "113922.420000", "113922.423000", "113922.425000", "113922.428000", "113922.431000", "113922.433000", "113922.436000", "113922.438000", "113922.441000", "113922.443000", "113922.446000", "113922.449000", "113942.340000", "113942.342000", "113942.345000", "113942.347000", "113942.350000", "113942.353000", "113942.355000", "113942.358000", "113942.360000", "113942.363000", "113942.365000", "113942.368000", "113942.371000", "113942.373000", "113942.376000", "113942.378000", "113942.381000", "113942.384000", "113942.386000", "113942.389000", "113942.398000", "114002.333000", "114002.335000", "114002.338000", "114002.341000", "114002.343000", "114002.356000", "114002.358000", "114002.361000", "114002.363000", "114002.366000", "114002.369000", "114002.371000", "114002.374000", "114002.376000", "114002.379000", "114002.381000", "114002.384000", "114002.387000", "114002.389000", "114002.392000", "114022.326000", "114022.328000", "114022.331000", "114022.334000", "114022.336000", "114022.348000", "114022.350000", "114022.353000", "114022.355000", "114022.358000", "114022.361000", "114022.363000", "114022.366000", "114022.368000", "114022.371000", "114022.373000", "114022.376000", "114022.379000", "114022.381000", "114022.384000", "114102.391000", "114102.394000", "114102.396000", "114102.399000", "114102.402000", "114102.404000", "114102.407000", "114102.409000", "114102.412000", "114102.414000", "114102.417000", "114102.420000", "114102.422000", "114102.425000", "114102.427000", "114102.430000", "114102.432000", "114102.435000", "114102.438000", "114102.440000", "114102.443000", "114102.445000", "114102.448000", "114102.451000", "114102.453000", "114102.456000", "114102.458000", "114102.461000", "114102.464000", "114102.466000", "114102.469000", "114142.359000", "114142.362000", "114142.365000", "114142.367000", "114142.370000", "114142.372000", "114142.375000", "114142.378000", "114142.380000", "114142.383000", "114142.385000", "114142.388000", "114142.390000", "114142.393000", "114142.395000", "114142.398000", "114142.401000", "114142.403000", "114142.406000", "114142.408000", "114142.411000", "114142.413000", "114142.416000", "114142.419000", "114142.421000", "114142.424000", "114142.426000", "114222.355000", "114222.358000", "114222.361000", "114222.363000", "114222.366000", "114222.368000", "114222.371000", "114222.374000", "114222.383000", "114222.386000", "114222.389000", "114222.391000", "114222.394000", "114222.396000", "114222.399000", "114222.401000", "114222.404000", "114222.407000", "114222.409000", "114222.412000", "114222.414000", "114222.417000", "114222.419000", "114222.422000", "114222.425000", "114222.427000", "114222.430000", "114302.352000", "114302.355000", "114302.358000", "114302.360000", "114302.363000", "114302.365000", "114302.368000", "114302.371000", "114302.373000", "114302.376000", "114302.378000", "114302.381000", "114302.384000", "114302.386000", "114302.389000", "114302.391000", "114302.394000", "114302.397000", "114302.399000", "114302.402000", "114302.405000", "114302.407000", "114302.410000", "114302.413000", "114302.415000", "114302.418000", "114322.299000", "114322.302000", "114322.305000", "114322.307000", "114322.310000", "114322.312000", "114322.315000", "114322.318000", "114322.320000", "114322.323000", "114322.325000", "114322.328000", "114322.330000", "114322.333000", "114402.347000", "114402.350000", "114402.353000", "114402.355000", "114402.358000", "114402.360000", "114402.363000", "114402.365000", "114402.368000", "114402.371000", "114402.373000", "114402.376000", "114402.378000", "114402.381000", "114402.383000", "114402.386000", "114402.389000", "114402.391000", "114402.394000", "114402.396000", "114402.399000", "114402.401000", "114402.404000", "114402.407000", "114402.409000", "114402.412000", "114402.414000", "114442.366000", "114442.369000", "114442.372000", "114442.374000", "114442.377000", "114442.379000", "114442.382000", "114442.385000", "114442.387000", "114442.390000", "114442.392000", "114442.395000", "114442.398000", "114442.400000", "114442.403000", "114442.405000", "114442.408000", "114442.410000", "114442.413000", "114442.415000", "114442.418000", "114442.421000", "114442.423000", "114442.426000", "114442.428000", "114442.431000", "114522.364000", "114522.367000", "114522.369000", "114522.372000", "114522.375000", "114522.377000", "114522.380000", "114522.382000", "114522.385000", "114522.387000", "114522.390000", "114522.393000", "114522.395000", "114522.398000", "114522.401000", "114522.403000", "114522.406000", "114522.408000", "114522.411000", "114522.413000", "114522.416000", "114522.419000", "114522.421000", "114522.424000", "114522.426000", "114522.429000", "114522.431000", "114558.084000", "114558.087000", "114558.089000", "114558.092000", "114558.095000", "114558.097000", "114558.100000", "114558.103000", "114558.106000", "114558.109000", "114558.112000", "114558.114000", "114558.117000", "114558.120000", "114558.123000", "114558.126000", "114558.129000", "114558.131000", "114558.134000", "114558.136000", "114558.139000", "114558.142000", "114558.144000", "114558.147000"],
      "InstanceCreationTime": ["113922.371000", "113922.374000", "113922.378000", "113922.381000", "113922.384000", "113922.386000", "113922.389000", "113922.392000", "113922.410000", "113922.412000", "113922.415000", "113922.417000", "113922.420000", "113922.423000", "113922.425000", "113922.428000", "113922.431000", "113922.433000", "113922.436000", "113922.438000", "113922.441000", "113922.443000", "113922.446000", "113922.449000", "113942.340000", "113942.342000", "113942.345000", "113942.347000", "113942.350000", "113942.353000", "113942.355000", "113942.358000", "113942.360000", "113942.363000", "113942.365000", "113942.368000", "113942.371000", "113942.373000", "113942.376000", "113942.378000", "113942.381000", "113942.384000", "113942.386000", "113942.389000", "113942.398000", "114002.333000", "114002.335000", "114002.338000", "114002.341000", "114002.343000", "114002.356000", "114002.358000", "114002.361000", "114002.363000", "114002.366000", "114002.369000", "114002.371000", "114002.374000", "114002.376000", "114002.379000", "114002.381000", "114002.384000", "114002.387000", "114002.389000", "114002.392000", "114022.326000", "114022.328000", "114022.331000", "114022.334000", "114022.336000", "114022.348000", "114022.350000", "114022.353000", "114022.355000", "114022.358000", "114022.361000", "114022.363000", "114022.366000", "114022.368000", "114022.371000", "114022.373000", "114022.376000", "114022.379000", "114022.381000", "114022.384000", "114102.391000", "114102.394000", "114102.396000", "114102.399000", "114102.402000", "114102.404000", "114102.407000", "114102.409000", "114102.412000", "114102.414000", "114102.417000", "114102.420000", "114102.422000", "114102.425000", "114102.427000", "114102.430000", "114102.432000", "114102.435000", "114102.438000", "114102.440000", "114102.443000", "114102.445000", "114102.448000", "114102.451000", "114102.453000", "114102.456000", "114102.458000", "114102.461000", "114102.464000", "114102.466000", "114102.469000", "114142.359000", "114142.362000", "114142.365000", "114142.367000", "114142.370000", "114142.372000", "114142.375000", "114142.378000", "114142.380000", "114142.383000", "114142.385000", "114142.388000", "114142.390000", "114142.393000", "114142.395000", "114142.398000", "114142.401000", "114142.403000", "114142.406000", "114142.408000", "114142.411000", "114142.413000", "114142.416000", "114142.419000", "114142.421000", "114142.424000", "114142.426000", "114222.355000", "114222.358000", "114222.361000", "114222.363000", "114222.366000", "114222.368000", "114222.371000", "114222.374000", "114222.383000", "114222.386000", "114222.389000", "114222.391000", "114222.394000", "114222.396000", "114222.399000", "114222.401000", "114222.404000", "114222.407000", "114222.409000", "114222.412000", "114222.414000", "114222.417000", "114222.419000", "114222.422000", "114222.425000", "114222.427000", "114222.430000", "114302.352000", "114302.355000", "114302.358000", "114302.360000", "114302.363000", "114302.365000", "114302.368000", "114302.371000", "114302.373000", "114302.376000", "114302.378000", "114302.381000", "114302.384000", "114302.386000", "114302.389000", "114302.391000", "114302.394000", "114302.397000", "114302.399000", "114302.402000", "114302.405000", "114302.407000", "114302.410000", "114302.413000", "114302.415000", "114302.418000", "114322.299000", "114322.302000", "114322.305000", "114322.307000", "114322.310000", "114322.312000", "114322.315000", "114322.318000", "114322.320000", "114322.323000", "114322.325000", "114322.328000", "114322.330000", "114322.333000", "114402.347000", "114402.350000", "114402.353000", "114402.355000", "114402.358000", "114402.360000", "114402.363000", "114402.365000", "114402.368000", "114402.371000", "114402.373000", "114402.376000", "114402.378000", "114402.381000", "114402.383000", "114402.386000", "114402.389000", "114402.391000", "114402.394000", "114402.396000", "114402.399000", "114402.401000", "114402.404000", "114402.407000", "114402.409000", "114402.412000", "114402.414000", "114442.366000", "114442.369000", "114442.372000", "114442.374000", "114442.377000", "114442.379000", "114442.382000", "114442.385000", "114442.387000", "114442.390000", "114442.392000", "114442.395000", "114442.398000", "114442.400000", "114442.403000", "114442.405000", "114442.408000", "114442.410000", "114442.413000", "114442.415000", "114442.418000", "114442.421000", "114442.423000", "114442.426000", "114442.428000", "114442.431000", "114522.364000", "114522.367000", "114522.369000", "114522.372000", "114522.375000", "114522.377000", "114522.380000", "114522.382000", "114522.385000", "114522.387000", "114522.390000", "114522.393000", "114522.395000", "114522.398000", "114522.401000", "114522.403000", "114522.406000", "114522.408000", "114522.411000", "114522.413000", "114522.416000", "114522.419000", "114522.421000", "114522.424000", "114522.426000", "114522.429000", "114522.431000", "114558.084000", "114558.087000", "114558.089000", "114558.092000", "114558.095000", "114558.097000", "114558.100000", "114558.103000", "114558.106000", "114558.109000", "114558.112000", "114558.114000", "114558.117000", "114558.120000", "114558.123000", "114558.126000", "114558.129000", "114558.131000", "114558.134000", "114558.136000", "114558.139000", "114558.142000", "114558.144000", "114558.147000"],
      "InstanceNumber": [1, 2, 3, 4, 5, 6, 7, 8, 9, 10, 11, 12, 13, 14, 15, 16, 17, 18, 19, 20, 21, 22, 23, 24, 25, 26, 27, 28, 29, 30, 31, 32, 33, 34, 35, 36, 37, 38, 39, 40, 41, 42, 43, 44, 45, 46, 47, 48, 49, 50, 51, 52, 53, 54, 55, 56, 57, 58, 59, 60, 61, 62, 63, 64, 65, 66, 67, 68, 69, 70, 71, 72, 73, 74, 75, 76, 77, 78, 79, 80, 81, 82, 83, 84, 85, 86, 87, 88, 89, 90, 91, 92, 93, 94, 95, 96, 97, 98, 99, 100, 101, 102, 103, 104, 105, 106, 107, 108, 109, 110, 111, 112, 113, 114, 115, 116, 117, 118, 119, 120, 121, 122, 123, 124, 125, 126, 127, 128, 129, 130, 131, 132, 133, 134, 135, 136, 137, 138, 139, 140, 141, 142, 143, 144, 145, 146, 147, 148, 149, 150, 151, 152, 153, 154, 155, 156, 157, 158, 159, 160, 161, 162, 163, 164, 165, 166, 167, 168, 169, 170, 171, 172, 173, 174, 175, 176, 177, 178, 179, 180, 181, 182, 183, 184, 185, 186, 187, 188, 189, 190, 191, 192, 193, 194, 195, 196, 197, 198, 199, 200, 201, 202, 203, 204, 205, 206, 207, 208, 209, 210, 211, 212, 213, 214, 215, 216, 217, 218, 219, 220, 221, 222, 223, 224, 225, 226, 227, 228, 229, 230, 231, 232, 233, 234, 235, 236, 237, 238, 239, 240, 241, 242, 243, 244, 245, 246, 247, 248, 249, 250, 251, 252, 253, 254, 255, 256, 257, 258, 259, 260, 261, 262, 263, 264, 265, 266, 267, 268, 269, 270, 271, 272, 273, 274, 275, 276, 277, 278, 279, 280, 281, 282, 283, 284, 285, 286, 287, 288, 289, 290, 291, 292, 293, 294, 295, 296, 297, 298, 299, 300, 301, 302, 303, 304, 305, 306, 307, 308, 309, 310, 311, 312, 313, 314],
      "WindowCenter": [4816.0, 4816.0, 4812.0, 4818.0, 4814.0, 4816.0, 4810.0, 4814.0, 4814.0, 4786.0, 4806.0, 4808.0, 4806.0, 4840.0, 4840.0, 4840.0, 4816.0, 4814.0, 4814.0, 4816.0, 4814.0, 4820.0, 4812.0, 4814.0, 4818.0, 4814.0, 4812.0, 4814.0, 4812.0, 4816.0, 4838.0, 4840.0, 4814.0, 4810.0, 4812.0, 4816.0, 4816.0, 4842.0, 4818.0, 4814.0, 4820.0, 4816.0, 4816.0, 4816.0, 4814.0, 4816.0, 4816.0, 4816.0, 4818.0, 4816.0, 4818.0, 4816.0, 4816.0, 4810.0, 4814.0, 4818.0, 4816.0, 4820.0, 4812.0, 4816.0, 4810.0, 4814.0, 4814.0, 4814.0, 4814.0, 4814.0, 4818.0, 4816.0, 4816.0, 4812.0, 4818.0, 4814.0, 4812.0, 4816.0, 4818.0, 4814.0, 4810.0, 4818.0, 4818.0, 4842.0, 4818.0, 4812.0, 4814.0, 4818.0, 4816.0, 4814.0, 4816.0, 4818.0, 4818.0, 4812.0, 4820.0, 4842.0, 4838.0, 4842.0, 4820.0, 4816.0, 4816.0, 4816.0, 4840.0, 4814.0, 4820.0, 4816.0, 4816.0, 4838.0, 4816.0, 4808.0, 4842.0, 4842.0, 4840.0, 4838.0, 4814.0, 4816.0, 4840.0, 4812.0, 4810.0, 4808.0, 4784.0, 4812.0, 4840.0, 4844.0, 4842.0, 4820.0, 4844.0, 4838.0, 4844.0, 4842.0, 4840.0, 4840.0, 4818.0, 4840.0, 4846.0, 4844.0, 4840.0, 4842.0, 4814.0, 4816.0, 4838.0, 4816.0, 4818.0, 4840.0, 4808.0, 4814.0, 4838.0, 4840.0, 4816.0, 4816.0, 4812.0, 4840.0, 4816.0, 4814.0, 4816.0, 4814.0, 4838.0, 4840.0, 4816.0, 4816.0, 4816.0, 4816.0, 4814.0, 4816.0, 4838.0, 4808.0, 4838.0, 4838.0, 4846.0, 4846.0, 4844.0, 4820.0, 4814.0, 4816.0, 4840.0, 4816.0, 4816.0, 4818.0, 4840.0, 4846.0, 4846.0, 4844.0, 4840.0, 4814.0, 4818.0, 4840.0, 4814.0, 4814.0, 4818.0, 4814.0, 4844.0, 4818.0, 4842.0, 4816.0, 4814.0, 4820.0, 4842.0, 4816.0, 4814.0, 4814.0, 4816.0, 4818.0, 4816.0, 4818.0, 4810.0, 4818.0, 4816.0, 4814.0, 4812.0, 4818.0, 4816.0, 4814.0, 4816.0, 4818.0, 4814.0, 4818.0, 4816.0, 4812.0, 4810.0, 4814.0, 4814.0, 4816.0, 4844.0, 4814.0, 4816.0, 4818.0, 4842.0, 4842.0, 4844.0, 4840.0, 4816.0, 4808.0, 4838.0, 4840.0, 4844.0, 4840.0, 4814.0, 4816.0, 4816.0, 4816.0, 4812.0, 4818.0, 4818.0, 4814.0, 4810.0, 4812.0, 4816.0, 4816.0, 4840.0, 4818.0, 4814.0, 4816.0, 4818.0, 4818.0, 4816.0, 4818.0, 4812.0, 4810.0, 4838.0, 4816.0, 4810.0, 4786.0, 4810.0, 4784.0, 4806.0, 4784.0, 4814.0, 4814.0, 4810.0, 4808.0, 4812.0, 4840.0, 4818.0, 4842.0, 4814.0, 4816.0, 4814.0, 4814.0, 4814.0, 4838.0, 4840.0, 4810.0, 4784.0, 4786.0, 4810.0, 4782.0, 4784.0, 4784.0, 4810.0, 4808.0, 4810.0, 4812.0, 4810.0, 4812.0, 4814.0, 4822.0, 4806.0, 4848.0, 4848.0, 4852.0, 4844.0, 4818.0, 4812.0, 4838.0, 4842.0, 4844.0, 4836.0, 4814.0, 4816.0, 4846.0, 4838.0, 4848.0, 4846.0, 4842.0, 4814.0, 4814.0, 4840.0, 4840.0],
