{
  "AcquisitionMatrixPE": 104,
  "AcquisitionNumber": 1,
  "AcquisitionTime": "11:38:8.240000",
  "BandwidthPerPixelPhaseEncode": 17.17,
  "BaseResolution": 104,
  "BodyPartExamined": "BRAIN",
  "CoilCombinationMethod": "Sum of Squares",
  "ConsistencyInfo": "N4_VE11C_LATEST_20160120",
  "ConversionSoftware": "dcm2niix",
  "ConversionSoftwareVersion": "v1.0.20220505",
  "DerivedVendorReportedEchoSpacing": 0.000560011,
  "DeviceSerialNumber": "167006",
  "DwellTime": 2.1e-06,
  "EchoTime": 0.037,
  "EchoTrainLength": 104,
  "EffectiveEchoSpacing": 0.000560011,
  "FlipAngle": 52,
  "HeudiconvVersion": "0.5.3.post811+g6206e14",
  "ImageComments": "Unaliased MB4/PE3/LB",
  "ImageOrientationPatientDICOM": [0.999348, 0.0113317, 0.0342759, 0.00889558, 0.842886, -0.538019],
  "ImageOrientationText": "Tra>Cor(-32.6)>Sag(2.0)",
  "ImageType": [
    "ORIGINAL",
    "PRIMARY",
    "M",
    "MB",
    "ND",
    "MOSAIC"
],
  "ImagingFrequency": 123.259,
  "InPlanePhaseEncodingDirectionDICOM": "COL",
  "InstitutionAddress": "Chemin Queen-Mary 4565,Montreal,District,CA,H3W 1W5",
  "InstitutionName": "IUGM",
  "InstitutionalDepartmentName": "Department",
  "MRAcquisitionType": "2D",
  "MagneticFieldStrength": 3,
  "Manufacturer": "Siemens",
  "ManufacturersModelName": "Prisma_fit",
  "MatrixCoilMode": "SENSE",
  "Modality": "MR",
  "MultibandAccelerationFactor": 4,
  "PartialFourier": 1,
  "PatientPosition": "HFS",
  "PercentPhaseFOV": 100,
  "PercentSampling": 100,
  "PhaseEncodingDirection": "j",
  "PhaseEncodingSteps": 104,
  "PhaseResolution": 1,
  "PixelBandwidth": 2290,
  "ProcedureStepDescription": "games^mario3",
  "ProtocolName": "func_task-mario3_run-02",
  "PulseSequenceDetails": "%CustomerSeq%\\cmrr_mbep2d_bold",
  "ReceiveCoilActiveElements": "HC1-7;NC1,2",
  "ReceiveCoilName": "HeadNeck_64",
  "ReconMatrixPE": 104,
  "RepetitionTime": 1.49,
  "SAR": 0.0560539,
  "ScanOptions": "FS",
  "ScanningSequence": "EP",
  "SequenceName": "epfid2d1_104",
  "SequenceVariant": "SK\\SS",
  "SeriesDescription": "func_task-mario3_run-02",
  "SeriesNumber": 13,
  "ShimSetting": [625, -7183, -8879, 232, 8, -217, 1, 26],
  "SliceThickness": 2,
  "SliceTiming": [0, 0.7825, 0.0975, 0.88, 0.195, 0.98, 0.2925, 1.0775, 0.39, 1.175, 0.49, 1.2725, 0.5875, 1.37, 0.685, 0, 0.7825, 0.0975, 0.88, 0.195, 0.98, 0.2925, 1.0775, 0.39, 1.175, 0.49, 1.2725, 0.5875, 1.37, 0.685, 0, 0.7825, 0.0975, 0.88, 0.195, 0.98, 0.2925, 1.0775, 0.39, 1.175, 0.49, 1.2725, 0.5875, 1.37, 0.685, 0, 0.7825, 0.0975, 0.88, 0.195, 0.98, 0.2925, 1.0775, 0.39, 1.175, 0.49, 1.2725, 0.5875, 1.37, 0.685],
  "SoftwareVersions": "syngo MR E11",
  "SpacingBetweenSlices": 2,
  "StationName": "MRC35049",
  "TaskName": "mario3",
  "TotalReadoutTime": 0.0576811,
  "TxRefAmp": 275.739,
  "WipMemBlock": "4ae2897e-d921-4223-8195-e239ba45da13||Sequence: R017 ve11c/master r/75a17815+; Jun 28 2022 16:32:11 by eja",
  "dcmmeta_affine": [
    [-1.9986963272094727, 0.017791157588362694, 0.06997464597225189, 104.50016021728516],
    [-0.02266332507133484, 1.6857718229293823, -1.0759458541870117, -46.75326156616211],
    [0.06855180859565735, 1.0760375261306763, 1.6844713687896729, -96.80511474609375],
    [0.0, 0.0, 0.0, 1.0]
],
  "dcmmeta_reorient_transform": [
    [0.0, -1.0, 0.0, 103.0],
    [1.0, 0.0, 0.0, 0.0],
    [0.0, 0.0, 1.0, 0.0],
    [0.0, 0.0, 0.0, 1.0]
],
  "dcmmeta_shape": [104, 104, 60, 314],
  "dcmmeta_slice_dim": 2,
  "dcmmeta_version": 0.6,
  "global": {
    "const": {
      "AcquisitionMatrix": [104, 0, 0, 104],
      "AngioFlag": "N",
      "BitsAllocated": 16,
      "BitsStored": 16,
      "BodyPartExamined": "BRAIN",
      "Columns": 832,
      "EchoNumbers": 1,
      "EchoTime": 37.0,
      "EchoTrainLength": 104,
      "FlipAngle": 52.0,
      "HighBit": 15,
      "ImageOrientationPatient": [0.99934816550407, 0.01133166228179, 0.03427590310381, 0.00889557859011, 0.84288592648711, -0.5380187576763],
      "ImagePositionPatient": [-840.33409361026, -748.75164402418, 380.75154813784],
      "ImageType": [
        "ORIGINAL",
        "PRIMARY",
        "M",
        "MB",
        "ND",
        "MOSAIC"
],
      "ImagedNucleus": "1H",
      "ImagingFrequency": 123.258798,
      "InPlanePhaseEncodingDirection": "COL",
      "MRAcquisitionType": "2D",
      "MagneticFieldStrength": 3.0,
      "Manufacturer": "SIEMENS",
      "ManufacturerModelName": "Prisma_fit",
      "Modality": "MR",
      "NumberOfAverages": 1.0,
      "NumberOfPhaseEncodingSteps": 104,
      "PercentPhaseFieldOfView": 100.0,
      "PercentSampling": 100.0,
      "PerformedProcedureStepStartTime": "111300.243000",
      "PhotometricInterpretation": "MONOCHROME2",
      "PixelBandwidth": 2290.0,
      "PixelRepresentation": 0,
      "PixelSpacing": [2.0, 2.0],
      "ProtocolName": "func_task-mario3_run-02",
      "RepetitionTime": 1490.0,
      "Rows": 832,
      "SAR": 0.05605394005105,
      "SamplesPerPixel": 1,
      "ScanOptions": "FS",
      "ScanningSequence": "EP",
      "SequenceName": "epfid2d1_104",
      "SequenceVariant": [
        "SK",
        "SS"
],
      "SeriesDescription": "func_task-mario3_run-02",
      "SeriesNumber": 13,
      "SeriesTime": "113922.240000",
      "SliceLocation": -52.724551873445,
      "SliceThickness": 2.0,
      "SmallestImagePixelValue": 0,
      "SoftwareVersions": "syngo MR E11",
      "SpacingBetweenSlices": 1.999999973689,
      "SpecificCharacterSet": "ISO_IR 100",
      "StudyID": "1",
      "StudyTime": "111300.163000",
      "TransmitCoilName": "Body",
      "VariableFlipAngleFlag": "N",
      "WindowCenterWidthExplanation": "Algo1",
      "dBdt": 0.0},
    "slices": {}
  },
  "time": {
    "samples": {
      "AcquisitionNumber": [1, 2, 3, 4, 5, 6, 7, 8, 9, 10, 11, 12, 13, 14, 15, 16, 17, 18, 19, 20, 21, 22, 23, 24, 25, 26, 27, 28, 29, 30, 31, 32, 33, 34, 35, 36, 37, 38, 39, 40, 41, 42, 43, 44, 45, 46, 47, 48, 49, 50, 51, 52, 53, 54, 55, 56, 57, 58, 59, 60, 61, 62, 63, 64, 65, 66, 67, 68, 69, 70, 71, 72, 73, 74, 75, 76, 77, 78, 79, 80, 81, 82, 83, 84, 85, 86, 87, 88, 89, 90, 91, 92, 93, 94, 95, 96, 97, 98, 99, 100, 101, 102, 103, 104, 105, 106, 107, 108, 109, 110, 111, 112, 113, 114, 115, 116, 117, 118, 119, 120, 121, 122, 123, 124, 125, 126, 127, 128, 129, 130, 131, 132, 133, 134, 135, 136, 137, 138, 139, 140, 141, 142, 143, 144, 145, 146, 147, 148, 149, 150, 151, 152, 153, 154, 155, 156, 157, 158, 159, 160, 161, 162, 163, 164, 165, 166, 167, 168, 169, 170, 171, 172, 173, 174, 175, 176, 177, 178, 179, 180, 181, 182, 183, 184, 185, 186, 187, 188, 189, 190, 191, 192, 193, 194, 195, 196, 197, 198, 199, 200, 201, 202, 203, 204, 205, 206, 207, 208, 209, 210, 211, 212, 213, 214, 215, 216, 217, 218, 219, 220, 221, 222, 223, 224, 225, 226, 227, 228, 229, 230, 231, 232, 233, 234, 235, 236, 237, 238, 239, 240, 241, 242, 243, 244, 245, 246, 247, 248, 249, 250, 251, 252, 253, 254, 255, 256, 257, 258, 259, 260, 261, 262, 263, 264, 265, 266, 267, 268, 269, 270, 271, 272, 273, 274, 275, 276, 277, 278, 279, 280, 281, 282, 283, 284, 285, 286, 287, 288, 289, 290, 291, 292, 293, 294, 295, 296, 297, 298, 299, 300, 301, 302, 303, 304, 305, 306, 307, 308, 309, 310, 311, 312, 313, 314],
      "AcquisitionTime": ["113808.240000", "113809.730000", "113811.220000", "113812.710000", "113814.200000", "113815.690000", "113817.180000", "113818.670000", "113820.160000", "113821.650000", "113823.140000", "113824.630000", "113826.120000", "113827.610000", "113829.100000", "113830.590000", "113832.080000", "113833.570000", "113835.060000", "113836.550000", "113838.040000", "113839.530000", "113841.020000", "113842.510000", "113844.000000", "113845.490000", "113846.980000", "113848.470000", "113849.960000", "113851.450000", "113852.940000", "113854.430000", "113855.920000", "113857.410000", "113858.900000", "113900.390000", "113901.880000", "113903.370000", "113904.860000", "113906.350000", "113907.840000", "113909.330000", "113910.820000", "113912.310000", "113913.800000", "113915.290000", "113916.780000", "113918.270000", "113919.760000", "113921.250000", "113922.740000", "113924.230000", "113925.720000", "113927.210000", "113928.700000", "113930.190000", "113931.680000", "113933.170000", "113934.660000", "113936.150000", "113937.640000", "113939.130000", "113940.620000", "113942.110000", "113943.600000", "113945.090000", "113946.580000", "113948.070000", "113949.560000", "113951.050000", "113952.540000", "113954.030000", "113955.520000", "113957.010000", "113958.500000", "113959.990000", "114001.480000", "114002.970000", "114004.460000", "114005.950000", "114007.440000", "114008.930000", "114010.420000", "114011.910000", "114013.400000", "114014.890000", "114016.380000", "114017.870000", "114019.360000", "114020.850000", "114022.340000", "114023.830000", "114025.320000", "114026.810000", "114028.300000", "114029.790000", "114031.280000", "114032.770000", "114034.260000", "114035.750000", "114037.240000", "114038.730000", "114040.220000", "114041.710000", "114043.200000", "114044.690000", "114046.180000", "114047.670000", "114049.160000", "114050.650000", "114052.140000", "114053.630000", "114055.120000", "114056.610000", "114058.100000", "114059.590000", "114101.080000", "114102.570000", "114104.060000", "114105.550000", "114107.040000", "114108.530000", "114110.020000", "114111.510000", "114113.000000", "114114.490000", "114115.980000", "114117.470000", "114118.960000", "114120.450000", "114121.940000", "114123.430000", "114124.920000", "114126.410000", "114127.900000", "114129.390000", "114130.880000", "114132.370000", "114133.860000", "114135.350000", "114136.840000", "114138.330000", "114139.820000", "114141.310000", "114142.800000", "114144.290000", "114145.780000", "114147.270000", "114148.760000", "114150.250000", "114151.740000", "114153.230000", "114154.720000", "114156.210000", "114157.700000", "114159.190000", "114200.680000", "114202.170000", "114203.660000", "114205.150000", "114206.640000", "114208.130000", "114209.620000", "114211.110000", "114212.600000", "114214.090000", "114215.580000", "114217.070000", "114218.560000", "114220.050000", "114221.540000", "114223.030000", "114224.520000", "114226.010000", "114227.500000", "114228.990000", "114230.480000", "114231.970000", "114233.460000", "114234.950000", "114236.440000", "114237.930000", "114239.420000", "114240.910000", "114242.400000", "114243.890000", "114245.380000", "114246.870000", "114248.360000", "114249.850000", "114251.340000", "114252.830000", "114254.320000", "114255.810000", "114257.300000", "114258.790000", "114300.280000", "114301.770000", "114303.260000", "114304.750000", "114306.240000", "114307.730000", "114309.220000", "114310.710000", "114312.200000", "114313.690000", "114315.180000", "114316.670000", "114318.160000", "114319.650000", "114321.140000", "114322.630000", "114324.120000", "114325.610000", "114327.100000", "114328.590000", "114330.080000", "114331.570000", "114333.060000", "114334.550000", "114336.040000", "114337.530000", "114339.020000", "114340.510000", "114342.000000", "114343.490000", "114344.980000", "114346.470000", "114347.960000", "114349.450000", "114350.940000", "114352.430000", "114353.920000", "114355.410000", "114356.900000", "114358.390000", "114359.880000", "114401.370000", "114402.860000", "114404.350000", "114405.840000", "114407.330000", "114408.820000", "114410.310000", "114411.800000", "114413.290000", "114414.780000", "114416.270000", "114417.760000", "114419.250000", "114420.740000", "114422.230000", "114423.720000", "114425.210000", "114426.700000", "114428.190000", "114429.680000", "114431.170000", "114432.660000", "114434.150000", "114435.640000", "114437.130000", "114438.620000", "114440.110000", "114441.600000", "114443.090000", "114444.580000", "114446.070000", "114447.560000", "114449.050000", "114450.540000", "114452.030000", "114453.520000", "114455.010000", "114456.500000", "114457.990000", "114459.480000", "114500.970000", "114502.460000", "114503.950000", "114505.440000", "114506.930000", "114508.420000", "114509.910000", "114511.400000", "114512.890000", "114514.380000", "114515.870000", "114517.360000", "114518.850000", "114520.340000", "114521.830000", "114523.320000", "114524.810000", "114526.300000", "114527.790000", "114529.280000", "114530.770000", "114532.260000", "114533.750000", "114535.240000", "114536.730000", "114538.220000", "114539.710000", "114541.200000", "114542.690000", "114544.180000", "114545.670000", "114547.160000", "114548.650000", "114550.140000", "114551.630000", "114553.120000", "114554.610000"],
      "ContentTime": ["113922.243000", "113922.247000", "113922.259000", "113922.262000", "113922.266000", "113922.269000", "113922.273000", "113922.276000", "113922.280000", "113922.283000", "113922.286000", "113922.290000", "113922.293000", "113922.297000", "113922.300000", "113922.304000", "113922.307000", "113922.310000", "113922.314000", "113922.317000", "113922.321000", "113922.324000", "113922.328000", "113922.331000", "113942.212000", "113942.216000", "113942.220000", "113942.223000", "113942.226000", "113942.230000", "113942.233000", "113942.237000", "113942.240000", "113942.243000", "113942.247000", "113942.250000", "113942.254000", "113942.257000", "113942.261000", "113942.264000", "113942.267000", "113942.271000", "113942.274000", "113942.278000", "113942.281000", "114002.212000", "114002.216000", "114002.219000", "114002.223000", "114002.226000", "114002.230000", "114002.233000", "114002.237000", "114002.240000", "114002.243000", "114002.247000", "114002.250000", "114002.254000", "114002.257000", "114002.276000", "114002.279000", "114002.283000", "114002.286000", "114002.290000", "114002.293000", "114022.213000", "114022.217000", "114022.220000", "114022.224000", "114022.227000", "114022.231000", "114022.234000", "114022.238000", "114022.241000", "114022.244000", "114022.248000", "114022.251000", "114022.255000", "114022.258000", "114022.262000", "114022.265000", "114022.268000", "114022.272000", "114022.275000", "114022.279000", "114102.213000", "114102.217000", "114102.221000", "114102.224000", "114102.227000", "114102.231000", "114102.234000", "114102.238000", "114102.241000", "114102.245000", "114102.248000", "114102.251000", "114102.255000", "114102.258000", "114102.268000", "114102.271000", "114102.275000", "114102.278000", "114102.282000", "114102.286000", "114102.289000", "114102.293000", "114102.296000", "114102.300000", "114102.303000", "114102.306000", "114102.310000", "114102.313000", "114102.317000", "114102.320000", "114102.324000", "114142.212000", "114142.216000", "114142.219000", "114142.223000", "114142.226000", "114142.230000", "114142.233000", "114142.237000", "114142.240000", "114142.244000", "114142.247000", "114142.251000", "114142.254000", "114142.257000", "114142.261000", "114142.264000", "114142.268000", "114142.271000", "114142.275000", "114142.278000", "114142.281000", "114142.285000", "114142.288000", "114142.292000", "114142.295000", "114142.299000", "114142.302000", "114222.212000", "114222.216000", "114222.219000", "114222.223000", "114222.226000", "114222.230000", "114222.233000", "114222.237000", "114222.240000", "114222.243000", "114222.247000", "114222.250000", "114222.254000", "114222.257000", "114222.261000", "114222.264000", "114222.268000", "114222.271000", "114222.274000", "114222.278000", "114222.281000", "114222.291000", "114222.295000", "114222.298000", "114222.301000", "114222.305000", "114222.308000", "114302.213000", "114302.217000", "114302.220000", "114302.224000", "114302.227000", "114302.231000", "114302.234000", "114302.238000", "114302.241000", "114302.244000", "114302.248000", "114302.251000", "114302.255000", "114302.258000", "114302.262000", "114302.265000", "114302.269000", "114302.272000", "114302.275000", "114302.280000", "114302.284000", "114302.287000", "114302.290000", "114302.294000", "114302.297000", "114302.301000", "114322.213000", "114322.217000", "114322.220000", "114322.224000", "114322.227000", "114322.231000", "114322.234000", "114322.238000", "114322.241000", "114322.245000", "114322.248000", "114322.252000", "114322.255000", "114322.258000", "114402.212000", "114402.216000", "114402.220000", "114402.223000", "114402.226000", "114402.230000", "114402.233000", "114402.237000", "114402.240000", "114402.244000", "114402.247000", "114402.251000", "114402.254000", "114402.258000", "114402.261000", "114402.265000", "114402.268000", "114402.271000", "114402.275000", "114402.278000", "114402.282000", "114402.285000", "114402.288000", "114402.292000", "114402.295000", "114402.299000", "114402.302000", "114442.212000", "114442.216000", "114442.220000", "114442.223000", "114442.227000", "114442.231000", "114442.234000", "114442.238000", "114442.242000", "114442.245000", "114442.249000", "114442.252000", "114442.256000", "114442.259000", "114442.263000", "114442.266000", "114442.270000", "114442.273000", "114442.293000", "114442.296000", "114442.300000", "114442.303000", "114442.306000", "114442.310000", "114442.313000", "114442.317000", "114522.213000", "114522.217000", "114522.221000", "114522.224000", "114522.227000", "114522.231000", "114522.234000", "114522.238000", "114522.241000", "114522.245000", "114522.248000", "114522.252000", "114522.255000", "114522.258000", "114522.262000", "114522.265000", "114522.269000", "114522.272000", "114522.276000", "114522.279000", "114522.283000", "114522.286000", "114522.289000", "114522.293000", "114522.296000", "114522.300000", "114522.303000", "114557.954000", "114557.957000", "114557.961000", "114557.964000", "114557.968000", "114557.972000", "114557.975000", "114557.978000", "114557.982000", "114557.986000", "114557.989000", "114557.993000", "114557.996000", "114558.001000", "114558.004000", "114558.008000", "114558.011000", "114558.015000", "114558.018000", "114558.022000", "114558.026000", "114558.029000", "114558.032000", "114558.036000"],
      "InstanceCreationTime": ["113922.243000", "113922.247000", "113922.259000", "113922.262000", "113922.266000", "113922.269000", "113922.273000", "113922.276000", "113922.280000", "113922.283000", "113922.286000", "113922.290000", "113922.293000", "113922.297000", "113922.300000", "113922.304000", "113922.307000", "113922.310000", "113922.314000", "113922.317000", "113922.321000", "113922.324000", "113922.328000", "113922.331000", "113942.212000", "113942.216000", "113942.220000", "113942.223000", "113942.226000", "113942.230000", "113942.233000", "113942.237000", "113942.240000", "113942.243000", "113942.247000", "113942.250000", "113942.254000", "113942.257000", "113942.261000", "113942.264000", "113942.267000", "113942.271000", "113942.274000", "113942.278000", "113942.281000", "114002.212000", "114002.216000", "114002.219000", "114002.223000", "114002.226000", "114002.230000", "114002.233000", "114002.237000", "114002.240000", "114002.243000", "114002.247000", "114002.250000", "114002.254000", "114002.257000", "114002.276000", "114002.279000", "114002.283000", "114002.286000", "114002.290000", "114002.293000", "114022.213000", "114022.217000", "114022.220000", "114022.224000", "114022.227000", "114022.231000", "114022.234000", "114022.238000", "114022.241000", "114022.244000", "114022.248000", "114022.251000", "114022.255000", "114022.258000", "114022.262000", "114022.265000", "114022.268000", "114022.272000", "114022.275000", "114022.279000", "114102.213000", "114102.217000", "114102.221000", "114102.224000", "114102.227000", "114102.231000", "114102.234000", "114102.238000", "114102.241000", "114102.245000", "114102.248000", "114102.251000", "114102.255000", "114102.258000", "114102.268000", "114102.271000", "114102.275000", "114102.278000", "114102.282000", "114102.286000", "114102.289000", "114102.293000", "114102.296000", "114102.300000", "114102.303000", "114102.306000", "114102.310000", "114102.313000", "114102.317000", "114102.320000", "114102.324000", "114142.212000", "114142.216000", "114142.219000", "114142.223000", "114142.226000", "114142.230000", "114142.233000", "114142.237000", "114142.240000", "114142.244000", "114142.247000", "114142.251000", "114142.254000", "114142.257000", "114142.261000", "114142.264000", "114142.268000", "114142.271000", "114142.275000", "114142.278000", "114142.281000", "114142.285000", "114142.288000", "114142.292000", "114142.295000", "114142.299000", "114142.302000", "114222.212000", "114222.216000", "114222.219000", "114222.223000", "114222.226000", "114222.230000", "114222.233000", "114222.237000", "114222.240000", "114222.243000", "114222.247000", "114222.250000", "114222.254000", "114222.257000", "114222.261000", "114222.264000", "114222.268000", "114222.271000", "114222.274000", "114222.278000", "114222.281000", "114222.291000", "114222.295000", "114222.298000", "114222.301000", "114222.305000", "114222.308000", "114302.213000", "114302.217000", "114302.220000", "114302.224000", "114302.227000", "114302.231000", "114302.234000", "114302.238000", "114302.241000", "114302.244000", "114302.248000", "114302.251000", "114302.255000", "114302.258000", "114302.262000", "114302.265000", "114302.269000", "114302.272000", "114302.275000", "114302.280000", "114302.284000", "114302.287000", "114302.290000", "114302.294000", "114302.297000", "114302.301000", "114322.213000", "114322.217000", "114322.220000", "114322.224000", "114322.227000", "114322.231000", "114322.234000", "114322.238000", "114322.241000", "114322.245000", "114322.248000", "114322.252000", "114322.255000", "114322.258000", "114402.212000", "114402.216000", "114402.220000", "114402.223000", "114402.226000", "114402.230000", "114402.233000", "114402.237000", "114402.240000", "114402.244000", "114402.247000", "114402.251000", "114402.254000", "114402.258000", "114402.261000", "114402.265000", "114402.268000", "114402.271000", "114402.275000", "114402.278000", "114402.282000", "114402.285000", "114402.288000", "114402.292000", "114402.295000", "114402.299000", "114402.302000", "114442.212000", "114442.216000", "114442.220000", "114442.223000", "114442.227000", "114442.231000", "114442.234000", "114442.238000", "114442.242000", "114442.245000", "114442.249000", "114442.252000", "114442.256000", "114442.259000", "114442.263000", "114442.266000", "114442.270000", "114442.273000", "114442.293000", "114442.296000", "114442.300000", "114442.303000", "114442.306000", "114442.310000", "114442.313000", "114442.317000", "114522.213000", "114522.217000", "114522.221000", "114522.224000", "114522.227000", "114522.231000", "114522.234000", "114522.238000", "114522.241000", "114522.245000", "114522.248000", "114522.252000", "114522.255000", "114522.258000", "114522.262000", "114522.265000", "114522.269000", "114522.272000", "114522.276000", "114522.279000", "114522.283000", "114522.286000", "114522.289000", "114522.293000", "114522.296000", "114522.300000", "114522.303000", "114557.954000", "114557.957000", "114557.961000", "114557.964000", "114557.968000", "114557.972000", "114557.975000", "114557.978000", "114557.982000", "114557.986000", "114557.989000", "114557.993000", "114557.996000", "114558.001000", "114558.004000", "114558.008000", "114558.011000", "114558.015000", "114558.018000", "114558.022000", "114558.026000", "114558.029000", "114558.032000", "114558.036000"],
      "InstanceNumber": [1, 2, 3, 4, 5, 6, 7, 8, 9, 10, 11, 12, 13, 14, 15, 16, 17, 18, 19, 20, 21, 22, 23, 24, 25, 26, 27, 28, 29, 30, 31, 32, 33, 34, 35, 36, 37, 38, 39, 40, 41, 42, 43, 44, 45, 46, 47, 48, 49, 50, 51, 52, 53, 54, 55, 56, 57, 58, 59, 60, 61, 62, 63, 64, 65, 66, 67, 68, 69, 70, 71, 72, 73, 74, 75, 76, 77, 78, 79, 80, 81, 82, 83, 84, 85, 86, 87, 88, 89, 90, 91, 92, 93, 94, 95, 96, 97, 98, 99, 100, 101, 102, 103, 104, 105, 106, 107, 108, 109, 110, 111, 112, 113, 114, 115, 116, 117, 118, 119, 120, 121, 122, 123, 124, 125, 126, 127, 128, 129, 130, 131, 132, 133, 134, 135, 136, 137, 138, 139, 140, 141, 142, 143, 144, 145, 146, 147, 148, 149, 150, 151, 152, 153, 154, 155, 156, 157, 158, 159, 160, 161, 162, 163, 164, 165, 166, 167, 168, 169, 170, 171, 172, 173, 174, 175, 176, 177, 178, 179, 180, 181, 182, 183, 184, 185, 186, 187, 188, 189, 190, 191, 192, 193, 194, 195, 196, 197, 198, 199, 200, 201, 202, 203, 204, 205, 206, 207, 208, 209, 210, 211, 212, 213, 214, 215, 216, 217, 218, 219, 220, 221, 222, 223, 224, 225, 226, 227, 228, 229, 230, 231, 232, 233, 234, 235, 236, 237, 238, 239, 240, 241, 242, 243, 244, 245, 246, 247, 248, 249, 250, 251, 252, 253, 254, 255, 256, 257, 258, 259, 260, 261, 262, 263, 264, 265, 266, 267, 268, 269, 270, 271, 272, 273, 274, 275, 276, 277, 278, 279, 280, 281, 282, 283, 284, 285, 286, 287, 288, 289, 290, 291, 292, 293, 294, 295, 296, 297, 298, 299, 300, 301, 302, 303, 304, 305, 306, 307, 308, 309, 310, 311, 312, 313, 314],
      "LargestImagePixelValue": [46752, 45890, 44599, 44562, 44113, 43842, 44205, 44339, 44822, 44478, 44344, 46335, 45409, 44966, 44618, 44952, 45436, 44901, 44023, 44522, 44016, 44983, 45000, 44567, 44695, 44036, 44629, 45357, 45764, 45081, 45234, 44926, 44381, 44020, 45032, 45264, 44899, 45102, 44761, 44472, 45091, 44735, 44568, 45047, 44338, 44906, 45071, 45181, 44460, 44791, 44679, 44770, 44505, 45208, 45317, 45024, 44681, 44966, 45267, 45242, 45019, 44386, 44979, 44435, 44595, 44043, 43806, 44234, 44183, 44313, 44206, 44041, 44587, 45255, 44763, 45011, 45110, 45321, 43977, 44232, 44980, 45065, 44299, 44762, 44375, 44714, 43936, 44042, 44814, 52491, 45327, 44887, 44649, 44463, 44960, 45222, 44890, 45176, 45052, 45046, 45740, 45023, 44768, 45365, 45252, 43650, 44607, 45278, 45324, 45038, 45482, 45712, 44509, 44287, 44094, 44918, 44434, 44655, 43851, 44953, 44758, 45371, 46136, 45726, 45953, 45970, 45490, 46257, 45538, 45579, 45625, 45076, 45286, 45094, 45429, 46150, 44928, 45535, 45385, 45521, 45417, 45560, 45703, 45336, 45613, 44924, 45027, 46236, 46114, 45716, 45618, 46183, 46164, 45666, 45127, 46022, 45591, 45542, 45360, 45604, 45110, 45929, 47164, 45291, 46238, 45180, 45120, 45858, 45725, 46114, 45759, 45599, 45766, 47568, 45666, 45703, 45285, 45966, 45350, 45226, 45378, 45514, 45613, 45704, 45418, 46045, 45767, 45853, 46182, 45846, 45868, 46286, 46144, 45914, 46157, 46026, 46085, 45970, 45578, 46294, 45285, 46523, 46229, 45946, 46258, 45370, 45147, 45613, 45563, 45707, 45206, 45635, 45352, 45692, 45542, 45472, 45399, 45942, 45565, 45769, 45314, 46062, 46649, 46319, 45588, 46284, 45817, 47241, 46991, 45715, 46005, 45105, 44816, 45460, 45393, 45961, 45368, 44984, 46294, 45321, 45210, 45434, 45590, 45528, 45394, 45082, 45445, 45971, 45892, 45936, 45896, 45344, 47350, 46531, 47407, 45719, 45506, 45078, 45916, 45968, 45740, 45054, 45640, 45083, 45058, 44945, 52493, 56245, 45673, 44753, 45623, 45637, 44815, 44589, 44343, 44743, 44812, 44004, 44534, 44801, 44325, 44569, 45009, 44947, 44815, 44753, 45100, 45540, 45577, 45906, 46181, 44525, 45282, 44811, 45424, 45321, 46260, 45724, 45315, 45167, 45853, 47010, 48390, 46901, 47729, 47115, 46124, 46849, 45977, 45411, 45545, 46042, 45752, 46629],
      "WindowCenter": [11205.0, 11171.0, 11140.0, 11114.0, 11099.0, 11077.0, 11054.0, 11082.0, 11123.0, 11081.0, 11121.0, 11146.0, 11099.0, 11135.0, 11158.0, 11167.0, 11156.0, 11174.0, 11137.0, 11098.0, 11048.0, 11019.0, 11091.0, 11109.0, 11123.0, 11061.0, 11073.0, 11105.0, 11143.0, 11109.0, 11113.0, 11128.0, 11088.0, 11072.0, 11033.0, 11018.0, 11023.0, 11053.0, 11093.0, 11117.0, 11120.0, 11108.0, 11078.0, 11027.0, 11025.0, 11057.0, 11085.0, 11117.0, 11088.0, 11073.0, 11066.0, 11055.0, 11059.0, 11090.0, 11084.0, 11089.0, 11078.0, 11059.0, 11060.0, 11076.0, 11061.0, 11035.0, 11079.0, 11103.0, 11111.0, 11095.0, 11090.0, 11117.0, 11110.0, 11069.0, 11064.0, 11070.0, 11030.0, 11015.0, 11050.0, 11072.0, 11081.0, 11079.0, 11038.0, 11025.0, 11025.0, 11026.0, 11007.0, 11027.0, 11046.0, 11051.0, 11025.0, 11041.0, 11044.0, 11135.0, 11091.0, 11094.0, 11093.0, 11069.0, 11090.0, 11090.0, 11094.0, 11087.0, 11067.0, 11055.0, 11068.0, 11070.0, 11076.0, 11107.0, 11126.0, 11076.0, 11054.0, 11082.0, 11114.0, 11150.0, 11155.0, 11128.0, 11041.0, 11035.0, 11041.0, 11026.0, 11001.0, 10984.0, 10925.0, 10934.0, 10998.0, 11049.0, 11056.0, 11041.0, 11022.0, 11012.0, 11034.0, 11050.0, 11069.0, 11089.0, 11087.0, 11089.0, 11094.0, 11051.0, 11058.0, 11094.0, 11077.0, 11103.0, 11112.0, 11093.0, 11082.0, 11084.0, 11097.0, 11095.0, 11085.0, 11050.0, 11047.0, 11085.0, 11092.0, 11107.0, 11106.0, 11114.0, 11061.0, 11071.0, 11064.0, 11091.0, 11102.0, 11080.0, 11054.0, 11059.0, 11078.0, 11138.0, 11129.0, 11106.0, 11072.0, 11031.0, 11057.0, 11068.0, 11070.0, 11085.0, 11076.0, 11056.0, 11038.0, 11061.0, 11065.0, 11102.0, 11143.0, 11138.0, 11105.0, 11099.0, 11100.0, 11090.0, 11075.0, 11060.0, 11084.0, 11084.0, 11084.0, 11106.0, 11108.0, 11103.0, 11088.0, 11101.0, 11097.0, 11099.0, 11127.0, 11124.0, 11119.0, 11107.0, 11097.0, 11094.0, 11090.0, 11120.0, 11117.0, 11115.0, 11111.0, 11101.0, 11131.0, 11142.0, 11148.0, 11110.0, 11108.0, 11099.0, 11115.0, 11093.0, 11113.0, 11104.0, 11085.0, 11062.0, 11068.0, 11114.0, 11131.0, 11111.0, 11153.0, 11141.0, 11142.0, 11159.0, 11154.0, 11146.0, 11098.0, 11068.0, 11079.0, 11084.0, 11079.0, 11106.0, 11114.0, 11111.0, 11100.0, 11067.0, 11095.0, 11108.0, 11107.0, 11103.0, 11095.0, 11038.0, 11026.0, 11035.0, 11097.0, 11146.0, 11119.0, 11083.0, 11094.0, 11090.0, 11148.0, 11178.0, 11172.0, 11111.0, 11081.0, 11089.0, 11114.0, 11088.0, 11049.0, 11017.0, 11001.0, 11003.0, 11062.0, 11097.0, 11150.0, 11235.0, 11115.0, 11072.0, 11129.0, 11147.0, 11114.0, 11094.0, 11093.0, 11071.0, 11064.0, 11079.0, 11121.0, 11101.0, 11079.0, 11059.0, 11048.0, 11072.0, 11076.0, 11076.0, 11081.0, 11084.0, 11089.0, 11118.0, 11141.0, 11153.0, 11192.0, 11145.0, 11103.0, 11072.0, 11100.0, 11118.0, 11119.0, 11125.0, 11111.0, 11065.0, 11109.0, 11107.0, 11113.0, 11091.0, 11088.0, 11097.0, 11102.0, 11121.0, 11137.0, 11134.0, 11123.0, 11125.0],
