{
  "AcquisitionMatrixPE": 104,
  "AcquisitionNumber": 1,
  "AcquisitionTime": "11:27:37.687500",
  "BandwidthPerPixelPhaseEncode": 17.17,
  "BaseResolution": 104,
  "BodyPartExamined": "BRAIN",
  "CoilCombinationMethod": "Sum of Squares",
  "ConsistencyInfo": "N4_VE11C_LATEST_20160120",
  "ConversionSoftware": "dcm2niix",
  "ConversionSoftwareVersion": "v1.0.20220505",
  "DerivedVendorReportedEchoSpacing": 0.000560011,
  "DeviceSerialNumber": "167006",
  "DwellTime": 2.1e-06,
  "EchoTime": 0.037,
  "EchoTrainLength": 104,
  "EffectiveEchoSpacing": 0.000560011,
  "FlipAngle": 52,
  "HeudiconvVersion": "0.5.3.post811+g6206e14",
  "ImageComments": "Unaliased MB4/PE3/LB",
  "ImageOrientationPatientDICOM": [0.999348, 0.0113317, 0.0342759, 0.00889558, 0.842886, -0.538019],
  "ImageOrientationText": "Tra>Cor(-32.6)>Sag(2.0)",
  "ImageType": [
    "ORIGINAL",
    "PRIMARY",
    "M",
    "MB",
    "ND",
    "MOSAIC"
],
  "ImagingFrequency": 123.259,
  "InPlanePhaseEncodingDirectionDICOM": "COL",
  "InstitutionAddress": "Chemin Queen-Mary 4565,Montreal,District,CA,H3W 1W5",
  "InstitutionName": "IUGM",
  "InstitutionalDepartmentName": "Department",
  "MRAcquisitionType": "2D",
  "MagneticFieldStrength": 3,
  "Manufacturer": "Siemens",
  "ManufacturersModelName": "Prisma_fit",
  "MatrixCoilMode": "SENSE",
  "Modality": "MR",
  "MultibandAccelerationFactor": 4,
  "PartialFourier": 1,
  "PatientPosition": "HFS",
  "PercentPhaseFOV": 100,
  "PercentSampling": 100,
  "PhaseEncodingDirection": "j",
  "PhaseEncodingSteps": 104,
  "PhaseResolution": 1,
  "PixelBandwidth": 2290,
  "ProcedureStepDescription": "games^mario3",
  "ProtocolName": "func_task-mario3_run-01",
  "PulseSequenceDetails": "%CustomerSeq%\\cmrr_mbep2d_bold",
  "ReceiveCoilActiveElements": "HC1-7;NC1,2",
  "ReceiveCoilName": "HeadNeck_64",
  "ReconMatrixPE": 104,
  "RepetitionTime": 1.49,
  "SAR": 0.0560539,
  "ScanOptions": "FS",
  "ScanningSequence": "EP",
  "SequenceName": "epfid2d1_104",
  "SequenceVariant": "SK\\SS",
  "SeriesDescription": "func_task-mario3_run-01",
  "SeriesNumber": 10,
  "ShimSetting": [625, -7183, -8879, 232, 8, -217, 1, 26],
  "SliceThickness": 2,
  "SliceTiming": [0, 0.7825, 0.0975, 0.8825, 0.195, 0.98, 0.2925, 1.0775, 0.3925, 1.175, 0.49, 1.2725, 0.5875, 1.3725, 0.685, 0, 0.7825, 0.0975, 0.8825, 0.195, 0.98, 0.2925, 1.0775, 0.3925, 1.175, 0.49, 1.2725, 0.5875, 1.3725, 0.685, 0, 0.7825, 0.0975, 0.8825, 0.195, 0.98, 0.2925, 1.0775, 0.3925, 1.175, 0.49, 1.2725, 0.5875, 1.3725, 0.685, 0, 0.7825, 0.0975, 0.8825, 0.195, 0.98, 0.2925, 1.0775, 0.3925, 1.175, 0.49, 1.2725, 0.5875, 1.3725, 0.685],
  "SoftwareVersions": "syngo MR E11",
  "SpacingBetweenSlices": 2,
  "StationName": "MRC35049",
  "TaskName": "mario3",
  "TotalReadoutTime": 0.0576811,
  "TxRefAmp": 275.739,
  "WipMemBlock": "1b7f879d-c3e3-4faa-92b5-d64cb741c305||Sequence: R017 ve11c/master r/75a17815+; Jun 28 2022 16:32:11 by eja",
  "dcmmeta_affine": [
    [-1.9986963272094727, 0.017791157588362694, 0.06997464597225189, 104.50016021728516],
    [-0.02266332507133484, 1.6857718229293823, -1.0759458541870117, -46.75326156616211],
    [0.06855180859565735, 1.0760375261306763, 1.6844713687896729, -96.80511474609375],
    [0.0, 0.0, 0.0, 1.0]
],
  "dcmmeta_reorient_transform": [
    [0.0, -1.0, 0.0, 103.0],
    [1.0, 0.0, 0.0, 0.0],
    [0.0, 0.0, 1.0, 0.0],
    [0.0, 0.0, 0.0, 1.0]
],
  "dcmmeta_shape": [104, 104, 60, 372],
  "dcmmeta_slice_dim": 2,
  "dcmmeta_version": 0.6,
  "global": {
    "const": {
      "AcquisitionMatrix": [104, 0, 0, 104],
      "AngioFlag": "N",
      "BitsAllocated": 16,
      "BitsStored": 16,
      "BodyPartExamined": "BRAIN",
      "Columns": 832,
      "EchoNumbers": 1,
      "EchoTime": 37.0,
      "EchoTrainLength": 104,
      "FlipAngle": 52.0,
      "HighBit": 15,
      "ImageOrientationPatient": [0.99934816550407, 0.01133166228179, 0.03427590310381, 0.00889557859011, 0.84288592648711, -0.5380187576763],
      "ImagePositionPatient": [-840.33409361026, -748.75164402418, 380.75154813784],
      "ImageType": [
        "ORIGINAL",
        "PRIMARY",
        "M",
        "MB",
        "ND",
        "MOSAIC"
],
      "ImagedNucleus": "1H",
      "ImagingFrequency": 123.258793,
      "InPlanePhaseEncodingDirection": "COL",
      "MRAcquisitionType": "2D",
      "MagneticFieldStrength": 3.0,
      "Manufacturer": "SIEMENS",
      "ManufacturerModelName": "Prisma_fit",
      "Modality": "MR",
      "NumberOfAverages": 1.0,
      "NumberOfPhaseEncodingSteps": 104,
      "PercentPhaseFieldOfView": 100.0,
      "PercentSampling": 100.0,
      "PerformedProcedureStepStartTime": "111300.243000",
      "PhotometricInterpretation": "MONOCHROME2",
      "PixelBandwidth": 2290.0,
      "PixelRepresentation": 0,
      "PixelSpacing": [2.0, 2.0],
      "ProtocolName": "func_task-mario3_run-01",
      "RepetitionTime": 1490.0,
      "Rows": 832,
      "SAR": 0.05605394005105,
      "SamplesPerPixel": 1,
      "ScanOptions": "FS",
      "ScanningSequence": "EP",
      "SequenceName": "epfid2d1_104",
      "SequenceVariant": [
        "SK",
        "SS"
],
      "SeriesDescription": "func_task-mario3_run-01",
      "SeriesNumber": 10,
      "SeriesTime": "112900.796000",
      "SliceLocation": -52.724551873445,
      "SliceThickness": 2.0,
      "SmallestImagePixelValue": 0,
      "SoftwareVersions": "syngo MR E11",
      "SpacingBetweenSlices": 1.999999973689,
      "SpecificCharacterSet": "ISO_IR 100",
      "StudyID": "1",
      "StudyTime": "111300.163000",
      "TransmitCoilName": "Body",
      "VariableFlipAngleFlag": "N",
      "WindowCenterWidthExplanation": "Algo1",
      "dBdt": 0.0},
    "slices": {}
  },
  "time": {
    "samples": {
      "AcquisitionNumber": [1, 2, 3, 4, 5, 6, 7, 8, 9, 10, 11, 12, 13, 14, 15, 16, 17, 18, 19, 20, 21, 22, 23, 24, 25, 26, 27, 28, 29, 30, 31, 32, 33, 34, 35, 36, 37, 38, 39, 40, 41, 42, 43, 44, 45, 46, 47, 48, 49, 50, 51, 52, 53, 54, 55, 56, 57, 58, 59, 60, 61, 62, 63, 64, 65, 66, 67, 68, 69, 70, 71, 72, 73, 74, 75, 76, 77, 78, 79, 80, 81, 82, 83, 84, 85, 86, 87, 88, 89, 90, 91, 92, 93, 94, 95, 96, 97, 98, 99, 100, 101, 102, 103, 104, 105, 106, 107, 108, 109, 110, 111, 112, 113, 114, 115, 116, 117, 118, 119, 120, 121, 122, 123, 124, 125, 126, 127, 128, 129, 130, 131, 132, 133, 134, 135, 136, 137, 138, 139, 140, 141, 142, 143, 144, 145, 146, 147, 148, 149, 150, 151, 152, 153, 154, 155, 156, 157, 158, 159, 160, 161, 162, 163, 164, 165, 166, 167, 168, 169, 170, 171, 172, 173, 174, 175, 176, 177, 178, 179, 180, 181, 182, 183, 184, 185, 186, 187, 188, 189, 190, 191, 192, 193, 194, 195, 196, 197, 198, 199, 200, 201, 202, 203, 204, 205, 206, 207, 208, 209, 210, 211, 212, 213, 214, 215, 216, 217, 218, 219, 220, 221, 222, 223, 224, 225, 226, 227, 228, 229, 230, 231, 232, 233, 234, 235, 236, 237, 238, 239, 240, 241, 242, 243, 244, 245, 246, 247, 248, 249, 250, 251, 252, 253, 254, 255, 256, 257, 258, 259, 260, 261, 262, 263, 264, 265, 266, 267, 268, 269, 270, 271, 272, 273, 274, 275, 276, 277, 278, 279, 280, 281, 282, 283, 284, 285, 286, 287, 288, 289, 290, 291, 292, 293, 294, 295, 296, 297, 298, 299, 300, 301, 302, 303, 304, 305, 306, 307, 308, 309, 310, 311, 312, 313, 314, 315, 316, 317, 318, 319, 320, 321, 322, 323, 324, 325, 326, 327, 328, 329, 330, 331, 332, 333, 334, 335, 336, 337, 338, 339, 340, 341, 342, 343, 344, 345, 346, 347, 348, 349, 350, 351, 352, 353, 354, 355, 356, 357, 358, 359, 360, 361, 362, 363, 364, 365, 366, 367, 368, 369, 370, 371, 372],
      "AcquisitionTime": ["112737.687500", "112739.177500", "112740.667500", "112742.157500", "112743.647500", "112745.137500", "112746.627500", "112748.117500", "112749.607500", "112751.097500", "112752.587500", "112754.077500", "112755.567500", "112757.057500", "112758.547500", "112800.037500", "112801.527500", "112803.017500", "112804.507500", "112805.997500", "112807.487500", "112808.977500", "112810.467500", "112811.957500", "112813.447500", "112814.937500", "112816.427500", "112817.917500", "112819.407500", "112820.897500", "112822.387500", "112823.877500", "112825.367500", "112826.857500", "112828.347500", "112829.837500", "112831.327500", "112832.817500", "112834.307500", "112835.797500", "112837.287500", "112838.777500", "112840.267500", "112841.757500", "112843.247500", "112844.737500", "112846.227500", "112847.717500", "112849.207500", "112850.697500", "112852.187500", "112853.677500", "112855.167500", "112856.657500", "112858.147500", "112859.637500", "112901.127500", "112902.617500", "112904.107500", "112905.597500", "112907.087500", "112908.577500", "112910.067500", "112911.557500", "112913.047500", "112914.537500", "112916.027500", "112917.517500", "112919.007500", "112920.497500", "112921.987500", "112923.477500", "112924.967500", "112926.457500", "112927.947500", "112929.437500", "112930.927500", "112932.417500", "112933.907500", "112935.397500", "112936.887500", "112938.377500", "112939.867500", "112941.357500", "112942.847500", "112944.337500", "112945.827500", "112947.317500", "112948.807500", "112950.297500", "112951.787500", "112953.277500", "112954.767500", "112956.257500", "112957.747500", "112959.237500", "113000.727500", "113002.217500", "113003.707500", "113005.197500", "113006.687500", "113008.177500", "113009.667500", "113011.157500", "113012.647500", "113014.137500", "113015.627500", "113017.117500", "113018.607500", "113020.097500", "113021.587500", "113023.077500", "113024.567500", "113026.057500", "113027.547500", "113029.037500", "113030.527500", "113032.017500", "113033.507500", "113034.997500", "113036.487500", "113037.977500", "113039.467500", "113040.957500", "113042.447500", "113043.937500", "113045.427500", "113046.917500", "113048.407500", "113049.897500", "113051.387500", "113052.877500", "113054.367500", "113055.857500", "113057.347500", "113058.837500", "113100.327500", "113101.817500", "113103.307500", "113104.797500", "113106.287500", "113107.777500", "113109.267500", "113110.757500", "113112.247500", "113113.737500", "113115.227500", "113116.717500", "113118.207500", "113119.697500", "113121.187500", "113122.677500", "113124.167500", "113125.657500", "113127.147500", "113128.637500", "113130.127500", "113131.617500", "113133.107500", "113134.597500", "113136.087500", "113137.577500", "113139.067500", "113140.557500", "113142.047500", "113143.537500", "113145.027500", "113146.517500", "113148.007500", "113149.497500", "113150.987500", "113152.477500", "113153.967500", "113155.457500", "113156.947500", "113158.437500", "113159.927500", "113201.417500", "113202.907500", "113204.397500", "113205.887500", "113207.377500", "113208.867500", "113210.357500", "113211.847500", "113213.337500", "113214.827500", "113216.317500", "113217.807500", "113219.297500", "113220.787500", "113222.277500", "113223.767500", "113225.257500", "113226.747500", "113228.237500", "113229.727500", "113231.217500", "113232.707500", "113234.197500", "113235.687500", "113237.177500", "113238.667500", "113240.157500", "113241.647500", "113243.137500", "113244.627500", "113246.117500", "113247.607500", "113249.097500", "113250.587500", "113252.077500", "113253.567500", "113255.057500", "113256.547500", "113258.037500", "113259.527500", "113301.017500", "113302.507500", "113303.997500", "113305.487500", "113306.977500", "113308.467500", "113309.957500", "113311.447500", "113312.937500", "113314.427500", "113315.917500", "113317.407500", "113318.897500", "113320.387500", "113321.877500", "113323.367500", "113324.857500", "113326.347500", "113327.837500", "113329.327500", "113330.817500", "113332.307500", "113333.797500", "113335.287500", "113336.777500", "113338.267500", "113339.757500", "113341.247500", "113342.737500", "113344.227500", "113345.717500", "113347.207500", "113348.697500", "113350.187500", "113351.677500", "113353.167500", "113354.657500", "113356.147500", "113357.637500", "113359.127500", "113400.617500", "113402.107500", "113403.597500", "113405.087500", "113406.577500", "113408.067500", "113409.557500", "113411.047500", "113412.537500", "113414.027500", "113415.517500", "113417.007500", "113418.497500", "113419.987500", "113421.477500", "113422.967500", "113424.457500", "113425.947500", "113427.437500", "113428.927500", "113430.417500", "113431.907500", "113433.397500", "113434.887500", "113436.377500", "113437.867500", "113439.357500", "113440.847500", "113442.337500", "113443.827500", "113445.317500", "113446.807500", "113448.297500", "113449.787500", "113451.277500", "113452.767500", "113454.257500", "113455.747500", "113457.237500", "113458.727500", "113500.217500", "113501.707500", "113503.197500", "113504.687500", "113506.177500", "113507.667500", "113509.157500", "113510.647500", "113512.137500", "113513.627500", "113515.117500", "113516.607500", "113518.097500", "113519.587500", "113521.077500", "113522.567500", "113524.057500", "113525.547500", "113527.037500", "113528.527500", "113530.017500", "113531.507500", "113532.997500", "113534.487500", "113535.977500", "113537.467500", "113538.957500", "113540.447500", "113541.937500", "113543.427500", "113544.917500", "113546.407500", "113547.897500", "113549.387500", "113550.877500", "113552.367500", "113553.857500", "113555.347500", "113556.837500", "113558.327500", "113559.817500", "113601.307500", "113602.797500", "113604.287500", "113605.777500", "113607.267500", "113608.757500", "113610.247500", "113611.737500", "113613.227500", "113614.717500", "113616.207500", "113617.697500", "113619.187500", "113620.677500", "113622.167500", "113623.657500", "113625.147500", "113626.637500", "113628.127500", "113629.617500", "113631.107500", "113632.597500", "113634.087500", "113635.577500", "113637.067500", "113638.557500", "113640.047500", "113641.537500", "113643.027500", "113644.517500", "113646.007500", "113647.497500", "113648.987500", "113650.477500"],
      "ContentTime": ["112900.800000", "112900.804000", "112900.807000", "112900.811000", "112900.814000", "112900.817000", "112900.826000", "112900.830000", "112900.834000", "112900.837000", "112900.840000", "112900.844000", "112900.847000", "112900.851000", "112900.854000", "112900.858000", "112900.861000", "112900.865000", "112900.868000", "112900.871000", "112900.875000", "112900.878000", "112900.882000", "112900.885000", "112900.889000", "112900.892000", "112900.895000", "112900.899000", "112900.902000", "112900.906000", "112900.909000", "112900.921000", "112900.925000", "112920.762000", "112920.766000", "112920.769000", "112920.773000", "112920.776000", "112920.780000", "112920.783000", "112920.787000", "112920.790000", "112920.793000", "112920.797000", "112920.800000", "112920.804000", "112920.807000", "112920.811000", "112920.814000", "112920.818000", "112920.821000", "112920.824000", "112920.828000", "112920.831000", "112940.762000", "112940.766000", "112940.770000", "112940.773000", "112940.776000", "112940.780000", "112940.783000", "112940.787000", "112940.790000", "112940.794000", "112940.797000", "112940.801000", "112940.804000", "112940.830000", "112940.833000", "112940.836000", "112940.840000", "112940.843000", "112940.847000", "112940.850000", "113000.762000", "113000.766000", "113000.769000", "113000.773000", "113000.776000", "113000.780000", "113000.783000", "113000.787000", "113000.790000", "113000.794000", "113000.797000", "113000.801000", "113000.823000", "113000.827000", "113000.830000", "113000.834000", "113000.837000", "113000.840000", "113000.844000", "113000.847000", "113040.762000", "113040.766000", "113040.770000", "113040.773000", "113040.777000", "113040.780000", "113040.784000", "113040.787000", "113040.790000", "113040.794000", "113040.797000", "113040.801000", "113040.804000", "113040.808000", "113040.811000", "113040.815000", "113040.818000", "113040.822000", "113040.825000", "113040.828000", "113040.832000", "113040.835000", "113040.839000", "113040.842000", "113040.846000", "113040.849000", "113040.853000", "113040.856000", "113120.762000", "113120.766000", "113120.770000", "113120.773000", "113120.777000", "113120.780000", "113120.784000", "113120.787000", "113120.791000", "113120.794000", "113120.798000", "113120.801000", "113120.804000", "113120.808000", "113120.811000", "113120.815000", "113120.818000", "113120.822000", "113120.825000", "113120.829000", "113120.832000", "113120.835000", "113120.839000", "113120.842000", "113120.846000", "113120.849000", "113120.853000", "113200.762000", "113200.766000", "113200.770000", "113200.773000", "113200.777000", "113200.780000", "113200.802000", "113200.806000", "113200.809000", "113200.813000", "113200.816000", "113200.820000", "113200.823000", "113200.827000", "113200.830000", "113200.833000", "113200.837000", "113200.866000", "113200.870000", "113200.873000", "113200.877000", "113200.880000", "113200.883000", "113200.887000", "113200.890000", "113200.894000", "113200.897000", "113240.762000", "113240.766000", "113240.770000", "113240.773000", "113240.777000", "113240.780000", "113240.784000", "113240.787000", "113240.790000", "113240.794000", "113240.797000", "113240.801000", "113240.804000", "113240.808000", "113240.811000", "113240.815000", "113240.818000", "113240.822000", "113240.825000", "113240.828000", "113240.832000", "113240.835000", "113240.839000", "113240.842000", "113240.846000", "113240.849000", "113240.853000", "113320.761000", "113320.765000", "113320.769000", "113320.772000", "113320.776000", "113320.779000", "113320.784000", "113320.787000", "113320.791000", "113320.794000", "113320.798000", "113320.802000", "113320.805000", "113320.809000", "113320.812000", "113320.815000", "113320.819000", "113320.822000", "113320.826000", "113320.829000", "113320.833000", "113320.836000", "113320.840000", "113320.843000", "113320.847000", "113320.850000", "113320.854000", "113400.762000", "113400.766000", "113400.770000", "113400.773000", "113400.777000", "113400.780000", "113400.784000", "113400.787000", "113400.791000", "113400.794000", "113400.798000", "113400.801000", "113400.805000", "113400.808000", "113400.812000", "113400.815000", "113400.819000", "113400.822000", "113400.826000", "113400.829000", "113400.833000", "113400.836000", "113400.840000", "113400.843000", "113400.846000", "113400.850000", "113440.762000", "113440.766000", "113440.770000", "113440.773000", "113440.777000", "113440.780000", "113440.784000", "113440.846000", "113440.850000", "113440.853000", "113440.857000", "113440.860000", "113440.864000", "113440.867000", "113440.871000", "113440.874000", "113440.877000", "113440.881000", "113440.884000", "113440.888000", "113440.891000", "113440.895000", "113440.898000", "113440.902000", "113440.905000", "113440.909000", "113440.912000", "113520.762000", "113520.766000", "113520.770000", "113520.774000", "113520.778000", "113520.781000", "113520.785000", "113520.788000", "113520.792000", "113520.796000", "113520.799000", "113520.803000", "113520.806000", "113520.809000", "113520.813000", "113520.816000", "113520.820000", "113520.823000", "113520.827000", "113520.830000", "113520.834000", "113520.837000", "113520.841000", "113520.844000", "113520.848000", "113520.851000", "113520.855000", "113600.762000", "113600.766000", "113600.770000", "113600.773000", "113600.777000", "113600.780000", "113600.784000", "113600.787000", "113600.791000", "113600.794000", "113600.798000", "113600.801000", "113600.804000", "113600.808000", "113600.811000", "113600.815000", "113600.818000", "113600.822000", "113600.825000", "113600.829000", "113600.832000", "113600.836000", "113600.839000", "113600.842000", "113600.846000", "113600.849000", "113600.853000", "113640.774000", "113640.777000", "113640.781000", "113640.785000", "113640.788000", "113640.792000", "113640.795000", "113640.799000", "113640.802000", "113640.806000", "113640.809000", "113640.813000", "113640.816000", "113640.820000", "113640.823000", "113640.827000", "113640.830000", "113640.834000", "113640.837000", "113640.841000", "113640.844000", "113640.848000", "113640.851000", "113640.854000", "113640.858000", "113640.861000", "113640.865000", "113652.759000", "113652.763000", "113652.766000", "113652.770000", "113652.773000", "113652.777000", "113652.780000", "113652.784000"],
      "InstanceCreationTime": ["112900.800000", "112900.804000", "112900.807000", "112900.811000", "112900.814000", "112900.817000", "112900.826000", "112900.830000", "112900.834000", "112900.837000", "112900.840000", "112900.844000", "112900.847000", "112900.851000", "112900.854000", "112900.858000", "112900.861000", "112900.865000", "112900.868000", "112900.871000", "112900.875000", "112900.878000", "112900.882000", "112900.885000", "112900.889000", "112900.892000", "112900.895000", "112900.899000", "112900.902000", "112900.906000", "112900.909000", "112900.921000", "112900.925000", "112920.762000", "112920.766000", "112920.769000", "112920.773000", "112920.776000", "112920.780000", "112920.783000", "112920.787000", "112920.790000", "112920.793000", "112920.797000", "112920.800000", "112920.804000", "112920.807000", "112920.811000", "112920.814000", "112920.818000", "112920.821000", "112920.824000", "112920.828000", "112920.831000", "112940.762000", "112940.766000", "112940.770000", "112940.773000", "112940.776000", "112940.780000", "112940.783000", "112940.787000", "112940.790000", "112940.794000", "112940.797000", "112940.801000", "112940.804000", "112940.830000", "112940.833000", "112940.836000", "112940.840000", "112940.843000", "112940.847000", "112940.850000", "113000.762000", "113000.766000", "113000.769000", "113000.773000", "113000.776000", "113000.780000", "113000.783000", "113000.787000", "113000.790000", "113000.794000", "113000.797000", "113000.801000", "113000.823000", "113000.827000", "113000.830000", "113000.834000", "113000.837000", "113000.840000", "113000.844000", "113000.847000", "113040.762000", "113040.766000", "113040.770000", "113040.773000", "113040.777000", "113040.780000", "113040.784000", "113040.787000", "113040.790000", "113040.794000", "113040.797000", "113040.801000", "113040.804000", "113040.808000", "113040.811000", "113040.815000", "113040.818000", "113040.822000", "113040.825000", "113040.828000", "113040.832000", "113040.835000", "113040.839000", "113040.842000", "113040.846000", "113040.849000", "113040.853000", "113040.856000", "113120.762000", "113120.766000", "113120.770000", "113120.773000", "113120.777000", "113120.780000", "113120.784000", "113120.787000", "113120.791000", "113120.794000", "113120.798000", "113120.801000", "113120.804000", "113120.808000", "113120.811000", "113120.815000", "113120.818000", "113120.822000", "113120.825000", "113120.829000", "113120.832000", "113120.835000", "113120.839000", "113120.842000", "113120.846000", "113120.849000", "113120.853000", "113200.762000", "113200.766000", "113200.770000", "113200.773000", "113200.777000", "113200.780000", "113200.802000", "113200.806000", "113200.809000", "113200.813000", "113200.816000", "113200.820000", "113200.823000", "113200.827000", "113200.830000", "113200.833000", "113200.837000", "113200.866000", "113200.870000", "113200.873000", "113200.877000", "113200.880000", "113200.883000", "113200.887000", "113200.890000", "113200.894000", "113200.897000", "113240.762000", "113240.766000", "113240.770000", "113240.773000", "113240.777000", "113240.780000", "113240.784000", "113240.787000", "113240.790000", "113240.794000", "113240.797000", "113240.801000", "113240.804000", "113240.808000", "113240.811000", "113240.815000", "113240.818000", "113240.822000", "113240.825000", "113240.828000", "113240.832000", "113240.835000", "113240.839000", "113240.842000", "113240.846000", "113240.849000", "113240.853000", "113320.761000", "113320.765000", "113320.769000", "113320.772000", "113320.776000", "113320.779000", "113320.784000", "113320.787000", "113320.791000", "113320.794000", "113320.798000", "113320.802000", "113320.805000", "113320.809000", "113320.812000", "113320.815000", "113320.819000", "113320.822000", "113320.826000", "113320.829000", "113320.833000", "113320.836000", "113320.840000", "113320.843000", "113320.847000", "113320.850000", "113320.854000", "113400.762000", "113400.766000", "113400.770000", "113400.773000", "113400.777000", "113400.780000", "113400.784000", "113400.787000", "113400.791000", "113400.794000", "113400.798000", "113400.801000", "113400.805000", "113400.808000", "113400.812000", "113400.815000", "113400.819000", "113400.822000", "113400.826000", "113400.829000", "113400.833000", "113400.836000", "113400.840000", "113400.843000", "113400.846000", "113400.850000", "113440.762000", "113440.766000", "113440.770000", "113440.773000", "113440.777000", "113440.780000", "113440.784000", "113440.846000", "113440.850000", "113440.853000", "113440.857000", "113440.860000", "113440.864000", "113440.867000", "113440.871000", "113440.874000", "113440.877000", "113440.881000", "113440.884000", "113440.888000", "113440.891000", "113440.895000", "113440.898000", "113440.902000", "113440.905000", "113440.909000", "113440.912000", "113520.762000", "113520.766000", "113520.770000", "113520.774000", "113520.778000", "113520.781000", "113520.785000", "113520.788000", "113520.792000", "113520.796000", "113520.799000", "113520.803000", "113520.806000", "113520.809000", "113520.813000", "113520.816000", "113520.820000", "113520.823000", "113520.827000", "113520.830000", "113520.834000", "113520.837000", "113520.841000", "113520.844000", "113520.848000", "113520.851000", "113520.855000", "113600.762000", "113600.766000", "113600.770000", "113600.773000", "113600.777000", "113600.780000", "113600.784000", "113600.787000", "113600.791000", "113600.794000", "113600.798000", "113600.801000", "113600.804000", "113600.808000", "113600.811000", "113600.815000", "113600.818000", "113600.822000", "113600.825000", "113600.829000", "113600.832000", "113600.836000", "113600.839000", "113600.842000", "113600.846000", "113600.849000", "113600.853000", "113640.774000", "113640.777000", "113640.781000", "113640.785000", "113640.788000", "113640.792000", "113640.795000", "113640.799000", "113640.802000", "113640.806000", "113640.809000", "113640.813000", "113640.816000", "113640.820000", "113640.823000", "113640.827000", "113640.830000", "113640.834000", "113640.837000", "113640.841000", "113640.844000", "113640.848000", "113640.851000", "113640.854000", "113640.858000", "113640.861000", "113640.865000", "113652.759000", "113652.763000", "113652.766000", "113652.770000", "113652.773000", "113652.777000", "113652.780000", "113652.784000"],
      "InstanceNumber": [1, 2, 3, 4, 5, 6, 7, 8, 9, 10, 11, 12, 13, 14, 15, 16, 17, 18, 19, 20, 21, 22, 23, 24, 25, 26, 27, 28, 29, 30, 31, 32, 33, 34, 35, 36, 37, 38, 39, 40, 41, 42, 43, 44, 45, 46, 47, 48, 49, 50, 51, 52, 53, 54, 55, 56, 57, 58, 59, 60, 61, 62, 63, 64, 65, 66, 67, 68, 69, 70, 71, 72, 73, 74, 75, 76, 77, 78, 79, 80, 81, 82, 83, 84, 85, 86, 87, 88, 89, 90, 91, 92, 93, 94, 95, 96, 97, 98, 99, 100, 101, 102, 103, 104, 105, 106, 107, 108, 109, 110, 111, 112, 113, 114, 115, 116, 117, 118, 119, 120, 121, 122, 123, 124, 125, 126, 127, 128, 129, 130, 131, 132, 133, 134, 135, 136, 137, 138, 139, 140, 141, 142, 143, 144, 145, 146, 147, 148, 149, 150, 151, 152, 153, 154, 155, 156, 157, 158, 159, 160, 161, 162, 163, 164, 165, 166, 167, 168, 169, 170, 171, 172, 173, 174, 175, 176, 177, 178, 179, 180, 181, 182, 183, 184, 185, 186, 187, 188, 189, 190, 191, 192, 193, 194, 195, 196, 197, 198, 199, 200, 201, 202, 203, 204, 205, 206, 207, 208, 209, 210, 211, 212, 213, 214, 215, 216, 217, 218, 219, 220, 221, 222, 223, 224, 225, 226, 227, 228, 229, 230, 231, 232, 233, 234, 235, 236, 237, 238, 239, 240, 241, 242, 243, 244, 245, 246, 247, 248, 249, 250, 251, 252, 253, 254, 255, 256, 257, 258, 259, 260, 261, 262, 263, 264, 265, 266, 267, 268, 269, 270, 271, 272, 273, 274, 275, 276, 277, 278, 279, 280, 281, 282, 283, 284, 285, 286, 287, 288, 289, 290, 291, 292, 293, 294, 295, 296, 297, 298, 299, 300, 301, 302, 303, 304, 305, 306, 307, 308, 309, 310, 311, 312, 313, 314, 315, 316, 317, 318, 319, 320, 321, 322, 323, 324, 325, 326, 327, 328, 329, 330, 331, 332, 333, 334, 335, 336, 337, 338, 339, 340, 341, 342, 343, 344, 345, 346, 347, 348, 349, 350, 351, 352, 353, 354, 355, 356, 357, 358, 359, 360, 361, 362, 363, 364, 365, 366, 367, 368, 369, 370, 371, 372],
