{
  "AcquisitionMatrixPE": 104,
  "AcquisitionNumber": 1,
  "AcquisitionTime": "11:47:3.007500",
  "BandwidthPerPixelPhaseEncode": 17.17,
  "BaseResolution": 104,
  "BodyPartExamined": "BRAIN",
  "CoilCombinationMethod": "Sum of Squares",
  "ConsistencyInfo": "N4_VE11C_LATEST_20160120",
  "ConversionSoftware": "dcm2niix",
  "ConversionSoftwareVersion": "v1.0.20220505",
  "DerivedVendorReportedEchoSpacing": 0.000560011,
  "DeviceSerialNumber": "167006",
  "DwellTime": 2.1e-06,
  "EchoTime": 0.037,
  "EchoTrainLength": 104,
  "EffectiveEchoSpacing": 0.000560011,
  "FlipAngle": 52,
  "HeudiconvVersion": "0.5.3.post811+g6206e14",
  "ImageComments": "Unaliased MB4/PE3/LB",
  "ImageOrientationPatientDICOM": [0.999348, 0.0113317, 0.0342759, 0.00889558, 0.842886, -0.538019],
  "ImageOrientationText": "Tra>Cor(-32.6)>Sag(2.0)",
  "ImageType": [
    "ORIGINAL",
    "PRIMARY",
    "M",
    "MB",
    "ND",
    "MOSAIC"
],
  "ImagingFrequency": 123.259,
  "InPlanePhaseEncodingDirectionDICOM": "COL",
  "InstitutionAddress": "Chemin Queen-Mary 4565,Montreal,District,CA,H3W 1W5",
  "InstitutionName": "IUGM",
  "InstitutionalDepartmentName": "Department",
  "MRAcquisitionType": "2D",
  "MagneticFieldStrength": 3,
  "Manufacturer": "Siemens",
  "ManufacturersModelName": "Prisma_fit",
  "MatrixCoilMode": "SENSE",
  "Modality": "MR",
  "MultibandAccelerationFactor": 4,
  "PartialFourier": 1,
  "PatientPosition": "HFS",
  "PercentPhaseFOV": 100,
  "PercentSampling": 100,
  "PhaseEncodingDirection": "j",
  "PhaseEncodingSteps": 104,
  "PhaseResolution": 1,
  "PixelBandwidth": 2290,
  "ProcedureStepDescription": "games^mario3",
  "ProtocolName": "func_task-mario3_run-03",
  "PulseSequenceDetails": "%CustomerSeq%\\cmrr_mbep2d_bold",
  "ReceiveCoilActiveElements": "HC1-7;NC1,2",
  "ReceiveCoilName": "HeadNeck_64",
  "ReconMatrixPE": 104,
  "RepetitionTime": 1.49,
  "SAR": 0.0560539,
  "ScanOptions": "FS",
  "ScanningSequence": "EP",
  "SequenceName": "epfid2d1_104",
  "SequenceVariant": "SK\\SS",
  "SeriesDescription": "func_task-mario3_run-03",
  "SeriesNumber": 16,
  "ShimSetting": [625, -7183, -8879, 232, 8, -217, 1, 26],
  "SliceThickness": 2,
  "SliceTiming": [0, 0.785, 0.0975, 0.8825, 0.195, 0.98, 0.295, 1.0775, 0.3925, 1.175, 0.49, 1.275, 0.5875, 1.3725, 0.685, 0, 0.785, 0.0975, 0.8825, 0.195, 0.98, 0.295, 1.0775, 0.3925, 1.175, 0.49, 1.275, 0.5875, 1.3725, 0.685, 0, 0.785, 0.0975, 0.8825, 0.195, 0.98, 0.295, 1.0775, 0.3925, 1.175, 0.49, 1.275, 0.5875, 1.3725, 0.685, 0, 0.785, 0.0975, 0.8825, 0.195, 0.98, 0.295, 1.0775, 0.3925, 1.175, 0.49, 1.275, 0.5875, 1.3725, 0.685],
  "SoftwareVersions": "syngo MR E11",
  "SpacingBetweenSlices": 2,
  "StationName": "MRC35049",
  "TaskName": "mario3",
  "TotalReadoutTime": 0.0576811,
  "TxRefAmp": 275.739,
  "WipMemBlock": "19213869-a442-43d3-ba98-331b19f93922||Sequence: R017 ve11c/master r/75a17815+; Jun 28 2022 16:32:11 by eja",
  "dcmmeta_affine": [
    [-1.9986963272094727, 0.017791157588362694, 0.06997464597225189, 104.50016021728516],
    [-0.02266332507133484, 1.6857718229293823, -1.0759458541870117, -46.75326156616211],
    [0.06855180859565735, 1.0760375261306763, 1.6844713687896729, -96.80511474609375],
    [0.0, 0.0, 0.0, 1.0]
],
  "dcmmeta_reorient_transform": [
    [0.0, -1.0, 0.0, 103.0],
    [1.0, 0.0, 0.0, 0.0],
    [0.0, 0.0, 1.0, 0.0],
    [0.0, 0.0, 0.0, 1.0]
],
  "dcmmeta_shape": [104, 104, 60, 378],
  "dcmmeta_slice_dim": 2,
  "dcmmeta_version": 0.6,
  "global": {
    "const": {
      "AcquisitionMatrix": [104, 0, 0, 104],
      "AngioFlag": "N",
      "BitsAllocated": 16,
      "BitsStored": 16,
      "BodyPartExamined": "BRAIN",
      "Columns": 832,
      "EchoNumbers": 1,
      "EchoTime": 37.0,
      "EchoTrainLength": 104,
      "FlipAngle": 52.0,
      "HighBit": 15,
      "ImageOrientationPatient": [0.99934816550407, 0.01133166228179, 0.03427590310381, 0.00889557859011, 0.84288592648711, -0.5380187576763],
      "ImagePositionPatient": [-840.33409361026, -748.75164402418, 380.75154813784],
      "ImageType": [
        "ORIGINAL",
        "PRIMARY",
        "M",
        "MB",
        "ND",
        "MOSAIC"
],
      "ImagedNucleus": "1H",
      "ImagingFrequency": 123.258807,
      "InPlanePhaseEncodingDirection": "COL",
      "MRAcquisitionType": "2D",
      "MagneticFieldStrength": 3.0,
      "Manufacturer": "SIEMENS",
      "ManufacturerModelName": "Prisma_fit",
      "Modality": "MR",
      "NumberOfAverages": 1.0,
      "NumberOfPhaseEncodingSteps": 104,
      "PercentPhaseFieldOfView": 100.0,
      "PercentSampling": 100.0,
      "PerformedProcedureStepStartTime": "111300.243000",
      "PhotometricInterpretation": "MONOCHROME2",
      "PixelBandwidth": 2290.0,
      "PixelRepresentation": 0,
      "PixelSpacing": [2.0, 2.0],
      "ProtocolName": "func_task-mario3_run-03",
      "RepetitionTime": 1490.0,
      "Rows": 832,
      "SAR": 0.05605394005105,
      "SamplesPerPixel": 1,
      "ScanOptions": "FS",
      "ScanningSequence": "EP",
      "SequenceName": "epfid2d1_104",
      "SequenceVariant": [
        "SK",
        "SS"
],
      "SeriesDescription": "func_task-mario3_run-03",
      "SeriesNumber": 16,
      "SeriesTime": "114819.167000",
      "SliceLocation": -52.724551873445,
      "SliceThickness": 2.0,
      "SmallestImagePixelValue": 0,
      "SoftwareVersions": "syngo MR E11",
      "SpacingBetweenSlices": 1.999999973689,
      "SpecificCharacterSet": "ISO_IR 100",
      "StudyID": "1",
      "StudyTime": "111300.163000",
      "TransmitCoilName": "Body",
      "VariableFlipAngleFlag": "N",
      "WindowCenterWidthExplanation": "Algo1",
      "dBdt": 0.0},
    "slices": {}
  },
  "time": {
    "samples": {
      "AcquisitionNumber": [1, 2, 3, 4, 5, 6, 7, 8, 9, 10, 11, 12, 13, 14, 15, 16, 17, 18, 19, 20, 21, 22, 23, 24, 25, 26, 27, 28, 29, 30, 31, 32, 33, 34, 35, 36, 37, 38, 39, 40, 41, 42, 43, 44, 45, 46, 47, 48, 49, 50, 51, 52, 53, 54, 55, 56, 57, 58, 59, 60, 61, 62, 63, 64, 65, 66, 67, 68, 69, 70, 71, 72, 73, 74, 75, 76, 77, 78, 79, 80, 81, 82, 83, 84, 85, 86, 87, 88, 89, 90, 91, 92, 93, 94, 95, 96, 97, 98, 99, 100, 101, 102, 103, 104, 105, 106, 107, 108, 109, 110, 111, 112, 113, 114, 115, 116, 117, 118, 119, 120, 121, 122, 123, 124, 125, 126, 127, 128, 129, 130, 131, 132, 133, 134, 135, 136, 137, 138, 139, 140, 141, 142, 143, 144, 145, 146, 147, 148, 149, 150, 151, 152, 153, 154, 155, 156, 157, 158, 159, 160, 161, 162, 163, 164, 165, 166, 167, 168, 169, 170, 171, 172, 173, 174, 175, 176, 177, 178, 179, 180, 181, 182, 183, 184, 185, 186, 187, 188, 189, 190, 191, 192, 193, 194, 195, 196, 197, 198, 199, 200, 201, 202, 203, 204, 205, 206, 207, 208, 209, 210, 211, 212, 213, 214, 215, 216, 217, 218, 219, 220, 221, 222, 223, 224, 225, 226, 227, 228, 229, 230, 231, 232, 233, 234, 235, 236, 237, 238, 239, 240, 241, 242, 243, 244, 245, 246, 247, 248, 249, 250, 251, 252, 253, 254, 255, 256, 257, 258, 259, 260, 261, 262, 263, 264, 265, 266, 267, 268, 269, 270, 271, 272, 273, 274, 275, 276, 277, 278, 279, 280, 281, 282, 283, 284, 285, 286, 287, 288, 289, 290, 291, 292, 293, 294, 295, 296, 297, 298, 299, 300, 301, 302, 303, 304, 305, 306, 307, 308, 309, 310, 311, 312, 313, 314, 315, 316, 317, 318, 319, 320, 321, 322, 323, 324, 325, 326, 327, 328, 329, 330, 331, 332, 333, 334, 335, 336, 337, 338, 339, 340, 341, 342, 343, 344, 345, 346, 347, 348, 349, 350, 351, 352, 353, 354, 355, 356, 357, 358, 359, 360, 361, 362, 363, 364, 365, 366, 367, 368, 369, 370, 371, 372, 373, 374, 375, 376, 377, 378],
      "AcquisitionTime": ["114703.007500", "114704.497500", "114705.987500", "114707.477500", "114708.967500", "114710.457500", "114711.947500", "114713.437500", "114714.927500", "114716.417500", "114717.907500", "114719.397500", "114720.887500", "114722.377500", "114723.867500", "114725.357500", "114726.847500", "114728.337500", "114729.827500", "114731.317500", "114732.807500", "114734.297500", "114735.787500", "114737.277500", "114738.767500", "114740.257500", "114741.747500", "114743.237500", "114744.727500", "114746.217500", "114747.707500", "114749.197500", "114750.687500", "114752.177500", "114753.667500", "114755.157500", "114756.647500", "114758.137500", "114759.627500", "114801.117500", "114802.607500", "114804.097500", "114805.587500", "114807.077500", "114808.567500", "114810.057500", "114811.547500", "114813.037500", "114814.527500", "114816.017500", "114817.507500", "114818.997500", "114820.487500", "114821.977500", "114823.467500", "114824.957500", "114826.447500", "114827.937500", "114829.427500", "114830.917500", "114832.407500", "114833.897500", "114835.387500", "114836.877500", "114838.367500", "114839.857500", "114841.347500", "114842.837500", "114844.327500", "114845.817500", "114847.307500", "114848.797500", "114850.287500", "114851.777500", "114853.267500", "114854.757500", "114856.247500", "114857.737500", "114859.227500", "114900.717500", "114902.207500", "114903.697500", "114905.187500", "114906.677500", "114908.167500", "114909.657500", "114911.147500", "114912.637500", "114914.127500", "114915.617500", "114917.107500", "114918.597500", "114920.087500", "114921.577500", "114923.067500", "114924.557500", "114926.047500", "114927.537500", "114929.027500", "114930.517500", "114932.007500", "114933.497500", "114934.987500", "114936.477500", "114937.967500", "114939.457500", "114940.947500", "114942.437500", "114943.927500", "114945.417500", "114946.907500", "114948.397500", "114949.887500", "114951.377500", "114952.867500", "114954.357500", "114955.847500", "114957.337500", "114958.827500", "115000.317500", "115001.807500", "115003.297500", "115004.787500", "115006.277500", "115007.767500", "115009.257500", "115010.747500", "115012.237500", "115013.727500", "115015.217500", "115016.707500", "115018.197500", "115019.687500", "115021.177500", "115022.667500", "115024.157500", "115025.647500", "115027.137500", "115028.627500", "115030.117500", "115031.607500", "115033.097500", "115034.587500", "115036.077500", "115037.567500", "115039.057500", "115040.547500", "115042.037500", "115043.527500", "115045.017500", "115046.507500", "115047.997500", "115049.487500", "115050.977500", "115052.467500", "115053.957500", "115055.447500", "115056.937500", "115058.427500", "115059.917500", "115101.407500", "115102.897500", "115104.387500", "115105.877500", "115107.367500", "115108.857500", "115110.347500", "115111.837500", "115113.327500", "115114.817500", "115116.307500", "115117.797500", "115119.287500", "115120.777500", "115122.267500", "115123.757500", "115125.247500", "115126.737500", "115128.227500", "115129.717500", "115131.207500", "115132.697500", "115134.187500", "115135.677500", "115137.167500", "115138.657500", "115140.147500", "115141.637500", "115143.127500", "115144.617500", "115146.107500", "115147.597500", "115149.087500", "115150.577500", "115152.067500", "115153.557500", "115155.047500", "115156.537500", "115158.027500", "115159.517500", "115201.007500", "115202.497500", "115203.987500", "115205.477500", "115206.967500", "115208.457500", "115209.947500", "115211.437500", "115212.927500", "115214.417500", "115215.907500", "115217.397500", "115218.887500", "115220.377500", "115221.867500", "115223.357500", "115224.847500", "115226.337500", "115227.827500", "115229.317500", "115230.807500", "115232.297500", "115233.787500", "115235.277500", "115236.767500", "115238.257500", "115239.747500", "115241.237500", "115242.727500", "115244.217500", "115245.707500", "115247.197500", "115248.687500", "115250.177500", "115251.667500", "115253.157500", "115254.647500", "115256.137500", "115257.627500", "115259.117500", "115300.607500", "115302.097500", "115303.587500", "115305.077500", "115306.567500", "115308.057500", "115309.547500", "115311.037500", "115312.527500", "115314.017500", "115315.507500", "115316.997500", "115318.487500", "115319.977500", "115321.467500", "115322.957500", "115324.447500", "115325.937500", "115327.427500", "115328.917500", "115330.407500", "115331.897500", "115333.387500", "115334.877500", "115336.367500", "115337.857500", "115339.347500", "115340.837500", "115342.327500", "115343.817500", "115345.307500", "115346.797500", "115348.287500", "115349.777500", "115351.267500", "115352.757500", "115354.247500", "115355.737500", "115357.227500", "115358.717500", "115400.207500", "115401.697500", "115403.187500", "115404.677500", "115406.167500", "115407.657500", "115409.147500", "115410.637500", "115412.127500", "115413.617500", "115415.107500", "115416.597500", "115418.087500", "115419.577500", "115421.067500", "115422.557500", "115424.047500", "115425.537500", "115427.027500", "115428.517500", "115430.007500", "115431.497500", "115432.987500", "115434.477500", "115435.967500", "115437.457500", "115438.947500", "115440.437500", "115441.927500", "115443.417500", "115444.907500", "115446.397500", "115447.887500", "115449.377500", "115450.867500", "115452.357500", "115453.847500", "115455.337500", "115456.827500", "115458.317500", "115459.807500", "115501.297500", "115502.787500", "115504.277500", "115505.767500", "115507.257500", "115508.747500", "115510.237500", "115511.727500", "115513.217500", "115514.707500", "115516.197500", "115517.687500", "115519.177500", "115520.667500", "115522.157500", "115523.647500", "115525.137500", "115526.627500", "115528.117500", "115529.607500", "115531.097500", "115532.587500", "115534.077500", "115535.567500", "115537.057500", "115538.547500", "115540.037500", "115541.527500", "115543.017500", "115544.507500", "115545.997500", "115547.487500", "115548.977500", "115550.467500", "115551.957500", "115553.447500", "115554.937500", "115556.427500", "115557.917500", "115559.407500", "115600.897500", "115602.387500", "115603.877500", "115605.367500", "115606.857500", "115608.347500", "115609.837500", "115611.327500", "115612.817500", "115614.307500", "115615.797500", "115617.287500", "115618.777500", "115620.267500", "115621.757500", "115623.247500", "115624.737500"],
      "ContentTime": ["114819.171000", "114819.174000", "114819.178000", "114819.181000", "114819.185000", "114819.188000", "114819.192000", "114819.195000", "114819.199000", "114819.202000", "114819.206000", "114819.209000", "114819.213000", "114819.227000", "114819.230000", "114819.234000", "114819.237000", "114819.241000", "114819.244000", "114819.248000", "114819.251000", "114819.254000", "114819.258000", "114819.261000", "114819.265000", "114819.268000", "114819.272000", "114839.135000", "114839.139000", "114839.143000", "114839.146000", "114839.150000", "114839.153000", "114839.156000", "114839.160000", "114839.163000", "114839.167000", "114839.170000", "114839.173000", "114839.177000", "114839.180000", "114839.184000", "114839.187000", "114839.191000", "114839.194000", "114839.197000", "114839.201000", "114859.135000", "114859.139000", "114859.143000", "114859.146000", "114859.150000", "114859.153000", "114859.156000", "114859.160000", "114859.174000", "114859.177000", "114859.180000", "114859.184000", "114859.187000", "114859.191000", "114859.194000", "114859.198000", "114859.201000", "114859.204000", "114859.208000", "114859.211000", "114859.215000", "114919.135000", "114919.139000", "114919.143000", "114919.146000", "114919.149000", "114919.153000", "114919.156000", "114919.160000", "114919.163000", "114919.167000", "114919.170000", "114919.174000", "114919.177000", "114919.181000", "114919.184000", "114919.187000", "114919.191000", "114919.194000", "114919.198000", "114919.201000", "114959.135000", "114959.139000", "114959.143000", "114959.146000", "114959.150000", "114959.153000", "114959.156000", "114959.160000", "114959.163000", "114959.167000", "114959.170000", "114959.174000", "114959.177000", "114959.181000", "114959.184000", "114959.188000", "114959.191000", "114959.195000", "114959.198000", "114959.201000", "114959.205000", "114959.208000", "114959.212000", "114959.215000", "114959.219000", "114959.222000", "114959.226000", "114959.229000", "114959.233000", "115039.135000", "115039.139000", "115039.143000", "115039.146000", "115039.149000", "115039.153000", "115039.156000", "115039.160000", "115039.163000", "115039.167000", "115039.170000", "115039.174000", "115039.177000", "115039.181000", "115039.184000", "115039.188000", "115039.191000", "115039.194000", "115039.198000", "115039.201000", "115039.205000", "115039.208000", "115039.212000", "115039.215000", "115039.219000", "115039.222000", "115039.225000", "115119.135000", "115119.139000", "115119.143000", "115119.146000", "115119.150000", "115119.153000", "115119.157000", "115119.160000", "115119.163000", "115119.167000", "115119.170000", "115119.174000", "115119.177000", "115119.181000", "115119.184000", "115119.188000", "115119.191000", "115119.195000", "115119.198000", "115119.202000", "115119.205000", "115119.209000", "115119.212000", "115119.215000", "115119.219000", "115119.222000", "115119.226000", "115159.135000", "115159.139000", "115159.143000", "115159.146000", "115159.150000", "115159.153000", "115159.156000", "115159.160000", "115159.163000", "115159.167000", "115159.170000", "115159.174000", "115159.177000", "115159.181000", "115159.184000", "115159.188000", "115159.191000", "115159.195000", "115159.198000", "115159.202000", "115159.205000", "115159.208000", "115159.212000", "115159.215000", "115159.219000", "115159.222000", "115159.226000", "115239.135000", "115239.139000", "115239.143000", "115239.146000", "115239.150000", "115239.153000", "115239.157000", "115239.160000", "115239.163000", "115239.167000", "115239.170000", "115239.174000", "115239.177000", "115239.181000", "115239.184000", "115239.188000", "115239.191000", "115239.195000", "115239.210000", "115239.213000", "115239.216000", "115239.220000", "115239.223000", "115239.227000", "115239.230000", "115239.234000", "115239.237000", "115319.136000", "115319.139000", "115319.143000", "115319.146000", "115319.150000", "115319.153000", "115319.157000", "115319.160000", "115319.164000", "115319.167000", "115319.171000", "115319.174000", "115319.178000", "115319.181000", "115319.185000", "115319.188000", "115319.192000", "115319.195000", "115319.199000", "115319.202000", "115319.206000", "115319.209000", "115319.213000", "115319.216000", "115319.220000", "115319.223000", "115339.135000", "115339.139000", "115339.143000", "115339.146000", "115339.150000", "115339.153000", "115339.157000", "115339.160000", "115339.163000", "115339.167000", "115339.170000", "115339.174000", "115339.177000", "115339.181000", "115419.135000", "115419.139000", "115419.143000", "115419.146000", "115419.150000", "115419.153000", "115419.157000", "115419.160000", "115419.164000", "115419.167000", "115419.171000", "115419.174000", "115419.177000", "115419.181000", "115419.184000", "115419.188000", "115419.191000", "115419.195000", "115419.198000", "115419.202000", "115419.205000", "115419.209000", "115419.212000", "115419.216000", "115419.219000", "115419.223000", "115419.226000", "115459.136000", "115459.139000", "115459.143000", "115459.146000", "115459.150000", "115459.153000", "115459.157000", "115459.160000", "115459.164000", "115459.167000", "115459.171000", "115459.174000", "115459.178000", "115459.181000", "115459.200000", "115459.203000", "115459.207000", "115459.210000", "115459.213000", "115459.217000", "115459.220000", "115459.224000", "115459.227000", "115459.231000", "115459.234000", "115459.238000", "115459.241000", "115539.136000", "115539.139000", "115539.143000", "115539.146000", "115539.150000", "115539.153000", "115539.157000", "115539.160000", "115539.164000", "115539.167000", "115539.171000", "115539.174000", "115539.177000", "115539.181000", "115539.184000", "115539.188000", "115539.192000", "115539.195000", "115539.199000", "115539.202000", "115539.206000", "115539.209000", "115539.213000", "115539.216000", "115539.220000", "115539.223000", "115619.136000", "115619.139000", "115619.143000", "115619.146000", "115619.150000", "115619.153000", "115619.157000", "115619.160000", "115619.164000", "115619.167000", "115619.171000", "115619.174000", "115619.177000", "115619.181000", "115619.184000", "115619.188000", "115619.191000", "115619.195000", "115619.198000", "115619.202000", "115619.205000", "115619.209000", "115619.212000", "115619.216000", "115619.219000", "115619.224000", "115619.227000", "115627.716000", "115627.720000", "115627.723000", "115627.727000", "115627.730000", "115627.734000"],
      "InstanceCreationTime": ["114819.171000", "114819.174000", "114819.178000", "114819.181000", "114819.185000", "114819.188000", "114819.192000", "114819.195000", "114819.199000", "114819.202000", "114819.206000", "114819.209000", "114819.213000", "114819.227000", "114819.230000", "114819.234000", "114819.237000", "114819.241000", "114819.244000", "114819.248000", "114819.251000", "114819.254000", "114819.258000", "114819.261000", "114819.265000", "114819.268000", "114819.272000", "114839.135000", "114839.139000", "114839.143000", "114839.146000", "114839.150000", "114839.153000", "114839.156000", "114839.160000", "114839.163000", "114839.167000", "114839.170000", "114839.173000", "114839.177000", "114839.180000", "114839.184000", "114839.187000", "114839.191000", "114839.194000", "114839.197000", "114839.201000", "114859.135000", "114859.139000", "114859.143000", "114859.146000", "114859.150000", "114859.153000", "114859.156000", "114859.160000", "114859.174000", "114859.177000", "114859.180000", "114859.184000", "114859.187000", "114859.191000", "114859.194000", "114859.198000", "114859.201000", "114859.204000", "114859.208000", "114859.211000", "114859.215000", "114919.135000", "114919.139000", "114919.143000", "114919.146000", "114919.149000", "114919.153000", "114919.156000", "114919.160000", "114919.163000", "114919.167000", "114919.170000", "114919.174000", "114919.177000", "114919.181000", "114919.184000", "114919.187000", "114919.191000", "114919.194000", "114919.198000", "114919.201000", "114959.135000", "114959.139000", "114959.143000", "114959.146000", "114959.150000", "114959.153000", "114959.156000", "114959.160000", "114959.163000", "114959.167000", "114959.170000", "114959.174000", "114959.177000", "114959.181000", "114959.184000", "114959.188000", "114959.191000", "114959.195000", "114959.198000", "114959.201000", "114959.205000", "114959.208000", "114959.212000", "114959.215000", "114959.219000", "114959.222000", "114959.226000", "114959.229000", "114959.233000", "115039.135000", "115039.139000", "115039.143000", "115039.146000", "115039.149000", "115039.153000", "115039.156000", "115039.160000", "115039.163000", "115039.167000", "115039.170000", "115039.174000", "115039.177000", "115039.181000", "115039.184000", "115039.188000", "115039.191000", "115039.194000", "115039.198000", "115039.201000", "115039.205000", "115039.208000", "115039.212000", "115039.215000", "115039.219000", "115039.222000", "115039.225000", "115119.135000", "115119.139000", "115119.143000", "115119.146000", "115119.150000", "115119.153000", "115119.157000", "115119.160000", "115119.163000", "115119.167000", "115119.170000", "115119.174000", "115119.177000", "115119.181000", "115119.184000", "115119.188000", "115119.191000", "115119.195000", "115119.198000", "115119.202000", "115119.205000", "115119.209000", "115119.212000", "115119.215000", "115119.219000", "115119.222000", "115119.226000", "115159.135000", "115159.139000", "115159.143000", "115159.146000", "115159.150000", "115159.153000", "115159.156000", "115159.160000", "115159.163000", "115159.167000", "115159.170000", "115159.174000", "115159.177000", "115159.181000", "115159.184000", "115159.188000", "115159.191000", "115159.195000", "115159.198000", "115159.202000", "115159.205000", "115159.208000", "115159.212000", "115159.215000", "115159.219000", "115159.222000", "115159.226000", "115239.135000", "115239.139000", "115239.143000", "115239.146000", "115239.150000", "115239.153000", "115239.157000", "115239.160000", "115239.163000", "115239.167000", "115239.170000", "115239.174000", "115239.177000", "115239.181000", "115239.184000", "115239.188000", "115239.191000", "115239.195000", "115239.210000", "115239.213000", "115239.216000", "115239.220000", "115239.223000", "115239.227000", "115239.230000", "115239.234000", "115239.237000", "115319.136000", "115319.139000", "115319.143000", "115319.146000", "115319.150000", "115319.153000", "115319.157000", "115319.160000", "115319.164000", "115319.167000", "115319.171000", "115319.174000", "115319.178000", "115319.181000", "115319.185000", "115319.188000", "115319.192000", "115319.195000", "115319.199000", "115319.202000", "115319.206000", "115319.209000", "115319.213000", "115319.216000", "115319.220000", "115319.223000", "115339.135000", "115339.139000", "115339.143000", "115339.146000", "115339.150000", "115339.153000", "115339.157000", "115339.160000", "115339.163000", "115339.167000", "115339.170000", "115339.174000", "115339.177000", "115339.181000", "115419.135000", "115419.139000", "115419.143000", "115419.146000", "115419.150000", "115419.153000", "115419.157000", "115419.160000", "115419.164000", "115419.167000", "115419.171000", "115419.174000", "115419.177000", "115419.181000", "115419.184000", "115419.188000", "115419.191000", "115419.195000", "115419.198000", "115419.202000", "115419.205000", "115419.209000", "115419.212000", "115419.216000", "115419.219000", "115419.223000", "115419.226000", "115459.136000", "115459.139000", "115459.143000", "115459.146000", "115459.150000", "115459.153000", "115459.157000", "115459.160000", "115459.164000", "115459.167000", "115459.171000", "115459.174000", "115459.178000", "115459.181000", "115459.200000", "115459.203000", "115459.207000", "115459.210000", "115459.213000", "115459.217000", "115459.220000", "115459.224000", "115459.227000", "115459.231000", "115459.234000", "115459.238000", "115459.241000", "115539.136000", "115539.139000", "115539.143000", "115539.146000", "115539.150000", "115539.153000", "115539.157000", "115539.160000", "115539.164000", "115539.167000", "115539.171000", "115539.174000", "115539.177000", "115539.181000", "115539.184000", "115539.188000", "115539.192000", "115539.195000", "115539.199000", "115539.202000", "115539.206000", "115539.209000", "115539.213000", "115539.216000", "115539.220000", "115539.223000", "115619.136000", "115619.139000", "115619.143000", "115619.146000", "115619.150000", "115619.153000", "115619.157000", "115619.160000", "115619.164000", "115619.167000", "115619.171000", "115619.174000", "115619.177000", "115619.181000", "115619.184000", "115619.188000", "115619.191000", "115619.195000", "115619.198000", "115619.202000", "115619.205000", "115619.209000", "115619.212000", "115619.216000", "115619.219000", "115619.224000", "115619.227000", "115627.716000", "115627.720000", "115627.723000", "115627.727000", "115627.730000", "115627.734000"],
      "InstanceNumber": [1, 2, 3, 4, 5, 6, 7, 8, 9, 10, 11, 12, 13, 14, 15, 16, 17, 18, 19, 20, 21, 22, 23, 24, 25, 26, 27, 28, 29, 30, 31, 32, 33, 34, 35, 36, 37, 38, 39, 40, 41, 42, 43, 44, 45, 46, 47, 48, 49, 50, 51, 52, 53, 54, 55, 56, 57, 58, 59, 60, 61, 62, 63, 64, 65, 66, 67, 68, 69, 70, 71, 72, 73, 74, 75, 76, 77, 78, 79, 80, 81, 82, 83, 84, 85, 86, 87, 88, 89, 90, 91, 92, 93, 94, 95, 96, 97, 98, 99, 100, 101, 102, 103, 104, 105, 106, 107, 108, 109, 110, 111, 112, 113, 114, 115, 116, 117, 118, 119, 120, 121, 122, 123, 124, 125, 126, 127, 128, 129, 130, 131, 132, 133, 134, 135, 136, 137, 138, 139, 140, 141, 142, 143, 144, 145, 146, 147, 148, 149, 150, 151, 152, 153, 154, 155, 156, 157, 158, 159, 160, 161, 162, 163, 164, 165, 166, 167, 168, 169, 170, 171, 172, 173, 174, 175, 176, 177, 178, 179, 180, 181, 182, 183, 184, 185, 186, 187, 188, 189, 190, 191, 192, 193, 194, 195, 196, 197, 198, 199, 200, 201, 202, 203, 204, 205, 206, 207, 208, 209, 210, 211, 212, 213, 214, 215, 216, 217, 218, 219, 220, 221, 222, 223, 224, 225, 226, 227, 228, 229, 230, 231, 232, 233, 234, 235, 236, 237, 238, 239, 240, 241, 242, 243, 244, 245, 246, 247, 248, 249, 250, 251, 252, 253, 254, 255, 256, 257, 258, 259, 260, 261, 262, 263, 264, 265, 266, 267, 268, 269, 270, 271, 272, 273, 274, 275, 276, 277, 278, 279, 280, 281, 282, 283, 284, 285, 286, 287, 288, 289, 290, 291, 292, 293, 294, 295, 296, 297, 298, 299, 300, 301, 302, 303, 304, 305, 306, 307, 308, 309, 310, 311, 312, 313, 314, 315, 316, 317, 318, 319, 320, 321, 322, 323, 324, 325, 326, 327, 328, 329, 330, 331, 332, 333, 334, 335, 336, 337, 338, 339, 340, 341, 342, 343, 344, 345, 346, 347, 348, 349, 350, 351, 352, 353, 354, 355, 356, 357, 358, 359, 360, 361, 362, 363, 364, 365, 366, 367, 368, 369, 370, 371, 372, 373, 374, 375, 376, 377, 378],
