{
  "AcquisitionMatrixPE": 104,
  "AcquisitionNumber": 1,
  "AcquisitionTime": "11:27:37.687500",
  "BandwidthPerPixelPhaseEncode": 17.17,
  "BaseResolution": 104,
  "BodyPartExamined": "BRAIN",
  "CoilCombinationMethod": "Sum of Squares",
  "ConsistencyInfo": "N4_VE11C_LATEST_20160120",
  "ConversionSoftware": "dcm2niix",
  "ConversionSoftwareVersion": "v1.0.20220505",
  "DerivedVendorReportedEchoSpacing": 0.000560011,
  "DeviceSerialNumber": "167006",
  "DwellTime": 2.1e-06,
  "EchoTime": 0.037,
  "EchoTime1": 0.037,
  "EchoTime2": 0.001,
  "EchoTrainLength": 104,
  "EffectiveEchoSpacing": 0.000560011,
  "FlipAngle": 52,
  "HeudiconvVersion": "0.5.3.post811+g6206e14",
  "ImageComments": "Unaliased MB4/PE3/LB",
  "ImageOrientationPatientDICOM": [0.999348, 0.0113317, 0.0342759, 0.00889558, 0.842886, -0.538019],
  "ImageOrientationText": "Tra>Cor(-32.6)>Sag(2.0)",
  "ImageType": [
    "ORIGINAL",
    "PRIMARY",
    "P",
    "MB",
    "ND",
    "MOSAIC",
    "PHASE"
],
  "ImagingFrequency": 123.259,
  "InPlanePhaseEncodingDirectionDICOM": "COL",
  "InstitutionAddress": "Chemin Queen-Mary 4565,Montreal,District,CA,H3W 1W5",
  "InstitutionName": "IUGM",
  "InstitutionalDepartmentName": "Department",
  "MRAcquisitionType": "2D",
  "MagneticFieldStrength": 3,
  "Manufacturer": "Siemens",
  "ManufacturersModelName": "Prisma_fit",
  "MatrixCoilMode": "SENSE",
  "Modality": "MR",
  "MultibandAccelerationFactor": 4,
  "PartialFourier": 1,
  "PatientPosition": "HFS",
  "PercentPhaseFOV": 100,
  "PercentSampling": 100,
  "PhaseEncodingDirection": "j",
  "PhaseEncodingSteps": 104,
  "PhaseResolution": 1,
  "PixelBandwidth": 2290,
  "ProcedureStepDescription": "games^mario3",
  "ProtocolName": "func_task-mario3_run-01",
  "PulseSequenceDetails": "%CustomerSeq%\\cmrr_mbep2d_bold",
  "ReceiveCoilActiveElements": "HC1-7;NC1,2",
  "ReceiveCoilName": "HeadNeck_64",
  "ReconMatrixPE": 104,
  "RepetitionTime": 1.49,
  "SAR": 0.0560539,
  "ScanOptions": "FS",
  "ScanningSequence": "EP",
  "SequenceName": "epfid2d1_104",
  "SequenceVariant": "SK\\SS",
  "SeriesDescription": "func_task-mario3_run-01",
  "SeriesNumber": 11,
  "ShimSetting": [625, -7183, -8879, 232, 8, -217, 1, 26],
  "SliceThickness": 2,
  "SliceTiming": [0, 0.7825, 0.0975, 0.8825, 0.195, 0.98, 0.2925, 1.0775, 0.3925, 1.175, 0.49, 1.2725, 0.5875, 1.3725, 0.685, 0, 0.7825, 0.0975, 0.8825, 0.195, 0.98, 0.2925, 1.0775, 0.3925, 1.175, 0.49, 1.2725, 0.5875, 1.3725, 0.685, 0, 0.7825, 0.0975, 0.8825, 0.195, 0.98, 0.2925, 1.0775, 0.3925, 1.175, 0.49, 1.2725, 0.5875, 1.3725, 0.685, 0, 0.7825, 0.0975, 0.8825, 0.195, 0.98, 0.2925, 1.0775, 0.3925, 1.175, 0.49, 1.2725, 0.5875, 1.3725, 0.685],
  "SoftwareVersions": "syngo MR E11",
  "SpacingBetweenSlices": 2,
  "StationName": "MRC35049",
  "TaskName": "mario3",
  "TotalReadoutTime": 0.0576811,
  "TxRefAmp": 275.739,
  "WipMemBlock": "1b7f879d-c3e3-4faa-92b5-d64cb741c305||Sequence: R017 ve11c/master r/75a17815+; Jun 28 2022 16:32:11 by eja",
  "dcmmeta_affine": [
    [-1.9986963272094727, 0.017791157588362694, 0.06997464597225189, 104.50016021728516],
    [-0.02266332507133484, 1.6857718229293823, -1.0759458541870117, -46.75326156616211],
    [0.06855180859565735, 1.0760375261306763, 1.6844713687896729, -96.80511474609375],
    [0.0, 0.0, 0.0, 1.0]
],
  "dcmmeta_reorient_transform": [
    [0.0, -1.0, 0.0, 103.0],
    [1.0, 0.0, 0.0, 0.0],
    [0.0, 0.0, 1.0, 0.0],
    [0.0, 0.0, 0.0, 1.0]
],
  "dcmmeta_shape": [104, 104, 60, 372],
  "dcmmeta_slice_dim": 2,
  "dcmmeta_version": 0.6,
  "global": {
    "const": {
      "AcquisitionMatrix": [104, 0, 0, 104],
      "AngioFlag": "N",
      "BitsAllocated": 16,
      "BitsStored": 16,
      "BodyPartExamined": "BRAIN",
      "Columns": 832,
      "EchoNumbers": 1,
      "EchoTime": 37.0,
      "EchoTrainLength": 104,
      "FlipAngle": 52.0,
      "HighBit": 15,
      "ImageOrientationPatient": [0.99934816550407, 0.01133166228179, 0.03427590310381, 0.00889557859011, 0.84288592648711, -0.5380187576763],
      "ImagePositionPatient": [-840.33409361026, -748.75164402418, 380.75154813784],
      "ImageType": [
        "ORIGINAL",
        "PRIMARY",
        "P",
        "MB",
        "ND",
        "MOSAIC"
],
      "ImagedNucleus": "1H",
      "ImagingFrequency": 123.258793,
      "InPlanePhaseEncodingDirection": "COL",
      "LargestImagePixelValue": 4095,
      "MRAcquisitionType": "2D",
      "MagneticFieldStrength": 3.0,
      "Manufacturer": "SIEMENS",
      "ManufacturerModelName": "Prisma_fit",
      "Modality": "MR",
      "NumberOfAverages": 1.0,
      "NumberOfPhaseEncodingSteps": 104,
      "PercentPhaseFieldOfView": 100.0,
      "PercentSampling": 100.0,
      "PerformedProcedureStepStartTime": "111300.243000",
      "PhotometricInterpretation": "MONOCHROME2",
      "PixelBandwidth": 2290.0,
      "PixelRepresentation": 0,
      "PixelSpacing": [2.0, 2.0],
      "ProtocolName": "func_task-mario3_run-01",
      "RepetitionTime": 1490.0,
      "RescaleIntercept": -4096.0,
      "RescaleSlope": 2.0,
      "RescaleType": "US",
      "Rows": 832,
      "SAR": 0.05605394005105,
      "SamplesPerPixel": 1,
      "ScanOptions": "FS",
      "ScanningSequence": "EP",
      "SequenceName": "epfid2d1_104",
      "SequenceVariant": [
        "SK",
        "SS"
],
      "SeriesDescription": "func_task-mario3_run-01",
      "SeriesNumber": 11,
      "SeriesTime": "112900.972000",
      "SliceLocation": -52.724551873445,
      "SliceThickness": 2.0,
      "SmallestImagePixelValue": 0,
      "SoftwareVersions": "syngo MR E11",
      "SpacingBetweenSlices": 1.999999973689,
      "SpecificCharacterSet": "ISO_IR 100",
      "StudyID": "1",
      "StudyTime": "111300.163000",
      "TransmitCoilName": "Body",
      "VariableFlipAngleFlag": "N",
      "WindowCenterWidthExplanation": "Algo1",
      "dBdt": 0.0},
    "slices": {}
  },
  "time": {
    "samples": {
      "AcquisitionNumber": [1, 2, 3, 4, 5, 6, 7, 8, 9, 10, 11, 12, 13, 14, 15, 16, 17, 18, 19, 20, 21, 22, 23, 24, 25, 26, 27, 28, 29, 30, 31, 32, 33, 34, 35, 36, 37, 38, 39, 40, 41, 42, 43, 44, 45, 46, 47, 48, 49, 50, 51, 52, 53, 54, 55, 56, 57, 58, 59, 60, 61, 62, 63, 64, 65, 66, 67, 68, 69, 70, 71, 72, 73, 74, 75, 76, 77, 78, 79, 80, 81, 82, 83, 84, 85, 86, 87, 88, 89, 90, 91, 92, 93, 94, 95, 96, 97, 98, 99, 100, 101, 102, 103, 104, 105, 106, 107, 108, 109, 110, 111, 112, 113, 114, 115, 116, 117, 118, 119, 120, 121, 122, 123, 124, 125, 126, 127, 128, 129, 130, 131, 132, 133, 134, 135, 136, 137, 138, 139, 140, 141, 142, 143, 144, 145, 146, 147, 148, 149, 150, 151, 152, 153, 154, 155, 156, 157, 158, 159, 160, 161, 162, 163, 164, 165, 166, 167, 168, 169, 170, 171, 172, 173, 174, 175, 176, 177, 178, 179, 180, 181, 182, 183, 184, 185, 186, 187, 188, 189, 190, 191, 192, 193, 194, 195, 196, 197, 198, 199, 200, 201, 202, 203, 204, 205, 206, 207, 208, 209, 210, 211, 212, 213, 214, 215, 216, 217, 218, 219, 220, 221, 222, 223, 224, 225, 226, 227, 228, 229, 230, 231, 232, 233, 234, 235, 236, 237, 238, 239, 240, 241, 242, 243, 244, 245, 246, 247, 248, 249, 250, 251, 252, 253, 254, 255, 256, 257, 258, 259, 260, 261, 262, 263, 264, 265, 266, 267, 268, 269, 270, 271, 272, 273, 274, 275, 276, 277, 278, 279, 280, 281, 282, 283, 284, 285, 286, 287, 288, 289, 290, 291, 292, 293, 294, 295, 296, 297, 298, 299, 300, 301, 302, 303, 304, 305, 306, 307, 308, 309, 310, 311, 312, 313, 314, 315, 316, 317, 318, 319, 320, 321, 322, 323, 324, 325, 326, 327, 328, 329, 330, 331, 332, 333, 334, 335, 336, 337, 338, 339, 340, 341, 342, 343, 344, 345, 346, 347, 348, 349, 350, 351, 352, 353, 354, 355, 356, 357, 358, 359, 360, 361, 362, 363, 364, 365, 366, 367, 368, 369, 370, 371, 372],
      "AcquisitionTime": ["112737.687500", "112739.177500", "112740.667500", "112742.157500", "112743.647500", "112745.137500", "112746.627500", "112748.117500", "112749.607500", "112751.097500", "112752.587500", "112754.077500", "112755.567500", "112757.057500", "112758.547500", "112800.037500", "112801.527500", "112803.017500", "112804.507500", "112805.997500", "112807.487500", "112808.977500", "112810.467500", "112811.957500", "112813.447500", "112814.937500", "112816.427500", "112817.917500", "112819.407500", "112820.897500", "112822.387500", "112823.877500", "112825.367500", "112826.857500", "112828.347500", "112829.837500", "112831.327500", "112832.817500", "112834.307500", "112835.797500", "112837.287500", "112838.777500", "112840.267500", "112841.757500", "112843.247500", "112844.737500", "112846.227500", "112847.717500", "112849.207500", "112850.697500", "112852.187500", "112853.677500", "112855.167500", "112856.657500", "112858.147500", "112859.637500", "112901.127500", "112902.617500", "112904.107500", "112905.597500", "112907.087500", "112908.577500", "112910.067500", "112911.557500", "112913.047500", "112914.537500", "112916.027500", "112917.517500", "112919.007500", "112920.497500", "112921.987500", "112923.477500", "112924.967500", "112926.457500", "112927.947500", "112929.437500", "112930.927500", "112932.417500", "112933.907500", "112935.397500", "112936.887500", "112938.377500", "112939.867500", "112941.357500", "112942.847500", "112944.337500", "112945.827500", "112947.317500", "112948.807500", "112950.297500", "112951.787500", "112953.277500", "112954.767500", "112956.257500", "112957.747500", "112959.237500", "113000.727500", "113002.217500", "113003.707500", "113005.197500", "113006.687500", "113008.177500", "113009.667500", "113011.157500", "113012.647500", "113014.137500", "113015.627500", "113017.117500", "113018.607500", "113020.097500", "113021.587500", "113023.077500", "113024.567500", "113026.057500", "113027.547500", "113029.037500", "113030.527500", "113032.017500", "113033.507500", "113034.997500", "113036.487500", "113037.977500", "113039.467500", "113040.957500", "113042.447500", "113043.937500", "113045.427500", "113046.917500", "113048.407500", "113049.897500", "113051.387500", "113052.877500", "113054.367500", "113055.857500", "113057.347500", "113058.837500", "113100.327500", "113101.817500", "113103.307500", "113104.797500", "113106.287500", "113107.777500", "113109.267500", "113110.757500", "113112.247500", "113113.737500", "113115.227500", "113116.717500", "113118.207500", "113119.697500", "113121.187500", "113122.677500", "113124.167500", "113125.657500", "113127.147500", "113128.637500", "113130.127500", "113131.617500", "113133.107500", "113134.597500", "113136.087500", "113137.577500", "113139.067500", "113140.557500", "113142.047500", "113143.537500", "113145.027500", "113146.517500", "113148.007500", "113149.497500", "113150.987500", "113152.477500", "113153.967500", "113155.457500", "113156.947500", "113158.437500", "113159.927500", "113201.417500", "113202.907500", "113204.397500", "113205.887500", "113207.377500", "113208.867500", "113210.357500", "113211.847500", "113213.337500", "113214.827500", "113216.317500", "113217.807500", "113219.297500", "113220.787500", "113222.277500", "113223.767500", "113225.257500", "113226.747500", "113228.237500", "113229.727500", "113231.217500", "113232.707500", "113234.197500", "113235.687500", "113237.177500", "113238.667500", "113240.157500", "113241.647500", "113243.137500", "113244.627500", "113246.117500", "113247.607500", "113249.097500", "113250.587500", "113252.077500", "113253.567500", "113255.057500", "113256.547500", "113258.037500", "113259.527500", "113301.017500", "113302.507500", "113303.997500", "113305.487500", "113306.977500", "113308.467500", "113309.957500", "113311.447500", "113312.937500", "113314.427500", "113315.917500", "113317.407500", "113318.897500", "113320.387500", "113321.877500", "113323.367500", "113324.857500", "113326.347500", "113327.837500", "113329.327500", "113330.817500", "113332.307500", "113333.797500", "113335.287500", "113336.777500", "113338.267500", "113339.757500", "113341.247500", "113342.737500", "113344.227500", "113345.717500", "113347.207500", "113348.697500", "113350.187500", "113351.677500", "113353.167500", "113354.657500", "113356.147500", "113357.637500", "113359.127500", "113400.617500", "113402.107500", "113403.597500", "113405.087500", "113406.577500", "113408.067500", "113409.557500", "113411.047500", "113412.537500", "113414.027500", "113415.517500", "113417.007500", "113418.497500", "113419.987500", "113421.477500", "113422.967500", "113424.457500", "113425.947500", "113427.437500", "113428.927500", "113430.417500", "113431.907500", "113433.397500", "113434.887500", "113436.377500", "113437.867500", "113439.357500", "113440.847500", "113442.337500", "113443.827500", "113445.317500", "113446.807500", "113448.297500", "113449.787500", "113451.277500", "113452.767500", "113454.257500", "113455.747500", "113457.237500", "113458.727500", "113500.217500", "113501.707500", "113503.197500", "113504.687500", "113506.177500", "113507.667500", "113509.157500", "113510.647500", "113512.137500", "113513.627500", "113515.117500", "113516.607500", "113518.097500", "113519.587500", "113521.077500", "113522.567500", "113524.057500", "113525.547500", "113527.037500", "113528.527500", "113530.017500", "113531.507500", "113532.997500", "113534.487500", "113535.977500", "113537.467500", "113538.957500", "113540.447500", "113541.937500", "113543.427500", "113544.917500", "113546.407500", "113547.897500", "113549.387500", "113550.877500", "113552.367500", "113553.857500", "113555.347500", "113556.837500", "113558.327500", "113559.817500", "113601.307500", "113602.797500", "113604.287500", "113605.777500", "113607.267500", "113608.757500", "113610.247500", "113611.737500", "113613.227500", "113614.717500", "113616.207500", "113617.697500", "113619.187500", "113620.677500", "113622.167500", "113623.657500", "113625.147500", "113626.637500", "113628.127500", "113629.617500", "113631.107500", "113632.597500", "113634.087500", "113635.577500", "113637.067500", "113638.557500", "113640.047500", "113641.537500", "113643.027500", "113644.517500", "113646.007500", "113647.497500", "113648.987500", "113650.477500"],
      "ContentTime": ["112900.975000", "112900.977000", "112900.980000", "112900.983000", "112900.985000", "112900.988000", "112900.990000", "112900.993000", "112900.995000", "112900.998000", "112901.001000", "112901.004000", "112901.007000", "112901.009000", "112901.012000", "112901.014000", "112901.017000", "112901.019000", "112901.030000", "112901.033000", "112901.035000", "112901.038000", "112901.040000", "112901.043000", "112901.046000", "112901.048000", "112901.051000", "112901.053000", "112901.056000", "112901.059000", "112901.061000", "112901.064000", "112901.066000", "112920.880000", "112920.883000", "112920.885000", "112920.888000", "112920.890000", "112920.893000", "112920.895000", "112920.898000", "112920.901000", "112920.903000", "112920.906000", "112920.908000", "112920.911000", "112920.913000", "112920.916000", "112920.919000", "112920.921000", "112920.924000", "112920.926000", "112920.929000", "112920.931000", "112940.912000", "112940.915000", "112940.917000", "112940.920000", "112940.922000", "112940.925000", "112940.928000", "112940.930000", "112940.933000", "112940.935000", "112940.938000", "112940.940000", "112940.943000", "112940.946000", "112940.948000", "112940.951000", "112940.953000", "112940.956000", "112940.958000", "112940.961000", "113000.906000", "113000.909000", "113000.912000", "113000.914000", "113000.917000", "113000.920000", "113000.922000", "113000.925000", "113000.927000", "113000.930000", "113000.932000", "113000.935000", "113000.938000", "113000.940000", "113000.943000", "113000.945000", "113000.948000", "113000.950000", "113000.953000", "113000.956000", "113040.925000", "113040.928000", "113040.931000", "113040.934000", "113040.936000", "113040.939000", "113040.941000", "113040.944000", "113040.946000", "113040.949000", "113040.951000", "113040.954000", "113040.957000", "113040.959000", "113040.962000", "113040.964000", "113040.967000", "113040.969000", "113040.972000", "113040.975000", "113040.977000", "113040.980000", "113040.982000", "113040.985000", "113040.988000", "113040.990000", "113040.993000", "113040.995000", "113120.900000", "113120.903000", "113120.906000", "113120.908000", "113120.911000", "113120.913000", "113120.916000", "113120.919000", "113120.921000", "113120.924000", "113120.926000", "113120.929000", "113120.932000", "113120.934000", "113120.937000", "113120.939000", "113120.942000", "113120.944000", "113120.947000", "113120.950000", "113120.952000", "113120.955000", "113120.957000", "113120.960000", "113120.963000", "113120.965000", "113120.968000", "113200.953000", "113200.956000", "113200.958000", "113200.961000", "113200.963000", "113200.966000", "113200.969000", "113200.971000", "113200.974000", "113200.976000", "113200.979000", "113200.982000", "113200.984000", "113200.987000", "113200.989000", "113200.992000", "113200.994000", "113200.997000", "113201.001000", "113201.003000", "113201.006000", "113201.008000", "113201.011000", "113201.013000", "113201.016000", "113201.019000", "113201.021000", "113240.903000", "113240.906000", "113240.909000", "113240.911000", "113240.914000", "113240.916000", "113240.919000", "113240.922000", "113240.924000", "113240.927000", "113240.929000", "113240.932000", "113240.935000", "113240.937000", "113240.940000", "113240.942000", "113240.945000", "113240.947000", "113240.950000", "113240.953000", "113240.955000", "113240.958000", "113240.960000", "113240.963000", "113240.965000", "113240.968000", "113240.971000", "113320.912000", "113320.915000", "113320.917000", "113320.920000", "113320.923000", "113320.925000", "113320.928000", "113320.930000", "113320.933000", "113320.936000", "113320.938000", "113320.941000", "113320.943000", "113320.946000", "113320.949000", "113320.951000", "113320.954000", "113320.956000", "113320.959000", "113320.961000", "113320.964000", "113320.967000", "113320.969000", "113320.972000", "113320.974000", "113320.977000", "113320.979000", "113400.915000", "113400.918000", "113400.921000", "113400.923000", "113400.926000", "113400.929000", "113400.931000", "113400.934000", "113400.936000", "113400.939000", "113400.942000", "113400.944000", "113400.947000", "113400.949000", "113400.952000", "113400.954000", "113400.957000", "113400.960000", "113400.962000", "113400.965000", "113400.967000", "113400.970000", "113400.973000", "113400.975000", "113400.978000", "113400.980000", "113440.973000", "113440.976000", "113440.980000", "113440.982000", "113440.985000", "113440.988000", "113440.990000", "113440.993000", "113440.995000", "113440.998000", "113441.002000", "113441.004000", "113441.007000", "113441.009000", "113441.012000", "113441.014000", "113441.017000", "113441.020000", "113441.022000", "113441.025000", "113441.027000", "113441.030000", "113441.032000", "113441.035000", "113441.038000", "113441.040000", "113441.043000", "113520.912000", "113520.915000", "113520.918000", "113520.921000", "113520.923000", "113520.926000", "113520.928000", "113520.931000", "113520.933000", "113520.936000", "113520.938000", "113520.941000", "113520.944000", "113520.946000", "113520.949000", "113520.951000", "113520.954000", "113520.957000", "113520.959000", "113520.962000", "113520.964000", "113520.967000", "113520.969000", "113520.972000", "113520.975000", "113520.977000", "113520.980000", "113600.899000", "113600.902000", "113600.904000", "113600.907000", "113600.909000", "113600.912000", "113600.915000", "113600.917000", "113600.920000", "113600.922000", "113600.925000", "113600.928000", "113600.930000", "113600.933000", "113600.935000", "113600.938000", "113600.940000", "113600.943000", "113600.946000", "113600.948000", "113600.951000", "113600.953000", "113600.956000", "113600.958000", "113600.961000", "113600.964000", "113600.966000", "113640.918000", "113640.921000", "113640.924000", "113640.926000", "113640.929000", "113640.931000", "113640.934000", "113640.937000", "113640.939000", "113640.942000", "113640.944000", "113640.947000", "113640.949000", "113640.952000", "113640.955000", "113640.957000", "113640.960000", "113640.962000", "113640.965000", "113640.967000", "113640.970000", "113640.973000", "113640.975000", "113640.978000", "113640.980000", "113640.983000", "113640.986000", "113652.821000", "113652.824000", "113652.827000", "113652.829000", "113652.832000", "113652.835000", "113652.838000", "113652.840000"],
      "InstanceCreationTime": ["112900.975000", "112900.977000", "112900.980000", "112900.983000", "112900.985000", "112900.988000", "112900.990000", "112900.993000", "112900.995000", "112900.998000", "112901.001000", "112901.004000", "112901.007000", "112901.009000", "112901.012000", "112901.014000", "112901.017000", "112901.019000", "112901.030000", "112901.033000", "112901.035000", "112901.038000", "112901.040000", "112901.043000", "112901.046000", "112901.048000", "112901.051000", "112901.053000", "112901.056000", "112901.059000", "112901.061000", "112901.064000", "112901.066000", "112920.880000", "112920.883000", "112920.885000", "112920.888000", "112920.890000", "112920.893000", "112920.895000", "112920.898000", "112920.901000", "112920.903000", "112920.906000", "112920.908000", "112920.911000", "112920.913000", "112920.916000", "112920.919000", "112920.921000", "112920.924000", "112920.926000", "112920.929000", "112920.931000", "112940.912000", "112940.915000", "112940.917000", "112940.920000", "112940.922000", "112940.925000", "112940.928000", "112940.930000", "112940.933000", "112940.935000", "112940.938000", "112940.940000", "112940.943000", "112940.946000", "112940.948000", "112940.951000", "112940.953000", "112940.956000", "112940.958000", "112940.961000", "113000.906000", "113000.909000", "113000.912000", "113000.914000", "113000.917000", "113000.920000", "113000.922000", "113000.925000", "113000.927000", "113000.930000", "113000.932000", "113000.935000", "113000.938000", "113000.940000", "113000.943000", "113000.945000", "113000.948000", "113000.950000", "113000.953000", "113000.956000", "113040.925000", "113040.928000", "113040.931000", "113040.934000", "113040.936000", "113040.939000", "113040.941000", "113040.944000", "113040.946000", "113040.949000", "113040.951000", "113040.954000", "113040.957000", "113040.959000", "113040.962000", "113040.964000", "113040.967000", "113040.969000", "113040.972000", "113040.975000", "113040.977000", "113040.980000", "113040.982000", "113040.985000", "113040.988000", "113040.990000", "113040.993000", "113040.995000", "113120.900000", "113120.903000", "113120.906000", "113120.908000", "113120.911000", "113120.913000", "113120.916000", "113120.919000", "113120.921000", "113120.924000", "113120.926000", "113120.929000", "113120.932000", "113120.934000", "113120.937000", "113120.939000", "113120.942000", "113120.944000", "113120.947000", "113120.950000", "113120.952000", "113120.955000", "113120.957000", "113120.960000", "113120.963000", "113120.965000", "113120.968000", "113200.953000", "113200.956000", "113200.958000", "113200.961000", "113200.963000", "113200.966000", "113200.969000", "113200.971000", "113200.974000", "113200.976000", "113200.979000", "113200.982000", "113200.984000", "113200.987000", "113200.989000", "113200.992000", "113200.994000", "113200.997000", "113201.001000", "113201.003000", "113201.006000", "113201.008000", "113201.011000", "113201.013000", "113201.016000", "113201.019000", "113201.021000", "113240.903000", "113240.906000", "113240.909000", "113240.911000", "113240.914000", "113240.916000", "113240.919000", "113240.922000", "113240.924000", "113240.927000", "113240.929000", "113240.932000", "113240.935000", "113240.937000", "113240.940000", "113240.942000", "113240.945000", "113240.947000", "113240.950000", "113240.953000", "113240.955000", "113240.958000", "113240.960000", "113240.963000", "113240.965000", "113240.968000", "113240.971000", "113320.912000", "113320.915000", "113320.917000", "113320.920000", "113320.923000", "113320.925000", "113320.928000", "113320.930000", "113320.933000", "113320.936000", "113320.938000", "113320.941000", "113320.943000", "113320.946000", "113320.949000", "113320.951000", "113320.954000", "113320.956000", "113320.959000", "113320.961000", "113320.964000", "113320.967000", "113320.969000", "113320.972000", "113320.974000", "113320.977000", "113320.979000", "113400.915000", "113400.918000", "113400.921000", "113400.923000", "113400.926000", "113400.929000", "113400.931000", "113400.934000", "113400.936000", "113400.939000", "113400.942000", "113400.944000", "113400.947000", "113400.949000", "113400.952000", "113400.954000", "113400.957000", "113400.960000", "113400.962000", "113400.965000", "113400.967000", "113400.970000", "113400.973000", "113400.975000", "113400.978000", "113400.980000", "113440.973000", "113440.976000", "113440.980000", "113440.982000", "113440.985000", "113440.988000", "113440.990000", "113440.993000", "113440.995000", "113440.998000", "113441.002000", "113441.004000", "113441.007000", "113441.009000", "113441.012000", "113441.014000", "113441.017000", "113441.020000", "113441.022000", "113441.025000", "113441.027000", "113441.030000", "113441.032000", "113441.035000", "113441.038000", "113441.040000", "113441.043000", "113520.912000", "113520.915000", "113520.918000", "113520.921000", "113520.923000", "113520.926000", "113520.928000", "113520.931000", "113520.933000", "113520.936000", "113520.938000", "113520.941000", "113520.944000", "113520.946000", "113520.949000", "113520.951000", "113520.954000", "113520.957000", "113520.959000", "113520.962000", "113520.964000", "113520.967000", "113520.969000", "113520.972000", "113520.975000", "113520.977000", "113520.980000", "113600.899000", "113600.902000", "113600.904000", "113600.907000", "113600.909000", "113600.912000", "113600.915000", "113600.917000", "113600.920000", "113600.922000", "113600.925000", "113600.928000", "113600.930000", "113600.933000", "113600.935000", "113600.938000", "113600.940000", "113600.943000", "113600.946000", "113600.948000", "113600.951000", "113600.953000", "113600.956000", "113600.958000", "113600.961000", "113600.964000", "113600.966000", "113640.918000", "113640.921000", "113640.924000", "113640.926000", "113640.929000", "113640.931000", "113640.934000", "113640.937000", "113640.939000", "113640.942000", "113640.944000", "113640.947000", "113640.949000", "113640.952000", "113640.955000", "113640.957000", "113640.960000", "113640.962000", "113640.965000", "113640.967000", "113640.970000", "113640.973000", "113640.975000", "113640.978000", "113640.980000", "113640.983000", "113640.986000", "113652.821000", "113652.824000", "113652.827000", "113652.829000", "113652.832000", "113652.835000", "113652.838000", "113652.840000"],
      "InstanceNumber": [1, 2, 3, 4, 5, 6, 7, 8, 9, 10, 11, 12, 13, 14, 15, 16, 17, 18, 19, 20, 21, 22, 23, 24, 25, 26, 27, 28, 29, 30, 31, 32, 33, 34, 35, 36, 37, 38, 39, 40, 41, 42, 43, 44, 45, 46, 47, 48, 49, 50, 51, 52, 53, 54, 55, 56, 57, 58, 59, 60, 61, 62, 63, 64, 65, 66, 67, 68, 69, 70, 71, 72, 73, 74, 75, 76, 77, 78, 79, 80, 81, 82, 83, 84, 85, 86, 87, 88, 89, 90, 91, 92, 93, 94, 95, 96, 97, 98, 99, 100, 101, 102, 103, 104, 105, 106, 107, 108, 109, 110, 111, 112, 113, 114, 115, 116, 117, 118, 119, 120, 121, 122, 123, 124, 125, 126, 127, 128, 129, 130, 131, 132, 133, 134, 135, 136, 137, 138, 139, 140, 141, 142, 143, 144, 145, 146, 147, 148, 149, 150, 151, 152, 153, 154, 155, 156, 157, 158, 159, 160, 161, 162, 163, 164, 165, 166, 167, 168, 169, 170, 171, 172, 173, 174, 175, 176, 177, 178, 179, 180, 181, 182, 183, 184, 185, 186, 187, 188, 189, 190, 191, 192, 193, 194, 195, 196, 197, 198, 199, 200, 201, 202, 203, 204, 205, 206, 207, 208, 209, 210, 211, 212, 213, 214, 215, 216, 217, 218, 219, 220, 221, 222, 223, 224, 225, 226, 227, 228, 229, 230, 231, 232, 233, 234, 235, 236, 237, 238, 239, 240, 241, 242, 243, 244, 245, 246, 247, 248, 249, 250, 251, 252, 253, 254, 255, 256, 257, 258, 259, 260, 261, 262, 263, 264, 265, 266, 267, 268, 269, 270, 271, 272, 273, 274, 275, 276, 277, 278, 279, 280, 281, 282, 283, 284, 285, 286, 287, 288, 289, 290, 291, 292, 293, 294, 295, 296, 297, 298, 299, 300, 301, 302, 303, 304, 305, 306, 307, 308, 309, 310, 311, 312, 313, 314, 315, 316, 317, 318, 319, 320, 321, 322, 323, 324, 325, 326, 327, 328, 329, 330, 331, 332, 333, 334, 335, 336, 337, 338, 339, 340, 341, 342, 343, 344, 345, 346, 347, 348, 349, 350, 351, 352, 353, 354, 355, 356, 357, 358, 359, 360, 361, 362, 363, 364, 365, 366, 367, 368, 369, 370, 371, 372],
