{
  "AcquisitionMatrixPE": 104,
  "AcquisitionNumber": 1,
  "AcquisitionTime": "16:40:5.890000",
  "BandwidthPerPixelPhaseEncode": 17.17,
  "BaseResolution": 104,
  "BodyPartExamined": "BRAIN",
  "CoilCombinationMethod": "Sum of Squares",
  "ConsistencyInfo": "N4_VE11C_LATEST_20160120",
  "ConversionSoftware": "dcm2niix",
  "ConversionSoftwareVersion": "v1.0.20220505",
  "DerivedVendorReportedEchoSpacing": 0.000560011,
  "DeviceSerialNumber": "167006",
  "DwellTime": 2.1e-06,
  "EchoTime": 0.037,
  "EchoTrainLength": 104,
  "EffectiveEchoSpacing": 0.000560011,
  "FlipAngle": 52,
  "HeudiconvVersion": "0.5.3.post811+g6206e14",
  "ImageComments": "Unaliased MB4/PE3/LB",
  "ImageOrientationPatientDICOM": [0.999377, 0.00804827, 0.0343556, 0.0118614, 0.840356, -0.541905],
  "ImageOrientationText": "Tra>Cor(-32.8)>Sag(1.9)",
  "ImageType": [
    "ORIGINAL",
    "PRIMARY",
    "M",
    "MB",
    "ND",
    "MOSAIC"
],
  "ImagingFrequency": 123.259,
  "InPlanePhaseEncodingDirectionDICOM": "COL",
  "InstitutionAddress": "Chemin Queen-Mary 4565,Montreal,District,CA,H3W 1W5",
  "InstitutionName": "IUGM",
  "InstitutionalDepartmentName": "Department",
  "MRAcquisitionType": "2D",
  "MagneticFieldStrength": 3,
  "Manufacturer": "Siemens",
  "ManufacturersModelName": "Prisma_fit",
  "MatrixCoilMode": "SENSE",
  "Modality": "MR",
  "MultibandAccelerationFactor": 4,
  "PartialFourier": 1,
  "PatientPosition": "HFS",
  "PercentPhaseFOV": 100,
  "PercentSampling": 100,
  "PhaseEncodingDirection": "j",
  "PhaseEncodingSteps": 104,
  "PhaseResolution": 1,
  "PixelBandwidth": 2290,
  "ProcedureStepDescription": "games^mario3",
  "ProtocolName": "func_task-mario3_run-03",
  "PulseSequenceDetails": "%CustomerSeq%\\cmrr_mbep2d_bold",
  "ReceiveCoilActiveElements": "HC1-7;NC1,2",
  "ReceiveCoilName": "HeadNeck_64",
  "ReconMatrixPE": 104,
  "RepetitionTime": 1.49,
  "SAR": 0.0459562,
  "ScanOptions": "FS",
  "ScanningSequence": "EP",
  "SequenceName": "epfid2d1_104",
  "SequenceVariant": "SK\\SS",
  "SeriesDescription": "func_task-mario3_run-03",
  "SeriesNumber": 16,
  "ShimSetting": [623, -7183, -8865, 241, 51, -189, -30, 57],
  "SliceThickness": 2,
  "SliceTiming": [0, 0.785, 0.1, 0.8825, 0.1975, 0.98, 0.295, 1.08, 0.3925, 1.1775, 0.49, 1.275, 0.59, 1.3725, 0.6875, 0, 0.785, 0.1, 0.8825, 0.1975, 0.98, 0.295, 1.08, 0.3925, 1.1775, 0.49, 1.275, 0.59, 1.3725, 0.6875, 0, 0.785, 0.1, 0.8825, 0.1975, 0.98, 0.295, 1.08, 0.3925, 1.1775, 0.49, 1.275, 0.59, 1.3725, 0.6875, 0, 0.785, 0.1, 0.8825, 0.1975, 0.98, 0.295, 1.08, 0.3925, 1.1775, 0.49, 1.275, 0.59, 1.3725, 0.6875],
  "SoftwareVersions": "syngo MR E11",
  "SpacingBetweenSlices": 2,
  "StationName": "MRC35049",
  "TaskName": "mario3",
  "TotalReadoutTime": 0.0576811,
  "TxRefAmp": 253.247,
  "WipMemBlock": "22103e83-aa8b-479f-813a-377ece023dfd||Sequence: R017 ve11c/master r/75a17815+; Jun 28 2022 16:32:11 by eja",
  "dcmmeta_affine": [
    [-1.9987545013427734, 0.02372288703918457, 0.06646467745304108, 104.36060333251953],
    [-0.016096536070108414, 1.680712342262268, -1.0839496850967407, -46.51134490966797],
    [0.06871121376752853, 1.0838096141815186, 1.6794747114181519, -99.22900390625],
    [0.0, 0.0, 0.0, 1.0]
],
  "dcmmeta_reorient_transform": [
    [0.0, -1.0, 0.0, 103.0],
    [1.0, 0.0, 0.0, 0.0],
    [0.0, 0.0, 1.0, 0.0],
    [0.0, 0.0, 0.0, 1.0]
],
  "dcmmeta_shape": [104, 104, 60, 296],
  "dcmmeta_slice_dim": 2,
  "dcmmeta_version": 0.6,
  "global": {
    "const": {
      "AcquisitionMatrix": [104, 0, 0, 104],
      "AngioFlag": "N",
      "BitsAllocated": 16,
      "BitsStored": 16,
      "BodyPartExamined": "BRAIN",
      "Columns": 832,
      "EchoNumbers": 1,
      "EchoTime": 37.0,
      "EchoTrainLength": 104,
      "FlipAngle": 52.0,
      "HighBit": 15,
      "ImageOrientationPatient": [0.99937726495264, 0.00804826761684, 0.03435560629863, 0.01186144341528, 0.84035616637028, -0.5419048069574],
      "ImagePositionPatient": [-842.98583804911, -744.24045477553, 381.89920200743],
      "ImageType": [
        "ORIGINAL",
        "PRIMARY",
        "M",
        "MB",
        "ND",
        "MOSAIC"
],
      "ImagedNucleus": "1H",
      "ImagingFrequency": 123.258982,
      "InPlanePhaseEncodingDirection": "COL",
      "MRAcquisitionType": "2D",
      "MagneticFieldStrength": 3.0,
      "Manufacturer": "SIEMENS",
      "ManufacturerModelName": "Prisma_fit",
      "Modality": "MR",
      "NumberOfAverages": 1.0,
      "NumberOfPhaseEncodingSteps": 104,
      "PercentPhaseFieldOfView": 100.0,
      "PercentSampling": 100.0,
      "PerformedProcedureStepStartTime": "161444.850000",
      "PhotometricInterpretation": "MONOCHROME2",
      "PixelBandwidth": 2290.0,
      "PixelRepresentation": 0,
      "PixelSpacing": [2.0, 2.0],
      "ProtocolName": "func_task-mario3_run-03",
      "RepetitionTime": 1490.0,
      "Rows": 832,
      "SAR": 0.04595618912972,
      "SamplesPerPixel": 1,
      "ScanOptions": "FS",
      "ScanningSequence": "EP",
      "SequenceName": "epfid2d1_104",
      "SequenceVariant": [
        "SK",
        "SS"
],
      "SeriesDescription": "func_task-mario3_run-03",
      "SeriesNumber": 16,
      "SeriesTime": "164111.355000",
      "SliceLocation": -54.650180623133,
      "SliceThickness": 2.0,
      "SmallestImagePixelValue": 0,
      "SoftwareVersions": "syngo MR E11",
      "SpacingBetweenSlices": 1.9999999683453,
      "SpecificCharacterSet": "ISO_IR 100",
      "StudyID": "1",
      "StudyTime": "161444.763000",
      "TransmitCoilName": "Body",
      "VariableFlipAngleFlag": "N",
      "WindowCenterWidthExplanation": "Algo1",
      "dBdt": 0.0},
    "slices": {}
  },
  "time": {
    "samples": {
      "AcquisitionNumber": [1, 2, 3, 4, 5, 6, 7, 8, 9, 10, 11, 12, 13, 14, 15, 16, 17, 18, 19, 20, 21, 22, 23, 24, 25, 26, 27, 28, 29, 30, 31, 32, 33, 34, 35, 36, 37, 38, 39, 40, 41, 42, 43, 44, 45, 46, 47, 48, 49, 50, 51, 52, 53, 54, 55, 56, 57, 58, 59, 60, 61, 62, 63, 64, 65, 66, 67, 68, 69, 70, 71, 72, 73, 74, 75, 76, 77, 78, 79, 80, 81, 82, 83, 84, 85, 86, 87, 88, 89, 90, 91, 92, 93, 94, 95, 96, 97, 98, 99, 100, 101, 102, 103, 104, 105, 106, 107, 108, 109, 110, 111, 112, 113, 114, 115, 116, 117, 118, 119, 120, 121, 122, 123, 124, 125, 126, 127, 128, 129, 130, 131, 132, 133, 134, 135, 136, 137, 138, 139, 140, 141, 142, 143, 144, 145, 146, 147, 148, 149, 150, 151, 152, 153, 154, 155, 156, 157, 158, 159, 160, 161, 162, 163, 164, 165, 166, 167, 168, 169, 170, 171, 172, 173, 174, 175, 176, 177, 178, 179, 180, 181, 182, 183, 184, 185, 186, 187, 188, 189, 190, 191, 192, 193, 194, 195, 196, 197, 198, 199, 200, 201, 202, 203, 204, 205, 206, 207, 208, 209, 210, 211, 212, 213, 214, 215, 216, 217, 218, 219, 220, 221, 222, 223, 224, 225, 226, 227, 228, 229, 230, 231, 232, 233, 234, 235, 236, 237, 238, 239, 240, 241, 242, 243, 244, 245, 246, 247, 248, 249, 250, 251, 252, 253, 254, 255, 256, 257, 258, 259, 260, 261, 262, 263, 264, 265, 266, 267, 268, 269, 270, 271, 272, 273, 274, 275, 276, 277, 278, 279, 280, 281, 282, 283, 284, 285, 286, 287, 288, 289, 290, 291, 292, 293, 294, 295, 296],
      "AcquisitionTime": ["164005.890000", "164007.380000", "164008.870000", "164010.360000", "164011.850000", "164013.340000", "164014.830000", "164016.320000", "164017.810000", "164019.300000", "164020.790000", "164022.280000", "164023.770000", "164025.260000", "164026.750000", "164028.240000", "164029.730000", "164031.220000", "164032.710000", "164034.200000", "164035.690000", "164037.180000", "164038.670000", "164040.160000", "164041.650000", "164043.140000", "164044.630000", "164046.120000", "164047.610000", "164049.100000", "164050.590000", "164052.080000", "164053.570000", "164055.060000", "164056.550000", "164058.040000", "164059.530000", "164101.020000", "164102.510000", "164104.000000", "164105.490000", "164106.980000", "164108.470000", "164109.960000", "164111.450000", "164112.940000", "164114.430000", "164115.920000", "164117.410000", "164118.900000", "164120.390000", "164121.880000", "164123.370000", "164124.860000", "164126.350000", "164127.840000", "164129.330000", "164130.820000", "164132.310000", "164133.800000", "164135.290000", "164136.780000", "164138.270000", "164139.760000", "164141.250000", "164142.740000", "164144.230000", "164145.720000", "164147.210000", "164148.700000", "164150.190000", "164151.680000", "164153.170000", "164154.660000", "164156.150000", "164157.640000", "164159.130000", "164200.620000", "164202.110000", "164203.600000", "164205.090000", "164206.580000", "164208.070000", "164209.560000", "164211.050000", "164212.540000", "164214.030000", "164215.520000", "164217.010000", "164218.500000", "164219.990000", "164221.480000", "164222.970000", "164224.460000", "164225.950000", "164227.440000", "164228.930000", "164230.420000", "164231.910000", "164233.400000", "164234.890000", "164236.380000", "164237.870000", "164239.360000", "164240.850000", "164242.340000", "164243.830000", "164245.320000", "164246.810000", "164248.300000", "164249.790000", "164251.280000", "164252.770000", "164254.260000", "164255.750000", "164257.240000", "164258.730000", "164300.220000", "164301.710000", "164303.200000", "164304.690000", "164306.180000", "164307.670000", "164309.160000", "164310.650000", "164312.140000", "164313.630000", "164315.120000", "164316.610000", "164318.100000", "164319.590000", "164321.080000", "164322.570000", "164324.060000", "164325.550000", "164327.040000", "164328.530000", "164330.020000", "164331.510000", "164333.000000", "164334.490000", "164335.980000", "164337.470000", "164338.960000", "164340.450000", "164341.940000", "164343.430000", "164344.920000", "164346.410000", "164347.900000", "164349.390000", "164350.880000", "164352.370000", "164353.860000", "164355.350000", "164356.840000", "164358.330000", "164359.820000", "164401.310000", "164402.800000", "164404.290000", "164405.780000", "164407.270000", "164408.760000", "164410.250000", "164411.740000", "164413.230000", "164414.720000", "164416.210000", "164417.700000", "164419.190000", "164420.680000", "164422.170000", "164423.660000", "164425.150000", "164426.640000", "164428.130000", "164429.620000", "164431.110000", "164432.600000", "164434.090000", "164435.580000", "164437.070000", "164438.560000", "164440.050000", "164441.540000", "164443.030000", "164444.520000", "164446.010000", "164447.500000", "164448.990000", "164450.480000", "164451.970000", "164453.460000", "164454.950000", "164456.440000", "164457.930000", "164459.420000", "164500.910000", "164502.400000", "164503.890000", "164505.380000", "164506.870000", "164508.360000", "164509.850000", "164511.340000", "164512.830000", "164514.320000", "164515.810000", "164517.300000", "164518.790000", "164520.280000", "164521.770000", "164523.260000", "164524.750000", "164526.240000", "164527.730000", "164529.220000", "164530.710000", "164532.200000", "164533.690000", "164535.180000", "164536.670000", "164538.160000", "164539.650000", "164541.140000", "164542.630000", "164544.120000", "164545.610000", "164547.100000", "164548.590000", "164550.080000", "164551.570000", "164553.060000", "164554.550000", "164556.040000", "164557.530000", "164559.020000", "164600.510000", "164602.000000", "164603.490000", "164604.980000", "164606.470000", "164607.960000", "164609.450000", "164610.940000", "164612.430000", "164613.920000", "164615.410000", "164616.900000", "164618.390000", "164619.880000", "164621.370000", "164622.860000", "164624.350000", "164625.840000", "164627.330000", "164628.820000", "164630.310000", "164631.800000", "164633.290000", "164634.780000", "164636.270000", "164637.760000", "164639.250000", "164640.740000", "164642.230000", "164643.720000", "164645.210000", "164646.700000", "164648.190000", "164649.680000", "164651.170000", "164652.660000", "164654.150000", "164655.640000", "164657.130000", "164658.620000", "164700.110000", "164701.600000", "164703.090000", "164704.580000", "164706.070000", "164707.560000", "164709.050000", "164710.540000", "164712.030000", "164713.520000", "164715.010000", "164716.500000", "164717.990000", "164719.480000", "164720.970000", "164722.460000", "164723.950000", "164725.440000"],
      "ContentTime": ["164111.358000", "164111.362000", "164111.365000", "164111.369000", "164111.378000", "164111.381000", "164111.385000", "164111.388000", "164111.391000", "164111.394000", "164111.398000", "164111.401000", "164111.404000", "164111.408000", "164111.411000", "164111.414000", "164131.323000", "164131.327000", "164131.330000", "164131.333000", "164131.337000", "164131.340000", "164131.343000", "164131.346000", "164131.350000", "164131.353000", "164131.356000", "164131.360000", "164131.363000", "164131.366000", "164131.370000", "164131.373000", "164131.376000", "164131.380000", "164131.383000", "164131.386000", "164151.324000", "164151.328000", "164151.331000", "164151.334000", "164151.338000", "164151.341000", "164151.344000", "164151.348000", "164151.351000", "164151.354000", "164151.358000", "164151.361000", "164151.364000", "164151.367000", "164151.371000", "164151.374000", "164151.377000", "164151.381000", "164151.384000", "164151.387000", "164211.324000", "164211.328000", "164211.332000", "164211.336000", "164211.339000", "164211.342000", "164211.346000", "164211.349000", "164211.352000", "164211.356000", "164211.372000", "164211.375000", "164211.378000", "164211.382000", "164211.385000", "164211.388000", "164211.391000", "164211.395000", "164211.398000", "164211.401000", "164231.324000", "164231.328000", "164231.331000", "164231.334000", "164231.338000", "164231.341000", "164231.344000", "164231.348000", "164231.351000", "164231.354000", "164231.358000", "164231.361000", "164231.364000", "164231.368000", "164231.371000", "164231.374000", "164231.378000", "164231.381000", "164231.384000", "164231.387000", "164231.391000", "164311.324000", "164311.328000", "164311.331000", "164311.334000", "164311.338000", "164311.341000", "164311.344000", "164311.348000", "164311.351000", "164311.355000", "164311.358000", "164311.362000", "164311.365000", "164311.368000", "164311.371000", "164311.375000", "164311.378000", "164311.382000", "164311.385000", "164311.388000", "164311.391000", "164311.395000", "164311.398000", "164311.401000", "164311.405000", "164311.408000", "164311.411000", "164351.323000", "164351.327000", "164351.330000", "164351.334000", "164351.337000", "164351.340000", "164351.344000", "164351.347000", "164351.350000", "164351.354000", "164351.357000", "164351.360000", "164351.363000", "164351.367000", "164351.370000", "164351.373000", "164351.377000", "164351.380000", "164351.383000", "164351.387000", "164351.390000", "164351.393000", "164351.397000", "164351.400000", "164351.403000", "164351.407000", "164351.410000", "164431.324000", "164431.328000", "164431.331000", "164431.334000", "164431.338000", "164431.341000", "164431.344000", "164431.348000", "164431.351000", "164431.355000", "164431.358000", "164431.361000", "164431.365000", "164431.368000", "164431.371000", "164431.375000", "164431.393000", "164431.396000", "164431.399000", "164431.403000", "164431.406000", "164431.409000", "164431.413000", "164431.416000", "164431.420000", "164431.423000", "164511.324000", "164511.328000", "164511.331000", "164511.334000", "164511.338000", "164511.341000", "164511.344000", "164511.348000", "164511.351000", "164511.354000", "164511.358000", "164511.361000", "164511.364000", "164511.368000", "164511.371000", "164511.374000", "164511.378000", "164511.381000", "164511.384000", "164511.388000", "164511.391000", "164511.394000", "164511.398000", "164511.401000", "164511.404000", "164511.408000", "164511.411000", "164551.323000", "164551.327000", "164551.330000", "164551.334000", "164551.337000", "164551.340000", "164551.344000", "164551.347000", "164551.351000", "164551.354000", "164551.357000", "164551.361000", "164551.364000", "164551.367000", "164551.371000", "164551.374000", "164551.378000", "164551.381000", "164551.384000", "164551.388000", "164551.391000", "164551.394000", "164551.398000", "164551.401000", "164551.404000", "164551.408000", "164551.411000", "164631.325000", "164631.329000", "164631.332000", "164631.335000", "164631.339000", "164631.342000", "164631.345000", "164631.349000", "164631.352000", "164631.355000", "164631.359000", "164631.362000", "164631.365000", "164631.369000", "164631.372000", "164631.375000", "164631.379000", "164631.382000", "164631.386000", "164631.389000", "164631.392000", "164631.396000", "164631.399000", "164631.402000", "164631.406000", "164631.409000", "164631.412000", "164711.325000", "164711.344000", "164711.348000", "164711.351000", "164711.354000", "164711.358000", "164711.361000", "164711.364000", "164711.368000", "164711.371000", "164711.375000", "164711.378000", "164711.381000", "164711.385000", "164711.388000", "164711.391000", "164711.395000", "164711.398000", "164711.401000", "164711.405000", "164711.408000", "164711.411000", "164711.415000", "164711.418000", "164711.421000", "164711.425000", "164711.428000", "164727.767000", "164727.771000", "164727.775000", "164727.778000", "164727.782000", "164727.785000", "164727.789000", "164727.792000", "164727.795000", "164727.799000", "164727.802000"],
      "InstanceCreationTime": ["164111.358000", "164111.362000", "164111.365000", "164111.369000", "164111.378000", "164111.381000", "164111.385000", "164111.388000", "164111.391000", "164111.394000", "164111.398000", "164111.401000", "164111.404000", "164111.408000", "164111.411000", "164111.414000", "164131.323000", "164131.327000", "164131.330000", "164131.333000", "164131.337000", "164131.340000", "164131.343000", "164131.346000", "164131.350000", "164131.353000", "164131.356000", "164131.360000", "164131.363000", "164131.366000", "164131.370000", "164131.373000", "164131.376000", "164131.380000", "164131.383000", "164131.386000", "164151.324000", "164151.328000", "164151.331000", "164151.334000", "164151.338000", "164151.341000", "164151.344000", "164151.348000", "164151.351000", "164151.354000", "164151.358000", "164151.361000", "164151.364000", "164151.367000", "164151.371000", "164151.374000", "164151.377000", "164151.381000", "164151.384000", "164151.387000", "164211.324000", "164211.328000", "164211.332000", "164211.336000", "164211.339000", "164211.342000", "164211.346000", "164211.349000", "164211.352000", "164211.356000", "164211.372000", "164211.375000", "164211.378000", "164211.382000", "164211.385000", "164211.388000", "164211.391000", "164211.395000", "164211.398000", "164211.401000", "164231.324000", "164231.328000", "164231.331000", "164231.334000", "164231.338000", "164231.341000", "164231.344000", "164231.348000", "164231.351000", "164231.354000", "164231.358000", "164231.361000", "164231.364000", "164231.368000", "164231.371000", "164231.374000", "164231.378000", "164231.381000", "164231.384000", "164231.387000", "164231.391000", "164311.324000", "164311.328000", "164311.331000", "164311.334000", "164311.338000", "164311.341000", "164311.344000", "164311.348000", "164311.351000", "164311.355000", "164311.358000", "164311.362000", "164311.365000", "164311.368000", "164311.371000", "164311.375000", "164311.378000", "164311.382000", "164311.385000", "164311.388000", "164311.391000", "164311.395000", "164311.398000", "164311.401000", "164311.405000", "164311.408000", "164311.411000", "164351.323000", "164351.327000", "164351.330000", "164351.334000", "164351.337000", "164351.340000", "164351.344000", "164351.347000", "164351.350000", "164351.354000", "164351.357000", "164351.360000", "164351.363000", "164351.367000", "164351.370000", "164351.373000", "164351.377000", "164351.380000", "164351.383000", "164351.387000", "164351.390000", "164351.393000", "164351.397000", "164351.400000", "164351.403000", "164351.407000", "164351.410000", "164431.324000", "164431.328000", "164431.331000", "164431.334000", "164431.338000", "164431.341000", "164431.344000", "164431.348000", "164431.351000", "164431.355000", "164431.358000", "164431.361000", "164431.365000", "164431.368000", "164431.371000", "164431.375000", "164431.393000", "164431.396000", "164431.399000", "164431.403000", "164431.406000", "164431.409000", "164431.413000", "164431.416000", "164431.420000", "164431.423000", "164511.324000", "164511.328000", "164511.331000", "164511.334000", "164511.338000", "164511.341000", "164511.344000", "164511.348000", "164511.351000", "164511.354000", "164511.358000", "164511.361000", "164511.364000", "164511.368000", "164511.371000", "164511.374000", "164511.378000", "164511.381000", "164511.384000", "164511.388000", "164511.391000", "164511.394000", "164511.398000", "164511.401000", "164511.404000", "164511.408000", "164511.411000", "164551.323000", "164551.327000", "164551.330000", "164551.334000", "164551.337000", "164551.340000", "164551.344000", "164551.347000", "164551.351000", "164551.354000", "164551.357000", "164551.361000", "164551.364000", "164551.367000", "164551.371000", "164551.374000", "164551.378000", "164551.381000", "164551.384000", "164551.388000", "164551.391000", "164551.394000", "164551.398000", "164551.401000", "164551.404000", "164551.408000", "164551.411000", "164631.325000", "164631.329000", "164631.332000", "164631.335000", "164631.339000", "164631.342000", "164631.345000", "164631.349000", "164631.352000", "164631.355000", "164631.359000", "164631.362000", "164631.365000", "164631.369000", "164631.372000", "164631.375000", "164631.379000", "164631.382000", "164631.386000", "164631.389000", "164631.392000", "164631.396000", "164631.399000", "164631.402000", "164631.406000", "164631.409000", "164631.412000", "164711.325000", "164711.344000", "164711.348000", "164711.351000", "164711.354000", "164711.358000", "164711.361000", "164711.364000", "164711.368000", "164711.371000", "164711.375000", "164711.378000", "164711.381000", "164711.385000", "164711.388000", "164711.391000", "164711.395000", "164711.398000", "164711.401000", "164711.405000", "164711.408000", "164711.411000", "164711.415000", "164711.418000", "164711.421000", "164711.425000", "164711.428000", "164727.767000", "164727.771000", "164727.775000", "164727.778000", "164727.782000", "164727.785000", "164727.789000", "164727.792000", "164727.795000", "164727.799000", "164727.802000"],
      "InstanceNumber": [1, 2, 3, 4, 5, 6, 7, 8, 9, 10, 11, 12, 13, 14, 15, 16, 17, 18, 19, 20, 21, 22, 23, 24, 25, 26, 27, 28, 29, 30, 31, 32, 33, 34, 35, 36, 37, 38, 39, 40, 41, 42, 43, 44, 45, 46, 47, 48, 49, 50, 51, 52, 53, 54, 55, 56, 57, 58, 59, 60, 61, 62, 63, 64, 65, 66, 67, 68, 69, 70, 71, 72, 73, 74, 75, 76, 77, 78, 79, 80, 81, 82, 83, 84, 85, 86, 87, 88, 89, 90, 91, 92, 93, 94, 95, 96, 97, 98, 99, 100, 101, 102, 103, 104, 105, 106, 107, 108, 109, 110, 111, 112, 113, 114, 115, 116, 117, 118, 119, 120, 121, 122, 123, 124, 125, 126, 127, 128, 129, 130, 131, 132, 133, 134, 135, 136, 137, 138, 139, 140, 141, 142, 143, 144, 145, 146, 147, 148, 149, 150, 151, 152, 153, 154, 155, 156, 157, 158, 159, 160, 161, 162, 163, 164, 165, 166, 167, 168, 169, 170, 171, 172, 173, 174, 175, 176, 177, 178, 179, 180, 181, 182, 183, 184, 185, 186, 187, 188, 189, 190, 191, 192, 193, 194, 195, 196, 197, 198, 199, 200, 201, 202, 203, 204, 205, 206, 207, 208, 209, 210, 211, 212, 213, 214, 215, 216, 217, 218, 219, 220, 221, 222, 223, 224, 225, 226, 227, 228, 229, 230, 231, 232, 233, 234, 235, 236, 237, 238, 239, 240, 241, 242, 243, 244, 245, 246, 247, 248, 249, 250, 251, 252, 253, 254, 255, 256, 257, 258, 259, 260, 261, 262, 263, 264, 265, 266, 267, 268, 269, 270, 271, 272, 273, 274, 275, 276, 277, 278, 279, 280, 281, 282, 283, 284, 285, 286, 287, 288, 289, 290, 291, 292, 293, 294, 295, 296],
      "LargestImagePixelValue": [46657, 43463, 43877, 44434, 44141, 42978, 42240, 42461, 42925, 42972, 41784, 42105, 41431, 41674, 42329, 41237, 41127, 41027, 42171, 42426, 42757, 41882, 44373, 42547, 41864, 41893, 41406, 41492, 42390, 41625, 41220, 41112, 41247, 41013, 42171, 41187, 42008, 41363, 42743, 42379, 43130, 42784, 42125, 40745, 41763, 41414, 41389, 41390, 41972, 40939, 41443, 41829, 41781, 41663, 42755, 42705, 43483, 41957, 42177, 42731, 41542, 42821, 41287, 42239, 41957, 43012, 43071, 43885, 43002, 41773, 45580, 46337, 45360, 45800, 46337, 43905, 44706, 44725, 43099, 44032, 43326, 41702, 42997, 43455, 43878, 43961, 43802, 43913, 45452, 46294, 45126, 44422, 43500, 43600, 44394, 44842, 44472, 43329, 45695, 43780, 44586, 42371, 43751, 44277, 43519, 44789, 43634, 45737, 44833, 44290, 44413, 44695, 45562, 45095, 44847, 44992, 45008, 43515, 46519, 45250, 44009, 44065, 45101, 45655, 45321, 45814, 46668, 46401, 45785, 46747, 44420, 46494, 43718, 46426, 45504, 45855, 46985, 46424, 46883, 46549, 45539, 46032, 44819, 44931, 46109, 46136, 43449, 45962, 44009, 44209, 46050, 46433, 45787, 45109, 45429, 44475, 43832, 44051, 44112, 45109, 44842, 47628, 44761, 44247, 45581, 42768, 42481, 42397, 44019, 44969, 43883, 42925, 45663, 44702, 45663, 45099, 44908, 43622, 42064, 43012, 43219, 42417, 44839, 44307, 45265, 44917, 45714, 45199, 46885, 44339, 42920, 45014, 43688, 45466, 43977, 42544, 41983, 42562, 42888, 43800, 44272, 42972, 44331, 43057, 43898, 42380, 43171, 42968, 43031, 40852, 43594, 43905, 43208, 43879, 44079, 43558, 43619, 43135, 42490, 41737, 41386, 41649, 41437, 40855, 41066, 41791, 40833, 40725, 40723, 40658, 41230, 41884, 41867, 44977, 42833, 43869, 44125, 44131, 45094, 45154, 43049, 44588, 43828, 43693, 46015, 43799, 44577, 44549, 46005, 44241, 44428, 43183, 41534, 42880, 42734, 42478, 42702, 42437, 42346, 40982, 42135, 43054, 42798, 42465, 43133, 43593, 43708, 44252, 43345, 45206, 45373, 46137, 44181, 45267, 45596, 44787, 44304, 44851, 44117, 41926, 44143, 44106, 44008, 44411, 45563, 44623, 45876, 45882, 45805, 45878, 44129, 43116, 45431, 44991, 46265, 45964],
      "WindowCenter": [10928.0, 10815.0, 10790.0, 10803.0, 10822.0, 10820.0, 10809.0, 10781.0, 10766.0, 10790.0, 10793.0, 10797.0, 10836.0, 10858.0, 10823.0, 10819.0, 10831.0, 10815.0, 10842.0, 10851.0, 10864.0, 10844.0, 10856.0, 10877.0, 10874.0, 10856.0, 10820.0, 10854.0, 10863.0, 10869.0, 10858.0, 10830.0, 10826.0, 10825.0, 10834.0, 10823.0, 10817.0, 10802.0, 10795.0, 10772.0, 10793.0, 10807.0, 10821.0, 10810.0, 10803.0, 10775.0, 10798.0, 10818.0, 10820.0, 10811.0, 10817.0, 10800.0, 10789.0, 10777.0, 10790.0, 10792.0, 10829.0, 10805.0, 10789.0, 10778.0, 10798.0, 10847.0, 10839.0, 10854.0, 10797.0, 10776.0, 10766.0, 10770.0, 10778.0, 10785.0, 10837.0, 10835.0, 10837.0, 10877.0, 10893.0, 10852.0, 10845.0, 10844.0, 10825.0, 10854.0, 10847.0, 10813.0, 10802.0, 10793.0, 10801.0, 10809.0, 10838.0, 10841.0, 10845.0, 10843.0, 10835.0, 10860.0, 10841.0, 10835.0, 10837.0, 10828.0, 10828.0, 10815.0, 10844.0, 10873.0, 10893.0, 10839.0, 10843.0, 10812.0, 10781.0, 10799.0, 10812.0, 10863.0, 10852.0, 10812.0, 10779.0, 10783.0, 10802.0, 10807.0, 10810.0, 10817.0, 10823.0, 10839.0, 10884.0, 10881.0, 10903.0, 10867.0, 10872.0, 10865.0, 10895.0, 10864.0, 10824.0, 10849.0, 10861.0, 10871.0, 10833.0, 10848.0, 10839.0, 10870.0, 10833.0, 10858.0, 10870.0, 10845.0, 10845.0, 10821.0, 10811.0, 10793.0, 10809.0, 10841.0, 10852.0, 10880.0, 10847.0, 10844.0, 10822.0, 10820.0, 10839.0, 10828.0, 10793.0, 10771.0, 10803.0, 10805.0, 10795.0, 10780.0, 10774.0, 10794.0, 10824.0, 10880.0, 10846.0, 10843.0, 10851.0, 10817.0, 10800.0, 10804.0, 10836.0, 10796.0, 10810.0, 10792.0, 10797.0, 10778.0, 10793.0, 10796.0, 10778.0, 10765.0, 10731.0, 10722.0, 10715.0, 10720.0, 10781.0, 10778.0, 10809.0, 10812.0, 10850.0, 10894.0, 10909.0, 10873.0, 10844.0, 10820.0, 10763.0, 10808.0, 10824.0, 10816.0, 10796.0, 10780.0, 10767.0, 10778.0, 10775.0, 10771.0, 10796.0, 10821.0, 10870.0, 10846.0, 10832.0, 10836.0, 10822.0, 10698.0, 10779.0, 10765.0, 10740.0, 10743.0, 10758.0, 10762.0, 10773.0, 10777.0, 10792.0, 10794.0, 10799.0, 10821.0, 10856.0, 10867.0, 10816.0, 10801.0, 10789.0, 10805.0, 10820.0, 10817.0, 10801.0, 10790.0, 10772.0, 10798.0, 10758.0, 10766.0, 10761.0, 10746.0, 10753.0, 10755.0, 10763.0, 10776.0, 10774.0, 10779.0, 10798.0, 10798.0, 10820.0, 10826.0, 10852.0, 10817.0, 10802.0, 10774.0, 10748.0, 10772.0, 10765.0, 10765.0, 10769.0, 10769.0, 10762.0, 10763.0, 10745.0, 10748.0, 10771.0, 10819.0, 10831.0, 10804.0, 10770.0, 10744.0, 10746.0, 10747.0, 10798.0, 10865.0, 10867.0, 10864.0, 10859.0, 10801.0, 10761.0, 10757.0, 10816.0, 10839.0, 10854.0, 10814.0, 10794.0, 10790.0, 10806.0, 10794.0, 10803.0, 10820.0, 10814.0, 10830.0, 10844.0, 10817.0, 10825.0, 10833.0, 10851.0, 10845.0],
