{
  "AcquisitionMatrixPE": 104,
  "AcquisitionNumber": 1,
  "AcquisitionTime": "16:48:18.357500",
  "BandwidthPerPixelPhaseEncode": 17.17,
  "BaseResolution": 104,
  "BodyPartExamined": "BRAIN",
  "CoilCombinationMethod": "Sum of Squares",
  "ConsistencyInfo": "N4_VE11C_LATEST_20160120",
  "ConversionSoftware": "dcm2niix",
  "ConversionSoftwareVersion": "v1.0.20220505",
  "DerivedVendorReportedEchoSpacing": 0.000560011,
  "DeviceSerialNumber": "167006",
  "DwellTime": 2.1e-06,
  "EchoTime": 0.037,
  "EchoTrainLength": 104,
  "EffectiveEchoSpacing": 0.000560011,
  "FlipAngle": 52,
  "HeudiconvVersion": "0.5.3.post811+g6206e14",
  "ImageComments": "Unaliased MB4/PE3/LB",
  "ImageOrientationPatientDICOM": [0.999377, 0.00804827, 0.0343556, 0.0118614, 0.840356, -0.541905],
  "ImageOrientationText": "Tra>Cor(-32.8)>Sag(1.9)",
  "ImageType": [
    "ORIGINAL",
    "PRIMARY",
    "M",
    "MB",
    "ND",
    "MOSAIC"
],
  "ImagingFrequency": 123.259,
  "InPlanePhaseEncodingDirectionDICOM": "COL",
  "InstitutionAddress": "Chemin Queen-Mary 4565,Montreal,District,CA,H3W 1W5",
  "InstitutionName": "IUGM",
  "InstitutionalDepartmentName": "Department",
  "MRAcquisitionType": "2D",
  "MagneticFieldStrength": 3,
  "Manufacturer": "Siemens",
  "ManufacturersModelName": "Prisma_fit",
  "MatrixCoilMode": "SENSE",
  "Modality": "MR",
  "MultibandAccelerationFactor": 4,
  "PartialFourier": 1,
  "PatientPosition": "HFS",
  "PercentPhaseFOV": 100,
  "PercentSampling": 100,
  "PhaseEncodingDirection": "j",
  "PhaseEncodingSteps": 104,
  "PhaseResolution": 1,
  "PixelBandwidth": 2290,
  "ProcedureStepDescription": "games^mario3",
  "ProtocolName": "func_task-mario3_run-04",
  "PulseSequenceDetails": "%CustomerSeq%\\cmrr_mbep2d_bold",
  "ReceiveCoilActiveElements": "HC1-7;NC1,2",
  "ReceiveCoilName": "HeadNeck_64",
  "ReconMatrixPE": 104,
  "RepetitionTime": 1.49,
  "SAR": 0.0459562,
  "ScanOptions": "FS",
  "ScanningSequence": "EP",
  "SequenceName": "epfid2d1_104",
  "SequenceVariant": "SK\\SS",
  "SeriesDescription": "func_task-mario3_run-04",
  "SeriesNumber": 19,
  "ShimSetting": [623, -7183, -8865, 241, 51, -189, -30, 57],
  "SliceThickness": 2,
  "SliceTiming": [0, 0.785, 0.0975, 0.8825, 0.1975, 0.98, 0.295, 1.0775, 0.3925, 1.1775, 0.49, 1.275, 0.5875, 1.3725, 0.6875, 0, 0.785, 0.0975, 0.8825, 0.1975, 0.98, 0.295, 1.0775, 0.3925, 1.1775, 0.49, 1.275, 0.5875, 1.3725, 0.6875, 0, 0.785, 0.0975, 0.8825, 0.1975, 0.98, 0.295, 1.0775, 0.3925, 1.1775, 0.49, 1.275, 0.5875, 1.3725, 0.6875, 0, 0.785, 0.0975, 0.8825, 0.1975, 0.98, 0.295, 1.0775, 0.3925, 1.1775, 0.49, 1.275, 0.5875, 1.3725, 0.6875],
  "SoftwareVersions": "syngo MR E11",
  "SpacingBetweenSlices": 2,
  "StationName": "MRC35049",
  "TaskName": "mario3",
  "TotalReadoutTime": 0.0576811,
  "TxRefAmp": 253.247,
  "WipMemBlock": "9eafadc9-d83b-424a-a84e-0f3e404df803||Sequence: R017 ve11c/master r/75a17815+; Jun 28 2022 16:32:11 by eja",
  "dcmmeta_affine": [
    [-1.9987545013427734, 0.02372288703918457, 0.06646467745304108, 104.36060333251953],
    [-0.016096536070108414, 1.680712342262268, -1.0839496850967407, -46.51134490966797],
    [0.06871121376752853, 1.0838096141815186, 1.6794747114181519, -99.22900390625],
    [0.0, 0.0, 0.0, 1.0]
],
  "dcmmeta_reorient_transform": [
    [0.0, -1.0, 0.0, 103.0],
    [1.0, 0.0, 0.0, 0.0],
    [0.0, 0.0, 1.0, 0.0],
    [0.0, 0.0, 0.0, 1.0]
],
  "dcmmeta_shape": [104, 104, 60, 339],
  "dcmmeta_slice_dim": 2,
  "dcmmeta_version": 0.6,
  "global": {
    "const": {
      "AcquisitionMatrix": [104, 0, 0, 104],
      "AngioFlag": "N",
      "BitsAllocated": 16,
      "BitsStored": 16,
      "BodyPartExamined": "BRAIN",
      "Columns": 832,
      "EchoNumbers": 1,
      "EchoTime": 37.0,
      "EchoTrainLength": 104,
      "FlipAngle": 52.0,
      "HighBit": 15,
      "ImageOrientationPatient": [0.99937726495264, 0.00804826761684, 0.03435560629863, 0.01186144341528, 0.84035616637028, -0.5419048069574],
      "ImagePositionPatient": [-842.98583804911, -744.24045477553, 381.89920200743],
      "ImageType": [
        "ORIGINAL",
        "PRIMARY",
        "M",
        "MB",
        "ND",
        "MOSAIC"
],
      "ImagedNucleus": "1H",
      "ImagingFrequency": 123.258985,
      "InPlanePhaseEncodingDirection": "COL",
      "MRAcquisitionType": "2D",
      "MagneticFieldStrength": 3.0,
      "Manufacturer": "SIEMENS",
      "ManufacturerModelName": "Prisma_fit",
      "Modality": "MR",
      "NumberOfAverages": 1.0,
      "NumberOfPhaseEncodingSteps": 104,
      "PercentPhaseFieldOfView": 100.0,
      "PercentSampling": 100.0,
      "PerformedProcedureStepStartTime": "161444.850000",
      "PhotometricInterpretation": "MONOCHROME2",
      "PixelBandwidth": 2290.0,
      "PixelRepresentation": 0,
      "PixelSpacing": [2.0, 2.0],
      "ProtocolName": "func_task-mario3_run-04",
      "RepetitionTime": 1490.0,
      "Rows": 832,
      "SAR": 0.04595618912972,
      "SamplesPerPixel": 1,
      "ScanOptions": "FS",
      "ScanningSequence": "EP",
      "SequenceName": "epfid2d1_104",
      "SequenceVariant": [
        "SK",
        "SS"
],
      "SeriesDescription": "func_task-mario3_run-04",
      "SeriesNumber": 19,
      "SeriesTime": "164924.911000",
      "SliceLocation": -54.650180623133,
      "SliceThickness": 2.0,
      "SmallestImagePixelValue": 0,
      "SoftwareVersions": "syngo MR E11",
      "SpacingBetweenSlices": 1.9999999683453,
      "SpecificCharacterSet": "ISO_IR 100",
      "StudyID": "1",
      "StudyTime": "161444.763000",
      "TransmitCoilName": "Body",
      "VariableFlipAngleFlag": "N",
      "WindowCenterWidthExplanation": "Algo1",
      "dBdt": 0.0},
    "slices": {}
  },
  "time": {
    "samples": {
      "AcquisitionNumber": [1, 2, 3, 4, 5, 6, 7, 8, 9, 10, 11, 12, 13, 14, 15, 16, 17, 18, 19, 20, 21, 22, 23, 24, 25, 26, 27, 28, 29, 30, 31, 32, 33, 34, 35, 36, 37, 38, 39, 40, 41, 42, 43, 44, 45, 46, 47, 48, 49, 50, 51, 52, 53, 54, 55, 56, 57, 58, 59, 60, 61, 62, 63, 64, 65, 66, 67, 68, 69, 70, 71, 72, 73, 74, 75, 76, 77, 78, 79, 80, 81, 82, 83, 84, 85, 86, 87, 88, 89, 90, 91, 92, 93, 94, 95, 96, 97, 98, 99, 100, 101, 102, 103, 104, 105, 106, 107, 108, 109, 110, 111, 112, 113, 114, 115, 116, 117, 118, 119, 120, 121, 122, 123, 124, 125, 126, 127, 128, 129, 130, 131, 132, 133, 134, 135, 136, 137, 138, 139, 140, 141, 142, 143, 144, 145, 146, 147, 148, 149, 150, 151, 152, 153, 154, 155, 156, 157, 158, 159, 160, 161, 162, 163, 164, 165, 166, 167, 168, 169, 170, 171, 172, 173, 174, 175, 176, 177, 178, 179, 180, 181, 182, 183, 184, 185, 186, 187, 188, 189, 190, 191, 192, 193, 194, 195, 196, 197, 198, 199, 200, 201, 202, 203, 204, 205, 206, 207, 208, 209, 210, 211, 212, 213, 214, 215, 216, 217, 218, 219, 220, 221, 222, 223, 224, 225, 226, 227, 228, 229, 230, 231, 232, 233, 234, 235, 236, 237, 238, 239, 240, 241, 242, 243, 244, 245, 246, 247, 248, 249, 250, 251, 252, 253, 254, 255, 256, 257, 258, 259, 260, 261, 262, 263, 264, 265, 266, 267, 268, 269, 270, 271, 272, 273, 274, 275, 276, 277, 278, 279, 280, 281, 282, 283, 284, 285, 286, 287, 288, 289, 290, 291, 292, 293, 294, 295, 296, 297, 298, 299, 300, 301, 302, 303, 304, 305, 306, 307, 308, 309, 310, 311, 312, 313, 314, 315, 316, 317, 318, 319, 320, 321, 322, 323, 324, 325, 326, 327, 328, 329, 330, 331, 332, 333, 334, 335, 336, 337, 338, 339],
      "AcquisitionTime": ["164818.357500", "164819.847500", "164821.337500", "164822.827500", "164824.317500", "164825.807500", "164827.297500", "164828.787500", "164830.277500", "164831.767500", "164833.257500", "164834.747500", "164836.237500", "164837.727500", "164839.217500", "164840.707500", "164842.197500", "164843.687500", "164845.177500", "164846.667500", "164848.157500", "164849.647500", "164851.137500", "164852.627500", "164854.117500", "164855.607500", "164857.097500", "164858.587500", "164900.077500", "164901.567500", "164903.057500", "164904.547500", "164906.037500", "164907.527500", "164909.017500", "164910.507500", "164911.997500", "164913.487500", "164914.977500", "164916.467500", "164917.957500", "164919.447500", "164920.937500", "164922.427500", "164923.917500", "164925.407500", "164926.897500", "164928.387500", "164929.877500", "164931.367500", "164932.857500", "164934.347500", "164935.837500", "164937.327500", "164938.817500", "164940.307500", "164941.797500", "164943.287500", "164944.777500", "164946.267500", "164947.757500", "164949.247500", "164950.737500", "164952.227500", "164953.717500", "164955.207500", "164956.697500", "164958.187500", "164959.677500", "165001.167500", "165002.657500", "165004.147500", "165005.637500", "165007.127500", "165008.617500", "165010.107500", "165011.597500", "165013.087500", "165014.577500", "165016.067500", "165017.557500", "165019.047500", "165020.537500", "165022.027500", "165023.517500", "165025.007500", "165026.497500", "165027.987500", "165029.477500", "165030.967500", "165032.457500", "165033.947500", "165035.437500", "165036.927500", "165038.417500", "165039.907500", "165041.397500", "165042.887500", "165044.377500", "165045.867500", "165047.357500", "165048.847500", "165050.337500", "165051.827500", "165053.317500", "165054.807500", "165056.297500", "165057.787500", "165059.277500", "165100.767500", "165102.257500", "165103.747500", "165105.237500", "165106.727500", "165108.217500", "165109.707500", "165111.197500", "165112.687500", "165114.177500", "165115.667500", "165117.157500", "165118.647500", "165120.137500", "165121.627500", "165123.117500", "165124.607500", "165126.097500", "165127.587500", "165129.077500", "165130.567500", "165132.057500", "165133.547500", "165135.037500", "165136.527500", "165138.017500", "165139.507500", "165140.997500", "165142.487500", "165143.977500", "165145.467500", "165146.957500", "165148.447500", "165149.937500", "165151.427500", "165152.917500", "165154.407500", "165155.897500", "165157.387500", "165158.877500", "165200.367500", "165201.857500", "165203.347500", "165204.837500", "165206.327500", "165207.817500", "165209.307500", "165210.797500", "165212.287500", "165213.777500", "165215.267500", "165216.757500", "165218.247500", "165219.737500", "165221.227500", "165222.717500", "165224.207500", "165225.697500", "165227.187500", "165228.677500", "165230.167500", "165231.657500", "165233.147500", "165234.637500", "165236.127500", "165237.617500", "165239.107500", "165240.597500", "165242.087500", "165243.577500", "165245.067500", "165246.557500", "165248.047500", "165249.537500", "165251.027500", "165252.517500", "165254.007500", "165255.497500", "165256.987500", "165258.477500", "165259.967500", "165301.457500", "165302.947500", "165304.437500", "165305.927500", "165307.417500", "165308.907500", "165310.397500", "165311.887500", "165313.377500", "165314.867500", "165316.357500", "165317.847500", "165319.337500", "165320.827500", "165322.317500", "165323.807500", "165325.297500", "165326.787500", "165328.277500", "165329.767500", "165331.257500", "165332.747500", "165334.237500", "165335.727500", "165337.217500", "165338.707500", "165340.197500", "165341.687500", "165343.177500", "165344.667500", "165346.157500", "165347.647500", "165349.137500", "165350.627500", "165352.117500", "165353.607500", "165355.097500", "165356.587500", "165358.077500", "165359.567500", "165401.057500", "165402.547500", "165404.037500", "165405.527500", "165407.017500", "165408.507500", "165409.997500", "165411.487500", "165412.977500", "165414.467500", "165415.957500", "165417.447500", "165418.937500", "165420.427500", "165421.917500", "165423.407500", "165424.897500", "165426.387500", "165427.877500", "165429.367500", "165430.857500", "165432.347500", "165433.837500", "165435.327500", "165436.817500", "165438.307500", "165439.797500", "165441.287500", "165442.777500", "165444.267500", "165445.757500", "165447.247500", "165448.737500", "165450.227500", "165451.717500", "165453.207500", "165454.697500", "165456.187500", "165457.677500", "165459.167500", "165500.657500", "165502.147500", "165503.637500", "165505.127500", "165506.617500", "165508.107500", "165509.597500", "165511.087500", "165512.577500", "165514.067500", "165515.557500", "165517.047500", "165518.537500", "165520.027500", "165521.517500", "165523.007500", "165524.497500", "165525.987500", "165527.477500", "165528.967500", "165530.457500", "165531.947500", "165533.437500", "165534.927500", "165536.417500", "165537.907500", "165539.397500", "165540.887500", "165542.377500", "165543.867500", "165545.357500", "165546.847500", "165548.337500", "165549.827500", "165551.317500", "165552.807500", "165554.297500", "165555.787500", "165557.277500", "165558.767500", "165600.257500", "165601.747500", "165603.237500", "165604.727500", "165606.217500", "165607.707500", "165609.197500", "165610.687500", "165612.177500", "165613.667500", "165615.157500", "165616.647500", "165618.137500", "165619.627500", "165621.117500", "165622.607500", "165624.097500", "165625.587500", "165627.077500", "165628.567500", "165630.057500", "165631.547500", "165633.037500", "165634.527500", "165636.017500", "165637.507500", "165638.997500", "165640.487500", "165641.977500"],
      "ContentTime": ["164924.914000", "164924.918000", "164924.921000", "164924.925000", "164924.928000", "164924.931000", "164924.935000", "164924.938000", "164924.947000", "164924.950000", "164924.953000", "164924.957000", "164924.960000", "164924.963000", "164924.967000", "164924.970000", "164924.973000", "164924.976000", "164924.980000", "164944.877000", "164944.881000", "164944.884000", "164944.888000", "164944.891000", "164944.894000", "164944.897000", "164944.901000", "164944.904000", "164944.907000", "164944.911000", "164944.914000", "164944.917000", "164944.921000", "164944.924000", "164944.927000", "164944.931000", "164944.934000", "164944.937000", "164944.940000", "165004.877000", "165004.881000", "165004.885000", "165004.888000", "165004.891000", "165004.895000", "165004.898000", "165004.901000", "165004.905000", "165004.908000", "165004.911000", "165004.921000", "165004.924000", "165004.928000", "165004.931000", "165004.947000", "165004.950000", "165004.953000", "165004.957000", "165004.960000", "165004.963000", "165024.877000", "165024.881000", "165024.884000", "165024.888000", "165024.891000", "165024.894000", "165024.898000", "165024.901000", "165024.904000", "165024.908000", "165024.911000", "165024.914000", "165024.917000", "165024.921000", "165024.924000", "165024.928000", "165024.931000", "165024.934000", "165024.937000", "165024.941000", "165104.876000", "165104.880000", "165104.883000", "165104.887000", "165104.890000", "165104.893000", "165104.897000", "165104.900000", "165104.903000", "165104.907000", "165104.910000", "165104.913000", "165104.917000", "165104.920000", "165104.923000", "165104.927000", "165104.930000", "165104.933000", "165104.937000", "165104.940000", "165104.943000", "165104.946000", "165104.950000", "165104.953000", "165104.956000", "165104.960000", "165104.963000", "165104.966000", "165104.970000", "165104.973000", "165104.976000", "165144.877000", "165144.881000", "165144.884000", "165144.888000", "165144.891000", "165144.894000", "165144.898000", "165144.901000", "165144.904000", "165144.908000", "165144.911000", "165144.915000", "165144.918000", "165144.921000", "165144.925000", "165144.928000", "165144.931000", "165144.935000", "165144.938000", "165144.941000", "165144.945000", "165144.948000", "165144.951000", "165144.955000", "165144.958000", "165144.961000", "165144.965000", "165224.877000", "165224.881000", "165224.884000", "165224.888000", "165224.891000", "165224.894000", "165224.898000", "165224.901000", "165224.904000", "165224.908000", "165224.911000", "165224.914000", "165224.918000", "165224.921000", "165224.925000", "165224.928000", "165224.931000", "165224.935000", "165224.938000", "165224.941000", "165224.945000", "165224.948000", "165224.951000", "165224.976000", "165224.980000", "165224.983000", "165224.986000", "165304.876000", "165304.880000", "165304.883000", "165304.887000", "165304.890000", "165304.893000", "165304.897000", "165304.900000", "165304.903000", "165304.907000", "165304.910000", "165304.913000", "165304.917000", "165304.920000", "165304.923000", "165304.927000", "165304.930000", "165304.934000", "165304.937000", "165304.940000", "165304.944000", "165304.947000", "165304.950000", "165304.954000", "165304.957000", "165304.960000", "165304.964000", "165344.876000", "165344.880000", "165344.883000", "165344.887000", "165344.890000", "165344.894000", "165344.897000", "165344.900000", "165344.904000", "165344.907000", "165344.910000", "165344.914000", "165344.917000", "165344.921000", "165344.924000", "165344.928000", "165344.931000", "165344.934000", "165344.938000", "165344.941000", "165344.944000", "165344.948000", "165344.951000", "165344.955000", "165344.958000", "165344.961000", "165424.877000", "165424.881000", "165424.885000", "165424.888000", "165424.891000", "165424.895000", "165424.898000", "165424.901000", "165424.905000", "165424.908000", "165424.912000", "165424.915000", "165424.918000", "165424.922000", "165424.925000", "165424.928000", "165424.932000", "165424.935000", "165424.939000", "165424.942000", "165424.946000", "165424.949000", "165424.952000", "165424.956000", "165424.959000", "165424.962000", "165424.966000", "165504.877000", "165504.881000", "165504.885000", "165504.888000", "165504.892000", "165504.895000", "165504.899000", "165504.902000", "165504.905000", "165504.909000", "165504.912000", "165504.916000", "165504.919000", "165504.922000", "165504.926000", "165504.929000", "165504.932000", "165504.936000", "165504.939000", "165504.942000", "165504.946000", "165504.949000", "165504.952000", "165504.956000", "165504.959000", "165504.962000", "165504.966000", "165544.876000", "165544.880000", "165544.883000", "165544.887000", "165544.890000", "165544.894000", "165544.897000", "165544.901000", "165544.904000", "165544.908000", "165544.911000", "165544.914000", "165544.918000", "165544.921000", "165544.924000", "165544.928000", "165544.931000", "165544.935000", "165544.938000", "165544.941000", "165544.945000", "165544.948000", "165544.951000", "165544.965000", "165544.969000", "165544.972000", "165544.975000", "165624.877000", "165624.881000", "165624.884000", "165624.888000", "165624.891000", "165624.894000", "165624.898000", "165624.901000", "165624.905000", "165624.908000", "165624.911000", "165624.915000", "165624.918000", "165624.921000", "165624.925000", "165624.928000", "165624.932000", "165624.935000", "165624.939000", "165624.942000", "165624.946000", "165624.949000", "165624.952000", "165624.956000", "165624.959000", "165624.962000", "165624.966000", "165644.232000", "165644.236000", "165644.239000", "165644.243000", "165644.246000", "165644.249000", "165644.253000", "165644.256000", "165644.260000", "165644.263000", "165644.267000", "165644.270000", "165644.274000"],
      "InstanceCreationTime": ["164924.914000", "164924.918000", "164924.921000", "164924.925000", "164924.928000", "164924.931000", "164924.935000", "164924.938000", "164924.947000", "164924.950000", "164924.953000", "164924.957000", "164924.960000", "164924.963000", "164924.967000", "164924.970000", "164924.973000", "164924.976000", "164924.980000", "164944.877000", "164944.881000", "164944.884000", "164944.888000", "164944.891000", "164944.894000", "164944.897000", "164944.901000", "164944.904000", "164944.907000", "164944.911000", "164944.914000", "164944.917000", "164944.921000", "164944.924000", "164944.927000", "164944.931000", "164944.934000", "164944.937000", "164944.940000", "165004.877000", "165004.881000", "165004.885000", "165004.888000", "165004.891000", "165004.895000", "165004.898000", "165004.901000", "165004.905000", "165004.908000", "165004.911000", "165004.921000", "165004.924000", "165004.928000", "165004.931000", "165004.947000", "165004.950000", "165004.953000", "165004.957000", "165004.960000", "165004.963000", "165024.877000", "165024.881000", "165024.884000", "165024.888000", "165024.891000", "165024.894000", "165024.898000", "165024.901000", "165024.904000", "165024.908000", "165024.911000", "165024.914000", "165024.917000", "165024.921000", "165024.924000", "165024.928000", "165024.931000", "165024.934000", "165024.937000", "165024.941000", "165104.876000", "165104.880000", "165104.883000", "165104.887000", "165104.890000", "165104.893000", "165104.897000", "165104.900000", "165104.903000", "165104.907000", "165104.910000", "165104.913000", "165104.917000", "165104.920000", "165104.923000", "165104.927000", "165104.930000", "165104.933000", "165104.937000", "165104.940000", "165104.943000", "165104.946000", "165104.950000", "165104.953000", "165104.956000", "165104.960000", "165104.963000", "165104.966000", "165104.970000", "165104.973000", "165104.976000", "165144.877000", "165144.881000", "165144.884000", "165144.888000", "165144.891000", "165144.894000", "165144.898000", "165144.901000", "165144.904000", "165144.908000", "165144.911000", "165144.915000", "165144.918000", "165144.921000", "165144.925000", "165144.928000", "165144.931000", "165144.935000", "165144.938000", "165144.941000", "165144.945000", "165144.948000", "165144.951000", "165144.955000", "165144.958000", "165144.961000", "165144.965000", "165224.877000", "165224.881000", "165224.884000", "165224.888000", "165224.891000", "165224.894000", "165224.898000", "165224.901000", "165224.904000", "165224.908000", "165224.911000", "165224.914000", "165224.918000", "165224.921000", "165224.925000", "165224.928000", "165224.931000", "165224.935000", "165224.938000", "165224.941000", "165224.945000", "165224.948000", "165224.951000", "165224.976000", "165224.980000", "165224.983000", "165224.986000", "165304.876000", "165304.880000", "165304.883000", "165304.887000", "165304.890000", "165304.893000", "165304.897000", "165304.900000", "165304.903000", "165304.907000", "165304.910000", "165304.913000", "165304.917000", "165304.920000", "165304.923000", "165304.927000", "165304.930000", "165304.934000", "165304.937000", "165304.940000", "165304.944000", "165304.947000", "165304.950000", "165304.954000", "165304.957000", "165304.960000", "165304.964000", "165344.876000", "165344.880000", "165344.883000", "165344.887000", "165344.890000", "165344.894000", "165344.897000", "165344.900000", "165344.904000", "165344.907000", "165344.910000", "165344.914000", "165344.917000", "165344.921000", "165344.924000", "165344.928000", "165344.931000", "165344.934000", "165344.938000", "165344.941000", "165344.944000", "165344.948000", "165344.951000", "165344.955000", "165344.958000", "165344.961000", "165424.877000", "165424.881000", "165424.885000", "165424.888000", "165424.891000", "165424.895000", "165424.898000", "165424.901000", "165424.905000", "165424.908000", "165424.912000", "165424.915000", "165424.918000", "165424.922000", "165424.925000", "165424.928000", "165424.932000", "165424.935000", "165424.939000", "165424.942000", "165424.946000", "165424.949000", "165424.952000", "165424.956000", "165424.959000", "165424.962000", "165424.966000", "165504.877000", "165504.881000", "165504.885000", "165504.888000", "165504.892000", "165504.895000", "165504.899000", "165504.902000", "165504.905000", "165504.909000", "165504.912000", "165504.916000", "165504.919000", "165504.922000", "165504.926000", "165504.929000", "165504.932000", "165504.936000", "165504.939000", "165504.942000", "165504.946000", "165504.949000", "165504.952000", "165504.956000", "165504.959000", "165504.962000", "165504.966000", "165544.876000", "165544.880000", "165544.883000", "165544.887000", "165544.890000", "165544.894000", "165544.897000", "165544.901000", "165544.904000", "165544.908000", "165544.911000", "165544.914000", "165544.918000", "165544.921000", "165544.924000", "165544.928000", "165544.931000", "165544.935000", "165544.938000", "165544.941000", "165544.945000", "165544.948000", "165544.951000", "165544.965000", "165544.969000", "165544.972000", "165544.975000", "165624.877000", "165624.881000", "165624.884000", "165624.888000", "165624.891000", "165624.894000", "165624.898000", "165624.901000", "165624.905000", "165624.908000", "165624.911000", "165624.915000", "165624.918000", "165624.921000", "165624.925000", "165624.928000", "165624.932000", "165624.935000", "165624.939000", "165624.942000", "165624.946000", "165624.949000", "165624.952000", "165624.956000", "165624.959000", "165624.962000", "165624.966000", "165644.232000", "165644.236000", "165644.239000", "165644.243000", "165644.246000", "165644.249000", "165644.253000", "165644.256000", "165644.260000", "165644.263000", "165644.267000", "165644.270000", "165644.274000"],
      "InstanceNumber": [1, 2, 3, 4, 5, 6, 7, 8, 9, 10, 11, 12, 13, 14, 15, 16, 17, 18, 19, 20, 21, 22, 23, 24, 25, 26, 27, 28, 29, 30, 31, 32, 33, 34, 35, 36, 37, 38, 39, 40, 41, 42, 43, 44, 45, 46, 47, 48, 49, 50, 51, 52, 53, 54, 55, 56, 57, 58, 59, 60, 61, 62, 63, 64, 65, 66, 67, 68, 69, 70, 71, 72, 73, 74, 75, 76, 77, 78, 79, 80, 81, 82, 83, 84, 85, 86, 87, 88, 89, 90, 91, 92, 93, 94, 95, 96, 97, 98, 99, 100, 101, 102, 103, 104, 105, 106, 107, 108, 109, 110, 111, 112, 113, 114, 115, 116, 117, 118, 119, 120, 121, 122, 123, 124, 125, 126, 127, 128, 129, 130, 131, 132, 133, 134, 135, 136, 137, 138, 139, 140, 141, 142, 143, 144, 145, 146, 147, 148, 149, 150, 151, 152, 153, 154, 155, 156, 157, 158, 159, 160, 161, 162, 163, 164, 165, 166, 167, 168, 169, 170, 171, 172, 173, 174, 175, 176, 177, 178, 179, 180, 181, 182, 183, 184, 185, 186, 187, 188, 189, 190, 191, 192, 193, 194, 195, 196, 197, 198, 199, 200, 201, 202, 203, 204, 205, 206, 207, 208, 209, 210, 211, 212, 213, 214, 215, 216, 217, 218, 219, 220, 221, 222, 223, 224, 225, 226, 227, 228, 229, 230, 231, 232, 233, 234, 235, 236, 237, 238, 239, 240, 241, 242, 243, 244, 245, 246, 247, 248, 249, 250, 251, 252, 253, 254, 255, 256, 257, 258, 259, 260, 261, 262, 263, 264, 265, 266, 267, 268, 269, 270, 271, 272, 273, 274, 275, 276, 277, 278, 279, 280, 281, 282, 283, 284, 285, 286, 287, 288, 289, 290, 291, 292, 293, 294, 295, 296, 297, 298, 299, 300, 301, 302, 303, 304, 305, 306, 307, 308, 309, 310, 311, 312, 313, 314, 315, 316, 317, 318, 319, 320, 321, 322, 323, 324, 325, 326, 327, 328, 329, 330, 331, 332, 333, 334, 335, 336, 337, 338, 339],
      "LargestImagePixelValue": [47220, 46487, 46717, 44406, 45070, 46162, 45111, 44480, 44179, 43796, 43657, 43025, 42395, 43065, 41745, 43356, 43345, 43298, 43402, 42558, 43120, 44110, 42563, 42345, 42602, 42614, 43951, 42234, 43170, 42997, 41810, 41514, 41216, 42423, 41787, 42124, 44825, 44501, 44883, 44848, 44417, 45017, 45668, 45526, 44305, 44245, 44753, 44712, 44465, 44196, 44230, 43620, 41924, 41710, 41382, 40874, 41235, 41781, 42619, 42498, 43431, 42943, 42665, 42608, 42554, 42454, 42942, 42146, 43734, 42362, 42762, 42355, 41928, 42292, 42975, 41896, 42836, 42483, 42772, 42053, 41701, 42036, 41612, 41588, 41607, 41866, 42000, 41745, 42231, 41478, 41183, 41744, 41306, 40632, 43589, 42536, 41466, 40623, 41318, 42107, 41719, 41646, 42015, 41041, 41013, 43093, 41737, 41331, 41375, 41202, 41024, 40881, 40388, 40709, 40912, 40643, 40487, 40457, 40858, 41211, 41559, 40612, 41522, 41886, 42976, 42776, 42298, 41762, 41214, 41045, 42681, 40281, 40977, 42864, 41674, 41977, 42072, 41366, 41871, 41062, 41093, 41914, 40862, 41451, 43392, 40989, 42310, 41802, 41285, 41197, 41620, 41784, 41020, 41707, 41762, 41906, 40721, 41523, 41436, 41201, 41015, 41253, 40791, 41135, 41629, 41778, 40695, 41279, 41747, 41214, 41612, 42001, 41796, 41514, 41378, 41205, 41074, 40829, 41033, 41598, 41706, 41062, 41902, 41743, 42345, 42531, 42532, 41951, 42511, 42512, 42676, 42153, 42646, 42328, 42520, 42362, 42344, 43087, 41962, 41711, 41574, 41756, 42073, 42538, 43063, 42636, 42263, 41813, 41722, 42336, 42547, 41277, 41445, 41382, 41577, 41521, 41573, 42083, 41710, 41939, 42471, 41261, 42204, 42441, 42008, 42813, 41806, 42452, 42310, 41357, 41523, 41230, 41742, 41883, 41274, 41158, 41167, 41750, 41572, 41644, 41545, 41686, 41229, 42286, 41542, 41439, 42279, 41085, 40000, 41296, 41276, 40769, 40901, 41438, 41398, 41918, 41886, 41198, 42301, 42093, 41599, 42105, 42497, 44482, 42240, 41372, 41222, 42170, 42039, 43261, 42557, 42874, 42622, 42944, 42390, 40958, 41952, 41730, 42376, 42030, 41891, 41726, 42554, 42415, 43124, 42689, 41453, 41861, 41380, 43162, 41804, 42601, 42324, 41794, 42038, 42319, 42077, 42888, 43045, 41853, 43006, 42232, 42508, 41417, 42439, 42812, 40924, 41961, 42779, 42886, 42481, 42259, 42258, 42047, 43304, 42137, 43229, 42013, 41792, 42402, 42702, 42068, 42492, 43369, 42098, 42103, 42893, 42219, 42177, 41817, 42505, 40672, 42027, 42001, 42382, 42087, 42683, 42676, 41198],
