{
  "AcquisitionMatrixPE": 104,
  "AcquisitionNumber": 1,
  "AcquisitionTime": "16:17:47.557500",
  "BandwidthPerPixelPhaseEncode": 17.17,
  "BaseResolution": 104,
  "BodyPartExamined": "BRAIN",
  "CoilCombinationMethod": "Sum of Squares",
  "ConsistencyInfo": "N4_VE11C_LATEST_20160120",
  "ConversionSoftware": "dcm2niix",
  "ConversionSoftwareVersion": "v1.0.20220505",
  "DerivedVendorReportedEchoSpacing": 0.000560011,
  "DeviceSerialNumber": "167006",
  "DwellTime": 2.1e-06,
  "EchoTime": 0.037,
  "EchoTrainLength": 104,
  "EffectiveEchoSpacing": 0.000560011,
  "FlipAngle": 52,
  "HeudiconvVersion": "0.5.3.post811+g6206e14",
  "ImageComments": "Unaliased MB4/PE3/LB",
  "ImageOrientationPatientDICOM": [0.999377, 0.00804827, 0.0343556, 0.0118614, 0.840356, -0.541905],
  "ImageOrientationText": "Tra>Cor(-32.8)>Sag(1.9)",
  "ImageType": [
    "ORIGINAL",
    "PRIMARY",
    "M",
    "MB",
    "ND",
    "MOSAIC"
],
  "ImagingFrequency": 123.259,
  "InPlanePhaseEncodingDirectionDICOM": "COL",
  "InstitutionAddress": "Chemin Queen-Mary 4565,Montreal,District,CA,H3W 1W5",
  "InstitutionName": "IUGM",
  "InstitutionalDepartmentName": "Department",
  "MRAcquisitionType": "2D",
  "MagneticFieldStrength": 3,
  "Manufacturer": "Siemens",
  "ManufacturersModelName": "Prisma_fit",
  "MatrixCoilMode": "SENSE",
  "Modality": "MR",
  "MultibandAccelerationFactor": 4,
  "PartialFourier": 1,
  "PatientPosition": "HFS",
  "PercentPhaseFOV": 100,
  "PercentSampling": 100,
  "PhaseEncodingDirection": "j",
  "PhaseEncodingSteps": 104,
  "PhaseResolution": 1,
  "PixelBandwidth": 2290,
  "ProcedureStepDescription": "games^mario3",
  "ProtocolName": "func_task-mario3_run-01",
  "PulseSequenceDetails": "%CustomerSeq%\\cmrr_mbep2d_bold",
  "ReceiveCoilActiveElements": "HC1-7;NC1,2",
  "ReceiveCoilName": "HeadNeck_64",
  "ReconMatrixPE": 104,
  "RepetitionTime": 1.49,
  "SAR": 0.0459562,
  "ScanOptions": "FS",
  "ScanningSequence": "EP",
  "SequenceName": "epfid2d1_104",
  "SequenceVariant": "SK\\SS",
  "SeriesDescription": "func_task-mario3_run-01",
  "SeriesNumber": 10,
  "ShimSetting": [623, -7183, -8865, 241, 51, -189, -30, 57],
  "SliceThickness": 2,
  "SliceTiming": [0, 0.785, 0.0975, 0.8825, 0.1975, 0.98, 0.295, 1.0775, 0.3925, 1.175, 0.49, 1.275, 0.5875, 1.3725, 0.685, 0, 0.785, 0.0975, 0.8825, 0.1975, 0.98, 0.295, 1.0775, 0.3925, 1.175, 0.49, 1.275, 0.5875, 1.3725, 0.685, 0, 0.785, 0.0975, 0.8825, 0.1975, 0.98, 0.295, 1.0775, 0.3925, 1.175, 0.49, 1.275, 0.5875, 1.3725, 0.685, 0, 0.785, 0.0975, 0.8825, 0.1975, 0.98, 0.295, 1.0775, 0.3925, 1.175, 0.49, 1.275, 0.5875, 1.3725, 0.685],
  "SoftwareVersions": "syngo MR E11",
  "SpacingBetweenSlices": 2,
  "StationName": "MRC35049",
  "TaskName": "mario3",
  "TotalReadoutTime": 0.0576811,
  "TxRefAmp": 253.247,
  "WipMemBlock": "47b0aecd-0dd8-4a9c-871d-037008611d9f||Sequence: R017 ve11c/master r/75a17815+; Jun 28 2022 16:32:11 by eja",
  "dcmmeta_affine": [
    [-1.9987545013427734, 0.02372288703918457, 0.06646467745304108, 104.36060333251953],
    [-0.016096536070108414, 1.680712342262268, -1.0839496850967407, -46.51134490966797],
    [0.06871121376752853, 1.0838096141815186, 1.6794747114181519, -99.22900390625],
    [0.0, 0.0, 0.0, 1.0]
],
  "dcmmeta_reorient_transform": [
    [0.0, -1.0, 0.0, 103.0],
    [1.0, 0.0, 0.0, 0.0],
    [0.0, 0.0, 1.0, 0.0],
    [0.0, 0.0, 0.0, 1.0]
],
  "dcmmeta_shape": [104, 104, 60, 335],
  "dcmmeta_slice_dim": 2,
  "dcmmeta_version": 0.6,
  "global": {
    "const": {
      "AcquisitionMatrix": [104, 0, 0, 104],
      "AngioFlag": "N",
      "BitsAllocated": 16,
      "BitsStored": 16,
      "BodyPartExamined": "BRAIN",
      "Columns": 832,
      "EchoNumbers": 1,
      "EchoTime": 37.0,
      "EchoTrainLength": 104,
      "FlipAngle": 52.0,
      "HighBit": 15,
      "ImageOrientationPatient": [0.99937726495264, 0.00804826761684, 0.03435560629863, 0.01186144341528, 0.84035616637028, -0.5419048069574],
      "ImagePositionPatient": [-842.98583804911, -744.24045477553, 381.89920200743],
      "ImageType": [
        "ORIGINAL",
        "PRIMARY",
        "M",
        "MB",
        "ND",
        "MOSAIC"
],
      "ImagedNucleus": "1H",
      "ImagingFrequency": 123.258973,
      "InPlanePhaseEncodingDirection": "COL",
      "MRAcquisitionType": "2D",
      "MagneticFieldStrength": 3.0,
      "Manufacturer": "SIEMENS",
      "ManufacturerModelName": "Prisma_fit",
      "Modality": "MR",
      "NumberOfAverages": 1.0,
      "NumberOfPhaseEncodingSteps": 104,
      "PercentPhaseFieldOfView": 100.0,
      "PercentSampling": 100.0,
      "PerformedProcedureStepStartTime": "161444.850000",
      "PhotometricInterpretation": "MONOCHROME2",
      "PixelBandwidth": 2290.0,
      "PixelRepresentation": 0,
      "PixelSpacing": [2.0, 2.0],
      "ProtocolName": "func_task-mario3_run-01",
      "RepetitionTime": 1490.0,
      "Rows": 832,
      "SAR": 0.04595618912972,
      "SamplesPerPixel": 1,
      "ScanOptions": "FS",
      "ScanningSequence": "EP",
      "SequenceName": "epfid2d1_104",
      "SequenceVariant": [
        "SK",
        "SS"
],
      "SeriesDescription": "func_task-mario3_run-01",
      "SeriesNumber": 10,
      "SeriesTime": "161844.923000",
      "SliceLocation": -54.650180623133,
      "SliceThickness": 2.0,
      "SmallestImagePixelValue": 0,
      "SoftwareVersions": "syngo MR E11",
      "SpacingBetweenSlices": 1.9999999683453,
      "SpecificCharacterSet": "ISO_IR 100",
      "StudyID": "1",
      "StudyTime": "161444.763000",
      "TransmitCoilName": "Body",
      "VariableFlipAngleFlag": "N",
      "WindowCenterWidthExplanation": "Algo1",
      "dBdt": 0.0},
    "slices": {}
  },
  "time": {
    "samples": {
      "AcquisitionNumber": [1, 2, 3, 4, 5, 6, 7, 8, 9, 10, 11, 12, 13, 14, 15, 16, 17, 18, 19, 20, 21, 22, 23, 24, 25, 26, 27, 28, 29, 30, 31, 32, 33, 34, 35, 36, 37, 38, 39, 40, 41, 42, 43, 44, 45, 46, 47, 48, 49, 50, 51, 52, 53, 54, 55, 56, 57, 58, 59, 60, 61, 62, 63, 64, 65, 66, 67, 68, 69, 70, 71, 72, 73, 74, 75, 76, 77, 78, 79, 80, 81, 82, 83, 84, 85, 86, 87, 88, 89, 90, 91, 92, 93, 94, 95, 96, 97, 98, 99, 100, 101, 102, 103, 104, 105, 106, 107, 108, 109, 110, 111, 112, 113, 114, 115, 116, 117, 118, 119, 120, 121, 122, 123, 124, 125, 126, 127, 128, 129, 130, 131, 132, 133, 134, 135, 136, 137, 138, 139, 140, 141, 142, 143, 144, 145, 146, 147, 148, 149, 150, 151, 152, 153, 154, 155, 156, 157, 158, 159, 160, 161, 162, 163, 164, 165, 166, 167, 168, 169, 170, 171, 172, 173, 174, 175, 176, 177, 178, 179, 180, 181, 182, 183, 184, 185, 186, 187, 188, 189, 190, 191, 192, 193, 194, 195, 196, 197, 198, 199, 200, 201, 202, 203, 204, 205, 206, 207, 208, 209, 210, 211, 212, 213, 214, 215, 216, 217, 218, 219, 220, 221, 222, 223, 224, 225, 226, 227, 228, 229, 230, 231, 232, 233, 234, 235, 236, 237, 238, 239, 240, 241, 242, 243, 244, 245, 246, 247, 248, 249, 250, 251, 252, 253, 254, 255, 256, 257, 258, 259, 260, 261, 262, 263, 264, 265, 266, 267, 268, 269, 270, 271, 272, 273, 274, 275, 276, 277, 278, 279, 280, 281, 282, 283, 284, 285, 286, 287, 288, 289, 290, 291, 292, 293, 294, 295, 296, 297, 298, 299, 300, 301, 302, 303, 304, 305, 306, 307, 308, 309, 310, 311, 312, 313, 314, 315, 316, 317, 318, 319, 320, 321, 322, 323, 324, 325, 326, 327, 328, 329, 330, 331, 332, 333, 334, 335],
      "AcquisitionTime": ["161747.557500", "161749.047500", "161750.537500", "161752.027500", "161753.517500", "161755.007500", "161756.497500", "161757.987500", "161759.477500", "161800.967500", "161802.457500", "161803.947500", "161805.437500", "161806.927500", "161808.417500", "161809.907500", "161811.397500", "161812.887500", "161814.377500", "161815.867500", "161817.357500", "161818.847500", "161820.337500", "161821.827500", "161823.317500", "161824.807500", "161826.297500", "161827.787500", "161829.277500", "161830.767500", "161832.257500", "161833.747500", "161835.237500", "161836.727500", "161838.217500", "161839.707500", "161841.197500", "161842.687500", "161844.177500", "161845.667500", "161847.157500", "161848.647500", "161850.137500", "161851.627500", "161853.117500", "161854.607500", "161856.097500", "161857.587500", "161859.077500", "161900.567500", "161902.057500", "161903.547500", "161905.037500", "161906.527500", "161908.017500", "161909.507500", "161910.997500", "161912.487500", "161913.977500", "161915.467500", "161916.957500", "161918.447500", "161919.937500", "161921.427500", "161922.917500", "161924.407500", "161925.897500", "161927.387500", "161928.877500", "161930.367500", "161931.857500", "161933.347500", "161934.837500", "161936.327500", "161937.817500", "161939.307500", "161940.797500", "161942.287500", "161943.777500", "161945.267500", "161946.757500", "161948.247500", "161949.737500", "161951.227500", "161952.717500", "161954.207500", "161955.697500", "161957.187500", "161958.677500", "162000.167500", "162001.657500", "162003.147500", "162004.637500", "162006.127500", "162007.617500", "162009.107500", "162010.597500", "162012.087500", "162013.577500", "162015.067500", "162016.557500", "162018.047500", "162019.537500", "162021.027500", "162022.517500", "162024.007500", "162025.497500", "162026.987500", "162028.477500", "162029.967500", "162031.457500", "162032.947500", "162034.437500", "162035.927500", "162037.417500", "162038.907500", "162040.397500", "162041.887500", "162043.377500", "162044.867500", "162046.357500", "162047.847500", "162049.337500", "162050.827500", "162052.317500", "162053.807500", "162055.297500", "162056.787500", "162058.277500", "162059.767500", "162101.257500", "162102.747500", "162104.237500", "162105.727500", "162107.217500", "162108.707500", "162110.197500", "162111.687500", "162113.177500", "162114.667500", "162116.157500", "162117.647500", "162119.137500", "162120.627500", "162122.117500", "162123.607500", "162125.097500", "162126.587500", "162128.077500", "162129.567500", "162131.057500", "162132.547500", "162134.037500", "162135.527500", "162137.017500", "162138.507500", "162139.997500", "162141.487500", "162142.977500", "162144.467500", "162145.957500", "162147.447500", "162148.937500", "162150.427500", "162151.917500", "162153.407500", "162154.897500", "162156.387500", "162157.877500", "162159.367500", "162200.857500", "162202.347500", "162203.837500", "162205.327500", "162206.817500", "162208.307500", "162209.797500", "162211.287500", "162212.777500", "162214.267500", "162215.757500", "162217.247500", "162218.737500", "162220.227500", "162221.717500", "162223.207500", "162224.697500", "162226.187500", "162227.677500", "162229.167500", "162230.657500", "162232.147500", "162233.637500", "162235.127500", "162236.617500", "162238.107500", "162239.597500", "162241.087500", "162242.577500", "162244.067500", "162245.557500", "162247.047500", "162248.537500", "162250.027500", "162251.517500", "162253.007500", "162254.497500", "162255.987500", "162257.477500", "162258.967500", "162300.457500", "162301.947500", "162303.437500", "162304.927500", "162306.417500", "162307.907500", "162309.397500", "162310.887500", "162312.377500", "162313.867500", "162315.357500", "162316.847500", "162318.337500", "162319.827500", "162321.317500", "162322.807500", "162324.297500", "162325.787500", "162327.277500", "162328.767500", "162330.257500", "162331.747500", "162333.237500", "162334.727500", "162336.217500", "162337.707500", "162339.197500", "162340.687500", "162342.177500", "162343.667500", "162345.157500", "162346.647500", "162348.137500", "162349.627500", "162351.117500", "162352.607500", "162354.097500", "162355.587500", "162357.077500", "162358.567500", "162400.057500", "162401.547500", "162403.037500", "162404.527500", "162406.017500", "162407.507500", "162408.997500", "162410.487500", "162411.977500", "162413.467500", "162414.957500", "162416.447500", "162417.937500", "162419.427500", "162420.917500", "162422.407500", "162423.897500", "162425.387500", "162426.877500", "162428.367500", "162429.857500", "162431.347500", "162432.837500", "162434.327500", "162435.817500", "162437.307500", "162438.797500", "162440.287500", "162441.777500", "162443.267500", "162444.757500", "162446.247500", "162447.737500", "162449.227500", "162450.717500", "162452.207500", "162453.697500", "162455.187500", "162456.677500", "162458.167500", "162459.657500", "162501.147500", "162502.637500", "162504.127500", "162505.617500", "162507.107500", "162508.597500", "162510.087500", "162511.577500", "162513.067500", "162514.557500", "162516.047500", "162517.537500", "162519.027500", "162520.517500", "162522.007500", "162523.497500", "162524.987500", "162526.477500", "162527.967500", "162529.457500", "162530.947500", "162532.437500", "162533.927500", "162535.417500", "162536.907500", "162538.397500", "162539.887500", "162541.377500", "162542.867500", "162544.357500", "162545.847500", "162547.337500", "162548.827500", "162550.317500", "162551.807500", "162553.297500", "162554.787500", "162556.277500", "162557.767500", "162559.257500", "162600.747500", "162602.237500", "162603.727500", "162605.217500"],
      "ContentTime": ["161844.926000", "161844.936000", "161844.939000", "161844.943000", "161844.949000", "161844.952000", "161844.956000", "161844.959000", "161844.962000", "161904.876000", "161904.880000", "161904.883000", "161904.887000", "161904.890000", "161904.893000", "161904.896000", "161904.900000", "161904.903000", "161904.906000", "161904.910000", "161904.913000", "161904.916000", "161904.920000", "161904.923000", "161904.926000", "161904.941000", "161904.944000", "161904.947000", "161904.951000", "161924.877000", "161924.890000", "161924.949000", "161924.953000", "161924.956000", "161924.959000", "161924.963000", "161924.966000", "161924.969000", "161924.973000", "161924.976000", "161924.979000", "161924.983000", "161924.986000", "161924.989000", "161924.993000", "161924.996000", "161925.000000", "161925.004000", "161925.007000", "161944.877000", "161944.881000", "161944.884000", "161944.888000", "161944.891000", "161944.894000", "161944.898000", "161944.901000", "161944.904000", "161944.908000", "161944.911000", "161944.914000", "161944.918000", "161944.921000", "161944.925000", "161944.928000", "161944.931000", "161944.935000", "161944.938000", "161944.942000", "162004.877000", "162004.881000", "162004.884000", "162004.887000", "162004.891000", "162004.894000", "162004.897000", "162004.901000", "162004.905000", "162004.908000", "162004.912000", "162004.915000", "162004.918000", "162004.922000", "162004.925000", "162004.928000", "162004.932000", "162004.935000", "162004.938000", "162004.942000", "162044.876000", "162044.880000", "162044.895000", "162044.898000", "162044.901000", "162044.905000", "162044.908000", "162044.911000", "162044.914000", "162044.918000", "162044.921000", "162044.938000", "162044.942000", "162044.945000", "162044.948000", "162044.952000", "162044.955000", "162044.958000", "162044.962000", "162044.965000", "162044.969000", "162044.972000", "162044.975000", "162044.979000", "162044.982000", "162044.985000", "162044.989000", "162044.992000", "162044.995000", "162124.876000", "162124.880000", "162124.884000", "162124.887000", "162124.891000", "162124.894000", "162124.898000", "162124.901000", "162124.905000", "162124.909000", "162124.912000", "162124.915000", "162124.919000", "162124.922000", "162124.926000", "162124.930000", "162124.933000", "162124.937000", "162124.940000", "162124.944000", "162124.947000", "162124.950000", "162124.954000", "162124.957000", "162124.961000", "162124.964000", "162124.968000", "162204.877000", "162204.881000", "162204.884000", "162204.888000", "162204.891000", "162204.894000", "162204.898000", "162204.901000", "162204.904000", "162204.908000", "162204.911000", "162204.914000", "162204.918000", "162204.921000", "162204.924000", "162204.928000", "162204.931000", "162204.934000", "162204.938000", "162204.941000", "162204.944000", "162204.948000", "162204.951000", "162204.954000", "162204.958000", "162204.961000", "162204.964000", "162244.876000", "162244.880000", "162244.883000", "162244.887000", "162244.890000", "162244.893000", "162244.897000", "162244.900000", "162244.903000", "162244.907000", "162244.910000", "162244.913000", "162244.917000", "162244.920000", "162244.923000", "162244.927000", "162244.930000", "162244.934000", "162244.937000", "162244.940000", "162244.944000", "162244.947000", "162244.950000", "162244.954000", "162244.957000", "162244.960000", "162244.964000", "162324.883000", "162324.887000", "162324.890000", "162324.893000", "162324.896000", "162324.900000", "162324.903000", "162324.907000", "162324.910000", "162324.913000", "162324.917000", "162324.920000", "162324.923000", "162324.927000", "162324.930000", "162324.933000", "162324.937000", "162324.940000", "162324.943000", "162324.947000", "162324.950000", "162324.953000", "162324.957000", "162324.960000", "162324.964000", "162324.967000", "162324.970000", "162404.877000", "162404.881000", "162404.884000", "162404.888000", "162404.891000", "162404.894000", "162404.898000", "162404.901000", "162404.904000", "162404.908000", "162404.913000", "162404.918000", "162404.922000", "162404.932000", "162404.936000", "162404.939000", "162404.942000", "162404.946000", "162404.949000", "162404.952000", "162404.956000", "162404.959000", "162404.963000", "162404.966000", "162404.969000", "162404.972000", "162444.877000", "162444.881000", "162444.885000", "162444.888000", "162444.891000", "162444.895000", "162444.898000", "162444.901000", "162444.905000", "162444.908000", "162444.912000", "162444.916000", "162444.919000", "162444.923000", "162444.926000", "162444.930000", "162444.933000", "162444.936000", "162444.940000", "162444.943000", "162444.946000", "162444.950000", "162444.953000", "162444.956000", "162444.960000", "162444.963000", "162444.966000", "162524.876000", "162524.880000", "162524.883000", "162524.887000", "162524.890000", "162524.893000", "162524.897000", "162524.900000", "162524.903000", "162524.907000", "162524.910000", "162524.913000", "162524.917000", "162524.920000", "162524.923000", "162524.927000", "162524.930000", "162524.933000", "162524.937000", "162524.940000", "162524.943000", "162524.947000", "162524.950000", "162524.970000", "162524.973000", "162524.976000", "162524.980000", "162604.876000", "162604.880000", "162604.883000", "162604.887000", "162604.890000", "162604.893000", "162604.897000", "162604.900000", "162604.904000", "162604.907000", "162604.910000", "162604.914000", "162604.917000", "162604.920000", "162604.924000", "162604.927000", "162604.930000", "162604.934000", "162604.937000", "162604.941000", "162604.944000", "162604.947000", "162604.951000", "162604.954000", "162604.958000", "162604.961000", "162604.964000", "162608.310000", "162608.314000"],
      "InstanceCreationTime": ["161844.926000", "161844.936000", "161844.939000", "161844.943000", "161844.949000", "161844.952000", "161844.956000", "161844.959000", "161844.962000", "161904.876000", "161904.880000", "161904.883000", "161904.887000", "161904.890000", "161904.893000", "161904.896000", "161904.900000", "161904.903000", "161904.906000", "161904.910000", "161904.913000", "161904.916000", "161904.920000", "161904.923000", "161904.926000", "161904.941000", "161904.944000", "161904.947000", "161904.951000", "161924.877000", "161924.890000", "161924.949000", "161924.953000", "161924.956000", "161924.959000", "161924.963000", "161924.966000", "161924.969000", "161924.973000", "161924.976000", "161924.979000", "161924.983000", "161924.986000", "161924.989000", "161924.993000", "161924.996000", "161925.000000", "161925.004000", "161925.007000", "161944.877000", "161944.881000", "161944.884000", "161944.888000", "161944.891000", "161944.894000", "161944.898000", "161944.901000", "161944.904000", "161944.908000", "161944.911000", "161944.914000", "161944.918000", "161944.921000", "161944.925000", "161944.928000", "161944.931000", "161944.935000", "161944.938000", "161944.942000", "162004.877000", "162004.881000", "162004.884000", "162004.887000", "162004.891000", "162004.894000", "162004.897000", "162004.901000", "162004.905000", "162004.908000", "162004.912000", "162004.915000", "162004.918000", "162004.922000", "162004.925000", "162004.928000", "162004.932000", "162004.935000", "162004.938000", "162004.942000", "162044.876000", "162044.880000", "162044.895000", "162044.898000", "162044.901000", "162044.905000", "162044.908000", "162044.911000", "162044.914000", "162044.918000", "162044.921000", "162044.938000", "162044.942000", "162044.945000", "162044.948000", "162044.952000", "162044.955000", "162044.958000", "162044.962000", "162044.965000", "162044.969000", "162044.972000", "162044.975000", "162044.979000", "162044.982000", "162044.985000", "162044.989000", "162044.992000", "162044.995000", "162124.876000", "162124.880000", "162124.884000", "162124.887000", "162124.891000", "162124.894000", "162124.898000", "162124.901000", "162124.905000", "162124.909000", "162124.912000", "162124.915000", "162124.919000", "162124.922000", "162124.926000", "162124.930000", "162124.933000", "162124.937000", "162124.940000", "162124.944000", "162124.947000", "162124.950000", "162124.954000", "162124.957000", "162124.961000", "162124.964000", "162124.968000", "162204.877000", "162204.881000", "162204.884000", "162204.888000", "162204.891000", "162204.894000", "162204.898000", "162204.901000", "162204.904000", "162204.908000", "162204.911000", "162204.914000", "162204.918000", "162204.921000", "162204.924000", "162204.928000", "162204.931000", "162204.934000", "162204.938000", "162204.941000", "162204.944000", "162204.948000", "162204.951000", "162204.954000", "162204.958000", "162204.961000", "162204.964000", "162244.876000", "162244.880000", "162244.883000", "162244.887000", "162244.890000", "162244.893000", "162244.897000", "162244.900000", "162244.903000", "162244.907000", "162244.910000", "162244.913000", "162244.917000", "162244.920000", "162244.923000", "162244.927000", "162244.930000", "162244.934000", "162244.937000", "162244.940000", "162244.944000", "162244.947000", "162244.950000", "162244.954000", "162244.957000", "162244.960000", "162244.964000", "162324.883000", "162324.887000", "162324.890000", "162324.893000", "162324.896000", "162324.900000", "162324.903000", "162324.907000", "162324.910000", "162324.913000", "162324.917000", "162324.920000", "162324.923000", "162324.927000", "162324.930000", "162324.933000", "162324.937000", "162324.940000", "162324.943000", "162324.947000", "162324.950000", "162324.953000", "162324.957000", "162324.960000", "162324.964000", "162324.967000", "162324.970000", "162404.877000", "162404.881000", "162404.884000", "162404.888000", "162404.891000", "162404.894000", "162404.898000", "162404.901000", "162404.904000", "162404.908000", "162404.913000", "162404.918000", "162404.922000", "162404.932000", "162404.936000", "162404.939000", "162404.942000", "162404.946000", "162404.949000", "162404.952000", "162404.956000", "162404.959000", "162404.963000", "162404.966000", "162404.969000", "162404.972000", "162444.877000", "162444.881000", "162444.885000", "162444.888000", "162444.891000", "162444.895000", "162444.898000", "162444.901000", "162444.905000", "162444.908000", "162444.912000", "162444.916000", "162444.919000", "162444.923000", "162444.926000", "162444.930000", "162444.933000", "162444.936000", "162444.940000", "162444.943000", "162444.946000", "162444.950000", "162444.953000", "162444.956000", "162444.960000", "162444.963000", "162444.966000", "162524.876000", "162524.880000", "162524.883000", "162524.887000", "162524.890000", "162524.893000", "162524.897000", "162524.900000", "162524.903000", "162524.907000", "162524.910000", "162524.913000", "162524.917000", "162524.920000", "162524.923000", "162524.927000", "162524.930000", "162524.933000", "162524.937000", "162524.940000", "162524.943000", "162524.947000", "162524.950000", "162524.970000", "162524.973000", "162524.976000", "162524.980000", "162604.876000", "162604.880000", "162604.883000", "162604.887000", "162604.890000", "162604.893000", "162604.897000", "162604.900000", "162604.904000", "162604.907000", "162604.910000", "162604.914000", "162604.917000", "162604.920000", "162604.924000", "162604.927000", "162604.930000", "162604.934000", "162604.937000", "162604.941000", "162604.944000", "162604.947000", "162604.951000", "162604.954000", "162604.958000", "162604.961000", "162604.964000", "162608.310000", "162608.314000"],
      "InstanceNumber": [1, 2, 3, 4, 5, 6, 7, 8, 9, 10, 11, 12, 13, 14, 15, 16, 17, 18, 19, 20, 21, 22, 23, 24, 25, 26, 27, 28, 29, 30, 31, 32, 33, 34, 35, 36, 37, 38, 39, 40, 41, 42, 43, 44, 45, 46, 47, 48, 49, 50, 51, 52, 53, 54, 55, 56, 57, 58, 59, 60, 61, 62, 63, 64, 65, 66, 67, 68, 69, 70, 71, 72, 73, 74, 75, 76, 77, 78, 79, 80, 81, 82, 83, 84, 85, 86, 87, 88, 89, 90, 91, 92, 93, 94, 95, 96, 97, 98, 99, 100, 101, 102, 103, 104, 105, 106, 107, 108, 109, 110, 111, 112, 113, 114, 115, 116, 117, 118, 119, 120, 121, 122, 123, 124, 125, 126, 127, 128, 129, 130, 131, 132, 133, 134, 135, 136, 137, 138, 139, 140, 141, 142, 143, 144, 145, 146, 147, 148, 149, 150, 151, 152, 153, 154, 155, 156, 157, 158, 159, 160, 161, 162, 163, 164, 165, 166, 167, 168, 169, 170, 171, 172, 173, 174, 175, 176, 177, 178, 179, 180, 181, 182, 183, 184, 185, 186, 187, 188, 189, 190, 191, 192, 193, 194, 195, 196, 197, 198, 199, 200, 201, 202, 203, 204, 205, 206, 207, 208, 209, 210, 211, 212, 213, 214, 215, 216, 217, 218, 219, 220, 221, 222, 223, 224, 225, 226, 227, 228, 229, 230, 231, 232, 233, 234, 235, 236, 237, 238, 239, 240, 241, 242, 243, 244, 245, 246, 247, 248, 249, 250, 251, 252, 253, 254, 255, 256, 257, 258, 259, 260, 261, 262, 263, 264, 265, 266, 267, 268, 269, 270, 271, 272, 273, 274, 275, 276, 277, 278, 279, 280, 281, 282, 283, 284, 285, 286, 287, 288, 289, 290, 291, 292, 293, 294, 295, 296, 297, 298, 299, 300, 301, 302, 303, 304, 305, 306, 307, 308, 309, 310, 311, 312, 313, 314, 315, 316, 317, 318, 319, 320, 321, 322, 323, 324, 325, 326, 327, 328, 329, 330, 331, 332, 333, 334, 335],
      "LargestImagePixelValue": [44814, 43653, 43272, 42914, 42407, 43044, 42692, 43238, 42585, 42830, 43008, 43030, 42846, 43369, 43031, 43089, 43220, 42722, 43233, 43566, 43410, 43329, 43200, 42116, 42714, 43035, 43325, 43297, 42302, 42215, 42068, 42364, 42241, 42481, 42661, 41838, 42655, 41560, 41124, 41402, 42150, 42237, 42181, 42351, 42071, 42189, 41704, 40920, 41932, 41346, 42200, 41835, 41618, 41114, 42289, 40969, 41148, 41298, 41686, 40989, 41324, 41977, 41806, 41452, 40961, 41094, 41917, 41332, 41371, 40908, 40458, 41832, 41417, 41122, 42771, 41098, 41336, 42415, 41307, 42746, 41162, 41107, 40999, 40293, 40886, 40312, 41071, 40889, 41152, 41554, 40269, 40552, 40274, 40570, 44643, 40219, 41827, 42135, 40402, 40928, 40402, 40489, 41713, 40516, 39856, 42117, 40160, 41097, 41163, 42154, 40801, 41482, 40361, 40201, 40833, 41644, 41628, 41461, 41255, 41500, 40828, 41732, 41576, 41107, 43917, 42476, 44065, 42492, 41773, 41148, 41967, 40998, 42817, 42397, 43147, 41978, 40820, 41192, 41124, 41035, 40783, 40462, 41239, 40849, 41367, 41187, 41244, 40061, 40985, 41624, 41796, 41422, 40580, 41055, 40173, 40414, 40375, 40133, 40352, 39849, 40760, 40915, 40256, 40788, 40946, 40419, 40176, 39877, 40431, 41774, 40337, 40739, 40710, 40480, 40313, 40897, 40590, 40478, 41019, 41141, 40563, 40875, 39933, 39944, 40059, 40328, 40275, 40807, 41365, 41633, 40809, 40696, 41234, 40687, 40911, 40877, 40932, 41590, 40863, 41482, 41421, 41433, 42088, 40916, 41296, 41627, 41186, 41484, 40915, 40565, 40501, 41713, 40863, 40781, 41472, 40958, 40850, 41203, 40756, 40812, 41616, 41083, 41470, 40850, 40227, 40149, 40197, 39982, 40417, 39982, 40202, 39995, 41859, 42044, 42228, 42058, 42196, 40533, 40774, 40534, 39739, 41257, 40450, 46537, 41776, 41869, 41301, 40773, 40716, 39451, 40346, 39495, 40879, 41340, 40746, 40748, 40665, 40181, 41128, 40102, 40741, 40178, 41039, 40460, 39955, 40875, 40683, 40273, 41000, 40265, 40902, 41445, 41493, 40842, 40792, 40763, 39987, 41155, 40145, 39924, 40225, 40555, 39399, 39841, 39696, 39845, 39841, 39884, 40687, 39908, 43131, 40488, 39760, 40612, 40583, 40014, 40536, 40941, 40460, 40055, 39736, 39874, 40494, 40458, 40163, 40134, 40958, 40573, 40382, 40115, 39583, 39585, 39574, 40416, 40313, 40596, 40239, 41913, 39877, 40031, 40319, 40214, 40377, 40591, 40027, 41022, 41043, 40431, 40990, 40138, 40948, 41034, 41357, 40839, 41078],
