{
  "AcquisitionMatrixPE": 104,
  "AcquisitionNumber": 1,
  "AcquisitionTime": "16:40:5.890000",
  "BandwidthPerPixelPhaseEncode": 17.17,
  "BaseResolution": 104,
  "BodyPartExamined": "BRAIN",
  "CoilCombinationMethod": "Sum of Squares",
  "ConsistencyInfo": "N4_VE11C_LATEST_20160120",
  "ConversionSoftware": "dcm2niix",
  "ConversionSoftwareVersion": "v1.0.20220505",
  "DerivedVendorReportedEchoSpacing": 0.000560011,
  "DeviceSerialNumber": "167006",
  "DwellTime": 2.1e-06,
  "EchoTime": 0.037,
  "EchoTime1": 0.037,
  "EchoTime2": 0.001,
  "EchoTrainLength": 104,
  "EffectiveEchoSpacing": 0.000560011,
  "FlipAngle": 52,
  "HeudiconvVersion": "0.5.3.post811+g6206e14",
  "ImageComments": "Unaliased MB4/PE3/LB",
  "ImageOrientationPatientDICOM": [0.999377, 0.00804827, 0.0343556, 0.0118614, 0.840356, -0.541905],
  "ImageOrientationText": "Tra>Cor(-32.8)>Sag(1.9)",
  "ImageType": [
    "ORIGINAL",
    "PRIMARY",
    "P",
    "MB",
    "ND",
    "MOSAIC",
    "PHASE"
],
  "ImagingFrequency": 123.259,
  "InPlanePhaseEncodingDirectionDICOM": "COL",
  "InstitutionAddress": "Chemin Queen-Mary 4565,Montreal,District,CA,H3W 1W5",
  "InstitutionName": "IUGM",
  "InstitutionalDepartmentName": "Department",
  "MRAcquisitionType": "2D",
  "MagneticFieldStrength": 3,
  "Manufacturer": "Siemens",
  "ManufacturersModelName": "Prisma_fit",
  "MatrixCoilMode": "SENSE",
  "Modality": "MR",
  "MultibandAccelerationFactor": 4,
  "PartialFourier": 1,
  "PatientPosition": "HFS",
  "PercentPhaseFOV": 100,
  "PercentSampling": 100,
  "PhaseEncodingDirection": "j",
  "PhaseEncodingSteps": 104,
  "PhaseResolution": 1,
  "PixelBandwidth": 2290,
  "ProcedureStepDescription": "games^mario3",
  "ProtocolName": "func_task-mario3_run-03",
  "PulseSequenceDetails": "%CustomerSeq%\\cmrr_mbep2d_bold",
  "ReceiveCoilActiveElements": "HC1-7;NC1,2",
  "ReceiveCoilName": "HeadNeck_64",
  "ReconMatrixPE": 104,
  "RepetitionTime": 1.49,
  "SAR": 0.0459562,
  "ScanOptions": "FS",
  "ScanningSequence": "EP",
  "SequenceName": "epfid2d1_104",
  "SequenceVariant": "SK\\SS",
  "SeriesDescription": "func_task-mario3_run-03",
  "SeriesNumber": 17,
  "ShimSetting": [623, -7183, -8865, 241, 51, -189, -30, 57],
  "SliceThickness": 2,
  "SliceTiming": [0, 0.785, 0.1, 0.8825, 0.1975, 0.98, 0.295, 1.08, 0.3925, 1.1775, 0.49, 1.275, 0.59, 1.3725, 0.6875, 0, 0.785, 0.1, 0.8825, 0.1975, 0.98, 0.295, 1.08, 0.3925, 1.1775, 0.49, 1.275, 0.59, 1.3725, 0.6875, 0, 0.785, 0.1, 0.8825, 0.1975, 0.98, 0.295, 1.08, 0.3925, 1.1775, 0.49, 1.275, 0.59, 1.3725, 0.6875, 0, 0.785, 0.1, 0.8825, 0.1975, 0.98, 0.295, 1.08, 0.3925, 1.1775, 0.49, 1.275, 0.59, 1.3725, 0.6875],
  "SoftwareVersions": "syngo MR E11",
  "SpacingBetweenSlices": 2,
  "StationName": "MRC35049",
  "TaskName": "mario3",
  "TotalReadoutTime": 0.0576811,
  "TxRefAmp": 253.247,
  "WipMemBlock": "22103e83-aa8b-479f-813a-377ece023dfd||Sequence: R017 ve11c/master r/75a17815+; Jun 28 2022 16:32:11 by eja",
  "dcmmeta_affine": [
    [-1.9987545013427734, 0.02372288703918457, 0.06646467745304108, 104.36060333251953],
    [-0.016096536070108414, 1.680712342262268, -1.0839496850967407, -46.51134490966797],
    [0.06871121376752853, 1.0838096141815186, 1.6794747114181519, -99.22900390625],
    [0.0, 0.0, 0.0, 1.0]
],
  "dcmmeta_reorient_transform": [
    [0.0, -1.0, 0.0, 103.0],
    [1.0, 0.0, 0.0, 0.0],
    [0.0, 0.0, 1.0, 0.0],
    [0.0, 0.0, 0.0, 1.0]
],
  "dcmmeta_shape": [104, 104, 60, 296],
  "dcmmeta_slice_dim": 2,
  "dcmmeta_version": 0.6,
  "global": {
    "const": {
      "AcquisitionMatrix": [104, 0, 0, 104],
      "AngioFlag": "N",
      "BitsAllocated": 16,
      "BitsStored": 16,
      "BodyPartExamined": "BRAIN",
      "Columns": 832,
      "EchoNumbers": 1,
      "EchoTime": 37.0,
      "EchoTrainLength": 104,
      "FlipAngle": 52.0,
      "HighBit": 15,
      "ImageOrientationPatient": [0.99937726495264, 0.00804826761684, 0.03435560629863, 0.01186144341528, 0.84035616637028, -0.5419048069574],
      "ImagePositionPatient": [-842.98583804911, -744.24045477553, 381.89920200743],
      "ImageType": [
        "ORIGINAL",
        "PRIMARY",
        "P",
        "MB",
        "ND",
        "MOSAIC"
],
      "ImagedNucleus": "1H",
      "ImagingFrequency": 123.258982,
      "InPlanePhaseEncodingDirection": "COL",
      "LargestImagePixelValue": 4095,
      "MRAcquisitionType": "2D",
      "MagneticFieldStrength": 3.0,
      "Manufacturer": "SIEMENS",
      "ManufacturerModelName": "Prisma_fit",
      "Modality": "MR",
      "NumberOfAverages": 1.0,
      "NumberOfPhaseEncodingSteps": 104,
      "PercentPhaseFieldOfView": 100.0,
      "PercentSampling": 100.0,
      "PerformedProcedureStepStartTime": "161444.850000",
      "PhotometricInterpretation": "MONOCHROME2",
      "PixelBandwidth": 2290.0,
      "PixelRepresentation": 0,
      "PixelSpacing": [2.0, 2.0],
      "ProtocolName": "func_task-mario3_run-03",
      "RepetitionTime": 1490.0,
      "RescaleIntercept": -4096.0,
      "RescaleSlope": 2.0,
      "RescaleType": "US",
      "Rows": 832,
      "SAR": 0.04595618912972,
      "SamplesPerPixel": 1,
      "ScanOptions": "FS",
      "ScanningSequence": "EP",
      "SequenceName": "epfid2d1_104",
      "SequenceVariant": [
        "SK",
        "SS"
],
      "SeriesDescription": "func_task-mario3_run-03",
      "SeriesNumber": 17,
      "SeriesTime": "164111.488000",
      "SliceLocation": -54.650180623133,
      "SliceThickness": 2.0,
      "SmallestImagePixelValue": 0,
      "SoftwareVersions": "syngo MR E11",
      "SpacingBetweenSlices": 1.9999999683453,
      "SpecificCharacterSet": "ISO_IR 100",
      "StudyID": "1",
      "StudyTime": "161444.763000",
      "TransmitCoilName": "Body",
      "VariableFlipAngleFlag": "N",
      "WindowCenterWidthExplanation": "Algo1",
      "dBdt": 0.0},
    "slices": {}
  },
  "time": {
    "samples": {
      "AcquisitionNumber": [1, 2, 3, 4, 5, 6, 7, 8, 9, 10, 11, 12, 13, 14, 15, 16, 17, 18, 19, 20, 21, 22, 23, 24, 25, 26, 27, 28, 29, 30, 31, 32, 33, 34, 35, 36, 37, 38, 39, 40, 41, 42, 43, 44, 45, 46, 47, 48, 49, 50, 51, 52, 53, 54, 55, 56, 57, 58, 59, 60, 61, 62, 63, 64, 65, 66, 67, 68, 69, 70, 71, 72, 73, 74, 75, 76, 77, 78, 79, 80, 81, 82, 83, 84, 85, 86, 87, 88, 89, 90, 91, 92, 93, 94, 95, 96, 97, 98, 99, 100, 101, 102, 103, 104, 105, 106, 107, 108, 109, 110, 111, 112, 113, 114, 115, 116, 117, 118, 119, 120, 121, 122, 123, 124, 125, 126, 127, 128, 129, 130, 131, 132, 133, 134, 135, 136, 137, 138, 139, 140, 141, 142, 143, 144, 145, 146, 147, 148, 149, 150, 151, 152, 153, 154, 155, 156, 157, 158, 159, 160, 161, 162, 163, 164, 165, 166, 167, 168, 169, 170, 171, 172, 173, 174, 175, 176, 177, 178, 179, 180, 181, 182, 183, 184, 185, 186, 187, 188, 189, 190, 191, 192, 193, 194, 195, 196, 197, 198, 199, 200, 201, 202, 203, 204, 205, 206, 207, 208, 209, 210, 211, 212, 213, 214, 215, 216, 217, 218, 219, 220, 221, 222, 223, 224, 225, 226, 227, 228, 229, 230, 231, 232, 233, 234, 235, 236, 237, 238, 239, 240, 241, 242, 243, 244, 245, 246, 247, 248, 249, 250, 251, 252, 253, 254, 255, 256, 257, 258, 259, 260, 261, 262, 263, 264, 265, 266, 267, 268, 269, 270, 271, 272, 273, 274, 275, 276, 277, 278, 279, 280, 281, 282, 283, 284, 285, 286, 287, 288, 289, 290, 291, 292, 293, 294, 295, 296],
      "AcquisitionTime": ["164005.890000", "164007.380000", "164008.870000", "164010.360000", "164011.850000", "164013.340000", "164014.830000", "164016.320000", "164017.810000", "164019.300000", "164020.790000", "164022.280000", "164023.770000", "164025.260000", "164026.750000", "164028.240000", "164029.730000", "164031.220000", "164032.710000", "164034.200000", "164035.690000", "164037.180000", "164038.670000", "164040.160000", "164041.650000", "164043.140000", "164044.630000", "164046.120000", "164047.610000", "164049.100000", "164050.590000", "164052.080000", "164053.570000", "164055.060000", "164056.550000", "164058.040000", "164059.530000", "164101.020000", "164102.510000", "164104.000000", "164105.490000", "164106.980000", "164108.470000", "164109.960000", "164111.450000", "164112.940000", "164114.430000", "164115.920000", "164117.410000", "164118.900000", "164120.390000", "164121.880000", "164123.370000", "164124.860000", "164126.350000", "164127.840000", "164129.330000", "164130.820000", "164132.310000", "164133.800000", "164135.290000", "164136.780000", "164138.270000", "164139.760000", "164141.250000", "164142.740000", "164144.230000", "164145.720000", "164147.210000", "164148.700000", "164150.190000", "164151.680000", "164153.170000", "164154.660000", "164156.150000", "164157.640000", "164159.130000", "164200.620000", "164202.110000", "164203.600000", "164205.090000", "164206.580000", "164208.070000", "164209.560000", "164211.050000", "164212.540000", "164214.030000", "164215.520000", "164217.010000", "164218.500000", "164219.990000", "164221.480000", "164222.970000", "164224.460000", "164225.950000", "164227.440000", "164228.930000", "164230.420000", "164231.910000", "164233.400000", "164234.890000", "164236.380000", "164237.870000", "164239.360000", "164240.850000", "164242.340000", "164243.830000", "164245.320000", "164246.810000", "164248.300000", "164249.790000", "164251.280000", "164252.770000", "164254.260000", "164255.750000", "164257.240000", "164258.730000", "164300.220000", "164301.710000", "164303.200000", "164304.690000", "164306.180000", "164307.670000", "164309.160000", "164310.650000", "164312.140000", "164313.630000", "164315.120000", "164316.610000", "164318.100000", "164319.590000", "164321.080000", "164322.570000", "164324.060000", "164325.550000", "164327.040000", "164328.530000", "164330.020000", "164331.510000", "164333.000000", "164334.490000", "164335.980000", "164337.470000", "164338.960000", "164340.450000", "164341.940000", "164343.430000", "164344.920000", "164346.410000", "164347.900000", "164349.390000", "164350.880000", "164352.370000", "164353.860000", "164355.350000", "164356.840000", "164358.330000", "164359.820000", "164401.310000", "164402.800000", "164404.290000", "164405.780000", "164407.270000", "164408.760000", "164410.250000", "164411.740000", "164413.230000", "164414.720000", "164416.210000", "164417.700000", "164419.190000", "164420.680000", "164422.170000", "164423.660000", "164425.150000", "164426.640000", "164428.130000", "164429.620000", "164431.110000", "164432.600000", "164434.090000", "164435.580000", "164437.070000", "164438.560000", "164440.050000", "164441.540000", "164443.030000", "164444.520000", "164446.010000", "164447.500000", "164448.990000", "164450.480000", "164451.970000", "164453.460000", "164454.950000", "164456.440000", "164457.930000", "164459.420000", "164500.910000", "164502.400000", "164503.890000", "164505.380000", "164506.870000", "164508.360000", "164509.850000", "164511.340000", "164512.830000", "164514.320000", "164515.810000", "164517.300000", "164518.790000", "164520.280000", "164521.770000", "164523.260000", "164524.750000", "164526.240000", "164527.730000", "164529.220000", "164530.710000", "164532.200000", "164533.690000", "164535.180000", "164536.670000", "164538.160000", "164539.650000", "164541.140000", "164542.630000", "164544.120000", "164545.610000", "164547.100000", "164548.590000", "164550.080000", "164551.570000", "164553.060000", "164554.550000", "164556.040000", "164557.530000", "164559.020000", "164600.510000", "164602.000000", "164603.490000", "164604.980000", "164606.470000", "164607.960000", "164609.450000", "164610.940000", "164612.430000", "164613.920000", "164615.410000", "164616.900000", "164618.390000", "164619.880000", "164621.370000", "164622.860000", "164624.350000", "164625.840000", "164627.330000", "164628.820000", "164630.310000", "164631.800000", "164633.290000", "164634.780000", "164636.270000", "164637.760000", "164639.250000", "164640.740000", "164642.230000", "164643.720000", "164645.210000", "164646.700000", "164648.190000", "164649.680000", "164651.170000", "164652.660000", "164654.150000", "164655.640000", "164657.130000", "164658.620000", "164700.110000", "164701.600000", "164703.090000", "164704.580000", "164706.070000", "164707.560000", "164709.050000", "164710.540000", "164712.030000", "164713.520000", "164715.010000", "164716.500000", "164717.990000", "164719.480000", "164720.970000", "164722.460000", "164723.950000", "164725.440000"],
      "ContentTime": ["164111.490000", "164111.493000", "164111.495000", "164111.498000", "164111.500000", "164111.510000", "164111.512000", "164111.515000", "164111.517000", "164111.520000", "164111.522000", "164111.525000", "164111.527000", "164111.530000", "164111.532000", "164111.535000", "164131.436000", "164131.439000", "164131.441000", "164131.444000", "164131.446000", "164131.455000", "164131.458000", "164131.461000", "164131.463000", "164131.466000", "164131.468000", "164131.471000", "164131.473000", "164131.476000", "164131.478000", "164131.481000", "164131.483000", "164131.486000", "164131.488000", "164131.491000", "164151.430000", "164151.433000", "164151.436000", "164151.439000", "164151.441000", "164151.444000", "164151.446000", "164151.448000", "164151.451000", "164151.453000", "164151.456000", "164151.458000", "164151.461000", "164151.463000", "164151.466000", "164151.468000", "164151.471000", "164151.473000", "164151.476000", "164151.479000", "164211.452000", "164211.455000", "164211.457000", "164211.460000", "164211.462000", "164211.465000", "164211.467000", "164211.470000", "164211.472000", "164211.474000", "164211.477000", "164211.480000", "164211.482000", "164211.485000", "164211.487000", "164211.490000", "164211.492000", "164211.494000", "164211.497000", "164211.499000", "164231.474000", "164231.477000", "164231.479000", "164231.482000", "164231.484000", "164231.487000", "164231.489000", "164231.492000", "164231.494000", "164231.497000", "164231.499000", "164231.502000", "164231.504000", "164231.507000", "164231.509000", "164231.512000", "164231.514000", "164231.517000", "164231.519000", "164231.522000", "164231.524000", "164311.459000", "164311.461000", "164311.464000", "164311.466000", "164311.469000", "164311.471000", "164311.474000", "164311.476000", "164311.479000", "164311.481000", "164311.484000", "164311.486000", "164311.489000", "164311.491000", "164311.494000", "164311.496000", "164311.499000", "164311.501000", "164311.504000", "164311.506000", "164311.509000", "164311.512000", "164311.514000", "164311.517000", "164311.519000", "164311.522000", "164311.524000", "164351.449000", "164351.452000", "164351.454000", "164351.457000", "164351.459000", "164351.462000", "164351.464000", "164351.467000", "164351.469000", "164351.472000", "164351.474000", "164351.477000", "164351.479000", "164351.482000", "164351.484000", "164351.487000", "164351.489000", "164351.492000", "164351.494000", "164351.497000", "164351.499000", "164351.502000", "164351.504000", "164351.507000", "164351.510000", "164351.512000", "164351.515000", "164431.469000", "164431.472000", "164431.474000", "164431.477000", "164431.479000", "164431.482000", "164431.484000", "164431.487000", "164431.489000", "164431.492000", "164431.495000", "164431.497000", "164431.500000", "164431.502000", "164431.505000", "164431.507000", "164431.510000", "164431.512000", "164431.515000", "164431.517000", "164431.520000", "164431.522000", "164431.525000", "164431.527000", "164431.530000", "164431.532000", "164511.459000", "164511.462000", "164511.464000", "164511.467000", "164511.469000", "164511.472000", "164511.474000", "164511.477000", "164511.479000", "164511.482000", "164511.484000", "164511.487000", "164511.489000", "164511.492000", "164511.494000", "164511.497000", "164511.499000", "164511.502000", "164511.504000", "164511.507000", "164511.509000", "164511.512000", "164511.514000", "164511.517000", "164511.519000", "164511.522000", "164511.524000", "164551.472000", "164551.475000", "164551.478000", "164551.480000", "164551.483000", "164551.485000", "164551.488000", "164551.490000", "164551.493000", "164551.495000", "164551.498000", "164551.500000", "164551.503000", "164551.505000", "164551.508000", "164551.511000", "164551.513000", "164551.516000", "164551.518000", "164551.521000", "164551.523000", "164551.526000", "164551.528000", "164551.531000", "164551.533000", "164551.536000", "164551.538000", "164631.492000", "164631.495000", "164631.498000", "164631.500000", "164631.503000", "164631.505000", "164631.508000", "164631.510000", "164631.513000", "164631.515000", "164631.518000", "164631.520000", "164631.523000", "164631.525000", "164631.528000", "164631.530000", "164631.533000", "164631.535000", "164631.538000", "164631.540000", "164631.543000", "164631.545000", "164631.548000", "164631.550000", "164631.553000", "164631.555000", "164631.558000", "164711.494000", "164711.497000", "164711.500000", "164711.502000", "164711.505000", "164711.507000", "164711.510000", "164711.512000", "164711.515000", "164711.518000", "164711.520000", "164711.523000", "164711.525000", "164711.528000", "164711.530000", "164711.533000", "164711.535000", "164711.538000", "164711.540000", "164711.543000", "164711.545000", "164711.548000", "164711.550000", "164711.553000", "164711.555000", "164711.558000", "164711.560000", "164727.836000", "164727.839000", "164727.841000", "164727.844000", "164727.846000", "164727.849000", "164727.851000", "164727.854000", "164727.856000", "164727.859000", "164727.861000"],
      "InstanceCreationTime": ["164111.490000", "164111.493000", "164111.495000", "164111.498000", "164111.500000", "164111.510000", "164111.512000", "164111.515000", "164111.517000", "164111.520000", "164111.522000", "164111.525000", "164111.527000", "164111.530000", "164111.532000", "164111.535000", "164131.436000", "164131.439000", "164131.441000", "164131.444000", "164131.446000", "164131.455000", "164131.458000", "164131.461000", "164131.463000", "164131.466000", "164131.468000", "164131.471000", "164131.473000", "164131.476000", "164131.478000", "164131.481000", "164131.483000", "164131.486000", "164131.488000", "164131.491000", "164151.430000", "164151.433000", "164151.436000", "164151.439000", "164151.441000", "164151.444000", "164151.446000", "164151.448000", "164151.451000", "164151.453000", "164151.456000", "164151.458000", "164151.461000", "164151.463000", "164151.466000", "164151.468000", "164151.471000", "164151.473000", "164151.476000", "164151.479000", "164211.452000", "164211.455000", "164211.457000", "164211.460000", "164211.462000", "164211.465000", "164211.467000", "164211.470000", "164211.472000", "164211.474000", "164211.477000", "164211.480000", "164211.482000", "164211.485000", "164211.487000", "164211.490000", "164211.492000", "164211.494000", "164211.497000", "164211.499000", "164231.474000", "164231.477000", "164231.479000", "164231.482000", "164231.484000", "164231.487000", "164231.489000", "164231.492000", "164231.494000", "164231.497000", "164231.499000", "164231.502000", "164231.504000", "164231.507000", "164231.509000", "164231.512000", "164231.514000", "164231.517000", "164231.519000", "164231.522000", "164231.524000", "164311.459000", "164311.461000", "164311.464000", "164311.466000", "164311.469000", "164311.471000", "164311.474000", "164311.476000", "164311.479000", "164311.481000", "164311.484000", "164311.486000", "164311.489000", "164311.491000", "164311.494000", "164311.496000", "164311.499000", "164311.501000", "164311.504000", "164311.506000", "164311.509000", "164311.512000", "164311.514000", "164311.517000", "164311.519000", "164311.522000", "164311.524000", "164351.449000", "164351.452000", "164351.454000", "164351.457000", "164351.459000", "164351.462000", "164351.464000", "164351.467000", "164351.469000", "164351.472000", "164351.474000", "164351.477000", "164351.479000", "164351.482000", "164351.484000", "164351.487000", "164351.489000", "164351.492000", "164351.494000", "164351.497000", "164351.499000", "164351.502000", "164351.504000", "164351.507000", "164351.510000", "164351.512000", "164351.515000", "164431.469000", "164431.472000", "164431.474000", "164431.477000", "164431.479000", "164431.482000", "164431.484000", "164431.487000", "164431.489000", "164431.492000", "164431.495000", "164431.497000", "164431.500000", "164431.502000", "164431.505000", "164431.507000", "164431.510000", "164431.512000", "164431.515000", "164431.517000", "164431.520000", "164431.522000", "164431.525000", "164431.527000", "164431.530000", "164431.532000", "164511.459000", "164511.462000", "164511.464000", "164511.467000", "164511.469000", "164511.472000", "164511.474000", "164511.477000", "164511.479000", "164511.482000", "164511.484000", "164511.487000", "164511.489000", "164511.492000", "164511.494000", "164511.497000", "164511.499000", "164511.502000", "164511.504000", "164511.507000", "164511.509000", "164511.512000", "164511.514000", "164511.517000", "164511.519000", "164511.522000", "164511.524000", "164551.472000", "164551.475000", "164551.478000", "164551.480000", "164551.483000", "164551.485000", "164551.488000", "164551.490000", "164551.493000", "164551.495000", "164551.498000", "164551.500000", "164551.503000", "164551.505000", "164551.508000", "164551.511000", "164551.513000", "164551.516000", "164551.518000", "164551.521000", "164551.523000", "164551.526000", "164551.528000", "164551.531000", "164551.533000", "164551.536000", "164551.538000", "164631.492000", "164631.495000", "164631.498000", "164631.500000", "164631.503000", "164631.505000", "164631.508000", "164631.510000", "164631.513000", "164631.515000", "164631.518000", "164631.520000", "164631.523000", "164631.525000", "164631.528000", "164631.530000", "164631.533000", "164631.535000", "164631.538000", "164631.540000", "164631.543000", "164631.545000", "164631.548000", "164631.550000", "164631.553000", "164631.555000", "164631.558000", "164711.494000", "164711.497000", "164711.500000", "164711.502000", "164711.505000", "164711.507000", "164711.510000", "164711.512000", "164711.515000", "164711.518000", "164711.520000", "164711.523000", "164711.525000", "164711.528000", "164711.530000", "164711.533000", "164711.535000", "164711.538000", "164711.540000", "164711.543000", "164711.545000", "164711.548000", "164711.550000", "164711.553000", "164711.555000", "164711.558000", "164711.560000", "164727.836000", "164727.839000", "164727.841000", "164727.844000", "164727.846000", "164727.849000", "164727.851000", "164727.854000", "164727.856000", "164727.859000", "164727.861000"],
      "InstanceNumber": [1, 2, 3, 4, 5, 6, 7, 8, 9, 10, 11, 12, 13, 14, 15, 16, 17, 18, 19, 20, 21, 22, 23, 24, 25, 26, 27, 28, 29, 30, 31, 32, 33, 34, 35, 36, 37, 38, 39, 40, 41, 42, 43, 44, 45, 46, 47, 48, 49, 50, 51, 52, 53, 54, 55, 56, 57, 58, 59, 60, 61, 62, 63, 64, 65, 66, 67, 68, 69, 70, 71, 72, 73, 74, 75, 76, 77, 78, 79, 80, 81, 82, 83, 84, 85, 86, 87, 88, 89, 90, 91, 92, 93, 94, 95, 96, 97, 98, 99, 100, 101, 102, 103, 104, 105, 106, 107, 108, 109, 110, 111, 112, 113, 114, 115, 116, 117, 118, 119, 120, 121, 122, 123, 124, 125, 126, 127, 128, 129, 130, 131, 132, 133, 134, 135, 136, 137, 138, 139, 140, 141, 142, 143, 144, 145, 146, 147, 148, 149, 150, 151, 152, 153, 154, 155, 156, 157, 158, 159, 160, 161, 162, 163, 164, 165, 166, 167, 168, 169, 170, 171, 172, 173, 174, 175, 176, 177, 178, 179, 180, 181, 182, 183, 184, 185, 186, 187, 188, 189, 190, 191, 192, 193, 194, 195, 196, 197, 198, 199, 200, 201, 202, 203, 204, 205, 206, 207, 208, 209, 210, 211, 212, 213, 214, 215, 216, 217, 218, 219, 220, 221, 222, 223, 224, 225, 226, 227, 228, 229, 230, 231, 232, 233, 234, 235, 236, 237, 238, 239, 240, 241, 242, 243, 244, 245, 246, 247, 248, 249, 250, 251, 252, 253, 254, 255, 256, 257, 258, 259, 260, 261, 262, 263, 264, 265, 266, 267, 268, 269, 270, 271, 272, 273, 274, 275, 276, 277, 278, 279, 280, 281, 282, 283, 284, 285, 286, 287, 288, 289, 290, 291, 292, 293, 294, 295, 296],
      "WindowCenter": [4802.0, 4794.0, 4798.0, 4800.0, 4830.0, 4832.0, 4830.0, 4830.0, 4824.0, 4802.0, 4794.0, 4826.0, 4828.0, 4802.0, 4830.0, 4830.0, 4802.0, 4800.0, 4798.0, 4800.0, 4800.0, 4798.0, 4830.0, 4834.0, 4836.0, 4804.0, 4806.0, 4802.0, 4858.0, 4828.0, 4828.0, 4796.0, 4824.0, 4796.0, 4824.0, 4824.0, 4830.0, 4830.0, 4826.0, 4826.0, 4830.0, 4800.0, 4824.0, 4794.0, 4794.0, 4828.0, 4802.0, 4804.0, 4828.0, 4828.0, 4826.0, 4802.0, 4822.0, 4822.0, 4796.0, 4832.0, 4832.0, 4830.0, 4824.0, 4828.0, 4792.0, 4822.0, 4794.0, 4800.0, 4826.0, 4828.0, 4834.0, 4834.0, 4832.0, 4804.0, 4792.0, 4798.0, 4798.0, 4800.0, 4804.0, 4828.0, 4832.0, 4832.0, 4828.0, 4826.0, 4802.0, 4802.0, 4796.0, 4826.0, 4802.0, 4834.0, 4832.0, 4828.0, 4832.0, 4834.0, 4832.0, 4828.0, 4798.0, 4798.0, 4820.0, 4824.0, 4798.0, 4796.0, 4826.0, 4830.0, 4832.0, 4828.0, 4824.0, 4828.0, 4826.0, 4826.0, 4826.0, 4830.0, 4832.0, 4832.0, 4830.0, 4806.0, 4802.0, 4824.0, 4804.0, 4828.0, 4834.0, 4830.0, 4832.0, 4836.0, 4826.0, 4794.0, 4792.0, 4824.0, 4824.0, 4800.0, 4830.0, 4830.0, 4832.0, 4832.0, 4804.0, 4826.0, 4800.0, 4830.0, 4800.0, 4798.0, 4802.0, 4828.0, 4832.0, 4828.0, 4828.0, 4828.0, 4828.0, 4800.0, 4830.0, 4828.0, 4794.0, 4796.0, 4792.0, 4794.0, 4800.0, 4830.0, 4826.0, 4830.0, 4830.0, 4828.0, 4804.0, 4796.0, 4794.0, 4796.0, 4798.0, 4806.0, 4828.0, 4828.0, 4828.0, 4830.0, 4808.0, 4800.0, 4796.0, 4826.0, 4826.0, 4790.0, 4788.0, 4792.0, 4802.0, 4830.0, 4836.0, 4834.0, 4832.0, 4830.0, 4802.0, 4796.0, 4792.0, 4796.0, 4798.0, 4792.0, 4826.0, 4800.0, 4832.0, 4832.0, 4802.0, 4830.0, 4832.0, 4830.0, 4830.0, 4802.0, 4798.0, 4796.0, 4798.0, 4798.0, 4800.0, 4790.0, 4826.0, 4802.0, 4834.0, 4834.0, 4832.0, 4836.0, 4832.0, 4802.0, 4818.0, 4792.0, 4794.0, 4798.0, 4822.0, 4832.0, 4836.0, 4834.0, 4834.0, 4832.0, 4800.0, 4794.0, 4790.0, 4802.0, 4800.0, 4824.0, 4828.0, 4804.0, 4824.0, 4828.0, 4830.0, 4826.0, 4800.0, 4798.0, 4800.0, 4798.0, 4802.0, 4828.0, 4832.0, 4830.0, 4830.0, 4830.0, 4828.0, 4826.0, 4802.0, 4802.0, 4800.0, 4798.0, 4828.0, 4830.0, 4832.0, 4832.0, 4828.0, 4802.0, 4790.0, 4794.0, 4798.0, 4830.0, 4836.0, 4830.0, 4832.0, 4802.0, 4856.0, 4834.0, 4830.0, 4822.0, 4820.0, 4800.0, 4786.0, 4788.0, 4788.0, 4800.0, 4826.0, 4834.0, 4832.0, 4836.0, 4806.0, 4828.0, 4826.0, 4762.0, 4764.0, 4762.0, 4796.0, 4828.0, 4830.0, 4836.0, 4834.0, 4830.0, 4828.0, 4832.0, 4804.0, 4790.0, 4794.0, 4794.0, 4792.0, 4796.0],
      "WindowWidth": [18554.0, 18556.0, 18560.0, 18558.0, 18588.0, 18592.0, 18586.0, 18592.0, 18590.0, 18558.0, 18558.0, 18588.0, 18586.0, 18564.0, 18588.0, 18592.0, 18554.0, 18552.0, 18556.0, 18554.0, 18556.0, 18562.0, 18586.0, 18590.0, 18598.0, 18564.0, 18562.0, 18566.0, 18620.0, 18584.0, 18590.0, 18564.0, 18590.0, 18562.0, 18588.0, 18586.0, 18592.0, 18596.0, 18590.0, 18586.0, 18588.0, 18554.0, 18592.0, 18558.0, 18560.0, 18588.0, 18556.0, 18556.0, 18592.0, 18586.0, 18590.0, 18562.0, 18586.0, 18592.0, 18560.0, 18588.0, 18590.0, 18588.0, 18594.0, 18586.0, 18562.0, 18592.0, 18562.0, 18564.0, 18588.0, 18594.0, 18594.0, 18596.0, 18592.0, 18560.0, 18562.0, 18558.0, 18562.0, 18562.0, 18560.0, 18592.0, 18594.0, 18594.0, 18588.0, 18588.0, 18558.0, 18560.0, 18554.0, 18592.0, 18558.0, 18598.0, 18588.0, 18588.0, 18590.0, 18596.0, 18590.0, 18590.0, 18550.0, 18552.0, 18578.0, 18578.0, 18560.0, 18558.0, 18584.0, 18594.0, 18596.0, 18588.0, 18592.0, 18588.0, 18592.0, 18594.0, 18592.0, 18594.0, 18590.0, 18594.0, 18594.0, 18560.0, 18556.0, 18588.0, 18558.0, 18596.0, 18592.0, 18594.0, 18582.0, 18594.0, 18582.0, 18552.0, 18554.0, 18588.0, 18584.0, 18554.0, 18588.0, 18592.0, 18588.0, 18590.0, 18562.0, 18586.0, 18558.0, 18592.0, 18564.0, 18556.0, 18558.0, 18590.0, 18590.0, 18592.0, 18594.0, 18588.0, 18590.0, 18564.0, 18592.0, 18586.0, 18560.0, 18562.0, 18556.0, 18560.0, 18560.0, 18590.0, 18584.0, 18584.0, 18590.0, 18592.0, 18568.0, 18564.0, 18566.0, 18564.0, 18568.0, 18546.0, 18572.0, 18578.0, 18586.0, 18582.0, 18556.0, 18560.0, 18560.0, 18584.0, 18588.0, 18562.0, 18564.0, 18560.0, 18564.0, 18590.0, 18584.0, 18584.0, 18594.0, 18590.0, 18558.0, 18552.0, 18546.0, 18562.0, 18562.0, 18562.0, 18582.0, 18564.0, 18584.0, 18582.0, 18558.0, 18586.0, 18584.0, 18582.0, 18594.0, 18556.0, 18556.0, 18550.0, 18556.0, 18556.0, 18558.0, 18560.0, 18588.0, 18558.0, 18588.0, 18586.0, 18580.0, 18588.0, 18588.0, 18550.0, 18578.0, 18550.0, 18550.0, 18546.0, 18582.0, 18586.0, 18590.0, 18588.0, 18590.0, 18588.0, 18560.0, 18556.0, 18556.0, 18556.0, 18554.0, 18590.0, 18596.0, 18558.0, 18590.0, 18590.0, 18594.0, 18590.0, 18560.0, 18560.0, 18560.0, 18560.0, 18564.0, 18592.0, 18586.0, 18582.0, 18588.0, 18594.0, 18594.0, 18596.0, 18560.0, 18560.0, 18564.0, 18560.0, 18586.0, 18592.0, 18592.0, 18586.0, 18590.0, 18560.0, 18562.0, 18560.0, 18558.0, 18592.0, 18586.0, 18588.0, 18598.0, 18562.0, 18622.0, 18594.0, 18588.0, 18586.0, 18580.0, 18552.0, 18554.0, 18562.0, 18562.0, 18564.0, 18584.0, 18580.0, 18582.0, 18586.0, 18558.0, 18584.0, 18588.0, 18538.0, 18530.0, 18528.0, 18560.0, 18590.0, 18582.0, 18582.0, 18588.0, 18588.0, 18586.0, 18580.0, 18560.0, 18560.0, 18560.0, 18560.0, 18564.0, 18558.0]
    },
    "slices": {}
  }
}