{
  "AcquisitionMatrixPE": 104,
  "AcquisitionNumber": 1,
  "AcquisitionTime": "16:48:18.357500",
  "BandwidthPerPixelPhaseEncode": 17.17,
  "BaseResolution": 104,
  "BodyPartExamined": "BRAIN",
  "CoilCombinationMethod": "Sum of Squares",
  "ConsistencyInfo": "N4_VE11C_LATEST_20160120",
  "ConversionSoftware": "dcm2niix",
  "ConversionSoftwareVersion": "v1.0.20220505",
  "DerivedVendorReportedEchoSpacing": 0.000560011,
  "DeviceSerialNumber": "167006",
  "DwellTime": 2.1e-06,
  "EchoTime": 0.037,
  "EchoTime1": 0.037,
  "EchoTime2": 0.001,
  "EchoTrainLength": 104,
  "EffectiveEchoSpacing": 0.000560011,
  "FlipAngle": 52,
  "HeudiconvVersion": "0.5.3.post811+g6206e14",
  "ImageComments": "Unaliased MB4/PE3/LB",
  "ImageOrientationPatientDICOM": [0.999377, 0.00804827, 0.0343556, 0.0118614, 0.840356, -0.541905],
  "ImageOrientationText": "Tra>Cor(-32.8)>Sag(1.9)",
  "ImageType": [
    "ORIGINAL",
    "PRIMARY",
    "P",
    "MB",
    "ND",
    "MOSAIC",
    "PHASE"
],
  "ImagingFrequency": 123.259,
  "InPlanePhaseEncodingDirectionDICOM": "COL",
  "InstitutionAddress": "Chemin Queen-Mary 4565,Montreal,District,CA,H3W 1W5",
  "InstitutionName": "IUGM",
  "InstitutionalDepartmentName": "Department",
  "MRAcquisitionType": "2D",
  "MagneticFieldStrength": 3,
  "Manufacturer": "Siemens",
  "ManufacturersModelName": "Prisma_fit",
  "MatrixCoilMode": "SENSE",
  "Modality": "MR",
  "MultibandAccelerationFactor": 4,
  "PartialFourier": 1,
  "PatientPosition": "HFS",
  "PercentPhaseFOV": 100,
  "PercentSampling": 100,
  "PhaseEncodingDirection": "j",
  "PhaseEncodingSteps": 104,
  "PhaseResolution": 1,
  "PixelBandwidth": 2290,
  "ProcedureStepDescription": "games^mario3",
  "ProtocolName": "func_task-mario3_run-04",
  "PulseSequenceDetails": "%CustomerSeq%\\cmrr_mbep2d_bold",
  "ReceiveCoilActiveElements": "HC1-7;NC1,2",
  "ReceiveCoilName": "HeadNeck_64",
  "ReconMatrixPE": 104,
  "RepetitionTime": 1.49,
  "SAR": 0.0459562,
  "ScanOptions": "FS",
  "ScanningSequence": "EP",
  "SequenceName": "epfid2d1_104",
  "SequenceVariant": "SK\\SS",
  "SeriesDescription": "func_task-mario3_run-04",
  "SeriesNumber": 20,
  "ShimSetting": [623, -7183, -8865, 241, 51, -189, -30, 57],
  "SliceThickness": 2,
  "SliceTiming": [0, 0.785, 0.0975, 0.8825, 0.1975, 0.98, 0.295, 1.0775, 0.3925, 1.1775, 0.49, 1.275, 0.5875, 1.3725, 0.6875, 0, 0.785, 0.0975, 0.8825, 0.1975, 0.98, 0.295, 1.0775, 0.3925, 1.1775, 0.49, 1.275, 0.5875, 1.3725, 0.6875, 0, 0.785, 0.0975, 0.8825, 0.1975, 0.98, 0.295, 1.0775, 0.3925, 1.1775, 0.49, 1.275, 0.5875, 1.3725, 0.6875, 0, 0.785, 0.0975, 0.8825, 0.1975, 0.98, 0.295, 1.0775, 0.3925, 1.1775, 0.49, 1.275, 0.5875, 1.3725, 0.6875],
  "SoftwareVersions": "syngo MR E11",
  "SpacingBetweenSlices": 2,
  "StationName": "MRC35049",
  "TaskName": "mario3",
  "TotalReadoutTime": 0.0576811,
  "TxRefAmp": 253.247,
  "WipMemBlock": "9eafadc9-d83b-424a-a84e-0f3e404df803||Sequence: R017 ve11c/master r/75a17815+; Jun 28 2022 16:32:11 by eja",
  "dcmmeta_affine": [
    [-1.9987545013427734, 0.02372288703918457, 0.06646467745304108, 104.36060333251953],
    [-0.016096536070108414, 1.680712342262268, -1.0839496850967407, -46.51134490966797],
    [0.06871121376752853, 1.0838096141815186, 1.6794747114181519, -99.22900390625],
    [0.0, 0.0, 0.0, 1.0]
],
  "dcmmeta_reorient_transform": [
    [0.0, -1.0, 0.0, 103.0],
    [1.0, 0.0, 0.0, 0.0],
    [0.0, 0.0, 1.0, 0.0],
    [0.0, 0.0, 0.0, 1.0]
],
  "dcmmeta_shape": [104, 104, 60, 339],
  "dcmmeta_slice_dim": 2,
  "dcmmeta_version": 0.6,
  "global": {
    "const": {
      "AcquisitionMatrix": [104, 0, 0, 104],
      "AngioFlag": "N",
      "BitsAllocated": 16,
      "BitsStored": 16,
      "BodyPartExamined": "BRAIN",
      "Columns": 832,
      "EchoNumbers": 1,
      "EchoTime": 37.0,
      "EchoTrainLength": 104,
      "FlipAngle": 52.0,
      "HighBit": 15,
      "ImageOrientationPatient": [0.99937726495264, 0.00804826761684, 0.03435560629863, 0.01186144341528, 0.84035616637028, -0.5419048069574],
      "ImagePositionPatient": [-842.98583804911, -744.24045477553, 381.89920200743],
      "ImageType": [
        "ORIGINAL",
        "PRIMARY",
        "P",
        "MB",
        "ND",
        "MOSAIC"
],
      "ImagedNucleus": "1H",
      "ImagingFrequency": 123.258985,
      "InPlanePhaseEncodingDirection": "COL",
      "LargestImagePixelValue": 4095,
      "MRAcquisitionType": "2D",
      "MagneticFieldStrength": 3.0,
      "Manufacturer": "SIEMENS",
      "ManufacturerModelName": "Prisma_fit",
      "Modality": "MR",
      "NumberOfAverages": 1.0,
      "NumberOfPhaseEncodingSteps": 104,
      "PercentPhaseFieldOfView": 100.0,
      "PercentSampling": 100.0,
      "PerformedProcedureStepStartTime": "161444.850000",
      "PhotometricInterpretation": "MONOCHROME2",
      "PixelBandwidth": 2290.0,
      "PixelRepresentation": 0,
      "PixelSpacing": [2.0, 2.0],
      "ProtocolName": "func_task-mario3_run-04",
      "RepetitionTime": 1490.0,
      "RescaleIntercept": -4096.0,
      "RescaleSlope": 2.0,
      "RescaleType": "US",
      "Rows": 832,
      "SAR": 0.04595618912972,
      "SamplesPerPixel": 1,
      "ScanOptions": "FS",
      "ScanningSequence": "EP",
      "SequenceName": "epfid2d1_104",
      "SequenceVariant": [
        "SK",
        "SS"
],
      "SeriesDescription": "func_task-mario3_run-04",
      "SeriesNumber": 20,
      "SeriesTime": "164925.026000",
      "SliceLocation": -54.650180623133,
      "SliceThickness": 2.0,
      "SmallestImagePixelValue": 0,
      "SoftwareVersions": "syngo MR E11",
      "SpacingBetweenSlices": 1.9999999683453,
      "SpecificCharacterSet": "ISO_IR 100",
      "StudyID": "1",
      "StudyTime": "161444.763000",
      "TransmitCoilName": "Body",
      "VariableFlipAngleFlag": "N",
      "WindowCenterWidthExplanation": "Algo1",
      "dBdt": 0.0},
    "slices": {}
  },
  "time": {
    "samples": {
      "AcquisitionNumber": [1, 2, 3, 4, 5, 6, 7, 8, 9, 10, 11, 12, 13, 14, 15, 16, 17, 18, 19, 20, 21, 22, 23, 24, 25, 26, 27, 28, 29, 30, 31, 32, 33, 34, 35, 36, 37, 38, 39, 40, 41, 42, 43, 44, 45, 46, 47, 48, 49, 50, 51, 52, 53, 54, 55, 56, 57, 58, 59, 60, 61, 62, 63, 64, 65, 66, 67, 68, 69, 70, 71, 72, 73, 74, 75, 76, 77, 78, 79, 80, 81, 82, 83, 84, 85, 86, 87, 88, 89, 90, 91, 92, 93, 94, 95, 96, 97, 98, 99, 100, 101, 102, 103, 104, 105, 106, 107, 108, 109, 110, 111, 112, 113, 114, 115, 116, 117, 118, 119, 120, 121, 122, 123, 124, 125, 126, 127, 128, 129, 130, 131, 132, 133, 134, 135, 136, 137, 138, 139, 140, 141, 142, 143, 144, 145, 146, 147, 148, 149, 150, 151, 152, 153, 154, 155, 156, 157, 158, 159, 160, 161, 162, 163, 164, 165, 166, 167, 168, 169, 170, 171, 172, 173, 174, 175, 176, 177, 178, 179, 180, 181, 182, 183, 184, 185, 186, 187, 188, 189, 190, 191, 192, 193, 194, 195, 196, 197, 198, 199, 200, 201, 202, 203, 204, 205, 206, 207, 208, 209, 210, 211, 212, 213, 214, 215, 216, 217, 218, 219, 220, 221, 222, 223, 224, 225, 226, 227, 228, 229, 230, 231, 232, 233, 234, 235, 236, 237, 238, 239, 240, 241, 242, 243, 244, 245, 246, 247, 248, 249, 250, 251, 252, 253, 254, 255, 256, 257, 258, 259, 260, 261, 262, 263, 264, 265, 266, 267, 268, 269, 270, 271, 272, 273, 274, 275, 276, 277, 278, 279, 280, 281, 282, 283, 284, 285, 286, 287, 288, 289, 290, 291, 292, 293, 294, 295, 296, 297, 298, 299, 300, 301, 302, 303, 304, 305, 306, 307, 308, 309, 310, 311, 312, 313, 314, 315, 316, 317, 318, 319, 320, 321, 322, 323, 324, 325, 326, 327, 328, 329, 330, 331, 332, 333, 334, 335, 336, 337, 338, 339],
      "AcquisitionTime": ["164818.357500", "164819.847500", "164821.337500", "164822.827500", "164824.317500", "164825.807500", "164827.297500", "164828.787500", "164830.277500", "164831.767500", "164833.257500", "164834.747500", "164836.237500", "164837.727500", "164839.217500", "164840.707500", "164842.197500", "164843.687500", "164845.177500", "164846.667500", "164848.157500", "164849.647500", "164851.137500", "164852.627500", "164854.117500", "164855.607500", "164857.097500", "164858.587500", "164900.077500", "164901.567500", "164903.057500", "164904.547500", "164906.037500", "164907.527500", "164909.017500", "164910.507500", "164911.997500", "164913.487500", "164914.977500", "164916.467500", "164917.957500", "164919.447500", "164920.937500", "164922.427500", "164923.917500", "164925.407500", "164926.897500", "164928.387500", "164929.877500", "164931.367500", "164932.857500", "164934.347500", "164935.837500", "164937.327500", "164938.817500", "164940.307500", "164941.797500", "164943.287500", "164944.777500", "164946.267500", "164947.757500", "164949.247500", "164950.737500", "164952.227500", "164953.717500", "164955.207500", "164956.697500", "164958.187500", "164959.677500", "165001.167500", "165002.657500", "165004.147500", "165005.637500", "165007.127500", "165008.617500", "165010.107500", "165011.597500", "165013.087500", "165014.577500", "165016.067500", "165017.557500", "165019.047500", "165020.537500", "165022.027500", "165023.517500", "165025.007500", "165026.497500", "165027.987500", "165029.477500", "165030.967500", "165032.457500", "165033.947500", "165035.437500", "165036.927500", "165038.417500", "165039.907500", "165041.397500", "165042.887500", "165044.377500", "165045.867500", "165047.357500", "165048.847500", "165050.337500", "165051.827500", "165053.317500", "165054.807500", "165056.297500", "165057.787500", "165059.277500", "165100.767500", "165102.257500", "165103.747500", "165105.237500", "165106.727500", "165108.217500", "165109.707500", "165111.197500", "165112.687500", "165114.177500", "165115.667500", "165117.157500", "165118.647500", "165120.137500", "165121.627500", "165123.117500", "165124.607500", "165126.097500", "165127.587500", "165129.077500", "165130.567500", "165132.057500", "165133.547500", "165135.037500", "165136.527500", "165138.017500", "165139.507500", "165140.997500", "165142.487500", "165143.977500", "165145.467500", "165146.957500", "165148.447500", "165149.937500", "165151.427500", "165152.917500", "165154.407500", "165155.897500", "165157.387500", "165158.877500", "165200.367500", "165201.857500", "165203.347500", "165204.837500", "165206.327500", "165207.817500", "165209.307500", "165210.797500", "165212.287500", "165213.777500", "165215.267500", "165216.757500", "165218.247500", "165219.737500", "165221.227500", "165222.717500", "165224.207500", "165225.697500", "165227.187500", "165228.677500", "165230.167500", "165231.657500", "165233.147500", "165234.637500", "165236.127500", "165237.617500", "165239.107500", "165240.597500", "165242.087500", "165243.577500", "165245.067500", "165246.557500", "165248.047500", "165249.537500", "165251.027500", "165252.517500", "165254.007500", "165255.497500", "165256.987500", "165258.477500", "165259.967500", "165301.457500", "165302.947500", "165304.437500", "165305.927500", "165307.417500", "165308.907500", "165310.397500", "165311.887500", "165313.377500", "165314.867500", "165316.357500", "165317.847500", "165319.337500", "165320.827500", "165322.317500", "165323.807500", "165325.297500", "165326.787500", "165328.277500", "165329.767500", "165331.257500", "165332.747500", "165334.237500", "165335.727500", "165337.217500", "165338.707500", "165340.197500", "165341.687500", "165343.177500", "165344.667500", "165346.157500", "165347.647500", "165349.137500", "165350.627500", "165352.117500", "165353.607500", "165355.097500", "165356.587500", "165358.077500", "165359.567500", "165401.057500", "165402.547500", "165404.037500", "165405.527500", "165407.017500", "165408.507500", "165409.997500", "165411.487500", "165412.977500", "165414.467500", "165415.957500", "165417.447500", "165418.937500", "165420.427500", "165421.917500", "165423.407500", "165424.897500", "165426.387500", "165427.877500", "165429.367500", "165430.857500", "165432.347500", "165433.837500", "165435.327500", "165436.817500", "165438.307500", "165439.797500", "165441.287500", "165442.777500", "165444.267500", "165445.757500", "165447.247500", "165448.737500", "165450.227500", "165451.717500", "165453.207500", "165454.697500", "165456.187500", "165457.677500", "165459.167500", "165500.657500", "165502.147500", "165503.637500", "165505.127500", "165506.617500", "165508.107500", "165509.597500", "165511.087500", "165512.577500", "165514.067500", "165515.557500", "165517.047500", "165518.537500", "165520.027500", "165521.517500", "165523.007500", "165524.497500", "165525.987500", "165527.477500", "165528.967500", "165530.457500", "165531.947500", "165533.437500", "165534.927500", "165536.417500", "165537.907500", "165539.397500", "165540.887500", "165542.377500", "165543.867500", "165545.357500", "165546.847500", "165548.337500", "165549.827500", "165551.317500", "165552.807500", "165554.297500", "165555.787500", "165557.277500", "165558.767500", "165600.257500", "165601.747500", "165603.237500", "165604.727500", "165606.217500", "165607.707500", "165609.197500", "165610.687500", "165612.177500", "165613.667500", "165615.157500", "165616.647500", "165618.137500", "165619.627500", "165621.117500", "165622.607500", "165624.097500", "165625.587500", "165627.077500", "165628.567500", "165630.057500", "165631.547500", "165633.037500", "165634.527500", "165636.017500", "165637.507500", "165638.997500", "165640.487500", "165641.977500"],
      "ContentTime": ["164925.028000", "164925.030000", "164925.033000", "164925.035000", "164925.038000", "164925.041000", "164925.043000", "164925.046000", "164925.048000", "164925.051000", "164925.053000", "164925.056000", "164925.058000", "164925.061000", "164925.063000", "164925.066000", "164925.068000", "164925.071000", "164925.073000", "164944.986000", "164944.988000", "164944.991000", "164944.994000", "164944.997000", "164945.000000", "164945.003000", "164945.005000", "164945.008000", "164945.010000", "164945.013000", "164945.015000", "164945.018000", "164945.020000", "164945.023000", "164945.025000", "164945.028000", "164945.030000", "164945.033000", "164945.035000", "165005.013000", "165005.015000", "165005.018000", "165005.020000", "165005.023000", "165005.025000", "165005.028000", "165005.030000", "165005.033000", "165005.035000", "165005.038000", "165005.040000", "165005.043000", "165005.045000", "165005.048000", "165005.050000", "165005.053000", "165005.056000", "165005.058000", "165005.061000", "165024.989000", "165024.991000", "165024.994000", "165024.996000", "165025.000000", "165025.002000", "165025.005000", "165025.007000", "165025.010000", "165025.012000", "165025.015000", "165025.017000", "165025.020000", "165025.022000", "165025.025000", "165025.027000", "165025.030000", "165025.032000", "165025.035000", "165025.037000", "165025.040000", "165105.031000", "165105.034000", "165105.037000", "165105.039000", "165105.048000", "165105.050000", "165105.053000", "165105.055000", "165105.058000", "165105.060000", "165105.063000", "165105.066000", "165105.068000", "165105.070000", "165105.073000", "165105.076000", "165105.078000", "165105.080000", "165105.083000", "165105.085000", "165105.088000", "165105.090000", "165105.093000", "165105.096000", "165105.098000", "165105.100000", "165105.103000", "165105.105000", "165105.108000", "165105.110000", "165105.113000", "165145.011000", "165145.014000", "165145.017000", "165145.019000", "165145.022000", "165145.024000", "165145.027000", "165145.029000", "165145.032000", "165145.034000", "165145.037000", "165145.039000", "165145.042000", "165145.044000", "165145.047000", "165145.049000", "165145.052000", "165145.054000", "165145.057000", "165145.059000", "165145.062000", "165145.064000", "165145.067000", "165145.069000", "165145.072000", "165145.074000", "165145.077000", "165225.041000", "165225.044000", "165225.046000", "165225.049000", "165225.051000", "165225.054000", "165225.056000", "165225.059000", "165225.062000", "165225.064000", "165225.072000", "165225.075000", "165225.077000", "165225.080000", "165225.082000", "165225.085000", "165225.087000", "165225.090000", "165225.092000", "165225.095000", "165225.098000", "165225.100000", "165225.103000", "165225.105000", "165225.108000", "165225.110000", "165225.113000", "165305.020000", "165305.023000", "165305.025000", "165305.028000", "165305.030000", "165305.033000", "165305.035000", "165305.038000", "165305.040000", "165305.043000", "165305.046000", "165305.048000", "165305.051000", "165305.053000", "165305.056000", "165305.058000", "165305.061000", "165305.063000", "165305.066000", "165305.068000", "165305.071000", "165305.073000", "165305.076000", "165305.078000", "165305.081000", "165305.083000", "165305.086000", "165345.017000", "165345.020000", "165345.023000", "165345.025000", "165345.028000", "165345.030000", "165345.033000", "165345.035000", "165345.038000", "165345.040000", "165345.043000", "165345.046000", "165345.048000", "165345.051000", "165345.053000", "165345.056000", "165345.058000", "165345.061000", "165345.063000", "165345.066000", "165345.068000", "165345.071000", "165345.073000", "165345.076000", "165345.079000", "165345.081000", "165425.023000", "165425.026000", "165425.029000", "165425.031000", "165425.034000", "165425.036000", "165425.039000", "165425.041000", "165425.044000", "165425.046000", "165425.049000", "165425.051000", "165425.054000", "165425.056000", "165425.059000", "165425.061000", "165425.064000", "165425.066000", "165425.069000", "165425.071000", "165425.074000", "165425.076000", "165425.079000", "165425.082000", "165425.084000", "165425.087000", "165425.089000", "165505.552000", "165505.555000", "165505.557000", "165505.560000", "165505.563000", "165505.565000", "165505.568000", "165505.570000", "165505.573000", "165505.575000", "165505.578000", "165505.580000", "165505.583000", "165505.585000", "165505.588000", "165505.590000", "165505.593000", "165505.595000", "165505.598000", "165505.600000", "165505.603000", "165505.605000", "165505.608000", "165505.610000", "165505.613000", "165505.615000", "165505.618000", "165545.030000", "165545.033000", "165545.035000", "165545.038000", "165545.040000", "165545.043000", "165545.045000", "165545.048000", "165545.050000", "165545.053000", "165545.056000", "165545.058000", "165545.061000", "165545.063000", "165545.066000", "165545.068000", "165545.071000", "165545.073000", "165545.076000", "165545.078000", "165545.081000", "165545.083000", "165545.086000", "165545.088000", "165545.091000", "165545.093000", "165545.096000", "165625.022000", "165625.025000", "165625.028000", "165625.030000", "165625.033000", "165625.035000", "165625.038000", "165625.040000", "165625.043000", "165625.045000", "165625.048000", "165625.050000", "165625.053000", "165625.055000", "165625.058000", "165625.060000", "165625.063000", "165625.065000", "165625.068000", "165625.070000", "165625.073000", "165625.075000", "165625.078000", "165625.081000", "165625.083000", "165625.086000", "165625.088000", "165644.313000", "165644.316000", "165644.319000", "165644.321000", "165644.324000", "165644.326000", "165644.329000", "165644.331000", "165644.334000", "165644.336000", "165644.339000", "165644.341000", "165644.344000"],
      "InstanceCreationTime": ["164925.028000", "164925.030000", "164925.033000", "164925.035000", "164925.038000", "164925.041000", "164925.043000", "164925.046000", "164925.048000", "164925.051000", "164925.053000", "164925.056000", "164925.058000", "164925.061000", "164925.063000", "164925.066000", "164925.068000", "164925.071000", "164925.073000", "164944.986000", "164944.988000", "164944.991000", "164944.994000", "164944.997000", "164945.000000", "164945.003000", "164945.005000", "164945.008000", "164945.010000", "164945.013000", "164945.015000", "164945.018000", "164945.020000", "164945.023000", "164945.025000", "164945.028000", "164945.030000", "164945.033000", "164945.035000", "165005.013000", "165005.015000", "165005.018000", "165005.020000", "165005.023000", "165005.025000", "165005.028000", "165005.030000", "165005.033000", "165005.035000", "165005.038000", "165005.040000", "165005.043000", "165005.045000", "165005.048000", "165005.050000", "165005.053000", "165005.056000", "165005.058000", "165005.061000", "165024.989000", "165024.991000", "165024.994000", "165024.996000", "165025.000000", "165025.002000", "165025.005000", "165025.007000", "165025.010000", "165025.012000", "165025.015000", "165025.017000", "165025.020000", "165025.022000", "165025.025000", "165025.027000", "165025.030000", "165025.032000", "165025.035000", "165025.037000", "165025.040000", "165105.031000", "165105.034000", "165105.037000", "165105.039000", "165105.048000", "165105.050000", "165105.053000", "165105.055000", "165105.058000", "165105.060000", "165105.063000", "165105.066000", "165105.068000", "165105.070000", "165105.073000", "165105.076000", "165105.078000", "165105.080000", "165105.083000", "165105.085000", "165105.088000", "165105.090000", "165105.093000", "165105.096000", "165105.098000", "165105.100000", "165105.103000", "165105.105000", "165105.108000", "165105.110000", "165105.113000", "165145.011000", "165145.014000", "165145.017000", "165145.019000", "165145.022000", "165145.024000", "165145.027000", "165145.029000", "165145.032000", "165145.034000", "165145.037000", "165145.039000", "165145.042000", "165145.044000", "165145.047000", "165145.049000", "165145.052000", "165145.054000", "165145.057000", "165145.059000", "165145.062000", "165145.064000", "165145.067000", "165145.069000", "165145.072000", "165145.074000", "165145.077000", "165225.041000", "165225.044000", "165225.046000", "165225.049000", "165225.051000", "165225.054000", "165225.056000", "165225.059000", "165225.062000", "165225.064000", "165225.072000", "165225.075000", "165225.077000", "165225.080000", "165225.082000", "165225.085000", "165225.087000", "165225.090000", "165225.092000", "165225.095000", "165225.098000", "165225.100000", "165225.103000", "165225.105000", "165225.108000", "165225.110000", "165225.113000", "165305.020000", "165305.023000", "165305.025000", "165305.028000", "165305.030000", "165305.033000", "165305.035000", "165305.038000", "165305.040000", "165305.043000", "165305.046000", "165305.048000", "165305.051000", "165305.053000", "165305.056000", "165305.058000", "165305.061000", "165305.063000", "165305.066000", "165305.068000", "165305.071000", "165305.073000", "165305.076000", "165305.078000", "165305.081000", "165305.083000", "165305.086000", "165345.017000", "165345.020000", "165345.023000", "165345.025000", "165345.028000", "165345.030000", "165345.033000", "165345.035000", "165345.038000", "165345.040000", "165345.043000", "165345.046000", "165345.048000", "165345.051000", "165345.053000", "165345.056000", "165345.058000", "165345.061000", "165345.063000", "165345.066000", "165345.068000", "165345.071000", "165345.073000", "165345.076000", "165345.079000", "165345.081000", "165425.023000", "165425.026000", "165425.029000", "165425.031000", "165425.034000", "165425.036000", "165425.039000", "165425.041000", "165425.044000", "165425.046000", "165425.049000", "165425.051000", "165425.054000", "165425.056000", "165425.059000", "165425.061000", "165425.064000", "165425.066000", "165425.069000", "165425.071000", "165425.074000", "165425.076000", "165425.079000", "165425.082000", "165425.084000", "165425.087000", "165425.089000", "165505.552000", "165505.555000", "165505.557000", "165505.560000", "165505.563000", "165505.565000", "165505.568000", "165505.570000", "165505.573000", "165505.575000", "165505.578000", "165505.580000", "165505.583000", "165505.585000", "165505.588000", "165505.590000", "165505.593000", "165505.595000", "165505.598000", "165505.600000", "165505.603000", "165505.605000", "165505.608000", "165505.610000", "165505.613000", "165505.615000", "165505.618000", "165545.030000", "165545.033000", "165545.035000", "165545.038000", "165545.040000", "165545.043000", "165545.045000", "165545.048000", "165545.050000", "165545.053000", "165545.056000", "165545.058000", "165545.061000", "165545.063000", "165545.066000", "165545.068000", "165545.071000", "165545.073000", "165545.076000", "165545.078000", "165545.081000", "165545.083000", "165545.086000", "165545.088000", "165545.091000", "165545.093000", "165545.096000", "165625.022000", "165625.025000", "165625.028000", "165625.030000", "165625.033000", "165625.035000", "165625.038000", "165625.040000", "165625.043000", "165625.045000", "165625.048000", "165625.050000", "165625.053000", "165625.055000", "165625.058000", "165625.060000", "165625.063000", "165625.065000", "165625.068000", "165625.070000", "165625.073000", "165625.075000", "165625.078000", "165625.081000", "165625.083000", "165625.086000", "165625.088000", "165644.313000", "165644.316000", "165644.319000", "165644.321000", "165644.324000", "165644.326000", "165644.329000", "165644.331000", "165644.334000", "165644.336000", "165644.339000", "165644.341000", "165644.344000"],
      "InstanceNumber": [1, 2, 3, 4, 5, 6, 7, 8, 9, 10, 11, 12, 13, 14, 15, 16, 17, 18, 19, 20, 21, 22, 23, 24, 25, 26, 27, 28, 29, 30, 31, 32, 33, 34, 35, 36, 37, 38, 39, 40, 41, 42, 43, 44, 45, 46, 47, 48, 49, 50, 51, 52, 53, 54, 55, 56, 57, 58, 59, 60, 61, 62, 63, 64, 65, 66, 67, 68, 69, 70, 71, 72, 73, 74, 75, 76, 77, 78, 79, 80, 81, 82, 83, 84, 85, 86, 87, 88, 89, 90, 91, 92, 93, 94, 95, 96, 97, 98, 99, 100, 101, 102, 103, 104, 105, 106, 107, 108, 109, 110, 111, 112, 113, 114, 115, 116, 117, 118, 119, 120, 121, 122, 123, 124, 125, 126, 127, 128, 129, 130, 131, 132, 133, 134, 135, 136, 137, 138, 139, 140, 141, 142, 143, 144, 145, 146, 147, 148, 149, 150, 151, 152, 153, 154, 155, 156, 157, 158, 159, 160, 161, 162, 163, 164, 165, 166, 167, 168, 169, 170, 171, 172, 173, 174, 175, 176, 177, 178, 179, 180, 181, 182, 183, 184, 185, 186, 187, 188, 189, 190, 191, 192, 193, 194, 195, 196, 197, 198, 199, 200, 201, 202, 203, 204, 205, 206, 207, 208, 209, 210, 211, 212, 213, 214, 215, 216, 217, 218, 219, 220, 221, 222, 223, 224, 225, 226, 227, 228, 229, 230, 231, 232, 233, 234, 235, 236, 237, 238, 239, 240, 241, 242, 243, 244, 245, 246, 247, 248, 249, 250, 251, 252, 253, 254, 255, 256, 257, 258, 259, 260, 261, 262, 263, 264, 265, 266, 267, 268, 269, 270, 271, 272, 273, 274, 275, 276, 277, 278, 279, 280, 281, 282, 283, 284, 285, 286, 287, 288, 289, 290, 291, 292, 293, 294, 295, 296, 297, 298, 299, 300, 301, 302, 303, 304, 305, 306, 307, 308, 309, 310, 311, 312, 313, 314, 315, 316, 317, 318, 319, 320, 321, 322, 323, 324, 325, 326, 327, 328, 329, 330, 331, 332, 333, 334, 335, 336, 337, 338, 339],
      "WindowCenter": [4828.0, 4798.0, 4802.0, 4802.0, 4828.0, 4826.0, 4828.0, 4832.0, 4834.0, 4828.0, 4830.0, 4804.0, 4824.0, 4834.0, 4802.0, 4802.0, 4826.0, 4802.0, 4804.0, 4832.0, 4834.0, 4830.0, 4828.0, 4802.0, 4822.0, 4796.0, 4796.0, 4822.0, 4828.0, 4832.0, 4824.0, 4804.0, 4802.0, 4828.0, 4828.0, 4804.0, 4828.0, 4826.0, 4826.0, 4826.0, 4802.0, 4826.0, 4826.0, 4830.0, 4830.0, 4830.0, 4830.0, 4802.0, 4802.0, 4798.0, 4830.0, 4832.0, 4830.0, 4800.0, 4804.0, 4796.0, 4798.0, 4798.0, 4802.0, 4802.0, 4830.0, 4804.0, 4826.0, 4806.0, 4806.0, 4800.0, 4802.0, 4798.0, 4830.0, 4804.0, 4808.0, 4828.0, 4800.0, 4800.0, 4802.0, 4800.0, 4804.0, 4806.0, 4828.0, 4826.0, 4830.0, 4828.0, 4826.0, 4826.0, 4830.0, 4828.0, 4822.0, 4804.0, 4796.0, 4796.0, 4800.0, 4800.0, 4802.0, 4852.0, 4826.0, 4832.0, 4822.0, 4798.0, 4792.0, 4792.0, 4796.0, 4798.0, 4826.0, 4802.0, 4826.0, 4830.0, 4830.0, 4828.0, 4796.0, 4800.0, 4796.0, 4796.0, 4796.0, 4826.0, 4824.0, 4826.0, 4852.0, 4850.0, 4826.0, 4822.0, 4796.0, 4792.0, 4796.0, 4822.0, 4824.0, 4828.0, 4798.0, 4828.0, 4826.0, 4828.0, 4826.0, 4830.0, 4802.0, 4824.0, 4828.0, 4828.0, 4800.0, 4798.0, 4826.0, 4824.0, 4830.0, 4824.0, 4826.0, 4828.0, 4796.0, 4796.0, 4798.0, 4800.0, 4806.0, 4802.0, 4826.0, 4828.0, 4828.0, 4826.0, 4826.0, 4826.0, 4802.0, 4800.0, 4802.0, 4800.0, 4798.0, 4828.0, 4826.0, 4824.0, 4828.0, 4802.0, 4826.0, 4804.0, 4828.0, 4832.0, 4830.0, 4804.0, 4804.0, 4798.0, 4802.0, 4794.0, 4826.0, 4806.0, 4826.0, 4802.0, 4830.0, 4828.0, 4828.0, 4830.0, 4826.0, 4824.0, 4802.0, 4804.0, 4826.0, 4822.0, 4802.0, 4800.0, 4800.0, 4828.0, 4826.0, 4804.0, 4832.0, 4828.0, 4830.0, 4824.0, 4798.0, 4794.0, 4796.0, 4822.0, 4824.0, 4802.0, 4826.0, 4824.0, 4804.0, 4826.0, 4826.0, 4826.0, 4822.0, 4802.0, 4804.0, 4802.0, 4800.0, 4826.0, 4826.0, 4824.0, 4826.0, 4826.0, 4824.0, 4800.0, 4800.0, 4796.0, 4800.0, 4824.0, 4828.0, 4828.0, 4824.0, 4798.0, 4826.0, 4826.0, 4830.0, 4828.0, 4824.0, 4822.0, 4824.0, 4820.0, 4822.0, 4828.0, 4824.0, 4830.0, 4830.0, 4824.0, 4794.0, 4800.0, 4792.0, 4826.0, 4800.0, 4824.0, 4804.0, 4802.0, 4802.0, 4826.0, 4828.0, 4802.0, 4824.0, 4804.0, 4826.0, 4802.0, 4830.0, 4850.0, 4830.0, 4802.0, 4800.0, 4794.0, 4796.0, 4798.0, 4802.0, 4826.0, 4826.0, 4806.0, 4832.0, 4802.0, 4824.0, 4796.0, 4798.0, 4796.0, 4804.0, 4826.0, 4822.0, 4828.0, 4826.0, 4832.0, 4828.0, 4826.0, 4796.0, 4802.0, 4794.0, 4800.0, 4804.0, 4828.0, 4826.0, 4830.0, 4832.0, 4830.0, 4828.0, 4832.0, 4828.0, 4828.0, 4832.0, 4826.0, 4802.0, 4796.0, 4800.0, 4804.0, 4828.0, 4828.0, 4830.0, 4830.0, 4828.0, 4828.0, 4826.0, 4804.0, 4826.0, 4854.0, 4854.0, 4854.0, 4826.0, 4788.0, 4754.0, 4762.0, 4800.0, 4832.0, 4854.0, 4854.0, 4828.0, 4826.0, 4792.0, 4762.0, 4800.0, 4792.0, 4824.0, 4824.0, 4832.0, 4832.0, 4826.0],
