{
  "AcquisitionMatrixPE": 104,
  "AcquisitionNumber": 1,
  "AcquisitionTime": "16:20:24.580000",
  "BandwidthPerPixelPhaseEncode": 17.17,
  "BaseResolution": 104,
  "BodyPartExamined": "BRAIN",
  "CoilCombinationMethod": "Sum of Squares",
  "ConsistencyInfo": "N4_VE11C_LATEST_20160120",
  "ConversionSoftware": "dcm2niix",
  "ConversionSoftwareVersion": "v1.0.20220505",
  "DerivedVendorReportedEchoSpacing": 0.000560011,
  "DeviceSerialNumber": "167006",
  "DwellTime": 2.1e-06,
  "EchoTime": 0.037,
  "EchoTrainLength": 104,
  "EffectiveEchoSpacing": 0.000560011,
  "FlipAngle": 52,
  "HeudiconvVersion": "0.5.3.post811+g6206e14",
  "ImageComments": "Unaliased MB4/PE3/LB",
  "ImageOrientationPatientDICOM": [0.999387, -0.0340653, 0.00806245, 0.0347248, 0.93554, -0.35151],
  "ImageOrientationText": "Tra>Cor(-20.6)>Sag(-0.3)",
  "ImageType": [
    "ORIGINAL",
    "PRIMARY",
    "M",
    "MB",
    "ND",
    "MOSAIC"
],
  "ImagingFrequency": 123.259,
  "InPlanePhaseEncodingDirectionDICOM": "COL",
  "InstitutionAddress": "Chemin Queen-Mary 4565,Montreal,District,CA,H3W 1W5",
  "InstitutionName": "IUGM",
  "InstitutionalDepartmentName": "Department",
  "MRAcquisitionType": "2D",
  "MagneticFieldStrength": 3,
  "Manufacturer": "Siemens",
  "ManufacturersModelName": "Prisma_fit",
  "MatrixCoilMode": "SENSE",
  "Modality": "MR",
  "MultibandAccelerationFactor": 4,
  "PartialFourier": 1,
  "PatientPosition": "HFS",
  "PercentPhaseFOV": 100,
  "PercentSampling": 100,
  "PhaseEncodingDirection": "j",
  "PhaseEncodingSteps": 104,
  "PhaseResolution": 1,
  "PixelBandwidth": 2290,
  "ProcedureStepDescription": "games^mario3",
  "ProtocolName": "func_task-mario3_run-03",
  "PulseSequenceDetails": "%CustomerSeq%\\cmrr_mbep2d_bold",
  "ReceiveCoilActiveElements": "HC1-7;NC1,2",
  "ReceiveCoilName": "HeadNeck_64",
  "ReconMatrixPE": 104,
  "RepetitionTime": 1.49,
  "SAR": 0.0423417,
  "ScanOptions": "FS",
  "ScanningSequence": "EP",
  "SequenceName": "epfid2d1_104",
  "SequenceVariant": "SK\\SS",
  "SeriesDescription": "func_task-mario3_run-03",
  "SeriesNumber": 16,
  "ShimSetting": [627, -7249, -8858, 543, 12, -233, -59, -18],
  "SliceThickness": 2,
  "SliceTiming": [0, 0.7825, 0.0975, 0.88, 0.195, 0.98, 0.2925, 1.0775, 0.39, 1.175, 0.49, 1.2725, 0.5875, 1.37, 0.685, 0, 0.7825, 0.0975, 0.88, 0.195, 0.98, 0.2925, 1.0775, 0.39, 1.175, 0.49, 1.2725, 0.5875, 1.37, 0.685, 0, 0.7825, 0.0975, 0.88, 0.195, 0.98, 0.2925, 1.0775, 0.39, 1.175, 0.49, 1.2725, 0.5875, 1.37, 0.685, 0, 0.7825, 0.0975, 0.88, 0.195, 0.98, 0.2925, 1.0775, 0.39, 1.175, 0.49, 1.2725, 0.5875, 1.37, 0.685],
  "SoftwareVersions": "syngo MR E11",
  "SpacingBetweenSlices": 2,
  "StationName": "MRC35049",
  "TaskName": "mario3",
  "TotalReadoutTime": 0.0576811,
  "TxRefAmp": 232.326,
  "WipMemBlock": "174f1cca-caf8-4e19-9339-cd0f2b8228f1||Sequence: R017 ve11c/master r/75a17815+; Jun 28 2022 16:32:11 by eja",
  "dcmmeta_affine": [
    [-1.9987741708755493, 0.06944950670003891, -0.008863141760230064, 102.50920867919922],
    [0.06813059002161026, 1.871079444885254, -0.7031500339508057, -67.80615997314453],
    [0.016124891117215157, 0.7030209898948669, 1.8722984790802002, -76.60822296142578],
    [0.0, 0.0, 0.0, 1.0]
],
  "dcmmeta_reorient_transform": [
    [0.0, -1.0, 0.0, 103.0],
    [1.0, 0.0, 0.0, 0.0],
    [0.0, 0.0, 1.0, 0.0],
    [0.0, 0.0, 0.0, 1.0]
],
  "dcmmeta_shape": [104, 104, 60, 353],
  "dcmmeta_slice_dim": 2,
  "dcmmeta_version": 0.6,
  "global": {
    "const": {
      "AcquisitionMatrix": [104, 0, 0, 104],
      "AngioFlag": "N",
      "BitsAllocated": 16,
      "BitsStored": 16,
      "BodyPartExamined": "BRAIN",
      "Columns": 832,
      "EchoNumbers": 1,
      "EchoTime": 37.0,
      "EchoTrainLength": 104,
      "FlipAngle": 52.0,
      "HighBit": 15,
      "ImageOrientationPatient": [0.999387088476, -0.0340652954809, 0.008062445737, 0.03472475437853, 0.93553971512281, -0.3515105017795],
      "ImagePositionPatient": [-862.4959300021, -781.18839545624, 245.83312176921],
      "ImageType": [
        "ORIGINAL",
        "PRIMARY",
        "M",
        "MB",
        "ND",
        "MOSAIC"
],
      "ImagedNucleus": "1H",
      "ImagingFrequency": 123.259032,
      "InPlanePhaseEncodingDirection": "COL",
      "MRAcquisitionType": "2D",
      "MagneticFieldStrength": 3.0,
      "Manufacturer": "SIEMENS",
      "ManufacturerModelName": "Prisma_fit",
      "Modality": "MR",
      "NumberOfAverages": 1.0,
      "NumberOfPhaseEncodingSteps": 104,
      "PercentPhaseFieldOfView": 100.0,
      "PercentSampling": 100.0,
      "PerformedProcedureStepStartTime": "155521.385000",
      "PhotometricInterpretation": "MONOCHROME2",
      "PixelBandwidth": 2290.0,
      "PixelRepresentation": 0,
      "PixelSpacing": [2.0, 2.0],
      "ProtocolName": "func_task-mario3_run-03",
      "RepetitionTime": 1490.0,
      "Rows": 832,
      "SAR": 0.04234168316321,
      "SamplesPerPixel": 1,
      "ScanOptions": "FS",
      "ScanningSequence": "EP",
      "SequenceName": "epfid2d1_104",
      "SequenceVariant": [
        "SK",
        "SS"
],
      "SeriesDescription": "func_task-mario3_run-03",
      "SeriesNumber": 16,
      "SeriesTime": "162131.612000",
      "SliceLocation": -48.332054829285,
      "SliceThickness": 2.0,
      "SmallestImagePixelValue": 0,
      "SoftwareVersions": "syngo MR E11",
      "SpacingBetweenSlices": 2.0000000295413,
      "SpecificCharacterSet": "ISO_IR 100",
      "StudyID": "1",
      "StudyTime": "155521.322000",
      "TransmitCoilName": "Body",
      "VariableFlipAngleFlag": "N",
      "WindowCenterWidthExplanation": "Algo1",
      "dBdt": 0.0},
    "slices": {}
  },
  "time": {
    "samples": {
      "AcquisitionNumber": [1, 2, 3, 4, 5, 6, 7, 8, 9, 10, 11, 12, 13, 14, 15, 16, 17, 18, 19, 20, 21, 22, 23, 24, 25, 26, 27, 28, 29, 30, 31, 32, 33, 34, 35, 36, 37, 38, 39, 40, 41, 42, 43, 44, 45, 46, 47, 48, 49, 50, 51, 52, 53, 54, 55, 56, 57, 58, 59, 60, 61, 62, 63, 64, 65, 66, 67, 68, 69, 70, 71, 72, 73, 74, 75, 76, 77, 78, 79, 80, 81, 82, 83, 84, 85, 86, 87, 88, 89, 90, 91, 92, 93, 94, 95, 96, 97, 98, 99, 100, 101, 102, 103, 104, 105, 106, 107, 108, 109, 110, 111, 112, 113, 114, 115, 116, 117, 118, 119, 120, 121, 122, 123, 124, 125, 126, 127, 128, 129, 130, 131, 132, 133, 134, 135, 136, 137, 138, 139, 140, 141, 142, 143, 144, 145, 146, 147, 148, 149, 150, 151, 152, 153, 154, 155, 156, 157, 158, 159, 160, 161, 162, 163, 164, 165, 166, 167, 168, 169, 170, 171, 172, 173, 174, 175, 176, 177, 178, 179, 180, 181, 182, 183, 184, 185, 186, 187, 188, 189, 190, 191, 192, 193, 194, 195, 196, 197, 198, 199, 200, 201, 202, 203, 204, 205, 206, 207, 208, 209, 210, 211, 212, 213, 214, 215, 216, 217, 218, 219, 220, 221, 222, 223, 224, 225, 226, 227, 228, 229, 230, 231, 232, 233, 234, 235, 236, 237, 238, 239, 240, 241, 242, 243, 244, 245, 246, 247, 248, 249, 250, 251, 252, 253, 254, 255, 256, 257, 258, 259, 260, 261, 262, 263, 264, 265, 266, 267, 268, 269, 270, 271, 272, 273, 274, 275, 276, 277, 278, 279, 280, 281, 282, 283, 284, 285, 286, 287, 288, 289, 290, 291, 292, 293, 294, 295, 296, 297, 298, 299, 300, 301, 302, 303, 304, 305, 306, 307, 308, 309, 310, 311, 312, 313, 314, 315, 316, 317, 318, 319, 320, 321, 322, 323, 324, 325, 326, 327, 328, 329, 330, 331, 332, 333, 334, 335, 336, 337, 338, 339, 340, 341, 342, 343, 344, 345, 346, 347, 348, 349, 350, 351, 352, 353],
      "AcquisitionTime": ["162024.580000", "162026.070000", "162027.560000", "162029.050000", "162030.540000", "162032.030000", "162033.520000", "162035.010000", "162036.500000", "162037.990000", "162039.480000", "162040.970000", "162042.460000", "162043.950000", "162045.440000", "162046.930000", "162048.420000", "162049.910000", "162051.400000", "162052.890000", "162054.380000", "162055.870000", "162057.360000", "162058.850000", "162100.340000", "162101.830000", "162103.320000", "162104.810000", "162106.300000", "162107.790000", "162109.280000", "162110.770000", "162112.260000", "162113.750000", "162115.240000", "162116.730000", "162118.220000", "162119.710000", "162121.200000", "162122.690000", "162124.180000", "162125.670000", "162127.160000", "162128.650000", "162130.140000", "162131.630000", "162133.120000", "162134.610000", "162136.100000", "162137.590000", "162139.080000", "162140.570000", "162142.060000", "162143.550000", "162145.040000", "162146.530000", "162148.020000", "162149.510000", "162151.000000", "162152.490000", "162153.980000", "162155.470000", "162156.960000", "162158.450000", "162159.940000", "162201.430000", "162202.920000", "162204.410000", "162205.900000", "162207.390000", "162208.880000", "162210.370000", "162211.860000", "162213.350000", "162214.840000", "162216.330000", "162217.820000", "162219.310000", "162220.800000", "162222.290000", "162223.780000", "162225.270000", "162226.760000", "162228.250000", "162229.740000", "162231.230000", "162232.720000", "162234.210000", "162235.700000", "162237.190000", "162238.680000", "162240.170000", "162241.660000", "162243.150000", "162244.640000", "162246.130000", "162247.620000", "162249.110000", "162250.600000", "162252.090000", "162253.580000", "162255.070000", "162256.560000", "162258.050000", "162259.540000", "162301.030000", "162302.520000", "162304.010000", "162305.500000", "162306.990000", "162308.480000", "162309.970000", "162311.460000", "162312.950000", "162314.440000", "162315.930000", "162317.420000", "162318.910000", "162320.400000", "162321.890000", "162323.380000", "162324.870000", "162326.360000", "162327.850000", "162329.340000", "162330.830000", "162332.320000", "162333.810000", "162335.300000", "162336.790000", "162338.280000", "162339.770000", "162341.260000", "162342.750000", "162344.240000", "162345.730000", "162347.220000", "162348.710000", "162350.200000", "162351.690000", "162353.180000", "162354.670000", "162356.160000", "162357.650000", "162359.140000", "162400.630000", "162402.120000", "162403.610000", "162405.100000", "162406.590000", "162408.080000", "162409.570000", "162411.060000", "162412.550000", "162414.040000", "162415.530000", "162417.020000", "162418.510000", "162420.000000", "162421.490000", "162422.980000", "162424.470000", "162425.960000", "162427.450000", "162428.940000", "162430.430000", "162431.920000", "162433.410000", "162434.900000", "162436.390000", "162437.880000", "162439.370000", "162440.860000", "162442.350000", "162443.840000", "162445.330000", "162446.820000", "162448.310000", "162449.800000", "162451.290000", "162452.780000", "162454.270000", "162455.760000", "162457.250000", "162458.740000", "162500.230000", "162501.720000", "162503.210000", "162504.700000", "162506.190000", "162507.680000", "162509.170000", "162510.660000", "162512.150000", "162513.640000", "162515.130000", "162516.620000", "162518.110000", "162519.600000", "162521.090000", "162522.580000", "162524.070000", "162525.560000", "162527.050000", "162528.540000", "162530.030000", "162531.520000", "162533.010000", "162534.500000", "162535.990000", "162537.480000", "162538.970000", "162540.460000", "162541.950000", "162543.440000", "162544.930000", "162546.420000", "162547.910000", "162549.400000", "162550.890000", "162552.380000", "162553.870000", "162555.360000", "162556.850000", "162558.340000", "162559.830000", "162601.320000", "162602.810000", "162604.300000", "162605.790000", "162607.280000", "162608.770000", "162610.260000", "162611.750000", "162613.240000", "162614.730000", "162616.220000", "162617.710000", "162619.200000", "162620.690000", "162622.180000", "162623.670000", "162625.160000", "162626.650000", "162628.140000", "162629.630000", "162631.120000", "162632.610000", "162634.100000", "162635.590000", "162637.080000", "162638.570000", "162640.060000", "162641.550000", "162643.040000", "162644.530000", "162646.020000", "162647.510000", "162649.000000", "162650.490000", "162651.980000", "162653.470000", "162654.960000", "162656.450000", "162657.940000", "162659.430000", "162700.920000", "162702.410000", "162703.900000", "162705.390000", "162706.880000", "162708.370000", "162709.860000", "162711.350000", "162712.840000", "162714.330000", "162715.820000", "162717.310000", "162718.800000", "162720.290000", "162721.780000", "162723.270000", "162724.760000", "162726.250000", "162727.740000", "162729.230000", "162730.720000", "162732.210000", "162733.700000", "162735.190000", "162736.680000", "162738.170000", "162739.660000", "162741.150000", "162742.640000", "162744.130000", "162745.620000", "162747.110000", "162748.600000", "162750.090000", "162751.580000", "162753.070000", "162754.560000", "162756.050000", "162757.540000", "162759.030000", "162800.520000", "162802.010000", "162803.500000", "162804.990000", "162806.480000", "162807.970000", "162809.460000", "162810.950000", "162812.440000", "162813.930000", "162815.420000", "162816.910000", "162818.400000", "162819.890000", "162821.380000", "162822.870000", "162824.360000", "162825.850000", "162827.340000", "162828.830000", "162830.320000", "162831.810000", "162833.300000", "162834.790000", "162836.280000", "162837.770000", "162839.260000", "162840.750000", "162842.240000", "162843.730000", "162845.220000", "162846.710000", "162848.200000", "162849.690000", "162851.180000", "162852.670000", "162854.160000", "162855.650000", "162857.140000", "162858.630000", "162900.120000", "162901.610000", "162903.100000", "162904.590000", "162906.080000", "162907.570000", "162909.060000"],
      "ContentTime": ["162131.615000", "162131.619000", "162131.622000", "162131.625000", "162131.629000", "162131.632000", "162131.636000", "162131.639000", "162131.642000", "162131.646000", "162131.649000", "162131.652000", "162131.656000", "162131.672000", "162131.675000", "162131.678000", "162131.682000", "162131.691000", "162151.570000", "162151.574000", "162151.577000", "162151.581000", "162151.584000", "162151.587000", "162151.591000", "162151.594000", "162151.597000", "162151.601000", "162151.604000", "162151.608000", "162151.620000", "162151.623000", "162151.626000", "162151.630000", "162151.633000", "162151.636000", "162151.640000", "162151.643000", "162211.570000", "162211.574000", "162211.577000", "162211.581000", "162211.584000", "162211.587000", "162211.590000", "162211.594000", "162211.597000", "162211.601000", "162211.604000", "162211.608000", "162211.611000", "162211.615000", "162211.618000", "162211.621000", "162211.625000", "162211.628000", "162211.631000", "162211.641000", "162231.570000", "162231.574000", "162231.577000", "162231.581000", "162231.584000", "162231.587000", "162231.591000", "162231.594000", "162231.598000", "162231.601000", "162231.604000", "162231.608000", "162231.611000", "162231.615000", "162231.618000", "162231.621000", "162231.625000", "162231.628000", "162231.631000", "162231.635000", "162231.638000", "162311.569000", "162311.573000", "162311.576000", "162311.580000", "162311.583000", "162311.586000", "162311.590000", "162311.593000", "162311.597000", "162311.600000", "162311.603000", "162311.607000", "162311.610000", "162311.614000", "162311.617000", "162311.620000", "162311.624000", "162311.627000", "162311.630000", "162311.634000", "162311.637000", "162311.642000", "162311.645000", "162311.649000", "162311.652000", "162311.655000", "162311.659000", "162311.662000", "162311.666000", "162311.669000", "162311.672000", "162311.676000", "162351.570000", "162351.574000", "162351.577000", "162351.581000", "162351.584000", "162351.587000", "162351.591000", "162351.594000", "162351.598000", "162351.601000", "162351.605000", "162351.608000", "162351.611000", "162351.615000", "162351.618000", "162351.622000", "162351.625000", "162351.628000", "162351.632000", "162351.635000", "162351.638000", "162351.642000", "162351.645000", "162351.649000", "162351.652000", "162351.655000", "162351.659000", "162431.570000", "162431.574000", "162431.577000", "162431.581000", "162431.584000", "162431.588000", "162431.591000", "162431.595000", "162431.598000", "162431.601000", "162431.605000", "162431.608000", "162431.612000", "162431.615000", "162431.619000", "162431.622000", "162431.625000", "162431.629000", "162431.632000", "162431.636000", "162431.639000", "162431.642000", "162431.646000", "162431.649000", "162431.652000", "162431.656000", "162431.659000", "162511.569000", "162511.573000", "162511.577000", "162511.580000", "162511.583000", "162511.587000", "162511.590000", "162511.593000", "162511.597000", "162511.600000", "162511.604000", "162511.607000", "162511.610000", "162511.614000", "162511.617000", "162511.621000", "162511.624000", "162511.627000", "162511.631000", "162511.634000", "162511.638000", "162511.641000", "162511.644000", "162511.648000", "162511.651000", "162511.655000", "162511.658000", "162551.569000", "162551.573000", "162551.576000", "162551.580000", "162551.583000", "162551.587000", "162551.590000", "162551.593000", "162551.597000", "162551.600000", "162551.604000", "162551.607000", "162551.611000", "162551.614000", "162551.618000", "162551.621000", "162551.633000", "162551.660000", "162551.664000", "162551.667000", "162551.671000", "162551.674000", "162551.677000", "162551.681000", "162551.684000", "162551.688000", "162551.691000", "162631.570000", "162631.574000", "162631.578000", "162631.581000", "162631.584000", "162631.588000", "162631.591000", "162631.595000", "162631.598000", "162631.602000", "162631.605000", "162631.608000", "162631.612000", "162631.615000", "162631.618000", "162631.622000", "162631.625000", "162631.629000", "162631.632000", "162631.635000", "162631.639000", "162631.642000", "162631.646000", "162631.649000", "162631.652000", "162631.656000", "162631.659000", "162711.570000", "162711.574000", "162711.577000", "162711.581000", "162711.584000", "162711.588000", "162711.591000", "162711.595000", "162711.598000", "162711.602000", "162711.605000", "162711.608000", "162711.612000", "162711.615000", "162711.618000", "162711.622000", "162711.625000", "162711.629000", "162711.632000", "162711.635000", "162711.639000", "162711.642000", "162711.646000", "162711.649000", "162711.654000", "162711.659000", "162751.569000", "162751.573000", "162751.576000", "162751.580000", "162751.583000", "162751.587000", "162751.590000", "162751.593000", "162751.597000", "162751.600000", "162751.604000", "162751.607000", "162751.611000", "162751.614000", "162751.617000", "162751.621000", "162751.624000", "162751.628000", "162751.631000", "162751.634000", "162751.638000", "162751.641000", "162751.644000", "162751.648000", "162751.651000", "162751.655000", "162751.658000", "162831.570000", "162831.574000", "162831.577000", "162831.581000", "162831.584000", "162831.588000", "162831.591000", "162831.594000", "162831.598000", "162831.601000", "162831.605000", "162831.608000", "162831.612000", "162831.615000", "162831.618000", "162831.622000", "162831.625000", "162831.629000", "162831.632000", "162831.635000", "162831.639000", "162831.642000", "162831.646000", "162831.649000", "162831.652000", "162831.656000", "162831.659000", "162911.570000", "162911.574000", "162911.577000", "162911.581000", "162911.584000", "162911.588000", "162911.591000", "162911.594000", "162911.598000", "162911.601000", "162911.605000", "162911.608000", "162911.612000", "162911.616000", "162911.621000", "162911.625000", "162911.632000", "162911.635000", "162911.640000", "162911.644000", "162911.648000", "162911.652000", "162911.657000", "162911.661000", "162911.664000", "162911.668000", "162911.675000"],
      "InstanceCreationTime": ["162131.615000", "162131.619000", "162131.622000", "162131.625000", "162131.629000", "162131.632000", "162131.636000", "162131.639000", "162131.642000", "162131.646000", "162131.649000", "162131.652000", "162131.656000", "162131.672000", "162131.675000", "162131.678000", "162131.682000", "162131.691000", "162151.570000", "162151.574000", "162151.577000", "162151.581000", "162151.584000", "162151.587000", "162151.591000", "162151.594000", "162151.597000", "162151.601000", "162151.604000", "162151.608000", "162151.620000", "162151.623000", "162151.626000", "162151.630000", "162151.633000", "162151.636000", "162151.640000", "162151.643000", "162211.570000", "162211.574000", "162211.577000", "162211.581000", "162211.584000", "162211.587000", "162211.590000", "162211.594000", "162211.597000", "162211.601000", "162211.604000", "162211.608000", "162211.611000", "162211.615000", "162211.618000", "162211.621000", "162211.625000", "162211.628000", "162211.631000", "162211.641000", "162231.570000", "162231.574000", "162231.577000", "162231.581000", "162231.584000", "162231.587000", "162231.591000", "162231.594000", "162231.598000", "162231.601000", "162231.604000", "162231.608000", "162231.611000", "162231.615000", "162231.618000", "162231.621000", "162231.625000", "162231.628000", "162231.631000", "162231.635000", "162231.638000", "162311.569000", "162311.573000", "162311.576000", "162311.580000", "162311.583000", "162311.586000", "162311.590000", "162311.593000", "162311.597000", "162311.600000", "162311.603000", "162311.607000", "162311.610000", "162311.614000", "162311.617000", "162311.620000", "162311.624000", "162311.627000", "162311.630000", "162311.634000", "162311.637000", "162311.642000", "162311.645000", "162311.649000", "162311.652000", "162311.655000", "162311.659000", "162311.662000", "162311.666000", "162311.669000", "162311.672000", "162311.676000", "162351.570000", "162351.574000", "162351.577000", "162351.581000", "162351.584000", "162351.587000", "162351.591000", "162351.594000", "162351.598000", "162351.601000", "162351.605000", "162351.608000", "162351.611000", "162351.615000", "162351.618000", "162351.622000", "162351.625000", "162351.628000", "162351.632000", "162351.635000", "162351.638000", "162351.642000", "162351.645000", "162351.649000", "162351.652000", "162351.655000", "162351.659000", "162431.570000", "162431.574000", "162431.577000", "162431.581000", "162431.584000", "162431.588000", "162431.591000", "162431.595000", "162431.598000", "162431.601000", "162431.605000", "162431.608000", "162431.612000", "162431.615000", "162431.619000", "162431.622000", "162431.625000", "162431.629000", "162431.632000", "162431.636000", "162431.639000", "162431.642000", "162431.646000", "162431.649000", "162431.652000", "162431.656000", "162431.659000", "162511.569000", "162511.573000", "162511.577000", "162511.580000", "162511.583000", "162511.587000", "162511.590000", "162511.593000", "162511.597000", "162511.600000", "162511.604000", "162511.607000", "162511.610000", "162511.614000", "162511.617000", "162511.621000", "162511.624000", "162511.627000", "162511.631000", "162511.634000", "162511.638000", "162511.641000", "162511.644000", "162511.648000", "162511.651000", "162511.655000", "162511.658000", "162551.569000", "162551.573000", "162551.576000", "162551.580000", "162551.583000", "162551.587000", "162551.590000", "162551.593000", "162551.597000", "162551.600000", "162551.604000", "162551.607000", "162551.611000", "162551.614000", "162551.618000", "162551.621000", "162551.633000", "162551.660000", "162551.664000", "162551.667000", "162551.671000", "162551.674000", "162551.677000", "162551.681000", "162551.684000", "162551.688000", "162551.691000", "162631.570000", "162631.574000", "162631.578000", "162631.581000", "162631.584000", "162631.588000", "162631.591000", "162631.595000", "162631.598000", "162631.602000", "162631.605000", "162631.608000", "162631.612000", "162631.615000", "162631.618000", "162631.622000", "162631.625000", "162631.629000", "162631.632000", "162631.635000", "162631.639000", "162631.642000", "162631.646000", "162631.649000", "162631.652000", "162631.656000", "162631.659000", "162711.570000", "162711.574000", "162711.577000", "162711.581000", "162711.584000", "162711.588000", "162711.591000", "162711.595000", "162711.598000", "162711.602000", "162711.605000", "162711.608000", "162711.612000", "162711.615000", "162711.618000", "162711.622000", "162711.625000", "162711.629000", "162711.632000", "162711.635000", "162711.639000", "162711.642000", "162711.646000", "162711.649000", "162711.654000", "162711.659000", "162751.569000", "162751.573000", "162751.576000", "162751.580000", "162751.583000", "162751.587000", "162751.590000", "162751.593000", "162751.597000", "162751.600000", "162751.604000", "162751.607000", "162751.611000", "162751.614000", "162751.617000", "162751.621000", "162751.624000", "162751.628000", "162751.631000", "162751.634000", "162751.638000", "162751.641000", "162751.644000", "162751.648000", "162751.651000", "162751.655000", "162751.658000", "162831.570000", "162831.574000", "162831.577000", "162831.581000", "162831.584000", "162831.588000", "162831.591000", "162831.594000", "162831.598000", "162831.601000", "162831.605000", "162831.608000", "162831.612000", "162831.615000", "162831.618000", "162831.622000", "162831.625000", "162831.629000", "162831.632000", "162831.635000", "162831.639000", "162831.642000", "162831.646000", "162831.649000", "162831.652000", "162831.656000", "162831.659000", "162911.570000", "162911.574000", "162911.577000", "162911.581000", "162911.584000", "162911.588000", "162911.591000", "162911.594000", "162911.598000", "162911.601000", "162911.605000", "162911.608000", "162911.612000", "162911.616000", "162911.621000", "162911.625000", "162911.632000", "162911.635000", "162911.640000", "162911.644000", "162911.648000", "162911.652000", "162911.657000", "162911.661000", "162911.664000", "162911.668000", "162911.675000"],
      "InstanceNumber": [1, 2, 3, 4, 5, 6, 7, 8, 9, 10, 11, 12, 13, 14, 15, 16, 17, 18, 19, 20, 21, 22, 23, 24, 25, 26, 27, 28, 29, 30, 31, 32, 33, 34, 35, 36, 37, 38, 39, 40, 41, 42, 43, 44, 45, 46, 47, 48, 49, 50, 51, 52, 53, 54, 55, 56, 57, 58, 59, 60, 61, 62, 63, 64, 65, 66, 67, 68, 69, 70, 71, 72, 73, 74, 75, 76, 77, 78, 79, 80, 81, 82, 83, 84, 85, 86, 87, 88, 89, 90, 91, 92, 93, 94, 95, 96, 97, 98, 99, 100, 101, 102, 103, 104, 105, 106, 107, 108, 109, 110, 111, 112, 113, 114, 115, 116, 117, 118, 119, 120, 121, 122, 123, 124, 125, 126, 127, 128, 129, 130, 131, 132, 133, 134, 135, 136, 137, 138, 139, 140, 141, 142, 143, 144, 145, 146, 147, 148, 149, 150, 151, 152, 153, 154, 155, 156, 157, 158, 159, 160, 161, 162, 163, 164, 165, 166, 167, 168, 169, 170, 171, 172, 173, 174, 175, 176, 177, 178, 179, 180, 181, 182, 183, 184, 185, 186, 187, 188, 189, 190, 191, 192, 193, 194, 195, 196, 197, 198, 199, 200, 201, 202, 203, 204, 205, 206, 207, 208, 209, 210, 211, 212, 213, 214, 215, 216, 217, 218, 219, 220, 221, 222, 223, 224, 225, 226, 227, 228, 229, 230, 231, 232, 233, 234, 235, 236, 237, 238, 239, 240, 241, 242, 243, 244, 245, 246, 247, 248, 249, 250, 251, 252, 253, 254, 255, 256, 257, 258, 259, 260, 261, 262, 263, 264, 265, 266, 267, 268, 269, 270, 271, 272, 273, 274, 275, 276, 277, 278, 279, 280, 281, 282, 283, 284, 285, 286, 287, 288, 289, 290, 291, 292, 293, 294, 295, 296, 297, 298, 299, 300, 301, 302, 303, 304, 305, 306, 307, 308, 309, 310, 311, 312, 313, 314, 315, 316, 317, 318, 319, 320, 321, 322, 323, 324, 325, 326, 327, 328, 329, 330, 331, 332, 333, 334, 335, 336, 337, 338, 339, 340, 341, 342, 343, 344, 345, 346, 347, 348, 349, 350, 351, 352, 353],
      "LargestImagePixelValue": [40717, 39049, 38425, 37562, 37904, 38437, 37419, 38062, 37678, 37902, 38117, 37615, 37583, 37710, 37578, 37612, 37786, 37785, 37379, 37934, 37439, 37418, 37877, 38040, 37743, 37297, 38635, 38790, 37937, 38622, 38205, 38109, 38092, 38493, 38459, 39209, 39084, 38592, 38780, 38895, 38242, 38748, 38647, 38188, 38326, 39285, 40135, 39185, 39129, 39640, 39559, 40260, 40595, 40087, 40121, 39888, 39790, 39621, 39691, 39822, 40096, 40814, 40554, 40482, 40165, 40255, 39657, 40204, 38927, 39411, 40280, 40096, 40181, 40338, 40008, 40196, 40234, 40633, 40643, 40112, 40311, 40562, 40602, 40155, 40417, 37753, 37389, 39025, 38015, 37891, 37087, 37664, 38437, 38598, 37993, 37948, 38404, 37323, 37929, 38339, 39143, 38314, 39315, 38858, 39411, 40667, 39487, 40321, 40265, 39606, 39506, 39253, 39454, 38852, 38811, 38872, 38992, 39297, 39327, 39413, 39765, 39190, 39073, 38967, 39692, 38921, 39098, 39185, 38811, 39240, 39172, 39828, 38013, 37444, 39014, 38103, 38806, 39240, 38699, 38615, 37922, 38524, 38732, 39186, 38931, 38726, 39476, 38955, 39640, 40065, 38724, 38657, 38818, 39102, 38440, 38305, 38307, 38923, 38433, 38177, 37736, 36596, 37174, 38737, 39840, 38837, 37349, 37665, 37462, 37065, 37237, 37065, 37690, 39438, 38735, 37558, 38304, 37770, 38573, 37836, 37084, 37662, 40575, 38807, 38285, 38184, 37298, 36856, 37201, 37899, 38634, 38445, 38553, 39049, 38548, 37464, 38762, 38761, 39188, 39890, 39430, 39368, 39374, 38624, 39129, 38915, 39283, 38869, 39123, 39207, 38918, 38714, 37731, 37616, 37740, 36994, 37590, 36293, 37978, 38831, 37458, 37469, 37578, 38083, 37952, 38309, 38047, 38223, 38066, 37870, 35988, 38001, 37648, 37723, 37816, 37360, 36674, 36716, 38485, 38700, 37560, 38048, 38046, 38313, 38691, 38700, 37365, 37765, 37369, 36691, 38157, 37742, 37657, 36936, 37088, 37006, 38497, 38293, 38042, 37718, 37438, 36036, 36906, 36790, 37302, 36041, 36599, 36463, 36712, 37873, 37746, 37626, 36285, 37700, 37291, 38650, 38414, 38072, 38182, 38039, 38416, 38232, 37738, 37193, 37217, 37223, 37787, 37487, 37739, 37473, 37338, 38048, 37489, 37071, 37569, 37914, 37910, 38075, 38126, 38243, 37555, 38343, 37144, 37578, 37736, 37666, 37660, 37602, 37947, 36901, 37027, 38036, 37898, 37831, 37723, 38416, 38061, 38698, 38531, 38466, 38060, 38622, 38205, 38411, 38619, 38333, 37095, 38712, 37840, 38021, 37502, 38029, 38422, 37877, 38618, 38336, 37291, 37094, 38857, 36940, 37443, 38003, 37470, 37026, 36539, 37250, 37449, 37700, 37808, 37861, 37872, 37870, 37455],
