{
  "AcquisitionMatrixPE": 104,
  "AcquisitionNumber": 1,
  "AcquisitionTime": "15:58:30.515000",
  "BandwidthPerPixelPhaseEncode": 17.17,
  "BaseResolution": 104,
  "BodyPartExamined": "BRAIN",
  "CoilCombinationMethod": "Sum of Squares",
  "ConsistencyInfo": "N4_VE11C_LATEST_20160120",
  "ConversionSoftware": "dcm2niix",
  "ConversionSoftwareVersion": "v1.0.20220505",
  "DerivedVendorReportedEchoSpacing": 0.000560011,
  "DeviceSerialNumber": "167006",
  "DwellTime": 2.1e-06,
  "EchoTime": 0.037,
  "EchoTime1": 0.037,
  "EchoTime2": 0.001,
  "EchoTrainLength": 104,
  "EffectiveEchoSpacing": 0.000560011,
  "FlipAngle": 52,
  "HeudiconvVersion": "0.5.3.post811+g6206e14",
  "ImageComments": "Unaliased MB4/PE3/LB",
  "ImageOrientationPatientDICOM": [0.999387, -0.0340653, 0.00806245, 0.0347248, 0.93554, -0.35151],
  "ImageOrientationText": "Tra>Cor(-20.6)>Sag(-0.3)",
  "ImageType": [
    "ORIGINAL",
    "PRIMARY",
    "P",
    "MB",
    "ND",
    "MOSAIC",
    "PHASE"
],
  "ImagingFrequency": 123.259,
  "InPlanePhaseEncodingDirectionDICOM": "COL",
  "InstitutionAddress": "Chemin Queen-Mary 4565,Montreal,District,CA,H3W 1W5",
  "InstitutionName": "IUGM",
  "InstitutionalDepartmentName": "Department",
  "MRAcquisitionType": "2D",
  "MagneticFieldStrength": 3,
  "Manufacturer": "Siemens",
  "ManufacturersModelName": "Prisma_fit",
  "MatrixCoilMode": "SENSE",
  "Modality": "MR",
  "MultibandAccelerationFactor": 4,
  "PartialFourier": 1,
  "PatientPosition": "HFS",
  "PercentPhaseFOV": 100,
  "PercentSampling": 100,
  "PhaseEncodingDirection": "j",
  "PhaseEncodingSteps": 104,
  "PhaseResolution": 1,
  "PixelBandwidth": 2290,
  "ProcedureStepDescription": "games^mario3",
  "ProtocolName": "func_task-mario3_run-01",
  "PulseSequenceDetails": "%CustomerSeq%\\cmrr_mbep2d_bold",
  "ReceiveCoilActiveElements": "HC1-7;NC1,2",
  "ReceiveCoilName": "HeadNeck_64",
  "ReconMatrixPE": 104,
  "RepetitionTime": 1.49,
  "SAR": 0.0423417,
  "ScanOptions": "FS",
  "ScanningSequence": "EP",
  "SequenceName": "epfid2d1_104",
  "SequenceVariant": "SK\\SS",
  "SeriesDescription": "func_task-mario3_run-01",
  "SeriesNumber": 11,
  "ShimSetting": [627, -7249, -8858, 543, 12, -233, -59, -18],
  "SliceThickness": 2,
  "SliceTiming": [0, 0.785, 0.1, 0.8825, 0.1975, 0.98, 0.295, 1.08, 0.3925, 1.1775, 0.49, 1.275, 0.59, 1.3725, 0.6875, 0, 0.785, 0.1, 0.8825, 0.1975, 0.98, 0.295, 1.08, 0.3925, 1.1775, 0.49, 1.275, 0.59, 1.3725, 0.6875, 0, 0.785, 0.1, 0.8825, 0.1975, 0.98, 0.295, 1.08, 0.3925, 1.1775, 0.49, 1.275, 0.59, 1.3725, 0.6875, 0, 0.785, 0.1, 0.8825, 0.1975, 0.98, 0.295, 1.08, 0.3925, 1.1775, 0.49, 1.275, 0.59, 1.3725, 0.6875],
  "SoftwareVersions": "syngo MR E11",
  "SpacingBetweenSlices": 2,
  "StationName": "MRC35049",
  "TaskName": "mario3",
  "TotalReadoutTime": 0.0576811,
  "TxRefAmp": 232.326,
  "WipMemBlock": "b19cec0d-6db1-4b70-aa5d-a37db923e438||Sequence: R017 ve11c/master r/75a17815+; Jun 28 2022 16:32:11 by eja",
  "dcmmeta_affine": [
    [-1.9987741708755493, 0.06944950670003891, -0.008863141760230064, 102.50920867919922],
    [0.06813059002161026, 1.871079444885254, -0.7031500339508057, -67.80615997314453],
    [0.016124891117215157, 0.7030209898948669, 1.8722984790802002, -76.60822296142578],
    [0.0, 0.0, 0.0, 1.0]
],
  "dcmmeta_reorient_transform": [
    [0.0, -1.0, 0.0, 103.0],
    [1.0, 0.0, 0.0, 0.0],
    [0.0, 0.0, 1.0, 0.0],
    [0.0, 0.0, 0.0, 1.0]
],
  "dcmmeta_shape": [104, 104, 60, 354],
  "dcmmeta_slice_dim": 2,
  "dcmmeta_version": 0.6,
  "global": {
    "const": {
      "AcquisitionMatrix": [104, 0, 0, 104],
      "AngioFlag": "N",
      "BitsAllocated": 16,
      "BitsStored": 16,
      "BodyPartExamined": "BRAIN",
      "Columns": 832,
      "EchoNumbers": 1,
      "EchoTime": 37.0,
      "EchoTrainLength": 104,
      "FlipAngle": 52.0,
      "HighBit": 15,
      "ImageOrientationPatient": [0.999387088476, -0.0340652954809, 0.008062445737, 0.03472475437853, 0.93553971512281, -0.3515105017795],
      "ImagePositionPatient": [-862.4959300021, -781.18839545624, 245.83312176921],
      "ImageType": [
        "ORIGINAL",
        "PRIMARY",
        "P",
        "MB",
        "ND",
        "MOSAIC"
],
      "ImagedNucleus": "1H",
      "ImagingFrequency": 123.259021,
      "InPlanePhaseEncodingDirection": "COL",
      "LargestImagePixelValue": 4095,
      "MRAcquisitionType": "2D",
      "MagneticFieldStrength": 3.0,
      "Manufacturer": "SIEMENS",
      "ManufacturerModelName": "Prisma_fit",
      "Modality": "MR",
      "NumberOfAverages": 1.0,
      "NumberOfPhaseEncodingSteps": 104,
      "PercentPhaseFieldOfView": 100.0,
      "PercentSampling": 100.0,
      "PerformedProcedureStepStartTime": "155521.385000",
      "PhotometricInterpretation": "MONOCHROME2",
      "PixelBandwidth": 2290.0,
      "PixelRepresentation": 0,
      "PixelSpacing": [2.0, 2.0],
      "ProtocolName": "func_task-mario3_run-01",
      "RepetitionTime": 1490.0,
      "RescaleIntercept": -4096.0,
      "RescaleSlope": 2.0,
      "RescaleType": "US",
      "Rows": 832,
      "SAR": 0.04234168316321,
      "SamplesPerPixel": 1,
      "ScanOptions": "FS",
      "ScanningSequence": "EP",
      "SequenceName": "epfid2d1_104",
      "SequenceVariant": [
        "SK",
        "SS"
],
      "SeriesDescription": "func_task-mario3_run-01",
      "SeriesNumber": 11,
      "SeriesTime": "155944.035000",
      "SliceLocation": -48.332054829285,
      "SliceThickness": 2.0,
      "SmallestImagePixelValue": 0,
      "SoftwareVersions": "syngo MR E11",
      "SpacingBetweenSlices": 2.0000000295413,
      "SpecificCharacterSet": "ISO_IR 100",
      "StudyID": "1",
      "StudyTime": "155521.322000",
      "TransmitCoilName": "Body",
      "VariableFlipAngleFlag": "N",
      "WindowCenterWidthExplanation": "Algo1",
      "dBdt": 0.0},
    "slices": {}
  },
  "time": {
    "samples": {
      "AcquisitionNumber": [1, 2, 3, 4, 5, 6, 7, 8, 9, 10, 11, 12, 13, 14, 15, 16, 17, 18, 19, 20, 21, 22, 23, 24, 25, 26, 27, 28, 29, 30, 31, 32, 33, 34, 35, 36, 37, 38, 39, 40, 41, 42, 43, 44, 45, 46, 47, 48, 49, 50, 51, 52, 53, 54, 55, 56, 57, 58, 59, 60, 61, 62, 63, 64, 65, 66, 67, 68, 69, 70, 71, 72, 73, 74, 75, 76, 77, 78, 79, 80, 81, 82, 83, 84, 85, 86, 87, 88, 89, 90, 91, 92, 93, 94, 95, 96, 97, 98, 99, 100, 101, 102, 103, 104, 105, 106, 107, 108, 109, 110, 111, 112, 113, 114, 115, 116, 117, 118, 119, 120, 121, 122, 123, 124, 125, 126, 127, 128, 129, 130, 131, 132, 133, 134, 135, 136, 137, 138, 139, 140, 141, 142, 143, 144, 145, 146, 147, 148, 149, 150, 151, 152, 153, 154, 155, 156, 157, 158, 159, 160, 161, 162, 163, 164, 165, 166, 167, 168, 169, 170, 171, 172, 173, 174, 175, 176, 177, 178, 179, 180, 181, 182, 183, 184, 185, 186, 187, 188, 189, 190, 191, 192, 193, 194, 195, 196, 197, 198, 199, 200, 201, 202, 203, 204, 205, 206, 207, 208, 209, 210, 211, 212, 213, 214, 215, 216, 217, 218, 219, 220, 221, 222, 223, 224, 225, 226, 227, 228, 229, 230, 231, 232, 233, 234, 235, 236, 237, 238, 239, 240, 241, 242, 243, 244, 245, 246, 247, 248, 249, 250, 251, 252, 253, 254, 255, 256, 257, 258, 259, 260, 261, 262, 263, 264, 265, 266, 267, 268, 269, 270, 271, 272, 273, 274, 275, 276, 277, 278, 279, 280, 281, 282, 283, 284, 285, 286, 287, 288, 289, 290, 291, 292, 293, 294, 295, 296, 297, 298, 299, 300, 301, 302, 303, 304, 305, 306, 307, 308, 309, 310, 311, 312, 313, 314, 315, 316, 317, 318, 319, 320, 321, 322, 323, 324, 325, 326, 327, 328, 329, 330, 331, 332, 333, 334, 335, 336, 337, 338, 339, 340, 341, 342, 343, 344, 345, 346, 347, 348, 349, 350, 351, 352, 353, 354],
      "AcquisitionTime": ["155830.515000", "155832.005000", "155833.495000", "155834.985000", "155836.475000", "155837.965000", "155839.455000", "155840.945000", "155842.435000", "155843.925000", "155845.415000", "155846.905000", "155848.395000", "155849.885000", "155851.375000", "155852.865000", "155854.355000", "155855.845000", "155857.335000", "155858.825000", "155900.315000", "155901.805000", "155903.295000", "155904.785000", "155906.275000", "155907.765000", "155909.255000", "155910.745000", "155912.235000", "155913.725000", "155915.215000", "155916.705000", "155918.195000", "155919.685000", "155921.175000", "155922.665000", "155924.155000", "155925.645000", "155927.135000", "155928.625000", "155930.115000", "155931.605000", "155933.095000", "155934.585000", "155936.075000", "155937.565000", "155939.055000", "155940.545000", "155942.035000", "155943.525000", "155945.015000", "155946.505000", "155947.995000", "155949.485000", "155950.975000", "155952.465000", "155953.955000", "155955.445000", "155956.935000", "155958.425000", "155959.915000", "160001.405000", "160002.895000", "160004.385000", "160005.875000", "160007.365000", "160008.855000", "160010.345000", "160011.835000", "160013.325000", "160014.815000", "160016.305000", "160017.795000", "160019.285000", "160020.775000", "160022.265000", "160023.755000", "160025.245000", "160026.735000", "160028.225000", "160029.715000", "160031.205000", "160032.695000", "160034.185000", "160035.675000", "160037.165000", "160038.655000", "160040.145000", "160041.635000", "160043.125000", "160044.615000", "160046.105000", "160047.595000", "160049.085000", "160050.575000", "160052.065000", "160053.555000", "160055.045000", "160056.535000", "160058.025000", "160059.515000", "160101.005000", "160102.495000", "160103.985000", "160105.475000", "160106.965000", "160108.455000", "160109.945000", "160111.435000", "160112.925000", "160114.415000", "160115.905000", "160117.395000", "160118.885000", "160120.375000", "160121.865000", "160123.355000", "160124.845000", "160126.335000", "160127.825000", "160129.315000", "160130.805000", "160132.295000", "160133.785000", "160135.275000", "160136.765000", "160138.255000", "160139.745000", "160141.235000", "160142.725000", "160144.215000", "160145.705000", "160147.195000", "160148.685000", "160150.175000", "160151.665000", "160153.155000", "160154.645000", "160156.135000", "160157.625000", "160159.115000", "160200.605000", "160202.095000", "160203.585000", "160205.075000", "160206.565000", "160208.055000", "160209.545000", "160211.035000", "160212.525000", "160214.015000", "160215.505000", "160216.995000", "160218.485000", "160219.975000", "160221.465000", "160222.955000", "160224.445000", "160225.935000", "160227.425000", "160228.915000", "160230.405000", "160231.895000", "160233.385000", "160234.875000", "160236.365000", "160237.855000", "160239.345000", "160240.835000", "160242.325000", "160243.815000", "160245.305000", "160246.795000", "160248.285000", "160249.775000", "160251.265000", "160252.755000", "160254.245000", "160255.735000", "160257.225000", "160258.715000", "160300.205000", "160301.695000", "160303.185000", "160304.675000", "160306.165000", "160307.655000", "160309.145000", "160310.635000", "160312.125000", "160313.615000", "160315.105000", "160316.595000", "160318.085000", "160319.575000", "160321.065000", "160322.555000", "160324.045000", "160325.535000", "160327.025000", "160328.515000", "160330.005000", "160331.495000", "160332.985000", "160334.475000", "160335.965000", "160337.455000", "160338.945000", "160340.435000", "160341.925000", "160343.415000", "160344.905000", "160346.395000", "160347.885000", "160349.375000", "160350.865000", "160352.355000", "160353.845000", "160355.335000", "160356.825000", "160358.315000", "160359.805000", "160401.295000", "160402.785000", "160404.275000", "160405.765000", "160407.255000", "160408.745000", "160410.235000", "160411.725000", "160413.215000", "160414.705000", "160416.195000", "160417.685000", "160419.175000", "160420.665000", "160422.155000", "160423.645000", "160425.135000", "160426.625000", "160428.115000", "160429.605000", "160431.095000", "160432.585000", "160434.075000", "160435.565000", "160437.055000", "160438.545000", "160440.035000", "160441.525000", "160443.015000", "160444.505000", "160445.995000", "160447.485000", "160448.975000", "160450.465000", "160451.955000", "160453.445000", "160454.935000", "160456.425000", "160457.915000", "160459.405000", "160500.895000", "160502.385000", "160503.875000", "160505.365000", "160506.855000", "160508.345000", "160509.835000", "160511.325000", "160512.815000", "160514.305000", "160515.795000", "160517.285000", "160518.775000", "160520.265000", "160521.755000", "160523.245000", "160524.735000", "160526.225000", "160527.715000", "160529.205000", "160530.695000", "160532.185000", "160533.675000", "160535.165000", "160536.655000", "160538.145000", "160539.635000", "160541.125000", "160542.615000", "160544.105000", "160545.595000", "160547.085000", "160548.575000", "160550.065000", "160551.555000", "160553.045000", "160554.535000", "160556.025000", "160557.515000", "160559.005000", "160600.495000", "160601.985000", "160603.475000", "160604.965000", "160606.455000", "160607.945000", "160609.435000", "160610.925000", "160612.415000", "160613.905000", "160615.395000", "160616.885000", "160618.375000", "160619.865000", "160621.355000", "160622.845000", "160624.335000", "160625.825000", "160627.315000", "160628.805000", "160630.295000", "160631.785000", "160633.275000", "160634.765000", "160636.255000", "160637.745000", "160639.235000", "160640.725000", "160642.215000", "160643.705000", "160645.195000", "160646.685000", "160648.175000", "160649.665000", "160651.155000", "160652.645000", "160654.135000", "160655.625000", "160657.115000", "160658.605000", "160700.095000", "160701.585000", "160703.075000", "160704.565000", "160706.055000", "160707.545000", "160709.035000", "160710.525000", "160712.015000", "160713.505000", "160714.995000", "160716.485000"],
      "ContentTime": ["155944.037000", "155944.039000", "155944.042000", "155944.045000", "155944.047000", "155944.050000", "155944.057000", "155944.060000", "155944.062000", "155944.065000", "155944.068000", "155944.070000", "155944.073000", "155944.075000", "155944.078000", "155944.080000", "155944.083000", "155944.085000", "155944.088000", "155944.090000", "155944.093000", "155944.095000", "155944.098000", "155944.100000", "155944.103000", "160003.419000", "160003.421000", "160003.424000", "160003.427000", "160003.429000", "160003.432000", "160003.434000", "160003.437000", "160003.439000", "160003.442000", "160003.444000", "160003.447000", "160003.449000", "160003.452000", "160003.454000", "160003.457000", "160003.460000", "160003.462000", "160003.465000", "160003.467000", "160003.470000", "160023.395000", "160023.398000", "160023.400000", "160023.407000", "160023.410000", "160023.413000", "160023.415000", "160023.418000", "160023.420000", "160023.423000", "160023.425000", "160023.428000", "160023.430000", "160023.433000", "160023.436000", "160023.438000", "160023.441000", "160023.443000", "160023.446000", "160023.449000", "160043.422000", "160043.425000", "160043.428000", "160043.430000", "160043.433000", "160043.435000", "160043.438000", "160043.440000", "160043.443000", "160043.446000", "160043.448000", "160043.451000", "160043.453000", "160043.456000", "160043.458000", "160043.461000", "160043.463000", "160043.466000", "160043.468000", "160043.471000", "160123.573000", "160123.576000", "160123.579000", "160123.581000", "160123.584000", "160123.586000", "160123.589000", "160123.591000", "160123.594000", "160123.597000", "160123.599000", "160123.602000", "160123.604000", "160123.607000", "160123.609000", "160123.612000", "160123.614000", "160123.617000", "160123.620000", "160123.622000", "160123.625000", "160123.627000", "160123.630000", "160123.632000", "160123.635000", "160123.637000", "160123.640000", "160123.642000", "160123.645000", "160203.439000", "160203.442000", "160203.445000", "160203.447000", "160203.450000", "160203.452000", "160203.455000", "160203.457000", "160203.460000", "160203.462000", "160203.465000", "160203.468000", "160203.471000", "160203.473000", "160203.476000", "160203.479000", "160203.481000", "160203.484000", "160203.487000", "160203.489000", "160203.492000", "160203.494000", "160203.497000", "160203.500000", "160203.502000", "160203.505000", "160203.507000", "160243.434000", "160243.436000", "160243.439000", "160243.441000", "160243.444000", "160243.447000", "160243.449000", "160243.452000", "160243.454000", "160243.457000", "160243.459000", "160243.462000", "160243.464000", "160243.467000", "160243.470000", "160243.472000", "160243.475000", "160243.477000", "160243.480000", "160243.482000", "160243.485000", "160243.487000", "160243.490000", "160243.493000", "160243.495000", "160243.498000", "160243.500000", "160323.448000", "160323.451000", "160323.453000", "160323.456000", "160323.458000", "160323.461000", "160323.464000", "160323.467000", "160323.469000", "160323.472000", "160323.474000", "160323.477000", "160323.479000", "160323.482000", "160323.484000", "160323.487000", "160323.490000", "160323.492000", "160323.495000", "160323.497000", "160323.500000", "160323.502000", "160323.505000", "160323.507000", "160323.510000", "160323.513000", "160323.516000", "160403.446000", "160403.448000", "160403.451000", "160403.453000", "160403.456000", "160403.459000", "160403.461000", "160403.464000", "160403.467000", "160403.469000", "160403.472000", "160403.474000", "160403.477000", "160403.479000", "160403.482000", "160403.484000", "160403.487000", "160403.489000", "160403.492000", "160403.495000", "160403.497000", "160403.500000", "160403.502000", "160403.505000", "160403.507000", "160403.510000", "160443.436000", "160443.439000", "160443.442000", "160443.444000", "160443.447000", "160443.449000", "160443.452000", "160443.454000", "160443.457000", "160443.459000", "160443.462000", "160443.465000", "160443.467000", "160443.470000", "160443.472000", "160443.475000", "160443.477000", "160443.480000", "160443.482000", "160443.485000", "160443.488000", "160443.490000", "160443.493000", "160443.495000", "160443.498000", "160443.501000", "160443.503000", "160523.433000", "160523.436000", "160523.438000", "160523.441000", "160523.444000", "160523.446000", "160523.449000", "160523.451000", "160523.454000", "160523.457000", "160523.459000", "160523.462000", "160523.464000", "160523.467000", "160523.469000", "160523.472000", "160523.474000", "160523.477000", "160523.480000", "160523.482000", "160523.485000", "160523.487000", "160523.490000", "160523.492000", "160523.495000", "160523.498000", "160523.500000", "160603.435000", "160603.438000", "160603.441000", "160603.443000", "160603.446000", "160603.448000", "160603.451000", "160603.454000", "160603.456000", "160603.459000", "160603.461000", "160603.464000", "160603.466000", "160603.469000", "160603.471000", "160603.474000", "160603.476000", "160603.479000", "160603.482000", "160603.484000", "160603.487000", "160603.490000", "160603.492000", "160603.495000", "160603.497000", "160603.500000", "160603.503000", "160643.433000", "160643.436000", "160643.438000", "160643.441000", "160643.443000", "160643.446000", "160643.448000", "160643.451000", "160643.454000", "160643.456000", "160643.459000", "160643.461000", "160643.464000", "160643.466000", "160643.469000", "160643.471000", "160643.474000", "160643.476000", "160643.479000", "160643.481000", "160643.484000", "160643.487000", "160643.489000", "160643.492000", "160643.494000", "160643.497000", "160643.499000", "160720.019000", "160720.022000", "160720.025000", "160720.027000", "160720.030000", "160720.032000", "160720.035000", "160720.038000", "160720.041000", "160720.043000", "160720.046000", "160720.049000", "160720.052000", "160720.055000", "160720.057000", "160720.060000", "160720.063000", "160720.066000", "160720.069000", "160720.072000", "160720.074000", "160720.077000", "160720.080000", "160720.083000"],
      "InstanceCreationTime": ["155944.037000", "155944.039000", "155944.042000", "155944.045000", "155944.047000", "155944.050000", "155944.057000", "155944.060000", "155944.062000", "155944.065000", "155944.068000", "155944.070000", "155944.073000", "155944.075000", "155944.078000", "155944.080000", "155944.083000", "155944.085000", "155944.088000", "155944.090000", "155944.093000", "155944.095000", "155944.098000", "155944.100000", "155944.103000", "160003.419000", "160003.421000", "160003.424000", "160003.427000", "160003.429000", "160003.432000", "160003.434000", "160003.437000", "160003.439000", "160003.442000", "160003.444000", "160003.447000", "160003.449000", "160003.452000", "160003.454000", "160003.457000", "160003.460000", "160003.462000", "160003.465000", "160003.467000", "160003.470000", "160023.395000", "160023.398000", "160023.400000", "160023.407000", "160023.410000", "160023.413000", "160023.415000", "160023.418000", "160023.420000", "160023.423000", "160023.425000", "160023.428000", "160023.430000", "160023.433000", "160023.436000", "160023.438000", "160023.441000", "160023.443000", "160023.446000", "160023.449000", "160043.422000", "160043.425000", "160043.428000", "160043.430000", "160043.433000", "160043.435000", "160043.438000", "160043.440000", "160043.443000", "160043.446000", "160043.448000", "160043.451000", "160043.453000", "160043.456000", "160043.458000", "160043.461000", "160043.463000", "160043.466000", "160043.468000", "160043.471000", "160123.573000", "160123.576000", "160123.579000", "160123.581000", "160123.584000", "160123.586000", "160123.589000", "160123.591000", "160123.594000", "160123.597000", "160123.599000", "160123.602000", "160123.604000", "160123.607000", "160123.609000", "160123.612000", "160123.614000", "160123.617000", "160123.620000", "160123.622000", "160123.625000", "160123.627000", "160123.630000", "160123.632000", "160123.635000", "160123.637000", "160123.640000", "160123.642000", "160123.645000", "160203.439000", "160203.442000", "160203.445000", "160203.447000", "160203.450000", "160203.452000", "160203.455000", "160203.457000", "160203.460000", "160203.462000", "160203.465000", "160203.468000", "160203.471000", "160203.473000", "160203.476000", "160203.479000", "160203.481000", "160203.484000", "160203.487000", "160203.489000", "160203.492000", "160203.494000", "160203.497000", "160203.500000", "160203.502000", "160203.505000", "160203.507000", "160243.434000", "160243.436000", "160243.439000", "160243.441000", "160243.444000", "160243.447000", "160243.449000", "160243.452000", "160243.454000", "160243.457000", "160243.459000", "160243.462000", "160243.464000", "160243.467000", "160243.470000", "160243.472000", "160243.475000", "160243.477000", "160243.480000", "160243.482000", "160243.485000", "160243.487000", "160243.490000", "160243.493000", "160243.495000", "160243.498000", "160243.500000", "160323.448000", "160323.451000", "160323.453000", "160323.456000", "160323.458000", "160323.461000", "160323.464000", "160323.467000", "160323.469000", "160323.472000", "160323.474000", "160323.477000", "160323.479000", "160323.482000", "160323.484000", "160323.487000", "160323.490000", "160323.492000", "160323.495000", "160323.497000", "160323.500000", "160323.502000", "160323.505000", "160323.507000", "160323.510000", "160323.513000", "160323.516000", "160403.446000", "160403.448000", "160403.451000", "160403.453000", "160403.456000", "160403.459000", "160403.461000", "160403.464000", "160403.467000", "160403.469000", "160403.472000", "160403.474000", "160403.477000", "160403.479000", "160403.482000", "160403.484000", "160403.487000", "160403.489000", "160403.492000", "160403.495000", "160403.497000", "160403.500000", "160403.502000", "160403.505000", "160403.507000", "160403.510000", "160443.436000", "160443.439000", "160443.442000", "160443.444000", "160443.447000", "160443.449000", "160443.452000", "160443.454000", "160443.457000", "160443.459000", "160443.462000", "160443.465000", "160443.467000", "160443.470000", "160443.472000", "160443.475000", "160443.477000", "160443.480000", "160443.482000", "160443.485000", "160443.488000", "160443.490000", "160443.493000", "160443.495000", "160443.498000", "160443.501000", "160443.503000", "160523.433000", "160523.436000", "160523.438000", "160523.441000", "160523.444000", "160523.446000", "160523.449000", "160523.451000", "160523.454000", "160523.457000", "160523.459000", "160523.462000", "160523.464000", "160523.467000", "160523.469000", "160523.472000", "160523.474000", "160523.477000", "160523.480000", "160523.482000", "160523.485000", "160523.487000", "160523.490000", "160523.492000", "160523.495000", "160523.498000", "160523.500000", "160603.435000", "160603.438000", "160603.441000", "160603.443000", "160603.446000", "160603.448000", "160603.451000", "160603.454000", "160603.456000", "160603.459000", "160603.461000", "160603.464000", "160603.466000", "160603.469000", "160603.471000", "160603.474000", "160603.476000", "160603.479000", "160603.482000", "160603.484000", "160603.487000", "160603.490000", "160603.492000", "160603.495000", "160603.497000", "160603.500000", "160603.503000", "160643.433000", "160643.436000", "160643.438000", "160643.441000", "160643.443000", "160643.446000", "160643.448000", "160643.451000", "160643.454000", "160643.456000", "160643.459000", "160643.461000", "160643.464000", "160643.466000", "160643.469000", "160643.471000", "160643.474000", "160643.476000", "160643.479000", "160643.481000", "160643.484000", "160643.487000", "160643.489000", "160643.492000", "160643.494000", "160643.497000", "160643.499000", "160720.019000", "160720.022000", "160720.025000", "160720.027000", "160720.030000", "160720.032000", "160720.035000", "160720.038000", "160720.041000", "160720.043000", "160720.046000", "160720.049000", "160720.052000", "160720.055000", "160720.057000", "160720.060000", "160720.063000", "160720.066000", "160720.069000", "160720.072000", "160720.074000", "160720.077000", "160720.080000", "160720.083000"],
      "InstanceNumber": [1, 2, 3, 4, 5, 6, 7, 8, 9, 10, 11, 12, 13, 14, 15, 16, 17, 18, 19, 20, 21, 22, 23, 24, 25, 26, 27, 28, 29, 30, 31, 32, 33, 34, 35, 36, 37, 38, 39, 40, 41, 42, 43, 44, 45, 46, 47, 48, 49, 50, 51, 52, 53, 54, 55, 56, 57, 58, 59, 60, 61, 62, 63, 64, 65, 66, 67, 68, 69, 70, 71, 72, 73, 74, 75, 76, 77, 78, 79, 80, 81, 82, 83, 84, 85, 86, 87, 88, 89, 90, 91, 92, 93, 94, 95, 96, 97, 98, 99, 100, 101, 102, 103, 104, 105, 106, 107, 108, 109, 110, 111, 112, 113, 114, 115, 116, 117, 118, 119, 120, 121, 122, 123, 124, 125, 126, 127, 128, 129, 130, 131, 132, 133, 134, 135, 136, 137, 138, 139, 140, 141, 142, 143, 144, 145, 146, 147, 148, 149, 150, 151, 152, 153, 154, 155, 156, 157, 158, 159, 160, 161, 162, 163, 164, 165, 166, 167, 168, 169, 170, 171, 172, 173, 174, 175, 176, 177, 178, 179, 180, 181, 182, 183, 184, 185, 186, 187, 188, 189, 190, 191, 192, 193, 194, 195, 196, 197, 198, 199, 200, 201, 202, 203, 204, 205, 206, 207, 208, 209, 210, 211, 212, 213, 214, 215, 216, 217, 218, 219, 220, 221, 222, 223, 224, 225, 226, 227, 228, 229, 230, 231, 232, 233, 234, 235, 236, 237, 238, 239, 240, 241, 242, 243, 244, 245, 246, 247, 248, 249, 250, 251, 252, 253, 254, 255, 256, 257, 258, 259, 260, 261, 262, 263, 264, 265, 266, 267, 268, 269, 270, 271, 272, 273, 274, 275, 276, 277, 278, 279, 280, 281, 282, 283, 284, 285, 286, 287, 288, 289, 290, 291, 292, 293, 294, 295, 296, 297, 298, 299, 300, 301, 302, 303, 304, 305, 306, 307, 308, 309, 310, 311, 312, 313, 314, 315, 316, 317, 318, 319, 320, 321, 322, 323, 324, 325, 326, 327, 328, 329, 330, 331, 332, 333, 334, 335, 336, 337, 338, 339, 340, 341, 342, 343, 344, 345, 346, 347, 348, 349, 350, 351, 352, 353, 354],
