{
  "AcquisitionMatrixPE": 104,
  "AcquisitionNumber": 1,
  "AcquisitionTime": "16:40:56.755000",
  "BandwidthPerPixelPhaseEncode": 17.17,
  "BaseResolution": 104,
  "BodyPartExamined": "BRAIN",
  "CoilCombinationMethod": "Sum of Squares",
  "ConsistencyInfo": "N4_VE11C_LATEST_20160120",
  "ConversionSoftware": "dcm2niix",
  "ConversionSoftwareVersion": "v1.0.20220505",
  "DerivedVendorReportedEchoSpacing": 0.000560011,
  "DeviceSerialNumber": "167006",
  "DwellTime": 2.1e-06,
  "EchoTime": 0.037,
  "EchoTime1": 0.037,
  "EchoTime2": 0.001,
  "EchoTrainLength": 104,
  "EffectiveEchoSpacing": 0.000560011,
  "FlipAngle": 52,
  "HeudiconvVersion": "0.5.3.post811+g6206e14",
  "ImageComments": "Unaliased MB4/PE3/LB",
  "ImageOrientationPatientDICOM": [0.99935, 0.00491479, 0.0357229, 0.0151757, 0.84134, -0.540293],
  "ImageOrientationText": "Tra>Cor(-32.7)>Sag(1.9)",
  "ImageType": [
    "ORIGINAL",
    "PRIMARY",
    "P",
    "MB",
    "ND",
    "MOSAIC",
    "PHASE"
],
  "ImagingFrequency": 123.26,
  "InPlanePhaseEncodingDirectionDICOM": "COL",
  "InstitutionAddress": "Chemin Queen-Mary 4565,Montreal,District,CA,H3W 1W5",
  "InstitutionName": "IUGM",
  "InstitutionalDepartmentName": "Department",
  "MRAcquisitionType": "2D",
  "MagneticFieldStrength": 3,
  "Manufacturer": "Siemens",
  "ManufacturersModelName": "Prisma_fit",
  "MatrixCoilMode": "SENSE",
  "Modality": "MR",
  "MultibandAccelerationFactor": 4,
  "PartialFourier": 1,
  "PatientPosition": "HFS",
  "PercentPhaseFOV": 100,
  "PercentSampling": 100,
  "PhaseEncodingDirection": "j",
  "PhaseEncodingSteps": 104,
  "PhaseResolution": 1,
  "PixelBandwidth": 2290,
  "ProcedureStepDescription": "games^mario3",
  "ProtocolName": "func_task-mario3_run-04",
  "PulseSequenceDetails": "%CustomerSeq%\\cmrr_mbep2d_bold",
  "ReceiveCoilActiveElements": "HC1-7;NC1,2",
  "ReceiveCoilName": "HeadNeck_64",
  "ReconMatrixPE": 104,
  "RepetitionTime": 1.49,
  "SAR": 0.0706465,
  "ScanOptions": "FS",
  "ScanningSequence": "EP",
  "SequenceName": "epfid2d1_104",
  "SequenceVariant": "SK\\SS",
  "SeriesDescription": "func_task-mario3_run-04",
  "SeriesNumber": 20,
  "ShimSetting": [614, -7191, -8860, 215, 49, -213, -28, 49],
  "SliceThickness": 2,
  "SliceTiming": [0, 0.785, 0.0975, 0.8825, 0.1975, 0.98, 0.295, 1.0775, 0.3925, 1.1775, 0.49, 1.275, 0.5875, 1.3725, 0.6875, 0, 0.785, 0.0975, 0.8825, 0.1975, 0.98, 0.295, 1.0775, 0.3925, 1.1775, 0.49, 1.275, 0.5875, 1.3725, 0.6875, 0, 0.785, 0.0975, 0.8825, 0.1975, 0.98, 0.295, 1.0775, 0.3925, 1.1775, 0.49, 1.275, 0.5875, 1.3725, 0.6875, 0, 0.785, 0.0975, 0.8825, 0.1975, 0.98, 0.295, 1.0775, 0.3925, 1.1775, 0.49, 1.275, 0.5875, 1.3725, 0.6875],
  "SoftwareVersions": "syngo MR E11",
  "SpacingBetweenSlices": 2,
  "StationName": "MRC35049",
  "TaskName": "mario3",
  "TotalReadoutTime": 0.0576811,
  "TxRefAmp": 308.032,
  "WipMemBlock": "20a054f8-aaa2-4103-8a73-9bf739a9fb49||Sequence: R017 ve11c/master r/75a17815+; Jun 28 2022 16:32:11 by eja",
  "dcmmeta_affine": [
    [-1.9986993074417114, 0.030351394787430763, 0.06542108952999115, 104.5475082397461],
    [-0.00982957985252142, 1.6826802492141724, -1.0809675455093384, -47.32787322998047],
    [0.07144582271575928, 1.0805859565734863, 1.6814367771148682, -87.17710876464844],
    [0.0, 0.0, 0.0, 1.0]
],
  "dcmmeta_reorient_transform": [
    [0.0, -1.0, 0.0, 103.0],
    [1.0, 0.0, 0.0, 0.0],
    [0.0, 0.0, 1.0, 0.0],
    [0.0, 0.0, 0.0, 1.0]
],
  "dcmmeta_shape": [104, 104, 60, 359],
  "dcmmeta_slice_dim": 2,
  "dcmmeta_version": 0.6,
  "global": {
    "const": {
      "AcquisitionMatrix": [104, 0, 0, 104],
      "AngioFlag": "N",
      "BitsAllocated": 16,
      "BitsStored": 16,
      "BodyPartExamined": "BRAIN",
      "Columns": 832,
      "EchoNumbers": 1,
      "EchoTime": 37.0,
      "EchoTrainLength": 104,
      "FlipAngle": 52.0,
      "HighBit": 15,
      "ImageOrientationPatient": [0.99934964780476, 0.00491478991379, 0.0357229096324, 0.01517569775208, 0.84134010418048, -0.5402930013385],
      "ImagePositionPatient": [-846.24815055261, -742.06175209273, 391.45027886963],
      "ImageType": [
        "ORIGINAL",
        "PRIMARY",
        "P",
        "MB",
        "ND",
        "MOSAIC"
],
      "ImagedNucleus": "1H",
      "ImagingFrequency": 123.260302,
      "InPlanePhaseEncodingDirection": "COL",
      "LargestImagePixelValue": 4095,
      "MRAcquisitionType": "2D",
      "MagneticFieldStrength": 3.0,
      "Manufacturer": "SIEMENS",
      "ManufacturerModelName": "Prisma_fit",
      "Modality": "MR",
      "NumberOfAverages": 1.0,
      "NumberOfPhaseEncodingSteps": 104,
      "PercentPhaseFieldOfView": 100.0,
      "PercentSampling": 100.0,
      "PerformedProcedureStepStartTime": "160824.658000",
      "PhotometricInterpretation": "MONOCHROME2",
      "PixelBandwidth": 2290.0,
      "PixelRepresentation": 0,
      "PixelSpacing": [2.0, 2.0],
      "ProtocolName": "func_task-mario3_run-04",
      "RepetitionTime": 1490.0,
      "RescaleIntercept": -4096.0,
      "RescaleSlope": 2.0,
      "RescaleType": "US",
      "Rows": 832,
      "SAR": 0.07064653392275,
      "SamplesPerPixel": 1,
      "ScanOptions": "FS",
      "ScanningSequence": "EP",
      "SequenceName": "epfid2d1_104",
      "SequenceVariant": [
        "SK",
        "SS"
],
      "SeriesDescription": "func_task-mario3_run-04",
      "SeriesNumber": 20,
      "SeriesTime": "164209.080000",
      "SliceLocation": -44.29164186076,
      "SliceThickness": 2.0,
      "SmallestImagePixelValue": 0,
      "SoftwareVersions": "syngo MR E11",
      "SpacingBetweenSlices": 2.0000000349439,
      "SpecificCharacterSet": "ISO_IR 100",
      "StudyID": "1",
      "StudyTime": "160824.588000",
      "TransmitCoilName": "Body",
      "VariableFlipAngleFlag": "N",
      "WindowCenterWidthExplanation": "Algo1",
      "dBdt": 0.0},
    "slices": {}
  },
  "time": {
    "samples": {
      "AcquisitionNumber": [1, 2, 3, 4, 5, 6, 7, 8, 9, 10, 11, 12, 13, 14, 15, 16, 17, 18, 19, 20, 21, 22, 23, 24, 25, 26, 27, 28, 29, 30, 31, 32, 33, 34, 35, 36, 37, 38, 39, 40, 41, 42, 43, 44, 45, 46, 47, 48, 49, 50, 51, 52, 53, 54, 55, 56, 57, 58, 59, 60, 61, 62, 63, 64, 65, 66, 67, 68, 69, 70, 71, 72, 73, 74, 75, 76, 77, 78, 79, 80, 81, 82, 83, 84, 85, 86, 87, 88, 89, 90, 91, 92, 93, 94, 95, 96, 97, 98, 99, 100, 101, 102, 103, 104, 105, 106, 107, 108, 109, 110, 111, 112, 113, 114, 115, 116, 117, 118, 119, 120, 121, 122, 123, 124, 125, 126, 127, 128, 129, 130, 131, 132, 133, 134, 135, 136, 137, 138, 139, 140, 141, 142, 143, 144, 145, 146, 147, 148, 149, 150, 151, 152, 153, 154, 155, 156, 157, 158, 159, 160, 161, 162, 163, 164, 165, 166, 167, 168, 169, 170, 171, 172, 173, 174, 175, 176, 177, 178, 179, 180, 181, 182, 183, 184, 185, 186, 187, 188, 189, 190, 191, 192, 193, 194, 195, 196, 197, 198, 199, 200, 201, 202, 203, 204, 205, 206, 207, 208, 209, 210, 211, 212, 213, 214, 215, 216, 217, 218, 219, 220, 221, 222, 223, 224, 225, 226, 227, 228, 229, 230, 231, 232, 233, 234, 235, 236, 237, 238, 239, 240, 241, 242, 243, 244, 245, 246, 247, 248, 249, 250, 251, 252, 253, 254, 255, 256, 257, 258, 259, 260, 261, 262, 263, 264, 265, 266, 267, 268, 269, 270, 271, 272, 273, 274, 275, 276, 277, 278, 279, 280, 281, 282, 283, 284, 285, 286, 287, 288, 289, 290, 291, 292, 293, 294, 295, 296, 297, 298, 299, 300, 301, 302, 303, 304, 305, 306, 307, 308, 309, 310, 311, 312, 313, 314, 315, 316, 317, 318, 319, 320, 321, 322, 323, 324, 325, 326, 327, 328, 329, 330, 331, 332, 333, 334, 335, 336, 337, 338, 339, 340, 341, 342, 343, 344, 345, 346, 347, 348, 349, 350, 351, 352, 353, 354, 355, 356, 357, 358, 359],
      "AcquisitionTime": ["164056.755000", "164058.245000", "164059.735000", "164101.225000", "164102.715000", "164104.205000", "164105.695000", "164107.185000", "164108.675000", "164110.165000", "164111.655000", "164113.145000", "164114.635000", "164116.125000", "164117.615000", "164119.105000", "164120.595000", "164122.085000", "164123.575000", "164125.065000", "164126.555000", "164128.045000", "164129.535000", "164131.025000", "164132.515000", "164134.005000", "164135.495000", "164136.985000", "164138.475000", "164139.965000", "164141.455000", "164142.945000", "164144.435000", "164145.925000", "164147.415000", "164148.905000", "164150.395000", "164151.885000", "164153.375000", "164154.865000", "164156.355000", "164157.845000", "164159.335000", "164200.825000", "164202.315000", "164203.805000", "164205.295000", "164206.785000", "164208.275000", "164209.765000", "164211.255000", "164212.745000", "164214.235000", "164215.725000", "164217.215000", "164218.705000", "164220.195000", "164221.685000", "164223.175000", "164224.665000", "164226.155000", "164227.645000", "164229.135000", "164230.625000", "164232.115000", "164233.605000", "164235.095000", "164236.585000", "164238.075000", "164239.565000", "164241.055000", "164242.545000", "164244.035000", "164245.525000", "164247.015000", "164248.505000", "164249.995000", "164251.485000", "164252.975000", "164254.465000", "164255.955000", "164257.445000", "164258.935000", "164300.425000", "164301.915000", "164303.405000", "164304.895000", "164306.385000", "164307.875000", "164309.365000", "164310.855000", "164312.345000", "164313.835000", "164315.325000", "164316.815000", "164318.305000", "164319.795000", "164321.285000", "164322.775000", "164324.265000", "164325.755000", "164327.245000", "164328.735000", "164330.225000", "164331.715000", "164333.205000", "164334.695000", "164336.185000", "164337.675000", "164339.165000", "164340.655000", "164342.145000", "164343.635000", "164345.125000", "164346.615000", "164348.105000", "164349.595000", "164351.085000", "164352.575000", "164354.065000", "164355.555000", "164357.045000", "164358.535000", "164400.025000", "164401.515000", "164403.005000", "164404.495000", "164405.985000", "164407.475000", "164408.965000", "164410.455000", "164411.945000", "164413.435000", "164414.925000", "164416.415000", "164417.905000", "164419.395000", "164420.885000", "164422.375000", "164423.865000", "164425.355000", "164426.845000", "164428.335000", "164429.825000", "164431.315000", "164432.805000", "164434.295000", "164435.785000", "164437.275000", "164438.765000", "164440.255000", "164441.745000", "164443.235000", "164444.725000", "164446.215000", "164447.705000", "164449.195000", "164450.685000", "164452.175000", "164453.665000", "164455.155000", "164456.645000", "164458.135000", "164459.625000", "164501.115000", "164502.605000", "164504.095000", "164505.585000", "164507.075000", "164508.565000", "164510.055000", "164511.545000", "164513.035000", "164514.525000", "164516.015000", "164517.505000", "164518.995000", "164520.485000", "164521.975000", "164523.465000", "164524.955000", "164526.445000", "164527.935000", "164529.425000", "164530.915000", "164532.405000", "164533.895000", "164535.385000", "164536.875000", "164538.365000", "164539.855000", "164541.345000", "164542.835000", "164544.325000", "164545.815000", "164547.305000", "164548.795000", "164550.285000", "164551.775000", "164553.265000", "164554.755000", "164556.245000", "164557.735000", "164559.225000", "164600.715000", "164602.205000", "164603.695000", "164605.185000", "164606.675000", "164608.165000", "164609.655000", "164611.145000", "164612.635000", "164614.125000", "164615.615000", "164617.105000", "164618.595000", "164620.085000", "164621.575000", "164623.065000", "164624.555000", "164626.045000", "164627.535000", "164629.025000", "164630.515000", "164632.005000", "164633.495000", "164634.985000", "164636.475000", "164637.965000", "164639.455000", "164640.945000", "164642.435000", "164643.925000", "164645.415000", "164646.905000", "164648.395000", "164649.885000", "164651.375000", "164652.865000", "164654.355000", "164655.845000", "164657.335000", "164658.825000", "164700.315000", "164701.805000", "164703.295000", "164704.785000", "164706.275000", "164707.765000", "164709.255000", "164710.745000", "164712.235000", "164713.725000", "164715.215000", "164716.705000", "164718.195000", "164719.685000", "164721.175000", "164722.665000", "164724.155000", "164725.645000", "164727.135000", "164728.625000", "164730.115000", "164731.605000", "164733.095000", "164734.585000", "164736.075000", "164737.565000", "164739.055000", "164740.545000", "164742.035000", "164743.525000", "164745.015000", "164746.505000", "164747.995000", "164749.485000", "164750.975000", "164752.465000", "164753.955000", "164755.445000", "164756.935000", "164758.425000", "164759.915000", "164801.405000", "164802.895000", "164804.385000", "164805.875000", "164807.365000", "164808.855000", "164810.345000", "164811.835000", "164813.325000", "164814.815000", "164816.305000", "164817.795000", "164819.285000", "164820.775000", "164822.265000", "164823.755000", "164825.245000", "164826.735000", "164828.225000", "164829.715000", "164831.205000", "164832.695000", "164834.185000", "164835.675000", "164837.165000", "164838.655000", "164840.145000", "164841.635000", "164843.125000", "164844.615000", "164846.105000", "164847.595000", "164849.085000", "164850.575000", "164852.065000", "164853.555000", "164855.045000", "164856.535000", "164858.025000", "164859.515000", "164901.005000", "164902.495000", "164903.985000", "164905.475000", "164906.965000", "164908.455000", "164909.945000", "164911.435000", "164912.925000", "164914.415000", "164915.905000", "164917.395000", "164918.885000", "164920.375000", "164921.865000", "164923.355000", "164924.845000", "164926.335000", "164927.825000", "164929.315000", "164930.805000", "164932.295000", "164933.785000", "164935.275000", "164936.765000", "164938.255000", "164939.745000", "164941.235000", "164942.725000", "164944.215000", "164945.705000", "164947.195000", "164948.685000", "164950.175000"],
      "ContentTime": ["164209.082000", "164209.085000", "164209.088000", "164209.090000", "164209.093000", "164209.096000", "164209.098000", "164209.101000", "164209.103000", "164209.106000", "164209.108000", "164209.111000", "164209.113000", "164209.116000", "164209.118000", "164209.121000", "164209.123000", "164209.131000", "164209.134000", "164209.136000", "164209.139000", "164209.141000", "164209.144000", "164209.146000", "164229.029000", "164229.032000", "164229.034000", "164229.036000", "164229.039000", "164229.042000", "164229.044000", "164229.047000", "164229.049000", "164229.052000", "164229.054000", "164229.057000", "164229.059000", "164229.062000", "164229.064000", "164229.067000", "164229.070000", "164229.072000", "164229.075000", "164229.077000", "164249.034000", "164249.037000", "164249.039000", "164249.042000", "164249.044000", "164249.047000", "164249.049000", "164249.052000", "164249.054000", "164249.057000", "164249.059000", "164249.062000", "164249.064000", "164249.067000", "164249.069000", "164249.072000", "164249.074000", "164249.078000", "164249.080000", "164249.082000", "164309.027000", "164309.030000", "164309.033000", "164309.035000", "164309.038000", "164309.040000", "164309.043000", "164309.045000", "164309.048000", "164309.050000", "164309.053000", "164309.055000", "164309.058000", "164309.060000", "164309.063000", "164309.065000", "164309.068000", "164309.070000", "164309.073000", "164309.075000", "164349.078000", "164349.081000", "164349.084000", "164349.086000", "164349.089000", "164349.091000", "164349.094000", "164349.096000", "164349.099000", "164349.102000", "164349.104000", "164349.107000", "164349.109000", "164349.112000", "164349.118000", "164349.121000", "164349.123000", "164349.126000", "164349.129000", "164349.131000", "164349.134000", "164349.136000", "164349.139000", "164349.141000", "164349.144000", "164349.146000", "164349.149000", "164349.151000", "164349.154000", "164349.156000", "164349.159000", "164429.054000", "164429.057000", "164429.059000", "164429.062000", "164429.064000", "164429.067000", "164429.069000", "164429.072000", "164429.074000", "164429.077000", "164429.079000", "164429.082000", "164429.084000", "164429.087000", "164429.089000", "164429.092000", "164429.095000", "164429.097000", "164429.100000", "164429.102000", "164429.105000", "164429.107000", "164429.110000", "164429.112000", "164429.115000", "164429.117000", "164429.120000", "164509.089000", "164509.092000", "164509.100000", "164509.103000", "164509.105000", "164509.108000", "164509.110000", "164509.113000", "164509.116000", "164509.118000", "164509.121000", "164509.123000", "164509.126000", "164509.128000", "164509.131000", "164509.133000", "164509.136000", "164509.138000", "164509.141000", "164509.144000", "164509.146000", "164509.149000", "164509.151000", "164509.154000", "164509.156000", "164509.159000", "164549.051000", "164549.054000", "164549.056000", "164549.059000", "164549.061000", "164549.064000", "164549.077000", "164549.080000", "164549.082000", "164549.085000", "164549.087000", "164549.090000", "164549.092000", "164549.095000", "164549.098000", "164549.100000", "164549.103000", "164549.105000", "164549.108000", "164549.110000", "164549.113000", "164549.115000", "164549.118000", "164549.120000", "164549.123000", "164549.126000", "164549.128000", "164629.048000", "164629.050000", "164629.053000", "164629.055000", "164629.058000", "164629.061000", "164629.063000", "164629.066000", "164629.068000", "164629.071000", "164629.073000", "164629.076000", "164629.078000", "164629.081000", "164629.083000", "164629.086000", "164629.089000", "164629.091000", "164629.094000", "164629.096000", "164629.099000", "164629.101000", "164629.104000", "164629.106000", "164629.109000", "164629.111000", "164629.114000", "164709.055000", "164709.058000", "164709.060000", "164709.063000", "164709.065000", "164709.068000", "164709.070000", "164709.073000", "164709.075000", "164709.078000", "164709.081000", "164709.083000", "164709.086000", "164709.088000", "164709.091000", "164709.094000", "164709.096000", "164709.099000", "164709.102000", "164709.104000", "164709.106000", "164709.109000", "164709.112000", "164709.114000", "164709.117000", "164709.120000", "164709.122000", "164749.052000", "164749.055000", "164749.058000", "164749.060000", "164749.063000", "164749.065000", "164749.068000", "164749.070000", "164749.073000", "164749.075000", "164749.078000", "164749.080000", "164749.083000", "164749.085000", "164749.088000", "164749.090000", "164749.093000", "164749.095000", "164749.098000", "164749.100000", "164749.103000", "164749.105000", "164749.108000", "164749.111000", "164749.113000", "164749.115000", "164749.118000", "164829.055000", "164829.057000", "164829.060000", "164829.062000", "164829.065000", "164829.068000", "164829.070000", "164829.073000", "164829.075000", "164829.078000", "164829.080000", "164829.083000", "164829.085000", "164829.088000", "164829.090000", "164829.093000", "164829.095000", "164829.098000", "164829.101000", "164829.103000", "164829.106000", "164829.108000", "164829.111000", "164829.113000", "164829.116000", "164829.118000", "164829.121000", "164909.108000", "164909.111000", "164909.113000", "164909.116000", "164909.119000", "164909.121000", "164909.124000", "164909.126000", "164909.129000", "164909.131000", "164909.134000", "164909.137000", "164909.139000", "164909.141000", "164909.144000", "164909.147000", "164909.149000", "164909.152000", "164909.154000", "164909.157000", "164909.159000", "164909.162000", "164909.164000", "164909.167000", "164909.170000", "164909.172000", "164909.174000", "164949.048000", "164949.051000", "164949.054000", "164949.056000", "164949.059000", "164949.061000", "164949.064000", "164949.066000", "164949.069000", "164949.071000", "164949.074000", "164949.076000", "164949.079000", "164949.083000", "164949.087000", "164949.090000", "164949.093000", "164949.096000", "164949.099000", "164949.102000", "164949.105000", "164949.108000", "164949.112000", "164949.115000", "164949.117000", "164949.120000", "164953.414000", "164953.416000", "164953.419000"],
      "InstanceCreationTime": ["164209.082000", "164209.085000", "164209.088000", "164209.090000", "164209.093000", "164209.096000", "164209.098000", "164209.101000", "164209.103000", "164209.106000", "164209.108000", "164209.111000", "164209.113000", "164209.116000", "164209.118000", "164209.121000", "164209.123000", "164209.131000", "164209.134000", "164209.136000", "164209.139000", "164209.141000", "164209.144000", "164209.146000", "164229.029000", "164229.032000", "164229.034000", "164229.036000", "164229.039000", "164229.042000", "164229.044000", "164229.047000", "164229.049000", "164229.052000", "164229.054000", "164229.057000", "164229.059000", "164229.062000", "164229.064000", "164229.067000", "164229.070000", "164229.072000", "164229.075000", "164229.077000", "164249.034000", "164249.037000", "164249.039000", "164249.042000", "164249.044000", "164249.047000", "164249.049000", "164249.052000", "164249.054000", "164249.057000", "164249.059000", "164249.062000", "164249.064000", "164249.067000", "164249.069000", "164249.072000", "164249.074000", "164249.078000", "164249.080000", "164249.082000", "164309.027000", "164309.030000", "164309.033000", "164309.035000", "164309.038000", "164309.040000", "164309.043000", "164309.045000", "164309.048000", "164309.050000", "164309.053000", "164309.055000", "164309.058000", "164309.060000", "164309.063000", "164309.065000", "164309.068000", "164309.070000", "164309.073000", "164309.075000", "164349.078000", "164349.081000", "164349.084000", "164349.086000", "164349.089000", "164349.091000", "164349.094000", "164349.096000", "164349.099000", "164349.102000", "164349.104000", "164349.107000", "164349.109000", "164349.112000", "164349.118000", "164349.121000", "164349.123000", "164349.126000", "164349.129000", "164349.131000", "164349.134000", "164349.136000", "164349.139000", "164349.141000", "164349.144000", "164349.146000", "164349.149000", "164349.151000", "164349.154000", "164349.156000", "164349.159000", "164429.054000", "164429.057000", "164429.059000", "164429.062000", "164429.064000", "164429.067000", "164429.069000", "164429.072000", "164429.074000", "164429.077000", "164429.079000", "164429.082000", "164429.084000", "164429.087000", "164429.089000", "164429.092000", "164429.095000", "164429.097000", "164429.100000", "164429.102000", "164429.105000", "164429.107000", "164429.110000", "164429.112000", "164429.115000", "164429.117000", "164429.120000", "164509.089000", "164509.092000", "164509.100000", "164509.103000", "164509.105000", "164509.108000", "164509.110000", "164509.113000", "164509.116000", "164509.118000", "164509.121000", "164509.123000", "164509.126000", "164509.128000", "164509.131000", "164509.133000", "164509.136000", "164509.138000", "164509.141000", "164509.144000", "164509.146000", "164509.149000", "164509.151000", "164509.154000", "164509.156000", "164509.159000", "164549.051000", "164549.054000", "164549.056000", "164549.059000", "164549.061000", "164549.064000", "164549.077000", "164549.080000", "164549.082000", "164549.085000", "164549.087000", "164549.090000", "164549.092000", "164549.095000", "164549.098000", "164549.100000", "164549.103000", "164549.105000", "164549.108000", "164549.110000", "164549.113000", "164549.115000", "164549.118000", "164549.120000", "164549.123000", "164549.126000", "164549.128000", "164629.048000", "164629.050000", "164629.053000", "164629.055000", "164629.058000", "164629.061000", "164629.063000", "164629.066000", "164629.068000", "164629.071000", "164629.073000", "164629.076000", "164629.078000", "164629.081000", "164629.083000", "164629.086000", "164629.089000", "164629.091000", "164629.094000", "164629.096000", "164629.099000", "164629.101000", "164629.104000", "164629.106000", "164629.109000", "164629.111000", "164629.114000", "164709.055000", "164709.058000", "164709.060000", "164709.063000", "164709.065000", "164709.068000", "164709.070000", "164709.073000", "164709.075000", "164709.078000", "164709.081000", "164709.083000", "164709.086000", "164709.088000", "164709.091000", "164709.094000", "164709.096000", "164709.099000", "164709.102000", "164709.104000", "164709.106000", "164709.109000", "164709.112000", "164709.114000", "164709.117000", "164709.120000", "164709.122000", "164749.052000", "164749.055000", "164749.058000", "164749.060000", "164749.063000", "164749.065000", "164749.068000", "164749.070000", "164749.073000", "164749.075000", "164749.078000", "164749.080000", "164749.083000", "164749.085000", "164749.088000", "164749.090000", "164749.093000", "164749.095000", "164749.098000", "164749.100000", "164749.103000", "164749.105000", "164749.108000", "164749.111000", "164749.113000", "164749.115000", "164749.118000", "164829.055000", "164829.057000", "164829.060000", "164829.062000", "164829.065000", "164829.068000", "164829.070000", "164829.073000", "164829.075000", "164829.078000", "164829.080000", "164829.083000", "164829.085000", "164829.088000", "164829.090000", "164829.093000", "164829.095000", "164829.098000", "164829.101000", "164829.103000", "164829.106000", "164829.108000", "164829.111000", "164829.113000", "164829.116000", "164829.118000", "164829.121000", "164909.108000", "164909.111000", "164909.113000", "164909.116000", "164909.119000", "164909.121000", "164909.124000", "164909.126000", "164909.129000", "164909.131000", "164909.134000", "164909.137000", "164909.139000", "164909.141000", "164909.144000", "164909.147000", "164909.149000", "164909.152000", "164909.154000", "164909.157000", "164909.159000", "164909.162000", "164909.164000", "164909.167000", "164909.170000", "164909.172000", "164909.174000", "164949.048000", "164949.051000", "164949.054000", "164949.056000", "164949.059000", "164949.061000", "164949.064000", "164949.066000", "164949.069000", "164949.071000", "164949.074000", "164949.076000", "164949.079000", "164949.083000", "164949.087000", "164949.090000", "164949.093000", "164949.096000", "164949.099000", "164949.102000", "164949.105000", "164949.108000", "164949.112000", "164949.115000", "164949.117000", "164949.120000", "164953.414000", "164953.416000", "164953.419000"],
      "InstanceNumber": [1, 2, 3, 4, 5, 6, 7, 8, 9, 10, 11, 12, 13, 14, 15, 16, 17, 18, 19, 20, 21, 22, 23, 24, 25, 26, 27, 28, 29, 30, 31, 32, 33, 34, 35, 36, 37, 38, 39, 40, 41, 42, 43, 44, 45, 46, 47, 48, 49, 50, 51, 52, 53, 54, 55, 56, 57, 58, 59, 60, 61, 62, 63, 64, 65, 66, 67, 68, 69, 70, 71, 72, 73, 74, 75, 76, 77, 78, 79, 80, 81, 82, 83, 84, 85, 86, 87, 88, 89, 90, 91, 92, 93, 94, 95, 96, 97, 98, 99, 100, 101, 102, 103, 104, 105, 106, 107, 108, 109, 110, 111, 112, 113, 114, 115, 116, 117, 118, 119, 120, 121, 122, 123, 124, 125, 126, 127, 128, 129, 130, 131, 132, 133, 134, 135, 136, 137, 138, 139, 140, 141, 142, 143, 144, 145, 146, 147, 148, 149, 150, 151, 152, 153, 154, 155, 156, 157, 158, 159, 160, 161, 162, 163, 164, 165, 166, 167, 168, 169, 170, 171, 172, 173, 174, 175, 176, 177, 178, 179, 180, 181, 182, 183, 184, 185, 186, 187, 188, 189, 190, 191, 192, 193, 194, 195, 196, 197, 198, 199, 200, 201, 202, 203, 204, 205, 206, 207, 208, 209, 210, 211, 212, 213, 214, 215, 216, 217, 218, 219, 220, 221, 222, 223, 224, 225, 226, 227, 228, 229, 230, 231, 232, 233, 234, 235, 236, 237, 238, 239, 240, 241, 242, 243, 244, 245, 246, 247, 248, 249, 250, 251, 252, 253, 254, 255, 256, 257, 258, 259, 260, 261, 262, 263, 264, 265, 266, 267, 268, 269, 270, 271, 272, 273, 274, 275, 276, 277, 278, 279, 280, 281, 282, 283, 284, 285, 286, 287, 288, 289, 290, 291, 292, 293, 294, 295, 296, 297, 298, 299, 300, 301, 302, 303, 304, 305, 306, 307, 308, 309, 310, 311, 312, 313, 314, 315, 316, 317, 318, 319, 320, 321, 322, 323, 324, 325, 326, 327, 328, 329, 330, 331, 332, 333, 334, 335, 336, 337, 338, 339, 340, 341, 342, 343, 344, 345, 346, 347, 348, 349, 350, 351, 352, 353, 354, 355, 356, 357, 358, 359],
