{
  "AcquisitionMatrixPE": 104,
  "AcquisitionNumber": 1,
  "AcquisitionTime": "16:32:23.827500",
  "BandwidthPerPixelPhaseEncode": 17.17,
  "BaseResolution": 104,
  "BodyPartExamined": "BRAIN",
  "CoilCombinationMethod": "Sum of Squares",
  "ConsistencyInfo": "N4_VE11C_LATEST_20160120",
  "ConversionSoftware": "dcm2niix",
  "ConversionSoftwareVersion": "v1.0.20220505",
  "DerivedVendorReportedEchoSpacing": 0.000560011,
  "DeviceSerialNumber": "167006",
  "DwellTime": 2.1e-06,
  "EchoTime": 0.037,
  "EchoTrainLength": 104,
  "EffectiveEchoSpacing": 0.000560011,
  "FlipAngle": 52,
  "HeudiconvVersion": "0.5.3.post811+g6206e14",
  "ImageComments": "Unaliased MB4/PE3/LB",
  "ImageOrientationPatientDICOM": [0.99935, 0.00491479, 0.0357229, 0.0151757, 0.84134, -0.540293],
  "ImageOrientationText": "Tra>Cor(-32.7)>Sag(1.9)",
  "ImageType": [
    "ORIGINAL",
    "PRIMARY",
    "M",
    "MB",
    "ND",
    "MOSAIC"
],
  "ImagingFrequency": 123.26,
  "InPlanePhaseEncodingDirectionDICOM": "COL",
  "InstitutionAddress": "Chemin Queen-Mary 4565,Montreal,District,CA,H3W 1W5",
  "InstitutionName": "IUGM",
  "InstitutionalDepartmentName": "Department",
  "MRAcquisitionType": "2D",
  "MagneticFieldStrength": 3,
  "Manufacturer": "Siemens",
  "ManufacturersModelName": "Prisma_fit",
  "MatrixCoilMode": "SENSE",
  "Modality": "MR",
  "MultibandAccelerationFactor": 4,
  "PartialFourier": 1,
  "PatientPosition": "HFS",
  "PercentPhaseFOV": 100,
  "PercentSampling": 100,
  "PhaseEncodingDirection": "j",
  "PhaseEncodingSteps": 104,
  "PhaseResolution": 1,
  "PixelBandwidth": 2290,
  "ProcedureStepDescription": "games^mario3",
  "ProtocolName": "func_task-mario3_run-03",
  "PulseSequenceDetails": "%CustomerSeq%\\cmrr_mbep2d_bold",
  "ReceiveCoilActiveElements": "HC1-7;NC1,2",
  "ReceiveCoilName": "HeadNeck_64",
  "ReconMatrixPE": 104,
  "RepetitionTime": 1.49,
  "SAR": 0.0706465,
  "ScanOptions": "FS",
  "ScanningSequence": "EP",
  "SequenceName": "epfid2d1_104",
  "SequenceVariant": "SK\\SS",
  "SeriesDescription": "func_task-mario3_run-03",
  "SeriesNumber": 16,
  "ShimSetting": [614, -7191, -8860, 215, 49, -213, -28, 49],
  "SliceThickness": 2,
  "SliceTiming": [0, 0.7825, 0.0975, 0.8825, 0.195, 0.98, 0.2925, 1.0775, 0.3925, 1.175, 0.49, 1.2725, 0.5875, 1.37, 0.685, 0, 0.7825, 0.0975, 0.8825, 0.195, 0.98, 0.2925, 1.0775, 0.3925, 1.175, 0.49, 1.2725, 0.5875, 1.37, 0.685, 0, 0.7825, 0.0975, 0.8825, 0.195, 0.98, 0.2925, 1.0775, 0.3925, 1.175, 0.49, 1.2725, 0.5875, 1.37, 0.685, 0, 0.7825, 0.0975, 0.8825, 0.195, 0.98, 0.2925, 1.0775, 0.3925, 1.175, 0.49, 1.2725, 0.5875, 1.37, 0.685],
  "SoftwareVersions": "syngo MR E11",
  "SpacingBetweenSlices": 2,
  "StationName": "MRC35049",
  "TaskName": "mario3",
  "TotalReadoutTime": 0.0576811,
  "TxRefAmp": 308.032,
  "WipMemBlock": "0338b437-28c6-4790-9253-b58d53f0d7f4||Sequence: R017 ve11c/master r/75a17815+; Jun 28 2022 16:32:11 by eja",
  "dcmmeta_affine": [
    [-1.9986993074417114, 0.030351394787430763, 0.06542108952999115, 104.5475082397461],
    [-0.00982957985252142, 1.6826802492141724, -1.0809675455093384, -47.32787322998047],
    [0.07144582271575928, 1.0805859565734863, 1.6814367771148682, -87.17710876464844],
    [0.0, 0.0, 0.0, 1.0]
],
  "dcmmeta_reorient_transform": [
    [0.0, -1.0, 0.0, 103.0],
    [1.0, 0.0, 0.0, 0.0],
    [0.0, 0.0, 1.0, 0.0],
    [0.0, 0.0, 0.0, 1.0]
],
  "dcmmeta_shape": [104, 104, 60, 292],
  "dcmmeta_slice_dim": 2,
  "dcmmeta_version": 0.6,
  "global": {
    "const": {
      "AcquisitionMatrix": [104, 0, 0, 104],
      "AngioFlag": "N",
      "BitsAllocated": 16,
      "BitsStored": 16,
      "BodyPartExamined": "BRAIN",
      "Columns": 832,
      "EchoNumbers": 1,
      "EchoTime": 37.0,
      "EchoTrainLength": 104,
      "FlipAngle": 52.0,
      "HighBit": 15,
      "ImageOrientationPatient": [0.99934964780476, 0.00491478991379, 0.0357229096324, 0.01517569775208, 0.84134010418048, -0.5402930013385],
      "ImagePositionPatient": [-846.24815055261, -742.06175209273, 391.45027886963],
      "ImageType": [
        "ORIGINAL",
        "PRIMARY",
        "M",
        "MB",
        "ND",
        "MOSAIC"
],
      "ImagedNucleus": "1H",
      "ImagingFrequency": 123.260299,
      "InPlanePhaseEncodingDirection": "COL",
      "MRAcquisitionType": "2D",
      "MagneticFieldStrength": 3.0,
      "Manufacturer": "SIEMENS",
      "ManufacturerModelName": "Prisma_fit",
      "Modality": "MR",
      "NumberOfAverages": 1.0,
      "NumberOfPhaseEncodingSteps": 104,
      "PercentPhaseFieldOfView": 100.0,
      "PercentSampling": 100.0,
      "PerformedProcedureStepStartTime": "160824.658000",
      "PhotometricInterpretation": "MONOCHROME2",
      "PixelBandwidth": 2290.0,
      "PixelRepresentation": 0,
      "PixelSpacing": [2.0, 2.0],
      "ProtocolName": "func_task-mario3_run-03",
      "RepetitionTime": 1490.0,
      "Rows": 832,
      "SAR": 0.07064653392275,
      "SamplesPerPixel": 1,
      "ScanOptions": "FS",
      "ScanningSequence": "EP",
      "SequenceName": "epfid2d1_104",
      "SequenceVariant": [
        "SK",
        "SS"
],
      "SeriesDescription": "func_task-mario3_run-03",
      "SeriesNumber": 16,
      "SeriesTime": "163338.491000",
      "SliceLocation": -44.29164186076,
      "SliceThickness": 2.0,
      "SmallestImagePixelValue": 0,
      "SoftwareVersions": "syngo MR E11",
      "SpacingBetweenSlices": 2.0000000349439,
      "SpecificCharacterSet": "ISO_IR 100",
      "StudyID": "1",
      "StudyTime": "160824.588000",
      "TransmitCoilName": "Body",
      "VariableFlipAngleFlag": "N",
      "WindowCenterWidthExplanation": "Algo1",
      "dBdt": 0.0},
    "slices": {}
  },
  "time": {
    "samples": {
      "AcquisitionNumber": [1, 2, 3, 4, 5, 6, 7, 8, 9, 10, 11, 12, 13, 14, 15, 16, 17, 18, 19, 20, 21, 22, 23, 24, 25, 26, 27, 28, 29, 30, 31, 32, 33, 34, 35, 36, 37, 38, 39, 40, 41, 42, 43, 44, 45, 46, 47, 48, 49, 50, 51, 52, 53, 54, 55, 56, 57, 58, 59, 60, 61, 62, 63, 64, 65, 66, 67, 68, 69, 70, 71, 72, 73, 74, 75, 76, 77, 78, 79, 80, 81, 82, 83, 84, 85, 86, 87, 88, 89, 90, 91, 92, 93, 94, 95, 96, 97, 98, 99, 100, 101, 102, 103, 104, 105, 106, 107, 108, 109, 110, 111, 112, 113, 114, 115, 116, 117, 118, 119, 120, 121, 122, 123, 124, 125, 126, 127, 128, 129, 130, 131, 132, 133, 134, 135, 136, 137, 138, 139, 140, 141, 142, 143, 144, 145, 146, 147, 148, 149, 150, 151, 152, 153, 154, 155, 156, 157, 158, 159, 160, 161, 162, 163, 164, 165, 166, 167, 168, 169, 170, 171, 172, 173, 174, 175, 176, 177, 178, 179, 180, 181, 182, 183, 184, 185, 186, 187, 188, 189, 190, 191, 192, 193, 194, 195, 196, 197, 198, 199, 200, 201, 202, 203, 204, 205, 206, 207, 208, 209, 210, 211, 212, 213, 214, 215, 216, 217, 218, 219, 220, 221, 222, 223, 224, 225, 226, 227, 228, 229, 230, 231, 232, 233, 234, 235, 236, 237, 238, 239, 240, 241, 242, 243, 244, 245, 246, 247, 248, 249, 250, 251, 252, 253, 254, 255, 256, 257, 258, 259, 260, 261, 262, 263, 264, 265, 266, 267, 268, 269, 270, 271, 272, 273, 274, 275, 276, 277, 278, 279, 280, 281, 282, 283, 284, 285, 286, 287, 288, 289, 290, 291, 292],
      "AcquisitionTime": ["163223.827500", "163225.317500", "163226.807500", "163228.297500", "163229.787500", "163231.277500", "163232.767500", "163234.257500", "163235.747500", "163237.237500", "163238.727500", "163240.217500", "163241.707500", "163243.197500", "163244.687500", "163246.177500", "163247.667500", "163249.157500", "163250.647500", "163252.137500", "163253.627500", "163255.117500", "163256.607500", "163258.097500", "163259.587500", "163301.077500", "163302.567500", "163304.057500", "163305.547500", "163307.037500", "163308.527500", "163310.017500", "163311.507500", "163312.997500", "163314.487500", "163315.977500", "163317.467500", "163318.957500", "163320.447500", "163321.937500", "163323.427500", "163324.917500", "163326.407500", "163327.897500", "163329.387500", "163330.877500", "163332.367500", "163333.857500", "163335.347500", "163336.837500", "163338.327500", "163339.817500", "163341.307500", "163342.797500", "163344.287500", "163345.777500", "163347.267500", "163348.757500", "163350.247500", "163351.737500", "163353.227500", "163354.717500", "163356.207500", "163357.697500", "163359.187500", "163400.677500", "163402.167500", "163403.657500", "163405.147500", "163406.637500", "163408.127500", "163409.617500", "163411.107500", "163412.597500", "163414.087500", "163415.577500", "163417.067500", "163418.557500", "163420.047500", "163421.537500", "163423.027500", "163424.517500", "163426.007500", "163427.497500", "163428.987500", "163430.477500", "163431.967500", "163433.457500", "163434.947500", "163436.437500", "163437.927500", "163439.417500", "163440.907500", "163442.397500", "163443.887500", "163445.377500", "163446.867500", "163448.357500", "163449.847500", "163451.337500", "163452.827500", "163454.317500", "163455.807500", "163457.297500", "163458.787500", "163500.277500", "163501.767500", "163503.257500", "163504.747500", "163506.237500", "163507.727500", "163509.217500", "163510.707500", "163512.197500", "163513.687500", "163515.177500", "163516.667500", "163518.157500", "163519.647500", "163521.137500", "163522.627500", "163524.117500", "163525.607500", "163527.097500", "163528.587500", "163530.077500", "163531.567500", "163533.057500", "163534.547500", "163536.037500", "163537.527500", "163539.017500", "163540.507500", "163541.997500", "163543.487500", "163544.977500", "163546.467500", "163547.957500", "163549.447500", "163550.937500", "163552.427500", "163553.917500", "163555.407500", "163556.897500", "163558.387500", "163559.877500", "163601.367500", "163602.857500", "163604.347500", "163605.837500", "163607.327500", "163608.817500", "163610.307500", "163611.797500", "163613.287500", "163614.777500", "163616.267500", "163617.757500", "163619.247500", "163620.737500", "163622.227500", "163623.717500", "163625.207500", "163626.697500", "163628.187500", "163629.677500", "163631.167500", "163632.657500", "163634.147500", "163635.637500", "163637.127500", "163638.617500", "163640.107500", "163641.597500", "163643.087500", "163644.577500", "163646.067500", "163647.557500", "163649.047500", "163650.537500", "163652.027500", "163653.517500", "163655.007500", "163656.497500", "163657.987500", "163659.477500", "163700.967500", "163702.457500", "163703.947500", "163705.437500", "163706.927500", "163708.417500", "163709.907500", "163711.397500", "163712.887500", "163714.377500", "163715.867500", "163717.357500", "163718.847500", "163720.337500", "163721.827500", "163723.317500", "163724.807500", "163726.297500", "163727.787500", "163729.277500", "163730.767500", "163732.257500", "163733.747500", "163735.237500", "163736.727500", "163738.217500", "163739.707500", "163741.197500", "163742.687500", "163744.177500", "163745.667500", "163747.157500", "163748.647500", "163750.137500", "163751.627500", "163753.117500", "163754.607500", "163756.097500", "163757.587500", "163759.077500", "163800.567500", "163802.057500", "163803.547500", "163805.037500", "163806.527500", "163808.017500", "163809.507500", "163810.997500", "163812.487500", "163813.977500", "163815.467500", "163816.957500", "163818.447500", "163819.937500", "163821.427500", "163822.917500", "163824.407500", "163825.897500", "163827.387500", "163828.877500", "163830.367500", "163831.857500", "163833.347500", "163834.837500", "163836.327500", "163837.817500", "163839.307500", "163840.797500", "163842.287500", "163843.777500", "163845.267500", "163846.757500", "163848.247500", "163849.737500", "163851.227500", "163852.717500", "163854.207500", "163855.697500", "163857.187500", "163858.677500", "163900.167500", "163901.657500", "163903.147500", "163904.637500", "163906.127500", "163907.617500", "163909.107500", "163910.597500", "163912.087500", "163913.577500", "163915.067500", "163916.557500", "163918.047500", "163919.537500", "163921.027500", "163922.517500", "163924.007500", "163925.497500", "163926.987500", "163928.477500", "163929.967500", "163931.457500", "163932.947500", "163934.437500", "163935.927500", "163937.417500"],
      "ContentTime": ["163338.494000", "163338.498000", "163338.502000", "163338.506000", "163338.529000", "163338.532000", "163338.536000", "163338.539000", "163338.542000", "163338.545000", "163338.549000", "163338.552000", "163338.555000", "163338.559000", "163338.562000", "163338.565000", "163338.569000", "163338.575000", "163338.578000", "163338.581000", "163338.585000", "163338.588000", "163338.591000", "163338.595000", "163338.598000", "163358.440000", "163358.444000", "163358.447000", "163358.451000", "163358.454000", "163358.457000", "163358.461000", "163358.464000", "163358.467000", "163358.470000", "163358.474000", "163358.477000", "163358.480000", "163358.484000", "163358.487000", "163358.490000", "163358.494000", "163358.497000", "163358.500000", "163358.504000", "163358.507000", "163418.440000", "163418.444000", "163418.447000", "163418.450000", "163418.454000", "163418.457000", "163418.460000", "163418.463000", "163418.467000", "163418.470000", "163418.473000", "163418.477000", "163418.480000", "163418.483000", "163418.487000", "163418.490000", "163418.493000", "163418.497000", "163418.500000", "163418.503000", "163438.441000", "163438.445000", "163438.448000", "163438.451000", "163438.455000", "163438.458000", "163438.461000", "163438.464000", "163438.468000", "163438.471000", "163438.474000", "163438.478000", "163438.481000", "163438.484000", "163438.488000", "163438.491000", "163438.494000", "163438.498000", "163438.501000", "163438.504000", "163518.440000", "163518.444000", "163518.447000", "163518.450000", "163518.460000", "163518.463000", "163518.467000", "163518.470000", "163518.473000", "163518.477000", "163518.480000", "163518.483000", "163518.487000", "163518.490000", "163518.493000", "163518.497000", "163518.500000", "163518.503000", "163518.506000", "163518.510000", "163518.513000", "163518.516000", "163518.535000", "163518.538000", "163518.542000", "163518.545000", "163518.548000", "163518.551000", "163518.555000", "163518.558000", "163558.440000", "163558.444000", "163558.447000", "163558.450000", "163558.454000", "163558.457000", "163558.460000", "163558.464000", "163558.467000", "163558.470000", "163558.474000", "163558.477000", "163558.480000", "163558.484000", "163558.487000", "163558.490000", "163558.493000", "163558.497000", "163558.500000", "163558.503000", "163558.507000", "163558.510000", "163558.513000", "163558.516000", "163558.520000", "163558.523000", "163558.527000", "163638.440000", "163638.444000", "163638.447000", "163638.451000", "163638.454000", "163638.457000", "163638.460000", "163638.464000", "163638.467000", "163638.470000", "163638.474000", "163638.477000", "163638.480000", "163638.483000", "163638.493000", "163638.497000", "163638.500000", "163638.503000", "163638.507000", "163638.510000", "163638.513000", "163638.517000", "163638.520000", "163638.523000", "163638.527000", "163638.530000", "163638.540000", "163718.440000", "163718.444000", "163718.447000", "163718.450000", "163718.454000", "163718.457000", "163718.460000", "163718.464000", "163718.467000", "163718.470000", "163718.474000", "163718.477000", "163718.480000", "163718.483000", "163718.487000", "163718.490000", "163718.493000", "163718.497000", "163718.500000", "163718.503000", "163718.507000", "163718.510000", "163718.513000", "163718.516000", "163718.520000", "163718.523000", "163718.526000", "163758.440000", "163758.444000", "163758.458000", "163758.461000", "163758.464000", "163758.467000", "163758.470000", "163758.474000", "163758.477000", "163758.480000", "163758.484000", "163758.487000", "163758.490000", "163758.493000", "163758.497000", "163758.500000", "163758.503000", "163758.507000", "163758.510000", "163758.513000", "163758.516000", "163758.520000", "163758.523000", "163758.526000", "163758.529000", "163758.533000", "163758.536000", "163838.440000", "163838.444000", "163838.447000", "163838.451000", "163838.454000", "163838.457000", "163838.460000", "163838.464000", "163838.467000", "163838.470000", "163838.474000", "163838.477000", "163838.480000", "163838.484000", "163838.487000", "163838.490000", "163838.494000", "163838.497000", "163838.501000", "163838.504000", "163838.507000", "163838.510000", "163838.514000", "163838.517000", "163838.520000", "163838.524000", "163918.441000", "163918.445000", "163918.448000", "163918.452000", "163918.455000", "163918.458000", "163918.462000", "163918.465000", "163918.468000", "163918.471000", "163918.475000", "163918.478000", "163918.481000", "163918.485000", "163918.488000", "163918.491000", "163918.495000", "163918.498000", "163918.501000", "163918.505000", "163918.508000", "163918.511000", "163918.514000", "163918.518000", "163918.521000", "163918.524000", "163918.528000", "163940.867000", "163940.871000", "163940.874000", "163940.877000", "163940.881000", "163940.884000", "163940.887000", "163940.890000", "163940.894000", "163940.897000", "163940.901000", "163940.904000", "163940.907000", "163940.910000", "163940.914000"],
      "InstanceCreationTime": ["163338.494000", "163338.498000", "163338.502000", "163338.506000", "163338.529000", "163338.532000", "163338.536000", "163338.539000", "163338.542000", "163338.545000", "163338.549000", "163338.552000", "163338.555000", "163338.559000", "163338.562000", "163338.565000", "163338.569000", "163338.575000", "163338.578000", "163338.581000", "163338.585000", "163338.588000", "163338.591000", "163338.595000", "163338.598000", "163358.440000", "163358.444000", "163358.447000", "163358.451000", "163358.454000", "163358.457000", "163358.461000", "163358.464000", "163358.467000", "163358.470000", "163358.474000", "163358.477000", "163358.480000", "163358.484000", "163358.487000", "163358.490000", "163358.494000", "163358.497000", "163358.500000", "163358.504000", "163358.507000", "163418.440000", "163418.444000", "163418.447000", "163418.450000", "163418.454000", "163418.457000", "163418.460000", "163418.463000", "163418.467000", "163418.470000", "163418.473000", "163418.477000", "163418.480000", "163418.483000", "163418.487000", "163418.490000", "163418.493000", "163418.497000", "163418.500000", "163418.503000", "163438.441000", "163438.445000", "163438.448000", "163438.451000", "163438.455000", "163438.458000", "163438.461000", "163438.464000", "163438.468000", "163438.471000", "163438.474000", "163438.478000", "163438.481000", "163438.484000", "163438.488000", "163438.491000", "163438.494000", "163438.498000", "163438.501000", "163438.504000", "163518.440000", "163518.444000", "163518.447000", "163518.450000", "163518.460000", "163518.463000", "163518.467000", "163518.470000", "163518.473000", "163518.477000", "163518.480000", "163518.483000", "163518.487000", "163518.490000", "163518.493000", "163518.497000", "163518.500000", "163518.503000", "163518.506000", "163518.510000", "163518.513000", "163518.516000", "163518.535000", "163518.538000", "163518.542000", "163518.545000", "163518.548000", "163518.551000", "163518.555000", "163518.558000", "163558.440000", "163558.444000", "163558.447000", "163558.450000", "163558.454000", "163558.457000", "163558.460000", "163558.464000", "163558.467000", "163558.470000", "163558.474000", "163558.477000", "163558.480000", "163558.484000", "163558.487000", "163558.490000", "163558.493000", "163558.497000", "163558.500000", "163558.503000", "163558.507000", "163558.510000", "163558.513000", "163558.516000", "163558.520000", "163558.523000", "163558.527000", "163638.440000", "163638.444000", "163638.447000", "163638.451000", "163638.454000", "163638.457000", "163638.460000", "163638.464000", "163638.467000", "163638.470000", "163638.474000", "163638.477000", "163638.480000", "163638.483000", "163638.493000", "163638.497000", "163638.500000", "163638.503000", "163638.507000", "163638.510000", "163638.513000", "163638.517000", "163638.520000", "163638.523000", "163638.527000", "163638.530000", "163638.540000", "163718.440000", "163718.444000", "163718.447000", "163718.450000", "163718.454000", "163718.457000", "163718.460000", "163718.464000", "163718.467000", "163718.470000", "163718.474000", "163718.477000", "163718.480000", "163718.483000", "163718.487000", "163718.490000", "163718.493000", "163718.497000", "163718.500000", "163718.503000", "163718.507000", "163718.510000", "163718.513000", "163718.516000", "163718.520000", "163718.523000", "163718.526000", "163758.440000", "163758.444000", "163758.458000", "163758.461000", "163758.464000", "163758.467000", "163758.470000", "163758.474000", "163758.477000", "163758.480000", "163758.484000", "163758.487000", "163758.490000", "163758.493000", "163758.497000", "163758.500000", "163758.503000", "163758.507000", "163758.510000", "163758.513000", "163758.516000", "163758.520000", "163758.523000", "163758.526000", "163758.529000", "163758.533000", "163758.536000", "163838.440000", "163838.444000", "163838.447000", "163838.451000", "163838.454000", "163838.457000", "163838.460000", "163838.464000", "163838.467000", "163838.470000", "163838.474000", "163838.477000", "163838.480000", "163838.484000", "163838.487000", "163838.490000", "163838.494000", "163838.497000", "163838.501000", "163838.504000", "163838.507000", "163838.510000", "163838.514000", "163838.517000", "163838.520000", "163838.524000", "163918.441000", "163918.445000", "163918.448000", "163918.452000", "163918.455000", "163918.458000", "163918.462000", "163918.465000", "163918.468000", "163918.471000", "163918.475000", "163918.478000", "163918.481000", "163918.485000", "163918.488000", "163918.491000", "163918.495000", "163918.498000", "163918.501000", "163918.505000", "163918.508000", "163918.511000", "163918.514000", "163918.518000", "163918.521000", "163918.524000", "163918.528000", "163940.867000", "163940.871000", "163940.874000", "163940.877000", "163940.881000", "163940.884000", "163940.887000", "163940.890000", "163940.894000", "163940.897000", "163940.901000", "163940.904000", "163940.907000", "163940.910000", "163940.914000"],
      "InstanceNumber": [1, 2, 3, 4, 5, 6, 7, 8, 9, 10, 11, 12, 13, 14, 15, 16, 17, 18, 19, 20, 21, 22, 23, 24, 25, 26, 27, 28, 29, 30, 31, 32, 33, 34, 35, 36, 37, 38, 39, 40, 41, 42, 43, 44, 45, 46, 47, 48, 49, 50, 51, 52, 53, 54, 55, 56, 57, 58, 59, 60, 61, 62, 63, 64, 65, 66, 67, 68, 69, 70, 71, 72, 73, 74, 75, 76, 77, 78, 79, 80, 81, 82, 83, 84, 85, 86, 87, 88, 89, 90, 91, 92, 93, 94, 95, 96, 97, 98, 99, 100, 101, 102, 103, 104, 105, 106, 107, 108, 109, 110, 111, 112, 113, 114, 115, 116, 117, 118, 119, 120, 121, 122, 123, 124, 125, 126, 127, 128, 129, 130, 131, 132, 133, 134, 135, 136, 137, 138, 139, 140, 141, 142, 143, 144, 145, 146, 147, 148, 149, 150, 151, 152, 153, 154, 155, 156, 157, 158, 159, 160, 161, 162, 163, 164, 165, 166, 167, 168, 169, 170, 171, 172, 173, 174, 175, 176, 177, 178, 179, 180, 181, 182, 183, 184, 185, 186, 187, 188, 189, 190, 191, 192, 193, 194, 195, 196, 197, 198, 199, 200, 201, 202, 203, 204, 205, 206, 207, 208, 209, 210, 211, 212, 213, 214, 215, 216, 217, 218, 219, 220, 221, 222, 223, 224, 225, 226, 227, 228, 229, 230, 231, 232, 233, 234, 235, 236, 237, 238, 239, 240, 241, 242, 243, 244, 245, 246, 247, 248, 249, 250, 251, 252, 253, 254, 255, 256, 257, 258, 259, 260, 261, 262, 263, 264, 265, 266, 267, 268, 269, 270, 271, 272, 273, 274, 275, 276, 277, 278, 279, 280, 281, 282, 283, 284, 285, 286, 287, 288, 289, 290, 291, 292],
      "LargestImagePixelValue": [50367, 48488, 48395, 47444, 48224, 48743, 47939, 47952, 48801, 46715, 46798, 47978, 47203, 48753, 47591, 47877, 47888, 47055, 47263, 45413, 44814, 43593, 42596, 44855, 45342, 47360, 46541, 44995, 46176, 46722, 46042, 45968, 43434, 45127, 45622, 44351, 42352, 46151, 47727, 45257, 48244, 48472, 47219, 47486, 46357, 42431, 43355, 42728, 42808, 46875, 44781, 44862, 43328, 42791, 42475, 43027, 43927, 45516, 43528, 45957, 46028, 46084, 45092, 43794, 44332, 43850, 46371, 43451, 44861, 44986, 44215, 43100, 42820, 43068, 43463, 42718, 42886, 43143, 42451, 42547, 43190, 43729, 47062, 47970, 44568, 47536, 45746, 46190, 46367, 43779, 45402, 44132, 44289, 42765, 46472, 44705, 46786, 44263, 43801, 45025, 45425, 46527, 45484, 47461, 45422, 46666, 45377, 46429, 45943, 45975, 46833, 46312, 44476, 47703, 44639, 46289, 46247, 47725, 46717, 44859, 45381, 43811, 45093, 45319, 45859, 45712, 45590, 45468, 47789, 45209, 45789, 46456, 44973, 43982, 44469, 43576, 45112, 44333, 46592, 45716, 47277, 46742, 45707, 46904, 46226, 48171, 46520, 47023, 46799, 46527, 46371, 47024, 46238, 47238, 46935, 46391, 47210, 46404, 45974, 47060, 45561, 44716, 46705, 45747, 47456, 46889, 47182, 46176, 46762, 47924, 47093, 48093, 47468, 47578, 45642, 48870, 48618, 48422, 48423, 47933, 47247, 47010, 45632, 45518, 47830, 47370, 46449, 47905, 46712, 47589, 47022, 45590, 46678, 46329, 48808, 47818, 47417, 47917, 46288, 47441, 46955, 48580, 48234, 47924, 47553, 47904, 46184, 47094, 46887, 46955, 47867, 48384, 46995, 47533, 48629, 47171, 47183, 46863, 47193, 46847, 47623, 46191, 45852, 46739, 46994, 47071, 46073, 46291, 47339, 46285, 46059, 46843, 47355, 46225, 46886, 46185, 46738, 45705, 45663, 46247, 47607, 47902, 48792, 46764, 48043, 46480, 47271, 47751, 47072, 45968, 43008, 45181, 46055, 46261, 46232, 45561, 45199, 44300, 45921, 44522, 46359, 46962, 47419, 48827, 47767, 48525, 47475, 47370, 47567, 45307, 45672, 48982, 48233, 48141, 48335, 47409, 48307, 48633, 48381, 48642, 48950, 48917, 47729, 47782, 48443, 48758, 48517, 47808, 48384, 48202, 47780, 48646],
      "WindowCenter": [11129.0, 11051.0, 11031.0, 11022.0, 11027.0, 11046.0, 10993.0, 10989.0, 11018.0, 10986.0, 11013.0, 11076.0, 11109.0, 11145.0, 11155.0, 11125.0, 11101.0, 11039.0, 10997.0, 10976.0, 10938.0, 10947.0, 10964.0, 11013.0, 11023.0, 11067.0, 11061.0, 11049.0, 11056.0, 11019.0, 10962.0, 10936.0, 10954.0, 11027.0, 10981.0, 10975.0, 10948.0, 11026.0, 11047.0, 11014.0, 11050.0, 11056.0, 11002.0, 10987.0, 11016.0, 10947.0, 10969.0, 10969.0, 10958.0, 10978.0, 10939.0, 10934.0, 10934.0, 10950.0, 10957.0, 11006.0, 11022.0, 11007.0, 11006.0, 11038.0, 11049.0, 11002.0, 10930.0, 10859.0, 10972.0, 10994.0, 11070.0, 11104.0, 11090.0, 11068.0, 11000.0, 10938.0, 10966.0, 10970.0, 10984.0, 10936.0, 10942.0, 10936.0, 10924.0, 10942.0, 10935.0, 10960.0, 11001.0, 10989.0, 10962.0, 11055.0, 11063.0, 11051.0, 11046.0, 10978.0, 10977.0, 10921.0, 10880.0, 10915.0, 10992.0, 10973.0, 10975.0, 10915.0, 10932.0, 10955.0, 10954.0, 11048.0, 11042.0, 11070.0, 11055.0, 11068.0, 11046.0, 11033.0, 10976.0, 10952.0, 10927.0, 10965.0, 11031.0, 11110.0, 11059.0, 11061.0, 11026.0, 11003.0, 10941.0, 10770.0, 10983.0, 11007.0, 11053.0, 11056.0, 11010.0, 10993.0, 11020.0, 11041.0, 11069.0, 11030.0, 11048.0, 11030.0, 10944.0, 10927.0, 10937.0, 10945.0, 11008.0, 11051.0, 11140.0, 11164.0, 11155.0, 11097.0, 11065.0, 11054.0, 11053.0, 11063.0, 11010.0, 10987.0, 10966.0, 10970.0, 10985.0, 10991.0, 10992.0, 10974.0, 10973.0, 10964.0, 10982.0, 10981.0, 11010.0, 11060.0, 11058.0, 11046.0, 11041.0, 10985.0, 11029.0, 11032.0, 11017.0, 11020.0, 11032.0, 11050.0, 11042.0, 11038.0, 11033.0, 11042.0, 10979.0, 11063.0, 11050.0, 11048.0, 11059.0, 11039.0, 11028.0, 11023.0, 10973.0, 10973.0, 10987.0, 10992.0, 10985.0, 11019.0, 10999.0, 11014.0, 11001.0, 10959.0, 10999.0, 11009.0, 11039.0, 11015.0, 10999.0, 11010.0, 11004.0, 11019.0, 11035.0, 11060.0, 11032.0, 10984.0, 10956.0, 10971.0, 10975.0, 11040.0, 11083.0, 11083.0, 11079.0, 11063.0, 11022.0, 11017.0, 11041.0, 11024.0, 11035.0, 11026.0, 11027.0, 11006.0, 11009.0, 10989.0, 10992.0, 11016.0, 11015.0, 11015.0, 10988.0, 10986.0, 10983.0, 10963.0, 10938.0, 10980.0, 11000.0, 10994.0, 10998.0, 10971.0, 10951.0, 10957.0, 10980.0, 10978.0, 11016.0, 11079.0, 11045.0, 11008.0, 11028.0, 11024.0, 11031.0, 11034.0, 10970.0, 10959.0, 10794.0, 10958.0, 10904.0, 10878.0, 10888.0, 10913.0, 10948.0, 10950.0, 10950.0, 10947.0, 10985.0, 10991.0, 10982.0, 11005.0, 10993.0, 11004.0, 10979.0, 10949.0, 10954.0, 10947.0, 11001.0, 11076.0, 11077.0, 11042.0, 11002.0, 10914.0, 11007.0, 10999.0, 11033.0, 11054.0, 11045.0, 11025.0, 11022.0, 11021.0, 11015.0, 10987.0, 10988.0, 11006.0, 11017.0, 11011.0, 11017.0, 11029.0],
