{
  "AcquisitionMatrixPE": 104,
  "AcquisitionNumber": 1,
  "AcquisitionTime": "18:39:27.022500",
  "BandwidthPerPixelPhaseEncode": 17.17,
  "BaseResolution": 104,
  "BodyPartExamined": "BRAIN",
  "CoilCombinationMethod": "Sum of Squares",
  "ConsistencyInfo": "N4_VE11C_LATEST_20160120",
  "ConversionSoftware": "dcm2niix",
  "ConversionSoftwareVersion": "v1.0.20220505",
  "DerivedVendorReportedEchoSpacing": 0.000560011,
  "DeviceSerialNumber": "167006",
  "DwellTime": 2.1e-06,
  "EchoTime": 0.037,
  "EchoTime1": 0.037,
  "EchoTime2": 0.001,
  "EchoTrainLength": 104,
  "EffectiveEchoSpacing": 0.000560011,
  "FlipAngle": 52,
  "HeudiconvVersion": "0.5.3.post811+g6206e14",
  "ImageComments": "Unaliased MB4/PE3/LB",
  "ImageOrientationPatientDICOM": [0.999875, 0.0112852, 0.0110576, -0.00820223, 0.968932, -0.247192],
  "ImageOrientationText": "Tra>Cor(-14.3)>Sag(0.8)",
  "ImageType": [
    "ORIGINAL",
    "PRIMARY",
    "P",
    "MB",
    "ND",
    "MOSAIC",
    "PHASE"
],
  "ImagingFrequency": 123.26,
  "InPlanePhaseEncodingDirectionDICOM": "COL",
  "InstitutionAddress": "Chemin Queen-Mary 4565,Montreal,District,CA,H3W 1W5",
  "InstitutionName": "IUGM",
  "InstitutionalDepartmentName": "Department",
  "MRAcquisitionType": "2D",
  "MagneticFieldStrength": 3,
  "Manufacturer": "Siemens",
  "ManufacturersModelName": "Prisma_fit",
  "MatrixCoilMode": "SENSE",
  "Modality": "MR",
  "MultibandAccelerationFactor": 4,
  "PartialFourier": 1,
  "PatientPosition": "HFS",
  "PercentPhaseFOV": 100,
  "PercentSampling": 100,
  "PhaseEncodingDirection": "j",
  "PhaseEncodingSteps": 104,
  "PhaseResolution": 1,
  "PixelBandwidth": 2290,
  "ProcedureStepDescription": "games^mario3",
  "ProtocolName": "func_task-mario3_run-04",
  "PulseSequenceDetails": "%CustomerSeq%\\cmrr_mbep2d_bold",
  "ReceiveCoilActiveElements": "HC1-7;NC1,2",
  "ReceiveCoilName": "HeadNeck_64",
  "ReconMatrixPE": 104,
  "RepetitionTime": 1.49,
  "SAR": 0.0362188,
  "ScanOptions": "FS",
  "ScanningSequence": "EP",
  "SequenceName": "epfid2d1_104",
  "SequenceVariant": "SK\\SS",
  "SeriesDescription": "func_task-mario3_run-04",
  "SeriesNumber": 20,
  "ShimSetting": [621, -7242, -8716, 737, 63, -41, 79, 6],
  "SliceThickness": 2,
  "SliceTiming": [0, 0.785, 0.0975, 0.8825, 0.195, 0.98, 0.295, 1.0775, 0.3925, 1.175, 0.49, 1.275, 0.5875, 1.3725, 0.685, 0, 0.785, 0.0975, 0.8825, 0.195, 0.98, 0.295, 1.0775, 0.3925, 1.175, 0.49, 1.275, 0.5875, 1.3725, 0.685, 0, 0.785, 0.0975, 0.8825, 0.195, 0.98, 0.295, 1.0775, 0.3925, 1.175, 0.49, 1.275, 0.5875, 1.3725, 0.685, 0, 0.785, 0.0975, 0.8825, 0.195, 0.98, 0.295, 1.0775, 0.3925, 1.175, 0.49, 1.275, 0.5875, 1.3725, 0.685],
  "SoftwareVersions": "syngo MR E11",
  "SpacingBetweenSlices": 2,
  "StationName": "MRC35049",
  "TaskName": "mario3",
  "TotalReadoutTime": 0.0576811,
  "TxRefAmp": 206.33,
  "WipMemBlock": "75b8104b-8dad-43bc-8356-9387539d15ef||Sequence: R017 ve11c/master r/75a17815+; Jun 28 2022 16:32:11 by eja",
  "dcmmeta_affine": [
    [-1.9997503757476807, -0.01640445552766323, 0.027007432654500008, 109.14628601074219],
    [-0.02257036231458187, 1.9378634691238403, -0.4941416382789612, -73.79918670654297],
    [0.022115295752882957, 0.4943847358226776, 1.9378067255020142, -38.52891540527344],
    [0.0, 0.0, 0.0, 1.0]
],
  "dcmmeta_reorient_transform": [
    [0.0, -1.0, 0.0, 103.0],
    [1.0, 0.0, 0.0, 0.0],
    [0.0, 0.0, 1.0, 0.0],
    [0.0, 0.0, 0.0, 1.0]
],
  "dcmmeta_shape": [104, 104, 60, 338],
  "dcmmeta_slice_dim": 2,
  "dcmmeta_version": 0.6,
  "global": {
    "const": {
      "AcquisitionMatrix": [104, 0, 0, 104],
      "AngioFlag": "N",
      "BitsAllocated": 16,
      "BitsStored": 16,
      "BodyPartExamined": "BRAIN",
      "Columns": 832,
      "EchoNumbers": 1,
      "EchoTime": 37.0,
      "EchoTrainLength": 104,
      "FlipAngle": 52.0,
      "HighBit": 15,
      "ImageOrientationPatient": [0.99987517876512, 0.0112851811111, 0.01105764788283, -0.0082022274594, 0.96893170883032, -0.2471923685874],
      "ImagePositionPatient": [-829.39453256747, -839.39863915307, 184.29879107167],
      "ImageType": [
        "ORIGINAL",
        "PRIMARY",
        "P",
        "MB",
        "ND",
        "MOSAIC"
],
      "ImagedNucleus": "1H",
      "ImagingFrequency": 123.26027,
      "InPlanePhaseEncodingDirection": "COL",
      "LargestImagePixelValue": 4095,
      "MRAcquisitionType": "2D",
      "MagneticFieldStrength": 3.0,
      "Manufacturer": "SIEMENS",
      "ManufacturerModelName": "Prisma_fit",
      "Modality": "MR",
      "NumberOfAverages": 1.0,
      "NumberOfPhaseEncodingSteps": 104,
      "PercentPhaseFieldOfView": 100.0,
      "PercentSampling": 100.0,
      "PerformedProcedureStepStartTime": "181057.394000",
      "PhotometricInterpretation": "MONOCHROME2",
      "PixelBandwidth": 2290.0,
      "PixelRepresentation": 0,
      "PixelSpacing": [2.0, 2.0],
      "ProtocolName": "func_task-mario3_run-04",
      "RepetitionTime": 1490.0,
      "RescaleIntercept": -4096.0,
      "RescaleSlope": 2.0,
      "RescaleType": "US",
      "Rows": 832,
      "SAR": 0.03621880771186,
      "SamplesPerPixel": 1,
      "ScanOptions": "FS",
      "ScanningSequence": "EP",
      "SequenceName": "epfid2d1_104",
      "SequenceVariant": [
        "SK",
        "SS"
],
      "SeriesDescription": "func_task-mario3_run-04",
      "SeriesNumber": 20,
      "SeriesTime": "184038.025000",
      "SliceLocation": -17.623286338467,
      "SliceThickness": 2.0,
      "SmallestImagePixelValue": 0,
      "SoftwareVersions": "syngo MR E11",
      "SpacingBetweenSlices": 2.0000000361748,
      "SpecificCharacterSet": "ISO_IR 100",
      "StudyID": "1",
      "StudyTime": "181057.315000",
      "TransmitCoilName": "Body",
      "VariableFlipAngleFlag": "N",
      "WindowCenterWidthExplanation": "Algo1",
      "dBdt": 0.0},
    "slices": {}
  },
  "time": {
    "samples": {
      "AcquisitionNumber": [1, 2, 3, 4, 5, 6, 7, 8, 9, 10, 11, 12, 13, 14, 15, 16, 17, 18, 19, 20, 21, 22, 23, 24, 25, 26, 27, 28, 29, 30, 31, 32, 33, 34, 35, 36, 37, 38, 39, 40, 41, 42, 43, 44, 45, 46, 47, 48, 49, 50, 51, 52, 53, 54, 55, 56, 57, 58, 59, 60, 61, 62, 63, 64, 65, 66, 67, 68, 69, 70, 71, 72, 73, 74, 75, 76, 77, 78, 79, 80, 81, 82, 83, 84, 85, 86, 87, 88, 89, 90, 91, 92, 93, 94, 95, 96, 97, 98, 99, 100, 101, 102, 103, 104, 105, 106, 107, 108, 109, 110, 111, 112, 113, 114, 115, 116, 117, 118, 119, 120, 121, 122, 123, 124, 125, 126, 127, 128, 129, 130, 131, 132, 133, 134, 135, 136, 137, 138, 139, 140, 141, 142, 143, 144, 145, 146, 147, 148, 149, 150, 151, 152, 153, 154, 155, 156, 157, 158, 159, 160, 161, 162, 163, 164, 165, 166, 167, 168, 169, 170, 171, 172, 173, 174, 175, 176, 177, 178, 179, 180, 181, 182, 183, 184, 185, 186, 187, 188, 189, 190, 191, 192, 193, 194, 195, 196, 197, 198, 199, 200, 201, 202, 203, 204, 205, 206, 207, 208, 209, 210, 211, 212, 213, 214, 215, 216, 217, 218, 219, 220, 221, 222, 223, 224, 225, 226, 227, 228, 229, 230, 231, 232, 233, 234, 235, 236, 237, 238, 239, 240, 241, 242, 243, 244, 245, 246, 247, 248, 249, 250, 251, 252, 253, 254, 255, 256, 257, 258, 259, 260, 261, 262, 263, 264, 265, 266, 267, 268, 269, 270, 271, 272, 273, 274, 275, 276, 277, 278, 279, 280, 281, 282, 283, 284, 285, 286, 287, 288, 289, 290, 291, 292, 293, 294, 295, 296, 297, 298, 299, 300, 301, 302, 303, 304, 305, 306, 307, 308, 309, 310, 311, 312, 313, 314, 315, 316, 317, 318, 319, 320, 321, 322, 323, 324, 325, 326, 327, 328, 329, 330, 331, 332, 333, 334, 335, 336, 337, 338],
      "AcquisitionTime": ["183927.022500", "183928.512500", "183930.002500", "183931.492500", "183932.982500", "183934.472500", "183935.962500", "183937.452500", "183938.942500", "183940.432500", "183941.922500", "183943.412500", "183944.902500", "183946.392500", "183947.882500", "183949.372500", "183950.862500", "183952.352500", "183953.842500", "183955.332500", "183956.822500", "183958.312500", "183959.802500", "184001.292500", "184002.782500", "184004.272500", "184005.762500", "184007.252500", "184008.742500", "184010.232500", "184011.722500", "184013.212500", "184014.702500", "184016.192500", "184017.682500", "184019.172500", "184020.662500", "184022.152500", "184023.642500", "184025.132500", "184026.622500", "184028.112500", "184029.602500", "184031.092500", "184032.582500", "184034.072500", "184035.562500", "184037.052500", "184038.542500", "184040.032500", "184041.522500", "184043.012500", "184044.502500", "184045.992500", "184047.482500", "184048.972500", "184050.462500", "184051.952500", "184053.442500", "184054.932500", "184056.422500", "184057.912500", "184059.402500", "184100.892500", "184102.382500", "184103.872500", "184105.362500", "184106.852500", "184108.342500", "184109.832500", "184111.322500", "184112.812500", "184114.302500", "184115.792500", "184117.282500", "184118.772500", "184120.262500", "184121.752500", "184123.242500", "184124.732500", "184126.222500", "184127.712500", "184129.202500", "184130.692500", "184132.182500", "184133.672500", "184135.162500", "184136.652500", "184138.142500", "184139.632500", "184141.122500", "184142.612500", "184144.102500", "184145.592500", "184147.082500", "184148.572500", "184150.062500", "184151.552500", "184153.042500", "184154.532500", "184156.022500", "184157.512500", "184159.002500", "184200.492500", "184201.982500", "184203.472500", "184204.962500", "184206.452500", "184207.942500", "184209.432500", "184210.922500", "184212.412500", "184213.902500", "184215.392500", "184216.882500", "184218.372500", "184219.862500", "184221.352500", "184222.842500", "184224.332500", "184225.822500", "184227.312500", "184228.802500", "184230.292500", "184231.782500", "184233.272500", "184234.762500", "184236.252500", "184237.742500", "184239.232500", "184240.722500", "184242.212500", "184243.702500", "184245.192500", "184246.682500", "184248.172500", "184249.662500", "184251.152500", "184252.642500", "184254.132500", "184255.622500", "184257.112500", "184258.602500", "184300.092500", "184301.582500", "184303.072500", "184304.562500", "184306.052500", "184307.542500", "184309.032500", "184310.522500", "184312.012500", "184313.502500", "184314.992500", "184316.482500", "184317.972500", "184319.462500", "184320.952500", "184322.442500", "184323.932500", "184325.422500", "184326.912500", "184328.402500", "184329.892500", "184331.382500", "184332.872500", "184334.362500", "184335.852500", "184337.342500", "184338.832500", "184340.322500", "184341.812500", "184343.302500", "184344.792500", "184346.282500", "184347.772500", "184349.262500", "184350.752500", "184352.242500", "184353.732500", "184355.222500", "184356.712500", "184358.202500", "184359.692500", "184401.182500", "184402.672500", "184404.162500", "184405.652500", "184407.142500", "184408.632500", "184410.122500", "184411.612500", "184413.102500", "184414.592500", "184416.082500", "184417.572500", "184419.062500", "184420.552500", "184422.042500", "184423.532500", "184425.022500", "184426.512500", "184428.002500", "184429.492500", "184430.982500", "184432.472500", "184433.962500", "184435.452500", "184436.942500", "184438.432500", "184439.922500", "184441.412500", "184442.902500", "184444.392500", "184445.882500", "184447.372500", "184448.862500", "184450.352500", "184451.842500", "184453.332500", "184454.822500", "184456.312500", "184457.802500", "184459.292500", "184500.782500", "184502.272500", "184503.762500", "184505.252500", "184506.742500", "184508.232500", "184509.722500", "184511.212500", "184512.702500", "184514.192500", "184515.682500", "184517.172500", "184518.662500", "184520.152500", "184521.642500", "184523.132500", "184524.622500", "184526.112500", "184527.602500", "184529.092500", "184530.582500", "184532.072500", "184533.562500", "184535.052500", "184536.542500", "184538.032500", "184539.522500", "184541.012500", "184542.502500", "184543.992500", "184545.482500", "184546.972500", "184548.462500", "184549.952500", "184551.442500", "184552.932500", "184554.422500", "184555.912500", "184557.402500", "184558.892500", "184600.382500", "184601.872500", "184603.362500", "184604.852500", "184606.342500", "184607.832500", "184609.322500", "184610.812500", "184612.302500", "184613.792500", "184615.282500", "184616.772500", "184618.262500", "184619.752500", "184621.242500", "184622.732500", "184624.222500", "184625.712500", "184627.202500", "184628.692500", "184630.182500", "184631.672500", "184633.162500", "184634.652500", "184636.142500", "184637.632500", "184639.122500", "184640.612500", "184642.102500", "184643.592500", "184645.082500", "184646.572500", "184648.062500", "184649.552500", "184651.042500", "184652.532500", "184654.022500", "184655.512500", "184657.002500", "184658.492500", "184659.982500", "184701.472500", "184702.962500", "184704.452500", "184705.942500", "184707.432500", "184708.922500", "184710.412500", "184711.902500", "184713.392500", "184714.882500", "184716.372500", "184717.862500", "184719.352500", "184720.842500", "184722.332500", "184723.822500", "184725.312500", "184726.802500", "184728.292500", "184729.782500", "184731.272500", "184732.762500", "184734.252500", "184735.742500", "184737.232500", "184738.722500", "184740.212500", "184741.702500", "184743.192500", "184744.682500", "184746.172500", "184747.662500", "184749.152500"],
      "ContentTime": ["184038.027000", "184038.030000", "184038.032000", "184038.035000", "184038.045000", "184038.048000", "184038.051000", "184038.053000", "184038.056000", "184038.058000", "184038.061000", "184038.063000", "184038.066000", "184038.069000", "184038.071000", "184038.074000", "184038.076000", "184038.079000", "184038.081000", "184038.084000", "184057.990000", "184057.993000", "184057.995000", "184057.998000", "184058.002000", "184058.004000", "184058.007000", "184058.009000", "184058.012000", "184058.014000", "184058.017000", "184058.019000", "184058.022000", "184058.024000", "184058.027000", "184058.029000", "184058.032000", "184058.034000", "184058.037000", "184058.040000", "184117.995000", "184117.997000", "184118.001000", "184118.004000", "184118.006000", "184118.009000", "184118.011000", "184118.014000", "184118.016000", "184118.025000", "184118.028000", "184118.030000", "184118.039000", "184118.041000", "184118.044000", "184118.046000", "184118.049000", "184118.053000", "184118.056000", "184118.058000", "184138.007000", "184138.010000", "184138.013000", "184138.015000", "184138.018000", "184138.020000", "184138.023000", "184138.025000", "184138.028000", "184138.031000", "184138.033000", "184138.036000", "184138.038000", "184138.041000", "184138.043000", "184138.046000", "184138.048000", "184138.051000", "184138.053000", "184138.056000", "184138.058000", "184218.079000", "184218.082000", "184218.085000", "184218.087000", "184218.090000", "184218.092000", "184218.095000", "184218.098000", "184218.100000", "184218.103000", "184218.105000", "184218.108000", "184218.111000", "184218.113000", "184218.116000", "184218.129000", "184218.131000", "184218.134000", "184218.137000", "184218.139000", "184218.142000", "184218.145000", "184218.147000", "184218.150000", "184218.152000", "184218.155000", "184218.157000", "184218.160000", "184218.162000", "184218.165000", "184218.167000", "184218.170000", "184258.503000", "184258.505000", "184258.508000", "184258.511000", "184258.513000", "184258.516000", "184258.518000", "184258.521000", "184258.523000", "184258.526000", "184258.528000", "184258.531000", "184258.533000", "184258.536000", "184258.538000", "184258.541000", "184258.550000", "184258.552000", "184258.555000", "184258.557000", "184258.560000", "184258.563000", "184258.565000", "184258.568000", "184258.570000", "184258.573000", "184258.575000", "184338.025000", "184338.027000", "184338.030000", "184338.033000", "184338.035000", "184338.038000", "184338.040000", "184338.043000", "184338.045000", "184338.048000", "184338.050000", "184338.053000", "184338.056000", "184338.058000", "184338.061000", "184338.063000", "184338.066000", "184338.069000", "184338.071000", "184338.074000", "184338.076000", "184338.079000", "184338.082000", "184338.084000", "184338.087000", "184338.089000", "184338.092000", "184418.022000", "184418.025000", "184418.027000", "184418.030000", "184418.033000", "184418.035000", "184418.038000", "184418.040000", "184418.043000", "184418.046000", "184418.048000", "184418.051000", "184418.053000", "184418.056000", "184418.059000", "184418.061000", "184418.064000", "184418.067000", "184418.069000", "184418.072000", "184418.074000", "184418.077000", "184418.079000", "184418.082000", "184418.085000", "184418.087000", "184418.090000", "184458.018000", "184458.021000", "184458.024000", "184458.026000", "184458.029000", "184458.032000", "184458.034000", "184458.037000", "184458.039000", "184458.042000", "184458.044000", "184458.047000", "184458.049000", "184458.052000", "184458.055000", "184458.057000", "184458.060000", "184458.062000", "184458.065000", "184458.067000", "184458.070000", "184458.073000", "184458.075000", "184458.078000", "184458.080000", "184458.083000", "184458.085000", "184538.021000", "184538.024000", "184538.026000", "184538.029000", "184538.031000", "184538.034000", "184538.037000", "184538.045000", "184538.047000", "184538.050000", "184538.052000", "184538.055000", "184538.058000", "184538.060000", "184538.063000", "184538.065000", "184538.068000", "184538.070000", "184538.073000", "184538.076000", "184538.078000", "184538.081000", "184538.083000", "184538.086000", "184538.089000", "184538.091000", "184538.094000", "184618.030000", "184618.033000", "184618.036000", "184618.038000", "184618.041000", "184618.044000", "184618.046000", "184618.049000", "184618.051000", "184618.054000", "184618.056000", "184618.059000", "184618.061000", "184618.064000", "184618.066000", "184618.069000", "184618.071000", "184618.074000", "184618.077000", "184618.079000", "184618.082000", "184618.084000", "184618.087000", "184618.089000", "184618.092000", "184618.094000", "184618.097000", "184658.038000", "184658.041000", "184658.044000", "184658.046000", "184658.049000", "184658.051000", "184658.054000", "184658.057000", "184658.059000", "184658.062000", "184658.064000", "184658.067000", "184658.069000", "184658.072000", "184658.074000", "184658.077000", "184658.079000", "184658.082000", "184658.084000", "184658.087000", "184658.089000", "184658.092000", "184658.095000", "184658.097000", "184658.100000", "184658.102000", "184738.029000", "184738.035000", "184738.037000", "184738.040000", "184738.042000", "184738.045000", "184738.048000", "184738.050000", "184738.053000", "184738.055000", "184738.058000", "184738.061000", "184738.063000", "184738.066000", "184738.068000", "184738.071000", "184738.074000", "184738.076000", "184738.079000", "184738.081000", "184738.084000", "184738.086000", "184738.089000", "184738.091000", "184738.094000", "184738.096000", "184738.099000", "184752.803000", "184752.805000", "184752.808000", "184752.811000", "184752.813000", "184752.816000", "184752.818000", "184752.821000", "184752.823000", "184752.826000"],
      "InstanceCreationTime": ["184038.027000", "184038.030000", "184038.032000", "184038.035000", "184038.045000", "184038.048000", "184038.051000", "184038.053000", "184038.056000", "184038.058000", "184038.061000", "184038.063000", "184038.066000", "184038.069000", "184038.071000", "184038.074000", "184038.076000", "184038.079000", "184038.081000", "184038.084000", "184057.990000", "184057.993000", "184057.995000", "184057.998000", "184058.002000", "184058.004000", "184058.007000", "184058.009000", "184058.012000", "184058.014000", "184058.017000", "184058.019000", "184058.022000", "184058.024000", "184058.027000", "184058.029000", "184058.032000", "184058.034000", "184058.037000", "184058.040000", "184117.995000", "184117.997000", "184118.001000", "184118.004000", "184118.006000", "184118.009000", "184118.011000", "184118.014000", "184118.016000", "184118.025000", "184118.028000", "184118.030000", "184118.039000", "184118.041000", "184118.044000", "184118.046000", "184118.049000", "184118.053000", "184118.056000", "184118.058000", "184138.007000", "184138.010000", "184138.013000", "184138.015000", "184138.018000", "184138.020000", "184138.023000", "184138.025000", "184138.028000", "184138.031000", "184138.033000", "184138.036000", "184138.038000", "184138.041000", "184138.043000", "184138.046000", "184138.048000", "184138.051000", "184138.053000", "184138.056000", "184138.058000", "184218.079000", "184218.082000", "184218.085000", "184218.087000", "184218.090000", "184218.092000", "184218.095000", "184218.098000", "184218.100000", "184218.103000", "184218.105000", "184218.108000", "184218.111000", "184218.113000", "184218.116000", "184218.129000", "184218.131000", "184218.134000", "184218.137000", "184218.139000", "184218.142000", "184218.145000", "184218.147000", "184218.150000", "184218.152000", "184218.155000", "184218.157000", "184218.160000", "184218.162000", "184218.165000", "184218.167000", "184218.170000", "184258.503000", "184258.505000", "184258.508000", "184258.511000", "184258.513000", "184258.516000", "184258.518000", "184258.521000", "184258.523000", "184258.526000", "184258.528000", "184258.531000", "184258.533000", "184258.536000", "184258.538000", "184258.541000", "184258.550000", "184258.552000", "184258.555000", "184258.557000", "184258.560000", "184258.563000", "184258.565000", "184258.568000", "184258.570000", "184258.573000", "184258.575000", "184338.025000", "184338.027000", "184338.030000", "184338.033000", "184338.035000", "184338.038000", "184338.040000", "184338.043000", "184338.045000", "184338.048000", "184338.050000", "184338.053000", "184338.056000", "184338.058000", "184338.061000", "184338.063000", "184338.066000", "184338.069000", "184338.071000", "184338.074000", "184338.076000", "184338.079000", "184338.082000", "184338.084000", "184338.087000", "184338.089000", "184338.092000", "184418.022000", "184418.025000", "184418.027000", "184418.030000", "184418.033000", "184418.035000", "184418.038000", "184418.040000", "184418.043000", "184418.046000", "184418.048000", "184418.051000", "184418.053000", "184418.056000", "184418.059000", "184418.061000", "184418.064000", "184418.067000", "184418.069000", "184418.072000", "184418.074000", "184418.077000", "184418.079000", "184418.082000", "184418.085000", "184418.087000", "184418.090000", "184458.018000", "184458.021000", "184458.024000", "184458.026000", "184458.029000", "184458.032000", "184458.034000", "184458.037000", "184458.039000", "184458.042000", "184458.044000", "184458.047000", "184458.049000", "184458.052000", "184458.055000", "184458.057000", "184458.060000", "184458.062000", "184458.065000", "184458.067000", "184458.070000", "184458.073000", "184458.075000", "184458.078000", "184458.080000", "184458.083000", "184458.085000", "184538.021000", "184538.024000", "184538.026000", "184538.029000", "184538.031000", "184538.034000", "184538.037000", "184538.045000", "184538.047000", "184538.050000", "184538.052000", "184538.055000", "184538.058000", "184538.060000", "184538.063000", "184538.065000", "184538.068000", "184538.070000", "184538.073000", "184538.076000", "184538.078000", "184538.081000", "184538.083000", "184538.086000", "184538.089000", "184538.091000", "184538.094000", "184618.030000", "184618.033000", "184618.036000", "184618.038000", "184618.041000", "184618.044000", "184618.046000", "184618.049000", "184618.051000", "184618.054000", "184618.056000", "184618.059000", "184618.061000", "184618.064000", "184618.066000", "184618.069000", "184618.071000", "184618.074000", "184618.077000", "184618.079000", "184618.082000", "184618.084000", "184618.087000", "184618.089000", "184618.092000", "184618.094000", "184618.097000", "184658.038000", "184658.041000", "184658.044000", "184658.046000", "184658.049000", "184658.051000", "184658.054000", "184658.057000", "184658.059000", "184658.062000", "184658.064000", "184658.067000", "184658.069000", "184658.072000", "184658.074000", "184658.077000", "184658.079000", "184658.082000", "184658.084000", "184658.087000", "184658.089000", "184658.092000", "184658.095000", "184658.097000", "184658.100000", "184658.102000", "184738.029000", "184738.035000", "184738.037000", "184738.040000", "184738.042000", "184738.045000", "184738.048000", "184738.050000", "184738.053000", "184738.055000", "184738.058000", "184738.061000", "184738.063000", "184738.066000", "184738.068000", "184738.071000", "184738.074000", "184738.076000", "184738.079000", "184738.081000", "184738.084000", "184738.086000", "184738.089000", "184738.091000", "184738.094000", "184738.096000", "184738.099000", "184752.803000", "184752.805000", "184752.808000", "184752.811000", "184752.813000", "184752.816000", "184752.818000", "184752.821000", "184752.823000", "184752.826000"],
      "InstanceNumber": [1, 2, 3, 4, 5, 6, 7, 8, 9, 10, 11, 12, 13, 14, 15, 16, 17, 18, 19, 20, 21, 22, 23, 24, 25, 26, 27, 28, 29, 30, 31, 32, 33, 34, 35, 36, 37, 38, 39, 40, 41, 42, 43, 44, 45, 46, 47, 48, 49, 50, 51, 52, 53, 54, 55, 56, 57, 58, 59, 60, 61, 62, 63, 64, 65, 66, 67, 68, 69, 70, 71, 72, 73, 74, 75, 76, 77, 78, 79, 80, 81, 82, 83, 84, 85, 86, 87, 88, 89, 90, 91, 92, 93, 94, 95, 96, 97, 98, 99, 100, 101, 102, 103, 104, 105, 106, 107, 108, 109, 110, 111, 112, 113, 114, 115, 116, 117, 118, 119, 120, 121, 122, 123, 124, 125, 126, 127, 128, 129, 130, 131, 132, 133, 134, 135, 136, 137, 138, 139, 140, 141, 142, 143, 144, 145, 146, 147, 148, 149, 150, 151, 152, 153, 154, 155, 156, 157, 158, 159, 160, 161, 162, 163, 164, 165, 166, 167, 168, 169, 170, 171, 172, 173, 174, 175, 176, 177, 178, 179, 180, 181, 182, 183, 184, 185, 186, 187, 188, 189, 190, 191, 192, 193, 194, 195, 196, 197, 198, 199, 200, 201, 202, 203, 204, 205, 206, 207, 208, 209, 210, 211, 212, 213, 214, 215, 216, 217, 218, 219, 220, 221, 222, 223, 224, 225, 226, 227, 228, 229, 230, 231, 232, 233, 234, 235, 236, 237, 238, 239, 240, 241, 242, 243, 244, 245, 246, 247, 248, 249, 250, 251, 252, 253, 254, 255, 256, 257, 258, 259, 260, 261, 262, 263, 264, 265, 266, 267, 268, 269, 270, 271, 272, 273, 274, 275, 276, 277, 278, 279, 280, 281, 282, 283, 284, 285, 286, 287, 288, 289, 290, 291, 292, 293, 294, 295, 296, 297, 298, 299, 300, 301, 302, 303, 304, 305, 306, 307, 308, 309, 310, 311, 312, 313, 314, 315, 316, 317, 318, 319, 320, 321, 322, 323, 324, 325, 326, 327, 328, 329, 330, 331, 332, 333, 334, 335, 336, 337, 338],
      "WindowCenter": [4774.0, 4776.0, 4772.0, 4772.0, 4774.0, 4776.0, 4778.0, 4774.0, 4774.0, 4770.0, 4772.0, 4768.0, 4772.0, 4770.0, 4772.0, 4776.0, 4754.0, 4760.0, 4754.0, 4774.0, 4770.0, 4770.0, 4772.0, 4770.0, 4770.0, 4752.0, 4754.0, 4752.0, 4776.0, 4750.0, 4772.0, 4774.0, 4774.0, 4772.0, 4772.0, 4750.0, 4752.0, 4772.0, 4774.0, 4774.0, 4776.0, 4774.0, 4772.0, 4748.0, 4774.0, 4780.0, 4774.0, 4774.0, 4772.0, 4770.0, 4772.0, 4770.0, 4772.0, 4774.0, 4772.0, 4748.0, 4752.0, 4752.0, 4772.0, 4772.0, 4770.0, 4774.0, 4776.0, 4748.0, 4770.0, 4772.0, 4748.0, 4774.0, 4772.0, 4774.0, 4754.0, 4776.0, 4774.0, 4772.0, 4772.0, 4770.0, 4774.0, 4774.0, 4774.0, 4770.0, 4750.0, 4774.0, 4772.0, 4772.0, 4772.0, 4770.0, 4774.0, 4772.0, 4772.0, 4750.0, 4774.0, 4776.0, 4774.0, 4772.0, 4770.0, 4776.0, 4772.0, 4750.0, 4776.0, 4774.0, 4774.0, 4772.0, 4770.0, 4770.0, 4772.0, 4776.0, 4774.0, 4750.0, 4774.0, 4754.0, 4774.0, 4752.0, 4774.0, 4772.0, 4774.0, 4752.0, 4774.0, 4774.0, 4772.0, 4770.0, 4774.0, 4750.0, 4752.0, 4776.0, 4772.0, 4748.0, 4770.0, 4770.0, 4776.0, 4750.0, 4750.0, 4774.0, 4770.0, 4740.0, 4772.0, 4774.0, 4752.0, 4772.0, 4776.0, 4752.0, 4752.0, 4776.0, 4770.0, 4768.0, 4772.0, 4774.0, 4754.0, 4776.0, 4752.0, 4750.0, 4774.0, 4772.0, 4774.0, 4774.0, 4750.0, 4774.0, 4774.0, 4772.0, 4748.0, 4752.0, 4748.0, 4750.0, 4776.0, 4774.0, 4748.0, 4752.0, 4752.0, 4748.0, 4766.0, 4766.0, 4746.0, 4752.0, 4756.0, 4780.0, 4782.0, 4778.0, 4776.0, 4772.0, 4748.0, 4772.0, 4772.0, 4750.0, 4774.0, 4750.0, 4750.0, 4752.0, 4774.0, 4776.0, 4772.0, 4748.0, 4748.0, 4774.0, 4774.0, 4750.0, 4752.0, 4774.0, 4768.0, 4772.0, 4752.0, 4748.0, 4774.0, 4748.0, 4772.0, 4774.0, 4770.0, 4768.0, 4768.0, 4770.0, 4766.0, 4754.0, 4760.0, 4784.0, 4758.0, 4774.0, 4774.0, 4768.0, 4768.0, 4772.0, 4772.0, 4774.0, 4754.0, 4756.0, 4778.0, 4752.0, 4770.0, 4768.0, 4770.0, 4770.0, 4752.0, 4754.0, 4754.0, 4774.0, 4776.0, 4746.0, 4774.0, 4774.0, 4772.0, 4750.0, 4770.0, 4752.0, 4754.0, 4750.0, 4750.0, 4752.0, 4748.0, 4748.0, 4752.0, 4750.0, 4750.0, 4776.0, 4750.0, 4764.0, 4764.0, 4772.0, 4772.0, 4750.0, 4776.0, 4772.0, 4752.0, 4750.0, 4770.0, 4750.0, 4772.0, 4772.0, 4750.0, 4752.0, 4752.0, 4774.0, 4770.0, 4748.0, 4770.0, 4750.0, 4748.0, 4748.0, 4752.0, 4748.0, 4774.0, 4772.0, 4770.0, 4746.0, 4750.0, 4770.0, 4776.0, 4754.0, 4750.0, 4772.0, 4748.0, 4772.0, 4750.0, 4772.0, 4748.0, 4778.0, 4776.0, 4776.0, 4774.0, 4774.0, 4772.0, 4772.0, 4752.0, 4750.0, 4748.0, 4774.0, 4750.0, 4750.0, 4750.0, 4750.0, 4770.0, 4748.0, 4752.0, 4768.0, 4768.0, 4768.0, 4774.0, 4760.0, 4756.0, 4756.0, 4776.0, 4752.0, 4772.0, 4770.0, 4770.0, 4770.0, 4748.0, 4772.0, 4774.0, 4752.0, 4752.0, 4750.0, 4750.0, 4754.0, 4750.0, 4772.0, 4768.0, 4770.0, 4770.0, 4748.0, 4770.0, 4748.0],
