{
  "AcquisitionMatrixPE": 104,
  "AcquisitionNumber": 1,
  "AcquisitionTime": "18:13:52.682500",
  "BandwidthPerPixelPhaseEncode": 17.17,
  "BaseResolution": 104,
  "BodyPartExamined": "BRAIN",
  "CoilCombinationMethod": "Sum of Squares",
  "ConsistencyInfo": "N4_VE11C_LATEST_20160120",
  "ConversionSoftware": "dcm2niix",
  "ConversionSoftwareVersion": "v1.0.20220505",
  "DerivedVendorReportedEchoSpacing": 0.000560011,
  "DeviceSerialNumber": "167006",
  "DwellTime": 2.1e-06,
  "EchoTime": 0.037,
  "EchoTrainLength": 104,
  "EffectiveEchoSpacing": 0.000560011,
  "FlipAngle": 52,
  "HeudiconvVersion": "0.5.3.post811+g6206e14",
  "ImageComments": "Unaliased MB4/PE3/LB",
  "ImageOrientationPatientDICOM": [0.999875, 0.0112852, 0.0110576, -0.00820223, 0.968932, -0.247192],
  "ImageOrientationText": "Tra>Cor(-14.3)>Sag(0.8)",
  "ImageType": [
    "ORIGINAL",
    "PRIMARY",
    "M",
    "MB",
    "ND",
    "MOSAIC"
],
  "ImagingFrequency": 123.26,
  "InPlanePhaseEncodingDirectionDICOM": "COL",
  "InstitutionAddress": "Chemin Queen-Mary 4565,Montreal,District,CA,H3W 1W5",
  "InstitutionName": "IUGM",
  "InstitutionalDepartmentName": "Department",
  "MRAcquisitionType": "2D",
  "MagneticFieldStrength": 3,
  "Manufacturer": "Siemens",
  "ManufacturersModelName": "Prisma_fit",
  "MatrixCoilMode": "SENSE",
  "Modality": "MR",
  "MultibandAccelerationFactor": 4,
  "PartialFourier": 1,
  "PatientPosition": "HFS",
  "PercentPhaseFOV": 100,
  "PercentSampling": 100,
  "PhaseEncodingDirection": "j",
  "PhaseEncodingSteps": 104,
  "PhaseResolution": 1,
  "PixelBandwidth": 2290,
  "ProcedureStepDescription": "games^mario3",
  "ProtocolName": "func_task-mario3_run-01",
  "PulseSequenceDetails": "%CustomerSeq%\\cmrr_mbep2d_bold",
  "ReceiveCoilActiveElements": "HC1-7;NC1,2",
  "ReceiveCoilName": "HeadNeck_64",
  "ReconMatrixPE": 104,
  "RepetitionTime": 1.49,
  "SAR": 0.0362188,
  "ScanOptions": "FS",
  "ScanningSequence": "EP",
  "SequenceName": "epfid2d1_104",
  "SequenceVariant": "SK\\SS",
  "SeriesDescription": "func_task-mario3_run-01",
  "SeriesNumber": 10,
  "ShimSetting": [621, -7242, -8716, 737, 63, -41, 79, 6],
  "SliceThickness": 2,
  "SliceTiming": [0, 0.7825, 0.0975, 0.8825, 0.195, 0.98, 0.2925, 1.0775, 0.3925, 1.175, 0.49, 1.2725, 0.5875, 1.3725, 0.685, 0, 0.7825, 0.0975, 0.8825, 0.195, 0.98, 0.2925, 1.0775, 0.3925, 1.175, 0.49, 1.2725, 0.5875, 1.3725, 0.685, 0, 0.7825, 0.0975, 0.8825, 0.195, 0.98, 0.2925, 1.0775, 0.3925, 1.175, 0.49, 1.2725, 0.5875, 1.3725, 0.685, 0, 0.7825, 0.0975, 0.8825, 0.195, 0.98, 0.2925, 1.0775, 0.3925, 1.175, 0.49, 1.2725, 0.5875, 1.3725, 0.685],
  "SoftwareVersions": "syngo MR E11",
  "SpacingBetweenSlices": 2,
  "StationName": "MRC35049",
  "TaskName": "mario3",
  "TotalReadoutTime": 0.0576811,
  "TxRefAmp": 206.33,
  "WipMemBlock": "875ac3a8-6dea-4355-9c52-660a37b03156||Sequence: R017 ve11c/master r/75a17815+; Jun 28 2022 16:32:11 by eja",
  "dcmmeta_affine": [
    [-1.9997503757476807, -0.01640445552766323, 0.027007432654500008, 109.14628601074219],
    [-0.02257036231458187, 1.9378634691238403, -0.4941416382789612, -73.79918670654297],
    [0.022115295752882957, 0.4943847358226776, 1.9378067255020142, -38.52891540527344],
    [0.0, 0.0, 0.0, 1.0]
],
  "dcmmeta_reorient_transform": [
    [0.0, -1.0, 0.0, 103.0],
    [1.0, 0.0, 0.0, 0.0],
    [0.0, 0.0, 1.0, 0.0],
    [0.0, 0.0, 0.0, 1.0]
],
  "dcmmeta_shape": [104, 104, 60, 309],
  "dcmmeta_slice_dim": 2,
  "dcmmeta_version": 0.6,
  "global": {
    "const": {
      "AcquisitionMatrix": [104, 0, 0, 104],
      "AngioFlag": "N",
      "BitsAllocated": 16,
      "BitsStored": 16,
      "BodyPartExamined": "BRAIN",
      "Columns": 832,
      "EchoNumbers": 1,
      "EchoTime": 37.0,
      "EchoTrainLength": 104,
      "FlipAngle": 52.0,
      "HighBit": 15,
      "ImageOrientationPatient": [0.99987517876512, 0.0112851811111, 0.01105764788283, -0.0082022274594, 0.96893170883032, -0.2471923685874],
      "ImagePositionPatient": [-829.39453256747, -839.39863915307, 184.29879107167],
      "ImageType": [
        "ORIGINAL",
        "PRIMARY",
        "M",
        "MB",
        "ND",
        "MOSAIC"
],
      "ImagedNucleus": "1H",
      "ImagingFrequency": 123.260259,
      "InPlanePhaseEncodingDirection": "COL",
      "MRAcquisitionType": "2D",
      "MagneticFieldStrength": 3.0,
      "Manufacturer": "SIEMENS",
      "ManufacturerModelName": "Prisma_fit",
      "Modality": "MR",
      "NumberOfAverages": 1.0,
      "NumberOfPhaseEncodingSteps": 104,
      "PercentPhaseFieldOfView": 100.0,
      "PercentSampling": 100.0,
      "PerformedProcedureStepStartTime": "181057.394000",
      "PhotometricInterpretation": "MONOCHROME2",
      "PixelBandwidth": 2290.0,
      "PixelRepresentation": 0,
      "PixelSpacing": [2.0, 2.0],
      "ProtocolName": "func_task-mario3_run-01",
      "RepetitionTime": 1490.0,
      "Rows": 832,
      "SAR": 0.03621880771186,
      "SamplesPerPixel": 1,
      "ScanOptions": "FS",
      "ScanningSequence": "EP",
      "SequenceName": "epfid2d1_104",
      "SequenceVariant": [
        "SK",
        "SS"
],
      "SeriesDescription": "func_task-mario3_run-01",
      "SeriesNumber": 10,
      "SeriesTime": "181457.934000",
      "SliceLocation": -17.623286338467,
      "SliceThickness": 2.0,
      "SmallestImagePixelValue": 0,
      "SoftwareVersions": "syngo MR E11",
      "SpacingBetweenSlices": 2.0000000361748,
      "SpecificCharacterSet": "ISO_IR 100",
      "StudyID": "1",
      "StudyTime": "181057.315000",
      "TransmitCoilName": "Body",
      "VariableFlipAngleFlag": "N",
      "WindowCenterWidthExplanation": "Algo1",
      "dBdt": 0.0},
    "slices": {}
  },
  "time": {
    "samples": {
      "AcquisitionNumber": [1, 2, 3, 4, 5, 6, 7, 8, 9, 10, 11, 12, 13, 14, 15, 16, 17, 18, 19, 20, 21, 22, 23, 24, 25, 26, 27, 28, 29, 30, 31, 32, 33, 34, 35, 36, 37, 38, 39, 40, 41, 42, 43, 44, 45, 46, 47, 48, 49, 50, 51, 52, 53, 54, 55, 56, 57, 58, 59, 60, 61, 62, 63, 64, 65, 66, 67, 68, 69, 70, 71, 72, 73, 74, 75, 76, 77, 78, 79, 80, 81, 82, 83, 84, 85, 86, 87, 88, 89, 90, 91, 92, 93, 94, 95, 96, 97, 98, 99, 100, 101, 102, 103, 104, 105, 106, 107, 108, 109, 110, 111, 112, 113, 114, 115, 116, 117, 118, 119, 120, 121, 122, 123, 124, 125, 126, 127, 128, 129, 130, 131, 132, 133, 134, 135, 136, 137, 138, 139, 140, 141, 142, 143, 144, 145, 146, 147, 148, 149, 150, 151, 152, 153, 154, 155, 156, 157, 158, 159, 160, 161, 162, 163, 164, 165, 166, 167, 168, 169, 170, 171, 172, 173, 174, 175, 176, 177, 178, 179, 180, 181, 182, 183, 184, 185, 186, 187, 188, 189, 190, 191, 192, 193, 194, 195, 196, 197, 198, 199, 200, 201, 202, 203, 204, 205, 206, 207, 208, 209, 210, 211, 212, 213, 214, 215, 216, 217, 218, 219, 220, 221, 222, 223, 224, 225, 226, 227, 228, 229, 230, 231, 232, 233, 234, 235, 236, 237, 238, 239, 240, 241, 242, 243, 244, 245, 246, 247, 248, 249, 250, 251, 252, 253, 254, 255, 256, 257, 258, 259, 260, 261, 262, 263, 264, 265, 266, 267, 268, 269, 270, 271, 272, 273, 274, 275, 276, 277, 278, 279, 280, 281, 282, 283, 284, 285, 286, 287, 288, 289, 290, 291, 292, 293, 294, 295, 296, 297, 298, 299, 300, 301, 302, 303, 304, 305, 306, 307, 308, 309],
      "AcquisitionTime": ["181352.682500", "181354.172500", "181355.662500", "181357.152500", "181358.642500", "181400.132500", "181401.622500", "181403.112500", "181404.602500", "181406.092500", "181407.582500", "181409.072500", "181410.562500", "181412.052500", "181413.542500", "181415.032500", "181416.522500", "181418.012500", "181419.502500", "181420.992500", "181422.482500", "181423.972500", "181425.462500", "181426.952500", "181428.442500", "181429.932500", "181431.422500", "181432.912500", "181434.402500", "181435.892500", "181437.382500", "181438.872500", "181440.362500", "181441.852500", "181443.342500", "181444.832500", "181446.322500", "181447.812500", "181449.302500", "181450.792500", "181452.282500", "181453.772500", "181455.262500", "181456.752500", "181458.242500", "181459.732500", "181501.222500", "181502.712500", "181504.202500", "181505.692500", "181507.182500", "181508.672500", "181510.162500", "181511.652500", "181513.142500", "181514.632500", "181516.122500", "181517.612500", "181519.102500", "181520.592500", "181522.082500", "181523.572500", "181525.062500", "181526.552500", "181528.042500", "181529.532500", "181531.022500", "181532.512500", "181534.002500", "181535.492500", "181536.982500", "181538.472500", "181539.962500", "181541.452500", "181542.942500", "181544.432500", "181545.922500", "181547.412500", "181548.902500", "181550.392500", "181551.882500", "181553.372500", "181554.862500", "181556.352500", "181557.842500", "181559.332500", "181600.822500", "181602.312500", "181603.802500", "181605.292500", "181606.782500", "181608.272500", "181609.762500", "181611.252500", "181612.742500", "181614.232500", "181615.722500", "181617.212500", "181618.702500", "181620.192500", "181621.682500", "181623.172500", "181624.662500", "181626.152500", "181627.642500", "181629.132500", "181630.622500", "181632.112500", "181633.602500", "181635.092500", "181636.582500", "181638.072500", "181639.562500", "181641.052500", "181642.542500", "181644.032500", "181645.522500", "181647.012500", "181648.502500", "181649.992500", "181651.482500", "181652.972500", "181654.462500", "181655.952500", "181657.442500", "181658.932500", "181700.422500", "181701.912500", "181703.402500", "181704.892500", "181706.382500", "181707.872500", "181709.362500", "181710.852500", "181712.342500", "181713.832500", "181715.322500", "181716.812500", "181718.302500", "181719.792500", "181721.282500", "181722.772500", "181724.262500", "181725.752500", "181727.242500", "181728.732500", "181730.222500", "181731.712500", "181733.202500", "181734.692500", "181736.182500", "181737.672500", "181739.162500", "181740.652500", "181742.142500", "181743.632500", "181745.122500", "181746.612500", "181748.102500", "181749.592500", "181751.082500", "181752.572500", "181754.062500", "181755.552500", "181757.042500", "181758.532500", "181800.022500", "181801.512500", "181803.002500", "181804.492500", "181805.982500", "181807.472500", "181808.962500", "181810.452500", "181811.942500", "181813.432500", "181814.922500", "181816.412500", "181817.902500", "181819.392500", "181820.882500", "181822.372500", "181823.862500", "181825.352500", "181826.842500", "181828.332500", "181829.822500", "181831.312500", "181832.802500", "181834.292500", "181835.782500", "181837.272500", "181838.762500", "181840.252500", "181841.742500", "181843.232500", "181844.722500", "181846.212500", "181847.702500", "181849.192500", "181850.682500", "181852.172500", "181853.662500", "181855.152500", "181856.642500", "181858.132500", "181859.622500", "181901.112500", "181902.602500", "181904.092500", "181905.582500", "181907.072500", "181908.562500", "181910.052500", "181911.542500", "181913.032500", "181914.522500", "181916.012500", "181917.502500", "181918.992500", "181920.482500", "181921.972500", "181923.462500", "181924.952500", "181926.442500", "181927.932500", "181929.422500", "181930.912500", "181932.402500", "181933.892500", "181935.382500", "181936.872500", "181938.362500", "181939.852500", "181941.342500", "181942.832500", "181944.322500", "181945.812500", "181947.302500", "181948.792500", "181950.282500", "181951.772500", "181953.262500", "181954.752500", "181956.242500", "181957.732500", "181959.222500", "182000.712500", "182002.202500", "182003.692500", "182005.182500", "182006.672500", "182008.162500", "182009.652500", "182011.142500", "182012.632500", "182014.122500", "182015.612500", "182017.102500", "182018.592500", "182020.082500", "182021.572500", "182023.062500", "182024.552500", "182026.042500", "182027.532500", "182029.022500", "182030.512500", "182032.002500", "182033.492500", "182034.982500", "182036.472500", "182037.962500", "182039.452500", "182040.942500", "182042.432500", "182043.922500", "182045.412500", "182046.902500", "182048.392500", "182049.882500", "182051.372500", "182052.862500", "182054.352500", "182055.842500", "182057.332500", "182058.822500", "182100.312500", "182101.802500", "182103.292500", "182104.782500", "182106.272500", "182107.762500", "182109.252500", "182110.742500", "182112.232500", "182113.722500", "182115.212500", "182116.702500", "182118.192500", "182119.682500", "182121.172500", "182122.662500", "182124.152500", "182125.642500", "182127.132500", "182128.622500", "182130.112500", "182131.602500"],
      "ContentTime": ["181457.937000", "181457.941000", "181457.944000", "181457.952000", "181457.955000", "181457.959000", "181457.967000", "181457.970000", "181457.974000", "181457.977000", "181457.980000", "181457.984000", "181457.987000", "181457.991000", "181457.994000", "181457.997000", "181458.002000", "181517.883000", "181517.887000", "181517.890000", "181517.894000", "181517.902000", "181517.906000", "181517.909000", "181517.913000", "181517.916000", "181517.920000", "181517.923000", "181517.926000", "181517.930000", "181517.933000", "181517.936000", "181517.940000", "181517.943000", "181517.946000", "181517.950000", "181517.953000", "181537.883000", "181537.887000", "181537.890000", "181537.894000", "181537.897000", "181537.900000", "181537.904000", "181537.907000", "181537.910000", "181537.914000", "181537.917000", "181537.920000", "181537.924000", "181537.927000", "181537.930000", "181537.934000", "181537.937000", "181537.940000", "181537.944000", "181537.947000", "181537.950000", "181557.884000", "181557.888000", "181557.891000", "181557.894000", "181557.898000", "181557.901000", "181557.905000", "181557.908000", "181557.911000", "181557.915000", "181557.919000", "181557.923000", "181557.926000", "181557.929000", "181557.933000", "181557.936000", "181557.939000", "181557.943000", "181557.946000", "181557.949000", "181637.883000", "181637.887000", "181637.890000", "181637.894000", "181637.897000", "181637.901000", "181637.918000", "181637.921000", "181637.925000", "181637.928000", "181637.931000", "181637.935000", "181637.938000", "181637.942000", "181637.945000", "181637.948000", "181637.951000", "181637.955000", "181637.958000", "181637.962000", "181637.965000", "181637.978000", "181637.981000", "181637.985000", "181637.988000", "181637.992000", "181637.995000", "181637.998000", "181638.003000", "181638.006000", "181638.010000", "181638.013000", "181717.883000", "181717.887000", "181717.890000", "181717.894000", "181717.897000", "181717.900000", "181717.904000", "181717.907000", "181717.911000", "181717.914000", "181717.917000", "181717.921000", "181717.924000", "181717.927000", "181717.931000", "181717.934000", "181717.938000", "181717.941000", "181717.944000", "181717.948000", "181717.951000", "181717.954000", "181717.958000", "181717.961000", "181717.965000", "181717.968000", "181717.971000", "181757.883000", "181757.887000", "181757.890000", "181757.894000", "181757.897000", "181757.900000", "181757.904000", "181757.907000", "181757.910000", "181757.914000", "181757.917000", "181757.921000", "181757.924000", "181757.927000", "181757.931000", "181757.934000", "181757.937000", "181757.941000", "181757.944000", "181757.947000", "181757.951000", "181757.954000", "181757.957000", "181757.961000", "181757.964000", "181757.967000", "181757.971000", "181837.884000", "181837.888000", "181837.892000", "181837.895000", "181837.898000", "181837.902000", "181837.905000", "181837.909000", "181837.912000", "181837.916000", "181837.919000", "181837.922000", "181837.926000", "181837.929000", "181837.933000", "181837.936000", "181837.939000", "181837.943000", "181837.946000", "181837.950000", "181837.953000", "181837.956000", "181837.960000", "181837.963000", "181837.966000", "181837.970000", "181837.973000", "181917.883000", "181917.887000", "181917.890000", "181917.894000", "181917.897000", "181917.901000", "181917.904000", "181917.908000", "181917.911000", "181917.914000", "181917.918000", "181917.921000", "181917.925000", "181917.928000", "181917.931000", "181917.935000", "181917.938000", "181917.941000", "181917.945000", "181917.948000", "181917.952000", "181917.955000", "181917.958000", "181917.962000", "181917.965000", "181917.969000", "181917.972000", "181957.883000", "181957.896000", "181957.899000", "181957.903000", "181957.906000", "181957.909000", "181957.913000", "181957.916000", "181957.920000", "181957.923000", "181957.927000", "181957.930000", "181957.934000", "181957.937000", "181957.944000", "181957.948000", "181957.952000", "181957.955000", "181957.959000", "181957.962000", "181957.966000", "181957.969000", "181957.973000", "181957.976000", "181957.979000", "181957.983000", "182037.884000", "182037.888000", "182037.892000", "182037.895000", "182037.899000", "182037.902000", "182037.905000", "182037.909000", "182037.912000", "182037.916000", "182037.919000", "182037.923000", "182037.926000", "182037.929000", "182037.933000", "182037.936000", "182037.939000", "182037.943000", "182037.946000", "182037.950000", "182037.953000", "182037.957000", "182037.960000", "182037.963000", "182037.967000", "182037.970000", "182037.974000", "182117.883000", "182117.887000", "182117.890000", "182117.894000", "182117.897000", "182117.901000", "182117.904000", "182117.908000", "182117.921000", "182117.924000", "182117.928000", "182117.931000", "182117.934000", "182117.938000", "182117.941000", "182117.945000", "182117.948000", "182117.951000", "182117.955000", "182117.958000", "182117.961000", "182117.965000", "182117.968000", "182117.972000", "182117.975000", "182117.978000", "182117.982000", "182133.550000", "182133.554000", "182133.557000", "182133.561000", "182133.564000", "182133.568000", "182133.571000", "182133.575000", "182133.578000", "182133.581000", "182133.585000"],
      "InstanceCreationTime": ["181457.937000", "181457.941000", "181457.944000", "181457.952000", "181457.955000", "181457.959000", "181457.967000", "181457.970000", "181457.974000", "181457.977000", "181457.980000", "181457.984000", "181457.987000", "181457.991000", "181457.994000", "181457.997000", "181458.002000", "181517.883000", "181517.887000", "181517.890000", "181517.894000", "181517.902000", "181517.906000", "181517.909000", "181517.913000", "181517.916000", "181517.920000", "181517.923000", "181517.926000", "181517.930000", "181517.933000", "181517.936000", "181517.940000", "181517.943000", "181517.946000", "181517.950000", "181517.953000", "181537.883000", "181537.887000", "181537.890000", "181537.894000", "181537.897000", "181537.900000", "181537.904000", "181537.907000", "181537.910000", "181537.914000", "181537.917000", "181537.920000", "181537.924000", "181537.927000", "181537.930000", "181537.934000", "181537.937000", "181537.940000", "181537.944000", "181537.947000", "181537.950000", "181557.884000", "181557.888000", "181557.891000", "181557.894000", "181557.898000", "181557.901000", "181557.905000", "181557.908000", "181557.911000", "181557.915000", "181557.919000", "181557.923000", "181557.926000", "181557.929000", "181557.933000", "181557.936000", "181557.939000", "181557.943000", "181557.946000", "181557.949000", "181637.883000", "181637.887000", "181637.890000", "181637.894000", "181637.897000", "181637.901000", "181637.918000", "181637.921000", "181637.925000", "181637.928000", "181637.931000", "181637.935000", "181637.938000", "181637.942000", "181637.945000", "181637.948000", "181637.951000", "181637.955000", "181637.958000", "181637.962000", "181637.965000", "181637.978000", "181637.981000", "181637.985000", "181637.988000", "181637.992000", "181637.995000", "181637.998000", "181638.003000", "181638.006000", "181638.010000", "181638.013000", "181717.883000", "181717.887000", "181717.890000", "181717.894000", "181717.897000", "181717.900000", "181717.904000", "181717.907000", "181717.911000", "181717.914000", "181717.917000", "181717.921000", "181717.924000", "181717.927000", "181717.931000", "181717.934000", "181717.938000", "181717.941000", "181717.944000", "181717.948000", "181717.951000", "181717.954000", "181717.958000", "181717.961000", "181717.965000", "181717.968000", "181717.971000", "181757.883000", "181757.887000", "181757.890000", "181757.894000", "181757.897000", "181757.900000", "181757.904000", "181757.907000", "181757.910000", "181757.914000", "181757.917000", "181757.921000", "181757.924000", "181757.927000", "181757.931000", "181757.934000", "181757.937000", "181757.941000", "181757.944000", "181757.947000", "181757.951000", "181757.954000", "181757.957000", "181757.961000", "181757.964000", "181757.967000", "181757.971000", "181837.884000", "181837.888000", "181837.892000", "181837.895000", "181837.898000", "181837.902000", "181837.905000", "181837.909000", "181837.912000", "181837.916000", "181837.919000", "181837.922000", "181837.926000", "181837.929000", "181837.933000", "181837.936000", "181837.939000", "181837.943000", "181837.946000", "181837.950000", "181837.953000", "181837.956000", "181837.960000", "181837.963000", "181837.966000", "181837.970000", "181837.973000", "181917.883000", "181917.887000", "181917.890000", "181917.894000", "181917.897000", "181917.901000", "181917.904000", "181917.908000", "181917.911000", "181917.914000", "181917.918000", "181917.921000", "181917.925000", "181917.928000", "181917.931000", "181917.935000", "181917.938000", "181917.941000", "181917.945000", "181917.948000", "181917.952000", "181917.955000", "181917.958000", "181917.962000", "181917.965000", "181917.969000", "181917.972000", "181957.883000", "181957.896000", "181957.899000", "181957.903000", "181957.906000", "181957.909000", "181957.913000", "181957.916000", "181957.920000", "181957.923000", "181957.927000", "181957.930000", "181957.934000", "181957.937000", "181957.944000", "181957.948000", "181957.952000", "181957.955000", "181957.959000", "181957.962000", "181957.966000", "181957.969000", "181957.973000", "181957.976000", "181957.979000", "181957.983000", "182037.884000", "182037.888000", "182037.892000", "182037.895000", "182037.899000", "182037.902000", "182037.905000", "182037.909000", "182037.912000", "182037.916000", "182037.919000", "182037.923000", "182037.926000", "182037.929000", "182037.933000", "182037.936000", "182037.939000", "182037.943000", "182037.946000", "182037.950000", "182037.953000", "182037.957000", "182037.960000", "182037.963000", "182037.967000", "182037.970000", "182037.974000", "182117.883000", "182117.887000", "182117.890000", "182117.894000", "182117.897000", "182117.901000", "182117.904000", "182117.908000", "182117.921000", "182117.924000", "182117.928000", "182117.931000", "182117.934000", "182117.938000", "182117.941000", "182117.945000", "182117.948000", "182117.951000", "182117.955000", "182117.958000", "182117.961000", "182117.965000", "182117.968000", "182117.972000", "182117.975000", "182117.978000", "182117.982000", "182133.550000", "182133.554000", "182133.557000", "182133.561000", "182133.564000", "182133.568000", "182133.571000", "182133.575000", "182133.578000", "182133.581000", "182133.585000"],
      "InstanceNumber": [1, 2, 3, 4, 5, 6, 7, 8, 9, 10, 11, 12, 13, 14, 15, 16, 17, 18, 19, 20, 21, 22, 23, 24, 25, 26, 27, 28, 29, 30, 31, 32, 33, 34, 35, 36, 37, 38, 39, 40, 41, 42, 43, 44, 45, 46, 47, 48, 49, 50, 51, 52, 53, 54, 55, 56, 57, 58, 59, 60, 61, 62, 63, 64, 65, 66, 67, 68, 69, 70, 71, 72, 73, 74, 75, 76, 77, 78, 79, 80, 81, 82, 83, 84, 85, 86, 87, 88, 89, 90, 91, 92, 93, 94, 95, 96, 97, 98, 99, 100, 101, 102, 103, 104, 105, 106, 107, 108, 109, 110, 111, 112, 113, 114, 115, 116, 117, 118, 119, 120, 121, 122, 123, 124, 125, 126, 127, 128, 129, 130, 131, 132, 133, 134, 135, 136, 137, 138, 139, 140, 141, 142, 143, 144, 145, 146, 147, 148, 149, 150, 151, 152, 153, 154, 155, 156, 157, 158, 159, 160, 161, 162, 163, 164, 165, 166, 167, 168, 169, 170, 171, 172, 173, 174, 175, 176, 177, 178, 179, 180, 181, 182, 183, 184, 185, 186, 187, 188, 189, 190, 191, 192, 193, 194, 195, 196, 197, 198, 199, 200, 201, 202, 203, 204, 205, 206, 207, 208, 209, 210, 211, 212, 213, 214, 215, 216, 217, 218, 219, 220, 221, 222, 223, 224, 225, 226, 227, 228, 229, 230, 231, 232, 233, 234, 235, 236, 237, 238, 239, 240, 241, 242, 243, 244, 245, 246, 247, 248, 249, 250, 251, 252, 253, 254, 255, 256, 257, 258, 259, 260, 261, 262, 263, 264, 265, 266, 267, 268, 269, 270, 271, 272, 273, 274, 275, 276, 277, 278, 279, 280, 281, 282, 283, 284, 285, 286, 287, 288, 289, 290, 291, 292, 293, 294, 295, 296, 297, 298, 299, 300, 301, 302, 303, 304, 305, 306, 307, 308, 309],
      "LargestImagePixelValue": [41930, 40451, 40183, 38516, 40414, 37917, 40950, 39605, 39353, 39346, 38820, 39496, 38990, 38404, 38549, 38608, 39056, 39008, 38858, 38873, 38679, 38544, 38545, 39324, 39470, 38953, 38891, 38651, 38265, 38568, 38857, 39088, 39078, 39066, 39427, 38952, 39269, 40040, 40528, 39622, 38884, 39297, 38516, 38286, 38086, 38314, 38622, 39232, 38736, 39020, 38881, 38469, 38506, 38785, 38592, 38829, 39054, 39510, 39310, 39197, 38743, 38564, 38405, 38774, 38608, 38413, 38440, 38305, 38682, 38493, 38348, 38381, 38638, 38640, 38714, 38810, 39573, 39336, 39130, 39088, 39189, 38570, 38560, 39187, 38852, 38334, 40229, 39182, 38777, 39105, 38854, 39180, 38941, 38539, 38329, 38126, 38467, 39122, 38617, 38904, 39238, 38999, 39433, 38729, 39047, 38754, 38957, 38599, 39360, 37945, 38149, 38223, 37913, 39663, 38429, 38260, 38664, 39299, 38645, 38701, 38723, 38989, 38902, 38338, 38274, 38253, 38358, 38772, 38734, 37948, 39323, 38560, 38831, 38668, 38628, 38852, 38491, 38329, 38685, 38778, 38912, 38976, 39125, 38770, 38827, 38564, 38289, 38280, 38878, 39270, 38747, 38284, 38561, 38213, 37857, 37831, 37961, 38235, 38527, 38123, 38286, 38501, 38092, 38127, 38118, 38605, 38998, 38911, 38797, 37892, 37806, 38026, 38202, 38317, 37993, 38590, 38600, 38548, 38787, 38626, 38583, 38430, 38364, 38339, 38274, 38576, 38611, 38685, 38519, 38393, 38471, 38270, 38235, 38227, 38548, 38724, 38444, 38540, 39156, 38942, 38353, 38796, 38605, 38519, 38596, 38523, 38031, 38042, 38820, 38938, 38248, 38402, 38438, 38690, 38932, 38554, 38495, 38404, 38902, 37845, 39257, 39312, 39305, 38918, 39091, 38897, 38377, 38456, 38173, 38310, 38271, 38598, 38640, 38911, 38794, 38720, 38717, 38587, 38511, 38491, 38446, 38628, 38882, 38773, 38580, 38885, 37689, 38121, 38342, 38217, 38689, 38684, 38944, 39117, 38698, 38128, 38559, 38892, 38303, 38464, 38008, 38165, 38390, 38417, 38698, 38953, 39032, 38952, 39091, 38263, 38732, 38717, 38277, 38309, 38310, 38540, 38705, 38344, 38728, 38837, 38406, 39279, 38448, 38617, 38733, 38565, 38791, 38933, 39062, 38759, 38332, 38244, 38909, 38923, 38381, 38147, 38434, 38015, 37543, 39734, 38716, 38985, 38198, 38012, 38698, 38113, 38476, 37849, 37792],
      "WindowCenter": [10089.0, 10029.0, 10012.0, 9923.0, 10033.0, 9937.0, 10046.0, 10033.0, 10034.0, 10042.0, 10028.0, 10050.0, 10053.0, 10025.0, 10003.0, 9987.0, 9980.0, 9980.0, 9989.0, 9998.0, 10006.0, 9999.0, 9996.0, 10012.0, 10025.0, 10028.0, 9976.0, 9996.0, 9970.0, 9972.0, 9971.0, 9986.0, 9987.0, 9974.0, 9979.0, 9978.0, 9969.0, 9904.0, 10011.0, 10003.0, 10001.0, 10009.0, 10005.0, 10011.0, 9989.0, 9979.0, 9974.0, 9978.0, 9982.0, 9995.0, 9997.0, 10003.0, 10011.0, 10001.0, 10000.0, 9993.0, 9988.0, 9992.0, 10010.0, 10020.0, 10022.0, 10026.0, 10012.0, 10011.0, 10000.0, 9978.0, 9985.0, 9985.0, 9991.0, 9987.0, 9983.0, 9975.0, 9949.0, 9948.0, 9961.0, 9971.0, 9984.0, 9961.0, 9955.0, 9961.0, 9975.0, 9971.0, 9959.0, 9961.0, 9962.0, 9956.0, 9975.0, 9995.0, 9964.0, 9947.0, 9920.0, 9931.0, 9957.0, 9977.0, 9970.0, 9985.0, 9975.0, 9964.0, 9956.0, 9967.0, 9977.0, 9984.0, 10009.0, 10012.0, 10007.0, 10005.0, 10006.0, 9996.0, 10008.0, 9997.0, 10019.0, 10008.0, 9927.0, 9983.0, 9981.0, 9952.0, 9933.0, 9920.0, 9904.0, 9902.0, 9901.0, 9904.0, 9935.0, 9938.0, 9946.0, 9946.0, 9945.0, 9960.0, 9975.0, 9967.0, 10006.0, 9983.0, 9977.0, 9984.0, 9976.0, 9950.0, 9977.0, 9950.0, 9930.0, 9919.0, 9901.0, 9917.0, 9921.0, 9929.0, 9932.0, 9925.0, 9917.0, 9910.0, 9903.0, 9879.0, 9918.0, 9946.0, 9989.0, 9992.0, 9937.0, 9954.0, 9923.0, 9925.0, 9943.0, 9956.0, 9947.0, 10006.0, 10012.0, 9985.0, 9959.0, 9944.0, 9927.0, 9946.0, 9964.0, 9972.0, 9977.0, 9967.0, 9957.0, 9958.0, 9951.0, 9938.0, 9923.0, 9923.0, 9956.0, 9966.0, 9973.0, 9959.0, 9949.0, 9940.0, 9940.0, 9946.0, 9961.0, 9960.0, 9961.0, 9973.0, 9976.0, 9979.0, 9945.0, 9936.0, 9943.0, 9966.0, 9964.0, 9947.0, 9944.0, 9950.0, 9957.0, 9977.0, 9999.0, 9991.0, 9976.0, 9942.0, 9904.0, 9902.0, 9931.0, 9947.0, 9960.0, 9954.0, 9943.0, 9914.0, 9941.0, 9950.0, 9959.0, 9955.0, 9929.0, 9898.0, 9906.0, 9923.0, 9932.0, 9937.0, 9941.0, 9949.0, 9967.0, 9967.0, 9968.0, 9976.0, 9979.0, 9977.0, 9978.0, 9975.0, 9968.0, 9944.0, 9940.0, 9933.0, 9947.0, 9951.0, 9940.0, 9941.0, 9947.0, 9958.0, 9959.0, 9939.0, 9882.0, 9959.0, 9948.0, 9922.0, 9906.0, 9904.0, 9911.0, 9918.0, 9935.0, 9948.0, 9970.0, 9974.0, 9978.0, 9990.0, 9945.0, 9971.0, 9953.0, 9942.0, 9947.0, 9951.0, 9956.0, 9962.0, 9977.0, 9970.0, 9968.0, 9977.0, 9968.0, 9984.0, 10003.0, 10012.0, 10005.0, 9982.0, 9962.0, 9952.0, 9949.0, 9956.0, 9965.0, 9966.0, 9966.0, 9958.0, 9960.0, 9959.0, 9957.0, 9950.0, 9943.0, 9920.0, 9953.0, 9978.0, 9980.0, 9994.0, 9984.0, 9959.0, 9913.0, 9926.0, 9944.0, 9953.0, 9970.0, 9969.0, 9973.0, 9955.0, 9949.0, 9959.0, 9967.0],
