{
  "AcquisitionMatrixPE": 104,
  "AcquisitionNumber": 1,
  "AcquisitionTime": "18:21:58.525000",
  "BandwidthPerPixelPhaseEncode": 17.17,
  "BaseResolution": 104,
  "BodyPartExamined": "BRAIN",
  "CoilCombinationMethod": "Sum of Squares",
  "ConsistencyInfo": "N4_VE11C_LATEST_20160120",
  "ConversionSoftware": "dcm2niix",
  "ConversionSoftwareVersion": "v1.0.20220505",
  "DerivedVendorReportedEchoSpacing": 0.000560011,
  "DeviceSerialNumber": "167006",
  "DwellTime": 2.1e-06,
  "EchoTime": 0.037,
  "EchoTrainLength": 104,
  "EffectiveEchoSpacing": 0.000560011,
  "FlipAngle": 52,
  "HeudiconvVersion": "0.5.3.post811+g6206e14",
  "ImageComments": "Unaliased MB4/PE3/LB",
  "ImageOrientationPatientDICOM": [0.999875, 0.0112852, 0.0110576, -0.00820223, 0.968932, -0.247192],
  "ImageOrientationText": "Tra>Cor(-14.3)>Sag(0.8)",
  "ImageType": [
    "ORIGINAL",
    "PRIMARY",
    "M",
    "MB",
    "ND",
    "MOSAIC"
],
  "ImagingFrequency": 123.26,
  "InPlanePhaseEncodingDirectionDICOM": "COL",
  "InstitutionAddress": "Chemin Queen-Mary 4565,Montreal,District,CA,H3W 1W5",
  "InstitutionName": "IUGM",
  "InstitutionalDepartmentName": "Department",
  "MRAcquisitionType": "2D",
  "MagneticFieldStrength": 3,
  "Manufacturer": "Siemens",
  "ManufacturersModelName": "Prisma_fit",
  "MatrixCoilMode": "SENSE",
  "Modality": "MR",
  "MultibandAccelerationFactor": 4,
  "PartialFourier": 1,
  "PatientPosition": "HFS",
  "PercentPhaseFOV": 100,
  "PercentSampling": 100,
  "PhaseEncodingDirection": "j",
  "PhaseEncodingSteps": 104,
  "PhaseResolution": 1,
  "PixelBandwidth": 2290,
  "ProcedureStepDescription": "games^mario3",
  "ProtocolName": "func_task-mario3_run-02",
  "PulseSequenceDetails": "%CustomerSeq%\\cmrr_mbep2d_bold",
  "ReceiveCoilActiveElements": "HC1-7;NC1,2",
  "ReceiveCoilName": "HeadNeck_64",
  "ReconMatrixPE": 104,
  "RepetitionTime": 1.49,
  "SAR": 0.0362188,
  "ScanOptions": "FS",
  "ScanningSequence": "EP",
  "SequenceName": "epfid2d1_104",
  "SequenceVariant": "SK\\SS",
  "SeriesDescription": "func_task-mario3_run-02",
  "SeriesNumber": 13,
  "ShimSetting": [621, -7242, -8716, 737, 63, -41, 79, 6],
  "SliceThickness": 2,
  "SliceTiming": [0, 0.7825, 0.0975, 0.8825, 0.195, 0.98, 0.2925, 1.0775, 0.3925, 1.175, 0.49, 1.2725, 0.5875, 1.3725, 0.685, 0, 0.7825, 0.0975, 0.8825, 0.195, 0.98, 0.2925, 1.0775, 0.3925, 1.175, 0.49, 1.2725, 0.5875, 1.3725, 0.685, 0, 0.7825, 0.0975, 0.8825, 0.195, 0.98, 0.2925, 1.0775, 0.3925, 1.175, 0.49, 1.2725, 0.5875, 1.3725, 0.685, 0, 0.7825, 0.0975, 0.8825, 0.195, 0.98, 0.2925, 1.0775, 0.3925, 1.175, 0.49, 1.2725, 0.5875, 1.3725, 0.685],
  "SoftwareVersions": "syngo MR E11",
  "SpacingBetweenSlices": 2,
  "StationName": "MRC35049",
  "TaskName": "mario3",
  "TotalReadoutTime": 0.0576811,
  "TxRefAmp": 206.33,
  "WipMemBlock": "577e49d7-3de4-4e39-8331-e73ecd87c319||Sequence: R017 ve11c/master r/75a17815+; Jun 28 2022 16:32:11 by eja",
  "dcmmeta_affine": [
    [-1.9997503757476807, -0.01640445552766323, 0.027007432654500008, 109.14628601074219],
    [-0.02257036231458187, 1.9378634691238403, -0.4941416382789612, -73.79918670654297],
    [0.022115295752882957, 0.4943847358226776, 1.9378067255020142, -38.52891540527344],
    [0.0, 0.0, 0.0, 1.0]
],
  "dcmmeta_reorient_transform": [
    [0.0, -1.0, 0.0, 103.0],
    [1.0, 0.0, 0.0, 0.0],
    [0.0, 0.0, 1.0, 0.0],
    [0.0, 0.0, 0.0, 1.0]
],
  "dcmmeta_shape": [104, 104, 60, 336],
  "dcmmeta_slice_dim": 2,
  "dcmmeta_version": 0.6,
  "global": {
    "const": {
      "AcquisitionMatrix": [104, 0, 0, 104],
      "AngioFlag": "N",
      "BitsAllocated": 16,
      "BitsStored": 16,
      "BodyPartExamined": "BRAIN",
      "Columns": 832,
      "EchoNumbers": 1,
      "EchoTime": 37.0,
      "EchoTrainLength": 104,
      "FlipAngle": 52.0,
      "HighBit": 15,
      "ImageOrientationPatient": [0.99987517876512, 0.0112851811111, 0.01105764788283, -0.0082022274594, 0.96893170883032, -0.2471923685874],
      "ImagePositionPatient": [-829.39453256747, -839.39863915307, 184.29879107167],
      "ImageType": [
        "ORIGINAL",
        "PRIMARY",
        "M",
        "MB",
        "ND",
        "MOSAIC"
],
      "ImagedNucleus": "1H",
      "ImagingFrequency": 123.260264,
      "InPlanePhaseEncodingDirection": "COL",
      "MRAcquisitionType": "2D",
      "MagneticFieldStrength": 3.0,
      "Manufacturer": "SIEMENS",
      "ManufacturerModelName": "Prisma_fit",
      "Modality": "MR",
      "NumberOfAverages": 1.0,
      "NumberOfPhaseEncodingSteps": 104,
      "PercentPhaseFieldOfView": 100.0,
      "PercentSampling": 100.0,
      "PerformedProcedureStepStartTime": "181057.394000",
      "PhotometricInterpretation": "MONOCHROME2",
      "PixelBandwidth": 2290.0,
      "PixelRepresentation": 0,
      "PixelSpacing": [2.0, 2.0],
      "ProtocolName": "func_task-mario3_run-02",
      "RepetitionTime": 1490.0,
      "Rows": 832,
      "SAR": 0.03621880771186,
      "SamplesPerPixel": 1,
      "ScanOptions": "FS",
      "ScanningSequence": "EP",
      "SequenceName": "epfid2d1_104",
      "SequenceVariant": [
        "SK",
        "SS"
],
      "SeriesDescription": "func_task-mario3_run-02",
      "SeriesNumber": 13,
      "SeriesTime": "182321.203000",
      "SliceLocation": -17.623286338467,
      "SliceThickness": 2.0,
      "SmallestImagePixelValue": 0,
      "SoftwareVersions": "syngo MR E11",
      "SpacingBetweenSlices": 2.0000000361748,
      "SpecificCharacterSet": "ISO_IR 100",
      "StudyID": "1",
      "StudyTime": "181057.315000",
      "TransmitCoilName": "Body",
      "VariableFlipAngleFlag": "N",
      "WindowCenterWidthExplanation": "Algo1",
      "dBdt": 0.0},
    "slices": {}
  },
  "time": {
    "samples": {
      "AcquisitionNumber": [1, 2, 3, 4, 5, 6, 7, 8, 9, 10, 11, 12, 13, 14, 15, 16, 17, 18, 19, 20, 21, 22, 23, 24, 25, 26, 27, 28, 29, 30, 31, 32, 33, 34, 35, 36, 37, 38, 39, 40, 41, 42, 43, 44, 45, 46, 47, 48, 49, 50, 51, 52, 53, 54, 55, 56, 57, 58, 59, 60, 61, 62, 63, 64, 65, 66, 67, 68, 69, 70, 71, 72, 73, 74, 75, 76, 77, 78, 79, 80, 81, 82, 83, 84, 85, 86, 87, 88, 89, 90, 91, 92, 93, 94, 95, 96, 97, 98, 99, 100, 101, 102, 103, 104, 105, 106, 107, 108, 109, 110, 111, 112, 113, 114, 115, 116, 117, 118, 119, 120, 121, 122, 123, 124, 125, 126, 127, 128, 129, 130, 131, 132, 133, 134, 135, 136, 137, 138, 139, 140, 141, 142, 143, 144, 145, 146, 147, 148, 149, 150, 151, 152, 153, 154, 155, 156, 157, 158, 159, 160, 161, 162, 163, 164, 165, 166, 167, 168, 169, 170, 171, 172, 173, 174, 175, 176, 177, 178, 179, 180, 181, 182, 183, 184, 185, 186, 187, 188, 189, 190, 191, 192, 193, 194, 195, 196, 197, 198, 199, 200, 201, 202, 203, 204, 205, 206, 207, 208, 209, 210, 211, 212, 213, 214, 215, 216, 217, 218, 219, 220, 221, 222, 223, 224, 225, 226, 227, 228, 229, 230, 231, 232, 233, 234, 235, 236, 237, 238, 239, 240, 241, 242, 243, 244, 245, 246, 247, 248, 249, 250, 251, 252, 253, 254, 255, 256, 257, 258, 259, 260, 261, 262, 263, 264, 265, 266, 267, 268, 269, 270, 271, 272, 273, 274, 275, 276, 277, 278, 279, 280, 281, 282, 283, 284, 285, 286, 287, 288, 289, 290, 291, 292, 293, 294, 295, 296, 297, 298, 299, 300, 301, 302, 303, 304, 305, 306, 307, 308, 309, 310, 311, 312, 313, 314, 315, 316, 317, 318, 319, 320, 321, 322, 323, 324, 325, 326, 327, 328, 329, 330, 331, 332, 333, 334, 335, 336],
      "AcquisitionTime": ["182158.525000", "182200.015000", "182201.505000", "182202.995000", "182204.485000", "182205.975000", "182207.465000", "182208.955000", "182210.445000", "182211.935000", "182213.425000", "182214.915000", "182216.405000", "182217.895000", "182219.385000", "182220.875000", "182222.365000", "182223.855000", "182225.345000", "182226.835000", "182228.325000", "182229.815000", "182231.305000", "182232.795000", "182234.285000", "182235.775000", "182237.265000", "182238.755000", "182240.245000", "182241.735000", "182243.225000", "182244.715000", "182246.205000", "182247.695000", "182249.185000", "182250.675000", "182252.165000", "182253.655000", "182255.145000", "182256.635000", "182258.125000", "182259.615000", "182301.105000", "182302.595000", "182304.085000", "182305.575000", "182307.065000", "182308.555000", "182310.045000", "182311.535000", "182313.025000", "182314.515000", "182316.005000", "182317.495000", "182318.985000", "182320.475000", "182321.965000", "182323.455000", "182324.945000", "182326.435000", "182327.925000", "182329.415000", "182330.905000", "182332.395000", "182333.885000", "182335.375000", "182336.865000", "182338.355000", "182339.845000", "182341.335000", "182342.825000", "182344.315000", "182345.805000", "182347.295000", "182348.785000", "182350.275000", "182351.765000", "182353.255000", "182354.745000", "182356.235000", "182357.725000", "182359.215000", "182400.705000", "182402.195000", "182403.685000", "182405.175000", "182406.665000", "182408.155000", "182409.645000", "182411.135000", "182412.625000", "182414.115000", "182415.605000", "182417.095000", "182418.585000", "182420.075000", "182421.565000", "182423.055000", "182424.545000", "182426.035000", "182427.525000", "182429.015000", "182430.505000", "182431.995000", "182433.485000", "182434.975000", "182436.465000", "182437.955000", "182439.445000", "182440.935000", "182442.425000", "182443.915000", "182445.405000", "182446.895000", "182448.385000", "182449.875000", "182451.365000", "182452.855000", "182454.345000", "182455.835000", "182457.325000", "182458.815000", "182500.305000", "182501.795000", "182503.285000", "182504.775000", "182506.265000", "182507.755000", "182509.245000", "182510.735000", "182512.225000", "182513.715000", "182515.205000", "182516.695000", "182518.185000", "182519.675000", "182521.165000", "182522.655000", "182524.145000", "182525.635000", "182527.125000", "182528.615000", "182530.105000", "182531.595000", "182533.085000", "182534.575000", "182536.065000", "182537.555000", "182539.045000", "182540.535000", "182542.025000", "182543.515000", "182545.005000", "182546.495000", "182547.985000", "182549.475000", "182550.965000", "182552.455000", "182553.945000", "182555.435000", "182556.925000", "182558.415000", "182559.905000", "182601.395000", "182602.885000", "182604.375000", "182605.865000", "182607.355000", "182608.845000", "182610.335000", "182611.825000", "182613.315000", "182614.805000", "182616.295000", "182617.785000", "182619.275000", "182620.765000", "182622.255000", "182623.745000", "182625.235000", "182626.725000", "182628.215000", "182629.705000", "182631.195000", "182632.685000", "182634.175000", "182635.665000", "182637.155000", "182638.645000", "182640.135000", "182641.625000", "182643.115000", "182644.605000", "182646.095000", "182647.585000", "182649.075000", "182650.565000", "182652.055000", "182653.545000", "182655.035000", "182656.525000", "182658.015000", "182659.505000", "182700.995000", "182702.485000", "182703.975000", "182705.465000", "182706.955000", "182708.445000", "182709.935000", "182711.425000", "182712.915000", "182714.405000", "182715.895000", "182717.385000", "182718.875000", "182720.365000", "182721.855000", "182723.345000", "182724.835000", "182726.325000", "182727.815000", "182729.305000", "182730.795000", "182732.285000", "182733.775000", "182735.265000", "182736.755000", "182738.245000", "182739.735000", "182741.225000", "182742.715000", "182744.205000", "182745.695000", "182747.185000", "182748.675000", "182750.165000", "182751.655000", "182753.145000", "182754.635000", "182756.125000", "182757.615000", "182759.105000", "182800.595000", "182802.085000", "182803.575000", "182805.065000", "182806.555000", "182808.045000", "182809.535000", "182811.025000", "182812.515000", "182814.005000", "182815.495000", "182816.985000", "182818.475000", "182819.965000", "182821.455000", "182822.945000", "182824.435000", "182825.925000", "182827.415000", "182828.905000", "182830.395000", "182831.885000", "182833.375000", "182834.865000", "182836.355000", "182837.845000", "182839.335000", "182840.825000", "182842.315000", "182843.805000", "182845.295000", "182846.785000", "182848.275000", "182849.765000", "182851.255000", "182852.745000", "182854.235000", "182855.725000", "182857.215000", "182858.705000", "182900.195000", "182901.685000", "182903.175000", "182904.665000", "182906.155000", "182907.645000", "182909.135000", "182910.625000", "182912.115000", "182913.605000", "182915.095000", "182916.585000", "182918.075000", "182919.565000", "182921.055000", "182922.545000", "182924.035000", "182925.525000", "182927.015000", "182928.505000", "182929.995000", "182931.485000", "182932.975000", "182934.465000", "182935.955000", "182937.445000", "182938.935000", "182940.425000", "182941.915000", "182943.405000", "182944.895000", "182946.385000", "182947.875000", "182949.365000", "182950.855000", "182952.345000", "182953.835000", "182955.325000", "182956.815000", "182958.305000", "182959.795000", "183001.285000", "183002.775000", "183004.265000", "183005.755000", "183007.245000", "183008.735000", "183010.225000", "183011.715000", "183013.205000", "183014.695000", "183016.185000", "183017.675000"],
      "ContentTime": ["182321.207000", "182321.210000", "182321.214000", "182321.221000", "182321.224000", "182321.228000", "182321.231000", "182321.234000", "182321.238000", "182321.241000", "182321.245000", "182321.248000", "182321.251000", "182321.255000", "182321.258000", "182321.261000", "182321.265000", "182321.268000", "182321.272000", "182321.275000", "182321.278000", "182321.282000", "182321.285000", "182321.288000", "182321.292000", "182321.295000", "182321.299000", "182321.302000", "182321.305000", "182321.309000", "182321.312000", "182321.315000", "182341.173000", "182341.177000", "182341.180000", "182341.193000", "182341.196000", "182341.200000", "182341.203000", "182341.207000", "182341.210000", "182341.213000", "182341.217000", "182341.220000", "182341.223000", "182341.226000", "182341.230000", "182341.233000", "182341.237000", "182341.240000", "182341.243000", "182341.247000", "182401.173000", "182401.177000", "182401.180000", "182401.184000", "182401.191000", "182401.194000", "182401.198000", "182401.201000", "182401.204000", "182401.208000", "182401.211000", "182401.222000", "182401.225000", "182401.240000", "182401.243000", "182401.247000", "182401.250000", "182401.254000", "182401.257000", "182401.260000", "182421.172000", "182421.176000", "182421.179000", "182421.182000", "182421.186000", "182421.189000", "182421.193000", "182421.196000", "182421.199000", "182421.203000", "182421.206000", "182421.209000", "182421.213000", "182421.216000", "182421.222000", "182421.225000", "182421.229000", "182421.232000", "182421.236000", "182421.239000", "182501.173000", "182501.177000", "182501.180000", "182501.184000", "182501.187000", "182501.191000", "182501.194000", "182501.197000", "182501.201000", "182501.204000", "182501.207000", "182501.211000", "182501.214000", "182501.218000", "182501.221000", "182501.224000", "182501.228000", "182501.231000", "182501.234000", "182501.238000", "182501.241000", "182501.245000", "182501.248000", "182501.251000", "182501.255000", "182501.258000", "182501.261000", "182501.265000", "182501.268000", "182501.271000", "182541.173000", "182541.177000", "182541.180000", "182541.184000", "182541.187000", "182541.191000", "182541.194000", "182541.197000", "182541.201000", "182541.204000", "182541.208000", "182541.211000", "182541.214000", "182541.218000", "182541.222000", "182541.226000", "182541.230000", "182541.233000", "182541.236000", "182541.240000", "182541.243000", "182541.247000", "182541.250000", "182541.254000", "182541.257000", "182541.260000", "182621.173000", "182621.177000", "182621.180000", "182621.184000", "182621.187000", "182621.203000", "182621.207000", "182621.210000", "182621.214000", "182621.217000", "182621.221000", "182621.224000", "182621.227000", "182621.231000", "182621.234000", "182621.250000", "182621.260000", "182621.263000", "182621.267000", "182621.270000", "182621.274000", "182621.277000", "182621.280000", "182621.284000", "182621.287000", "182621.291000", "182621.294000", "182701.172000", "182701.176000", "182701.180000", "182701.183000", "182701.186000", "182701.190000", "182701.193000", "182701.197000", "182701.200000", "182701.203000", "182701.207000", "182701.210000", "182701.214000", "182701.217000", "182701.221000", "182701.224000", "182701.227000", "182701.231000", "182701.234000", "182701.238000", "182701.241000", "182701.244000", "182701.248000", "182701.251000", "182701.255000", "182701.258000", "182701.262000", "182741.173000", "182741.177000", "182741.180000", "182741.184000", "182741.187000", "182741.191000", "182741.194000", "182741.197000", "182741.201000", "182741.204000", "182741.208000", "182741.211000", "182741.215000", "182741.218000", "182741.221000", "182741.225000", "182741.228000", "182741.232000", "182741.235000", "182741.238000", "182741.242000", "182741.245000", "182741.249000", "182741.252000", "182741.255000", "182741.259000", "182741.262000", "182821.173000", "182821.177000", "182821.181000", "182821.184000", "182821.187000", "182821.191000", "182821.194000", "182821.198000", "182821.201000", "182821.204000", "182821.208000", "182821.211000", "182821.214000", "182821.218000", "182821.221000", "182821.225000", "182821.228000", "182821.231000", "182821.235000", "182821.238000", "182821.242000", "182821.245000", "182821.248000", "182821.252000", "182821.255000", "182821.258000", "182821.262000", "182901.172000", "182901.176000", "182901.179000", "182901.183000", "182901.186000", "182901.190000", "182901.193000", "182901.196000", "182901.200000", "182901.203000", "182901.207000", "182901.210000", "182901.214000", "182901.217000", "182901.220000", "182901.224000", "182901.227000", "182901.231000", "182901.234000", "182901.237000", "182901.241000", "182901.244000", "182901.248000", "182901.251000", "182901.254000", "182901.258000", "182901.261000", "182941.173000", "182941.177000", "182941.181000", "182941.184000", "182941.187000", "182941.191000", "182941.194000", "182941.197000", "182941.201000", "182941.204000", "182941.208000", "182941.211000", "182941.215000", "182941.218000", "182941.222000", "182941.225000", "182941.228000", "182941.232000", "182941.237000", "182941.242000", "182941.246000", "182941.249000", "182941.252000", "182941.256000", "182941.260000", "182941.263000", "183020.902000", "183020.906000", "183020.909000", "183020.913000", "183020.916000", "183020.919000", "183020.923000", "183020.926000", "183020.930000", "183020.933000", "183020.937000", "183020.940000", "183020.944000", "183020.947000", "183020.950000", "183020.954000", "183020.957000", "183020.960000", "183020.964000", "183020.967000", "183020.970000", "183020.974000", "183020.977000", "183020.981000", "183020.984000", "183020.987000", "183020.991000"],
      "InstanceCreationTime": ["182321.207000", "182321.210000", "182321.214000", "182321.221000", "182321.224000", "182321.228000", "182321.231000", "182321.234000", "182321.238000", "182321.241000", "182321.245000", "182321.248000", "182321.251000", "182321.255000", "182321.258000", "182321.261000", "182321.265000", "182321.268000", "182321.272000", "182321.275000", "182321.278000", "182321.282000", "182321.285000", "182321.288000", "182321.292000", "182321.295000", "182321.299000", "182321.302000", "182321.305000", "182321.309000", "182321.312000", "182321.315000", "182341.173000", "182341.177000", "182341.180000", "182341.193000", "182341.196000", "182341.200000", "182341.203000", "182341.207000", "182341.210000", "182341.213000", "182341.217000", "182341.220000", "182341.223000", "182341.226000", "182341.230000", "182341.233000", "182341.237000", "182341.240000", "182341.243000", "182341.247000", "182401.173000", "182401.177000", "182401.180000", "182401.184000", "182401.191000", "182401.194000", "182401.198000", "182401.201000", "182401.204000", "182401.208000", "182401.211000", "182401.222000", "182401.225000", "182401.240000", "182401.243000", "182401.247000", "182401.250000", "182401.254000", "182401.257000", "182401.260000", "182421.172000", "182421.176000", "182421.179000", "182421.182000", "182421.186000", "182421.189000", "182421.193000", "182421.196000", "182421.199000", "182421.203000", "182421.206000", "182421.209000", "182421.213000", "182421.216000", "182421.222000", "182421.225000", "182421.229000", "182421.232000", "182421.236000", "182421.239000", "182501.173000", "182501.177000", "182501.180000", "182501.184000", "182501.187000", "182501.191000", "182501.194000", "182501.197000", "182501.201000", "182501.204000", "182501.207000", "182501.211000", "182501.214000", "182501.218000", "182501.221000", "182501.224000", "182501.228000", "182501.231000", "182501.234000", "182501.238000", "182501.241000", "182501.245000", "182501.248000", "182501.251000", "182501.255000", "182501.258000", "182501.261000", "182501.265000", "182501.268000", "182501.271000", "182541.173000", "182541.177000", "182541.180000", "182541.184000", "182541.187000", "182541.191000", "182541.194000", "182541.197000", "182541.201000", "182541.204000", "182541.208000", "182541.211000", "182541.214000", "182541.218000", "182541.222000", "182541.226000", "182541.230000", "182541.233000", "182541.236000", "182541.240000", "182541.243000", "182541.247000", "182541.250000", "182541.254000", "182541.257000", "182541.260000", "182621.173000", "182621.177000", "182621.180000", "182621.184000", "182621.187000", "182621.203000", "182621.207000", "182621.210000", "182621.214000", "182621.217000", "182621.221000", "182621.224000", "182621.227000", "182621.231000", "182621.234000", "182621.250000", "182621.260000", "182621.263000", "182621.267000", "182621.270000", "182621.274000", "182621.277000", "182621.280000", "182621.284000", "182621.287000", "182621.291000", "182621.294000", "182701.172000", "182701.176000", "182701.180000", "182701.183000", "182701.186000", "182701.190000", "182701.193000", "182701.197000", "182701.200000", "182701.203000", "182701.207000", "182701.210000", "182701.214000", "182701.217000", "182701.221000", "182701.224000", "182701.227000", "182701.231000", "182701.234000", "182701.238000", "182701.241000", "182701.244000", "182701.248000", "182701.251000", "182701.255000", "182701.258000", "182701.262000", "182741.173000", "182741.177000", "182741.180000", "182741.184000", "182741.187000", "182741.191000", "182741.194000", "182741.197000", "182741.201000", "182741.204000", "182741.208000", "182741.211000", "182741.215000", "182741.218000", "182741.221000", "182741.225000", "182741.228000", "182741.232000", "182741.235000", "182741.238000", "182741.242000", "182741.245000", "182741.249000", "182741.252000", "182741.255000", "182741.259000", "182741.262000", "182821.173000", "182821.177000", "182821.181000", "182821.184000", "182821.187000", "182821.191000", "182821.194000", "182821.198000", "182821.201000", "182821.204000", "182821.208000", "182821.211000", "182821.214000", "182821.218000", "182821.221000", "182821.225000", "182821.228000", "182821.231000", "182821.235000", "182821.238000", "182821.242000", "182821.245000", "182821.248000", "182821.252000", "182821.255000", "182821.258000", "182821.262000", "182901.172000", "182901.176000", "182901.179000", "182901.183000", "182901.186000", "182901.190000", "182901.193000", "182901.196000", "182901.200000", "182901.203000", "182901.207000", "182901.210000", "182901.214000", "182901.217000", "182901.220000", "182901.224000", "182901.227000", "182901.231000", "182901.234000", "182901.237000", "182901.241000", "182901.244000", "182901.248000", "182901.251000", "182901.254000", "182901.258000", "182901.261000", "182941.173000", "182941.177000", "182941.181000", "182941.184000", "182941.187000", "182941.191000", "182941.194000", "182941.197000", "182941.201000", "182941.204000", "182941.208000", "182941.211000", "182941.215000", "182941.218000", "182941.222000", "182941.225000", "182941.228000", "182941.232000", "182941.237000", "182941.242000", "182941.246000", "182941.249000", "182941.252000", "182941.256000", "182941.260000", "182941.263000", "183020.902000", "183020.906000", "183020.909000", "183020.913000", "183020.916000", "183020.919000", "183020.923000", "183020.926000", "183020.930000", "183020.933000", "183020.937000", "183020.940000", "183020.944000", "183020.947000", "183020.950000", "183020.954000", "183020.957000", "183020.960000", "183020.964000", "183020.967000", "183020.970000", "183020.974000", "183020.977000", "183020.981000", "183020.984000", "183020.987000", "183020.991000"],
      "InstanceNumber": [1, 2, 3, 4, 5, 6, 7, 8, 9, 10, 11, 12, 13, 14, 15, 16, 17, 18, 19, 20, 21, 22, 23, 24, 25, 26, 27, 28, 29, 30, 31, 32, 33, 34, 35, 36, 37, 38, 39, 40, 41, 42, 43, 44, 45, 46, 47, 48, 49, 50, 51, 52, 53, 54, 55, 56, 57, 58, 59, 60, 61, 62, 63, 64, 65, 66, 67, 68, 69, 70, 71, 72, 73, 74, 75, 76, 77, 78, 79, 80, 81, 82, 83, 84, 85, 86, 87, 88, 89, 90, 91, 92, 93, 94, 95, 96, 97, 98, 99, 100, 101, 102, 103, 104, 105, 106, 107, 108, 109, 110, 111, 112, 113, 114, 115, 116, 117, 118, 119, 120, 121, 122, 123, 124, 125, 126, 127, 128, 129, 130, 131, 132, 133, 134, 135, 136, 137, 138, 139, 140, 141, 142, 143, 144, 145, 146, 147, 148, 149, 150, 151, 152, 153, 154, 155, 156, 157, 158, 159, 160, 161, 162, 163, 164, 165, 166, 167, 168, 169, 170, 171, 172, 173, 174, 175, 176, 177, 178, 179, 180, 181, 182, 183, 184, 185, 186, 187, 188, 189, 190, 191, 192, 193, 194, 195, 196, 197, 198, 199, 200, 201, 202, 203, 204, 205, 206, 207, 208, 209, 210, 211, 212, 213, 214, 215, 216, 217, 218, 219, 220, 221, 222, 223, 224, 225, 226, 227, 228, 229, 230, 231, 232, 233, 234, 235, 236, 237, 238, 239, 240, 241, 242, 243, 244, 245, 246, 247, 248, 249, 250, 251, 252, 253, 254, 255, 256, 257, 258, 259, 260, 261, 262, 263, 264, 265, 266, 267, 268, 269, 270, 271, 272, 273, 274, 275, 276, 277, 278, 279, 280, 281, 282, 283, 284, 285, 286, 287, 288, 289, 290, 291, 292, 293, 294, 295, 296, 297, 298, 299, 300, 301, 302, 303, 304, 305, 306, 307, 308, 309, 310, 311, 312, 313, 314, 315, 316, 317, 318, 319, 320, 321, 322, 323, 324, 325, 326, 327, 328, 329, 330, 331, 332, 333, 334, 335, 336],
      "LargestImagePixelValue": [40821, 40004, 38984, 39007, 38466, 38081, 38889, 38235, 38308, 38472, 38385, 38790, 39066, 39018, 39117, 38820, 38829, 38638, 38848, 38841, 38476, 38418, 38345, 38664, 38527, 38695, 38651, 38379, 38730, 39242, 37913, 38408, 38620, 38760, 39229, 38875, 38258, 38841, 38775, 38800, 40046, 38897, 38206, 38740, 38800, 38753, 38718, 38638, 37850, 37898, 37807, 37708, 38392, 38242, 38161, 38365, 38306, 38198, 37851, 38154, 38282, 38828, 38238, 38298, 38531, 38364, 38176, 38387, 37620, 38033, 37554, 37436, 37748, 37861, 38262, 38536, 38180, 37965, 38666, 38349, 38743, 38217, 39029, 38413, 38026, 37907, 38187, 38330, 38391, 37822, 38473, 37927, 38303, 38233, 37740, 37812, 38041, 37695, 38209, 38939, 38012, 38161, 38062, 38193, 38610, 38901, 38305, 38600, 38181, 38354, 38871, 37821, 38921, 38290, 38801, 38056, 38087, 37899, 38248, 38446, 38252, 38650, 38729, 38648, 38549, 38447, 38101, 38250, 38468, 37603, 37945, 37697, 37849, 37665, 37967, 37894, 39318, 38673, 38941, 38208, 38254, 38220, 38945, 38182, 39133, 37683, 38237, 39161, 37866, 38258, 38659, 38780, 38738, 38244, 39017, 38637, 38813, 37740, 37911, 38431, 37924, 38466, 38008, 37974, 37669, 37287, 37501, 37686, 37551, 37328, 37377, 37580, 37732, 38268, 38147, 37681, 38825, 37752, 37970, 38706, 37995, 37666, 38167, 38221, 36974, 37573, 38358, 37422, 37181, 37225, 37410, 37651, 37540, 37174, 38212, 38513, 37619, 37894, 37744, 38274, 38141, 37733, 39490, 38852, 38013, 37957, 38362, 37643, 37998, 37817, 38211, 37646, 37900, 37644, 37721, 37835, 37894, 37938, 37804, 37515, 37970, 37560, 37867, 38264, 37940, 37827, 37796, 37340, 37200, 37581, 38022, 37383, 38292, 37288, 38060, 37811, 37990, 37875, 38445, 37913, 38162, 38119, 38068, 37880, 37910, 37779, 37727, 37940, 38051, 37848, 37584, 37909, 37818, 37305, 38205, 37145, 37384, 37754, 37745, 38106, 37939, 38062, 37456, 37626, 37246, 37515, 36743, 37031, 37541, 37516, 37357, 37147, 36984, 37993, 37840, 38228, 38177, 37140, 36739, 36933, 37439, 37262, 37447, 38048, 37295, 37022, 37059, 37568, 37253, 37493, 37460, 37329, 37457, 37288, 37418, 37497, 37379, 37316, 37254, 37287, 37681, 37734, 37875, 37607, 38110, 37528, 37890, 37084, 38254, 37625, 39398, 39058, 38380, 37897, 38103, 37587, 37958, 37882, 37194, 37325, 37283, 37703, 37691, 38450, 38265, 37906, 38013, 37352, 36996, 37199, 37585, 37273, 37119, 37552, 37420, 37137],
