{
  "AcquisitionMatrixPE": 104,
  "AcquisitionNumber": 1,
  "AcquisitionTime": "18:30:38.842500",
  "BandwidthPerPixelPhaseEncode": 17.17,
  "BaseResolution": 104,
  "BodyPartExamined": "BRAIN",
  "CoilCombinationMethod": "Sum of Squares",
  "ConsistencyInfo": "N4_VE11C_LATEST_20160120",
  "ConversionSoftware": "dcm2niix",
  "ConversionSoftwareVersion": "v1.0.20220505",
  "DerivedVendorReportedEchoSpacing": 0.000560011,
  "DeviceSerialNumber": "167006",
  "DwellTime": 2.1e-06,
  "EchoTime": 0.037,
  "EchoTime1": 0.037,
  "EchoTime2": 0.001,
  "EchoTrainLength": 104,
  "EffectiveEchoSpacing": 0.000560011,
  "FlipAngle": 52,
  "HeudiconvVersion": "0.5.3.post811+g6206e14",
  "ImageComments": "Unaliased MB4/PE3/LB",
  "ImageOrientationPatientDICOM": [0.999875, 0.0112852, 0.0110576, -0.00820223, 0.968932, -0.247192],
  "ImageOrientationText": "Tra>Cor(-14.3)>Sag(0.8)",
  "ImageType": [
    "ORIGINAL",
    "PRIMARY",
    "P",
    "MB",
    "ND",
    "MOSAIC",
    "PHASE"
],
  "ImagingFrequency": 123.26,
  "InPlanePhaseEncodingDirectionDICOM": "COL",
  "InstitutionAddress": "Chemin Queen-Mary 4565,Montreal,District,CA,H3W 1W5",
  "InstitutionName": "IUGM",
  "InstitutionalDepartmentName": "Department",
  "MRAcquisitionType": "2D",
  "MagneticFieldStrength": 3,
  "Manufacturer": "Siemens",
  "ManufacturersModelName": "Prisma_fit",
  "MatrixCoilMode": "SENSE",
  "Modality": "MR",
  "MultibandAccelerationFactor": 4,
  "PartialFourier": 1,
  "PatientPosition": "HFS",
  "PercentPhaseFOV": 100,
  "PercentSampling": 100,
  "PhaseEncodingDirection": "j",
  "PhaseEncodingSteps": 104,
  "PhaseResolution": 1,
  "PixelBandwidth": 2290,
  "ProcedureStepDescription": "games^mario3",
  "ProtocolName": "func_task-mario3_run-03",
  "PulseSequenceDetails": "%CustomerSeq%\\cmrr_mbep2d_bold",
  "ReceiveCoilActiveElements": "HC1-7;NC1,2",
  "ReceiveCoilName": "HeadNeck_64",
  "ReconMatrixPE": 104,
  "RepetitionTime": 1.49,
  "SAR": 0.0362188,
  "ScanOptions": "FS",
  "ScanningSequence": "EP",
  "SequenceName": "epfid2d1_104",
  "SequenceVariant": "SK\\SS",
  "SeriesDescription": "func_task-mario3_run-03",
  "SeriesNumber": 17,
  "ShimSetting": [621, -7242, -8716, 737, 63, -41, 79, 6],
  "SliceThickness": 2,
  "SliceTiming": [0, 0.785, 0.0975, 0.8825, 0.1975, 0.98, 0.295, 1.0775, 0.3925, 1.1775, 0.49, 1.275, 0.5875, 1.3725, 0.6875, 0, 0.785, 0.0975, 0.8825, 0.1975, 0.98, 0.295, 1.0775, 0.3925, 1.1775, 0.49, 1.275, 0.5875, 1.3725, 0.6875, 0, 0.785, 0.0975, 0.8825, 0.1975, 0.98, 0.295, 1.0775, 0.3925, 1.1775, 0.49, 1.275, 0.5875, 1.3725, 0.6875, 0, 0.785, 0.0975, 0.8825, 0.1975, 0.98, 0.295, 1.0775, 0.3925, 1.1775, 0.49, 1.275, 0.5875, 1.3725, 0.6875],
  "SoftwareVersions": "syngo MR E11",
  "SpacingBetweenSlices": 2,
  "StationName": "MRC35049",
  "TaskName": "mario3",
  "TotalReadoutTime": 0.0576811,
  "TxRefAmp": 206.33,
  "WipMemBlock": "022883d4-2e90-415b-b460-212d92f25562||Sequence: R017 ve11c/master r/75a17815+; Jun 28 2022 16:32:11 by eja",
  "dcmmeta_affine": [
    [-1.9997503757476807, -0.01640445552766323, 0.027007432654500008, 109.14628601074219],
    [-0.02257036231458187, 1.9378634691238403, -0.4941416382789612, -73.79918670654297],
    [0.022115295752882957, 0.4943847358226776, 1.9378067255020142, -38.52891540527344],
    [0.0, 0.0, 0.0, 1.0]
],
  "dcmmeta_reorient_transform": [
    [0.0, -1.0, 0.0, 103.0],
    [1.0, 0.0, 0.0, 0.0],
    [0.0, 0.0, 1.0, 0.0],
    [0.0, 0.0, 0.0, 1.0]
],
  "dcmmeta_shape": [104, 104, 60, 339],
  "dcmmeta_slice_dim": 2,
  "dcmmeta_version": 0.6,
  "global": {
    "const": {
      "AcquisitionMatrix": [104, 0, 0, 104],
      "AngioFlag": "N",
      "BitsAllocated": 16,
      "BitsStored": 16,
      "BodyPartExamined": "BRAIN",
      "Columns": 832,
      "EchoNumbers": 1,
      "EchoTime": 37.0,
      "EchoTrainLength": 104,
      "FlipAngle": 52.0,
      "HighBit": 15,
      "ImageOrientationPatient": [0.99987517876512, 0.0112851811111, 0.01105764788283, -0.0082022274594, 0.96893170883032, -0.2471923685874],
      "ImagePositionPatient": [-829.39453256747, -839.39863915307, 184.29879107167],
      "ImageType": [
        "ORIGINAL",
        "PRIMARY",
        "P",
        "MB",
        "ND",
        "MOSAIC"
],
      "ImagedNucleus": "1H",
      "ImagingFrequency": 123.26027,
      "InPlanePhaseEncodingDirection": "COL",
      "LargestImagePixelValue": 4095,
      "MRAcquisitionType": "2D",
      "MagneticFieldStrength": 3.0,
      "Manufacturer": "SIEMENS",
      "ManufacturerModelName": "Prisma_fit",
      "Modality": "MR",
      "NumberOfAverages": 1.0,
      "NumberOfPhaseEncodingSteps": 104,
      "PercentPhaseFieldOfView": 100.0,
      "PercentSampling": 100.0,
      "PerformedProcedureStepStartTime": "181057.394000",
      "PhotometricInterpretation": "MONOCHROME2",
      "PixelBandwidth": 2290.0,
      "PixelRepresentation": 0,
      "PixelSpacing": [2.0, 2.0],
      "ProtocolName": "func_task-mario3_run-03",
      "RepetitionTime": 1490.0,
      "RescaleIntercept": -4096.0,
      "RescaleSlope": 2.0,
      "RescaleType": "US",
      "Rows": 832,
      "SAR": 0.03621880771186,
      "SamplesPerPixel": 1,
      "ScanOptions": "FS",
      "ScanningSequence": "EP",
      "SequenceName": "epfid2d1_104",
      "SequenceVariant": [
        "SK",
        "SS"
],
      "SeriesDescription": "func_task-mario3_run-03",
      "SeriesNumber": 17,
      "SeriesTime": "183201.867000",
      "SliceLocation": -17.623286338467,
      "SliceThickness": 2.0,
      "SmallestImagePixelValue": 0,
      "SoftwareVersions": "syngo MR E11",
      "SpacingBetweenSlices": 2.0000000361748,
      "SpecificCharacterSet": "ISO_IR 100",
      "StudyID": "1",
      "StudyTime": "181057.315000",
      "TransmitCoilName": "Body",
      "VariableFlipAngleFlag": "N",
      "WindowCenterWidthExplanation": "Algo1",
      "dBdt": 0.0},
    "slices": {}
  },
  "time": {
    "samples": {
      "AcquisitionNumber": [1, 2, 3, 4, 5, 6, 7, 8, 9, 10, 11, 12, 13, 14, 15, 16, 17, 18, 19, 20, 21, 22, 23, 24, 25, 26, 27, 28, 29, 30, 31, 32, 33, 34, 35, 36, 37, 38, 39, 40, 41, 42, 43, 44, 45, 46, 47, 48, 49, 50, 51, 52, 53, 54, 55, 56, 57, 58, 59, 60, 61, 62, 63, 64, 65, 66, 67, 68, 69, 70, 71, 72, 73, 74, 75, 76, 77, 78, 79, 80, 81, 82, 83, 84, 85, 86, 87, 88, 89, 90, 91, 92, 93, 94, 95, 96, 97, 98, 99, 100, 101, 102, 103, 104, 105, 106, 107, 108, 109, 110, 111, 112, 113, 114, 115, 116, 117, 118, 119, 120, 121, 122, 123, 124, 125, 126, 127, 128, 129, 130, 131, 132, 133, 134, 135, 136, 137, 138, 139, 140, 141, 142, 143, 144, 145, 146, 147, 148, 149, 150, 151, 152, 153, 154, 155, 156, 157, 158, 159, 160, 161, 162, 163, 164, 165, 166, 167, 168, 169, 170, 171, 172, 173, 174, 175, 176, 177, 178, 179, 180, 181, 182, 183, 184, 185, 186, 187, 188, 189, 190, 191, 192, 193, 194, 195, 196, 197, 198, 199, 200, 201, 202, 203, 204, 205, 206, 207, 208, 209, 210, 211, 212, 213, 214, 215, 216, 217, 218, 219, 220, 221, 222, 223, 224, 225, 226, 227, 228, 229, 230, 231, 232, 233, 234, 235, 236, 237, 238, 239, 240, 241, 242, 243, 244, 245, 246, 247, 248, 249, 250, 251, 252, 253, 254, 255, 256, 257, 258, 259, 260, 261, 262, 263, 264, 265, 266, 267, 268, 269, 270, 271, 272, 273, 274, 275, 276, 277, 278, 279, 280, 281, 282, 283, 284, 285, 286, 287, 288, 289, 290, 291, 292, 293, 294, 295, 296, 297, 298, 299, 300, 301, 302, 303, 304, 305, 306, 307, 308, 309, 310, 311, 312, 313, 314, 315, 316, 317, 318, 319, 320, 321, 322, 323, 324, 325, 326, 327, 328, 329, 330, 331, 332, 333, 334, 335, 336, 337, 338, 339],
      "AcquisitionTime": ["183038.842500", "183040.332500", "183041.822500", "183043.312500", "183044.802500", "183046.292500", "183047.782500", "183049.272500", "183050.762500", "183052.252500", "183053.742500", "183055.232500", "183056.722500", "183058.212500", "183059.702500", "183101.192500", "183102.682500", "183104.172500", "183105.662500", "183107.152500", "183108.642500", "183110.132500", "183111.622500", "183113.112500", "183114.602500", "183116.092500", "183117.582500", "183119.072500", "183120.562500", "183122.052500", "183123.542500", "183125.032500", "183126.522500", "183128.012500", "183129.502500", "183130.992500", "183132.482500", "183133.972500", "183135.462500", "183136.952500", "183138.442500", "183139.932500", "183141.422500", "183142.912500", "183144.402500", "183145.892500", "183147.382500", "183148.872500", "183150.362500", "183151.852500", "183153.342500", "183154.832500", "183156.322500", "183157.812500", "183159.302500", "183200.792500", "183202.282500", "183203.772500", "183205.262500", "183206.752500", "183208.242500", "183209.732500", "183211.222500", "183212.712500", "183214.202500", "183215.692500", "183217.182500", "183218.672500", "183220.162500", "183221.652500", "183223.142500", "183224.632500", "183226.122500", "183227.612500", "183229.102500", "183230.592500", "183232.082500", "183233.572500", "183235.062500", "183236.552500", "183238.042500", "183239.532500", "183241.022500", "183242.512500", "183244.002500", "183245.492500", "183246.982500", "183248.472500", "183249.962500", "183251.452500", "183252.942500", "183254.432500", "183255.922500", "183257.412500", "183258.902500", "183300.392500", "183301.882500", "183303.372500", "183304.862500", "183306.352500", "183307.842500", "183309.332500", "183310.822500", "183312.312500", "183313.802500", "183315.292500", "183316.782500", "183318.272500", "183319.762500", "183321.252500", "183322.742500", "183324.232500", "183325.722500", "183327.212500", "183328.702500", "183330.192500", "183331.682500", "183333.172500", "183334.662500", "183336.152500", "183337.642500", "183339.132500", "183340.622500", "183342.112500", "183343.602500", "183345.092500", "183346.582500", "183348.072500", "183349.562500", "183351.052500", "183352.542500", "183354.032500", "183355.522500", "183357.012500", "183358.502500", "183359.992500", "183401.482500", "183402.972500", "183404.462500", "183405.952500", "183407.442500", "183408.932500", "183410.422500", "183411.912500", "183413.402500", "183414.892500", "183416.382500", "183417.872500", "183419.362500", "183420.852500", "183422.342500", "183423.832500", "183425.322500", "183426.812500", "183428.302500", "183429.792500", "183431.282500", "183432.772500", "183434.262500", "183435.752500", "183437.242500", "183438.732500", "183440.222500", "183441.712500", "183443.202500", "183444.692500", "183446.182500", "183447.672500", "183449.162500", "183450.652500", "183452.142500", "183453.632500", "183455.122500", "183456.612500", "183458.102500", "183459.592500", "183501.082500", "183502.572500", "183504.062500", "183505.552500", "183507.042500", "183508.532500", "183510.022500", "183511.512500", "183513.002500", "183514.492500", "183515.982500", "183517.472500", "183518.962500", "183520.452500", "183521.942500", "183523.432500", "183524.922500", "183526.412500", "183527.902500", "183529.392500", "183530.882500", "183532.372500", "183533.862500", "183535.352500", "183536.842500", "183538.332500", "183539.822500", "183541.312500", "183542.802500", "183544.292500", "183545.782500", "183547.272500", "183548.762500", "183550.252500", "183551.742500", "183553.232500", "183554.722500", "183556.212500", "183557.702500", "183559.192500", "183600.682500", "183602.172500", "183603.662500", "183605.152500", "183606.642500", "183608.132500", "183609.622500", "183611.112500", "183612.602500", "183614.092500", "183615.582500", "183617.072500", "183618.562500", "183620.052500", "183621.542500", "183623.032500", "183624.522500", "183626.012500", "183627.502500", "183628.992500", "183630.482500", "183631.972500", "183633.462500", "183634.952500", "183636.442500", "183637.932500", "183639.422500", "183640.912500", "183642.402500", "183643.892500", "183645.382500", "183646.872500", "183648.362500", "183649.852500", "183651.342500", "183652.832500", "183654.322500", "183655.812500", "183657.302500", "183658.792500", "183700.282500", "183701.772500", "183703.262500", "183704.752500", "183706.242500", "183707.732500", "183709.222500", "183710.712500", "183712.202500", "183713.692500", "183715.182500", "183716.672500", "183718.162500", "183719.652500", "183721.142500", "183722.632500", "183724.122500", "183725.612500", "183727.102500", "183728.592500", "183730.082500", "183731.572500", "183733.062500", "183734.552500", "183736.042500", "183737.532500", "183739.022500", "183740.512500", "183742.002500", "183743.492500", "183744.982500", "183746.472500", "183747.962500", "183749.452500", "183750.942500", "183752.432500", "183753.922500", "183755.412500", "183756.902500", "183758.392500", "183759.882500", "183801.372500", "183802.862500", "183804.352500", "183805.842500", "183807.332500", "183808.822500", "183810.312500", "183811.802500", "183813.292500", "183814.782500", "183816.272500", "183817.762500", "183819.252500", "183820.742500", "183822.232500", "183823.722500", "183825.212500", "183826.702500", "183828.192500", "183829.682500", "183831.172500", "183832.662500", "183834.152500", "183835.642500", "183837.132500", "183838.622500", "183840.112500", "183841.602500", "183843.092500", "183844.582500", "183846.072500", "183847.562500", "183849.052500", "183850.542500", "183852.032500", "183853.522500", "183855.012500", "183856.502500", "183857.992500", "183859.482500", "183900.972500", "183902.462500"],
      "ContentTime": ["183201.869000", "183201.872000", "183201.881000", "183201.884000", "183201.886000", "183201.889000", "183201.892000", "183201.894000", "183201.897000", "183201.899000", "183201.902000", "183201.909000", "183201.911000", "183201.914000", "183201.916000", "183201.919000", "183201.921000", "183201.924000", "183201.926000", "183201.929000", "183201.932000", "183201.934000", "183201.937000", "183201.939000", "183201.942000", "183201.944000", "183201.947000", "183201.949000", "183201.952000", "183201.954000", "183201.963000", "183201.966000", "183201.968000", "183221.791000", "183221.793000", "183221.796000", "183221.798000", "183221.801000", "183221.804000", "183221.806000", "183221.809000", "183221.811000", "183221.814000", "183221.816000", "183221.819000", "183221.822000", "183221.824000", "183221.827000", "183221.829000", "183221.832000", "183221.834000", "183221.837000", "183221.839000", "183241.780000", "183241.782000", "183241.785000", "183241.787000", "183241.790000", "183241.793000", "183241.795000", "183241.798000", "183241.800000", "183241.803000", "183241.805000", "183241.808000", "183241.810000", "183241.813000", "183241.816000", "183241.818000", "183241.821000", "183241.823000", "183241.826000", "183241.828000", "183301.790000", "183301.793000", "183301.795000", "183301.798000", "183301.800000", "183301.803000", "183301.805000", "183301.808000", "183301.811000", "183301.813000", "183301.816000", "183301.818000", "183301.821000", "183301.823000", "183301.826000", "183301.828000", "183301.831000", "183301.833000", "183301.836000", "183301.838000", "183341.838000", "183341.841000", "183341.843000", "183341.846000", "183341.849000", "183341.851000", "183341.854000", "183341.856000", "183341.859000", "183341.861000", "183341.864000", "183341.867000", "183341.869000", "183341.872000", "183341.874000", "183341.877000", "183341.880000", "183341.882000", "183341.885000", "183341.887000", "183341.890000", "183341.892000", "183341.895000", "183341.898000", "183341.900000", "183341.903000", "183341.905000", "183341.908000", "183341.910000", "183421.812000", "183421.815000", "183421.817000", "183421.820000", "183421.823000", "183421.825000", "183421.828000", "183421.831000", "183421.834000", "183421.836000", "183421.839000", "183421.841000", "183421.844000", "183421.846000", "183421.849000", "183421.852000", "183421.854000", "183421.857000", "183421.859000", "183421.862000", "183421.865000", "183421.867000", "183421.870000", "183421.872000", "183421.875000", "183421.878000", "183421.880000", "183501.859000", "183501.862000", "183501.865000", "183501.867000", "183501.870000", "183501.872000", "183501.875000", "183501.878000", "183501.880000", "183501.883000", "183501.885000", "183501.888000", "183501.890000", "183501.893000", "183501.896000", "183501.898000", "183501.901000", "183501.903000", "183501.906000", "183501.909000", "183501.911000", "183501.914000", "183501.916000", "183501.919000", "183501.922000", "183501.924000", "183541.810000", "183541.813000", "183541.815000", "183541.818000", "183541.821000", "183541.823000", "183541.826000", "183541.828000", "183541.831000", "183541.834000", "183541.836000", "183541.839000", "183541.841000", "183541.844000", "183541.847000", "183541.849000", "183541.863000", "183541.866000", "183541.868000", "183541.871000", "183541.873000", "183541.876000", "183541.879000", "183541.889000", "183541.891000", "183541.894000", "183541.896000", "183621.899000", "183621.901000", "183621.904000", "183621.912000", "183621.914000", "183621.917000", "183621.919000", "183621.922000", "183621.925000", "183621.927000", "183621.930000", "183621.933000", "183621.935000", "183621.938000", "183621.940000", "183621.943000", "183621.946000", "183621.948000", "183621.951000", "183621.953000", "183621.956000", "183621.958000", "183621.961000", "183621.964000", "183621.966000", "183621.969000", "183621.971000", "183701.878000", "183701.881000", "183701.883000", "183701.886000", "183701.888000", "183701.891000", "183701.893000", "183701.896000", "183701.899000", "183701.901000", "183701.904000", "183701.906000", "183701.909000", "183701.916000", "183701.919000", "183701.922000", "183701.924000", "183701.927000", "183701.929000", "183701.932000", "183701.934000", "183701.937000", "183701.940000", "183701.942000", "183701.945000", "183701.947000", "183701.950000", "183741.834000", "183741.837000", "183741.839000", "183741.842000", "183741.845000", "183741.847000", "183741.850000", "183741.853000", "183741.855000", "183741.858000", "183741.860000", "183741.863000", "183741.865000", "183741.868000", "183741.871000", "183741.873000", "183741.876000", "183741.879000", "183741.881000", "183741.884000", "183741.886000", "183741.889000", "183741.892000", "183741.894000", "183741.897000", "183741.899000", "183741.902000", "183821.842000", "183821.845000", "183821.847000", "183821.850000", "183821.852000", "183821.855000", "183821.858000", "183821.860000", "183821.863000", "183821.865000", "183821.868000", "183821.871000", "183821.873000", "183821.876000", "183821.878000", "183821.881000", "183821.884000", "183821.886000", "183821.889000", "183821.891000", "183821.894000", "183821.897000", "183821.899000", "183821.902000", "183821.904000", "183821.907000", "183821.910000", "183901.863000", "183901.865000", "183901.868000", "183901.870000", "183901.873000", "183901.875000", "183901.878000", "183901.880000", "183901.883000", "183901.886000", "183901.888000", "183901.891000", "183901.893000", "183901.896000", "183901.898000", "183901.901000", "183901.903000", "183901.906000", "183901.909000", "183901.911000", "183901.914000", "183901.916000", "183901.919000", "183901.921000", "183901.924000", "183901.926000", "183901.929000", "183906.003000", "183906.006000"],
      "InstanceCreationTime": ["183201.869000", "183201.872000", "183201.881000", "183201.884000", "183201.886000", "183201.889000", "183201.892000", "183201.894000", "183201.897000", "183201.899000", "183201.902000", "183201.909000", "183201.911000", "183201.914000", "183201.916000", "183201.919000", "183201.921000", "183201.924000", "183201.926000", "183201.929000", "183201.932000", "183201.934000", "183201.937000", "183201.939000", "183201.942000", "183201.944000", "183201.947000", "183201.949000", "183201.952000", "183201.954000", "183201.963000", "183201.966000", "183201.968000", "183221.791000", "183221.793000", "183221.796000", "183221.798000", "183221.801000", "183221.804000", "183221.806000", "183221.809000", "183221.811000", "183221.814000", "183221.816000", "183221.819000", "183221.822000", "183221.824000", "183221.827000", "183221.829000", "183221.832000", "183221.834000", "183221.837000", "183221.839000", "183241.780000", "183241.782000", "183241.785000", "183241.787000", "183241.790000", "183241.793000", "183241.795000", "183241.798000", "183241.800000", "183241.803000", "183241.805000", "183241.808000", "183241.810000", "183241.813000", "183241.816000", "183241.818000", "183241.821000", "183241.823000", "183241.826000", "183241.828000", "183301.790000", "183301.793000", "183301.795000", "183301.798000", "183301.800000", "183301.803000", "183301.805000", "183301.808000", "183301.811000", "183301.813000", "183301.816000", "183301.818000", "183301.821000", "183301.823000", "183301.826000", "183301.828000", "183301.831000", "183301.833000", "183301.836000", "183301.838000", "183341.838000", "183341.841000", "183341.843000", "183341.846000", "183341.849000", "183341.851000", "183341.854000", "183341.856000", "183341.859000", "183341.861000", "183341.864000", "183341.867000", "183341.869000", "183341.872000", "183341.874000", "183341.877000", "183341.880000", "183341.882000", "183341.885000", "183341.887000", "183341.890000", "183341.892000", "183341.895000", "183341.898000", "183341.900000", "183341.903000", "183341.905000", "183341.908000", "183341.910000", "183421.812000", "183421.815000", "183421.817000", "183421.820000", "183421.823000", "183421.825000", "183421.828000", "183421.831000", "183421.834000", "183421.836000", "183421.839000", "183421.841000", "183421.844000", "183421.846000", "183421.849000", "183421.852000", "183421.854000", "183421.857000", "183421.859000", "183421.862000", "183421.865000", "183421.867000", "183421.870000", "183421.872000", "183421.875000", "183421.878000", "183421.880000", "183501.859000", "183501.862000", "183501.865000", "183501.867000", "183501.870000", "183501.872000", "183501.875000", "183501.878000", "183501.880000", "183501.883000", "183501.885000", "183501.888000", "183501.890000", "183501.893000", "183501.896000", "183501.898000", "183501.901000", "183501.903000", "183501.906000", "183501.909000", "183501.911000", "183501.914000", "183501.916000", "183501.919000", "183501.922000", "183501.924000", "183541.810000", "183541.813000", "183541.815000", "183541.818000", "183541.821000", "183541.823000", "183541.826000", "183541.828000", "183541.831000", "183541.834000", "183541.836000", "183541.839000", "183541.841000", "183541.844000", "183541.847000", "183541.849000", "183541.863000", "183541.866000", "183541.868000", "183541.871000", "183541.873000", "183541.876000", "183541.879000", "183541.889000", "183541.891000", "183541.894000", "183541.896000", "183621.899000", "183621.901000", "183621.904000", "183621.912000", "183621.914000", "183621.917000", "183621.919000", "183621.922000", "183621.925000", "183621.927000", "183621.930000", "183621.933000", "183621.935000", "183621.938000", "183621.940000", "183621.943000", "183621.946000", "183621.948000", "183621.951000", "183621.953000", "183621.956000", "183621.958000", "183621.961000", "183621.964000", "183621.966000", "183621.969000", "183621.971000", "183701.878000", "183701.881000", "183701.883000", "183701.886000", "183701.888000", "183701.891000", "183701.893000", "183701.896000", "183701.899000", "183701.901000", "183701.904000", "183701.906000", "183701.909000", "183701.916000", "183701.919000", "183701.922000", "183701.924000", "183701.927000", "183701.929000", "183701.932000", "183701.934000", "183701.937000", "183701.940000", "183701.942000", "183701.945000", "183701.947000", "183701.950000", "183741.834000", "183741.837000", "183741.839000", "183741.842000", "183741.845000", "183741.847000", "183741.850000", "183741.853000", "183741.855000", "183741.858000", "183741.860000", "183741.863000", "183741.865000", "183741.868000", "183741.871000", "183741.873000", "183741.876000", "183741.879000", "183741.881000", "183741.884000", "183741.886000", "183741.889000", "183741.892000", "183741.894000", "183741.897000", "183741.899000", "183741.902000", "183821.842000", "183821.845000", "183821.847000", "183821.850000", "183821.852000", "183821.855000", "183821.858000", "183821.860000", "183821.863000", "183821.865000", "183821.868000", "183821.871000", "183821.873000", "183821.876000", "183821.878000", "183821.881000", "183821.884000", "183821.886000", "183821.889000", "183821.891000", "183821.894000", "183821.897000", "183821.899000", "183821.902000", "183821.904000", "183821.907000", "183821.910000", "183901.863000", "183901.865000", "183901.868000", "183901.870000", "183901.873000", "183901.875000", "183901.878000", "183901.880000", "183901.883000", "183901.886000", "183901.888000", "183901.891000", "183901.893000", "183901.896000", "183901.898000", "183901.901000", "183901.903000", "183901.906000", "183901.909000", "183901.911000", "183901.914000", "183901.916000", "183901.919000", "183901.921000", "183901.924000", "183901.926000", "183901.929000", "183906.003000", "183906.006000"],
      "InstanceNumber": [1, 2, 3, 4, 5, 6, 7, 8, 9, 10, 11, 12, 13, 14, 15, 16, 17, 18, 19, 20, 21, 22, 23, 24, 25, 26, 27, 28, 29, 30, 31, 32, 33, 34, 35, 36, 37, 38, 39, 40, 41, 42, 43, 44, 45, 46, 47, 48, 49, 50, 51, 52, 53, 54, 55, 56, 57, 58, 59, 60, 61, 62, 63, 64, 65, 66, 67, 68, 69, 70, 71, 72, 73, 74, 75, 76, 77, 78, 79, 80, 81, 82, 83, 84, 85, 86, 87, 88, 89, 90, 91, 92, 93, 94, 95, 96, 97, 98, 99, 100, 101, 102, 103, 104, 105, 106, 107, 108, 109, 110, 111, 112, 113, 114, 115, 116, 117, 118, 119, 120, 121, 122, 123, 124, 125, 126, 127, 128, 129, 130, 131, 132, 133, 134, 135, 136, 137, 138, 139, 140, 141, 142, 143, 144, 145, 146, 147, 148, 149, 150, 151, 152, 153, 154, 155, 156, 157, 158, 159, 160, 161, 162, 163, 164, 165, 166, 167, 168, 169, 170, 171, 172, 173, 174, 175, 176, 177, 178, 179, 180, 181, 182, 183, 184, 185, 186, 187, 188, 189, 190, 191, 192, 193, 194, 195, 196, 197, 198, 199, 200, 201, 202, 203, 204, 205, 206, 207, 208, 209, 210, 211, 212, 213, 214, 215, 216, 217, 218, 219, 220, 221, 222, 223, 224, 225, 226, 227, 228, 229, 230, 231, 232, 233, 234, 235, 236, 237, 238, 239, 240, 241, 242, 243, 244, 245, 246, 247, 248, 249, 250, 251, 252, 253, 254, 255, 256, 257, 258, 259, 260, 261, 262, 263, 264, 265, 266, 267, 268, 269, 270, 271, 272, 273, 274, 275, 276, 277, 278, 279, 280, 281, 282, 283, 284, 285, 286, 287, 288, 289, 290, 291, 292, 293, 294, 295, 296, 297, 298, 299, 300, 301, 302, 303, 304, 305, 306, 307, 308, 309, 310, 311, 312, 313, 314, 315, 316, 317, 318, 319, 320, 321, 322, 323, 324, 325, 326, 327, 328, 329, 330, 331, 332, 333, 334, 335, 336, 337, 338, 339],
      "WindowCenter": [4770.0, 4766.0, 4768.0, 4772.0, 4770.0, 4768.0, 4770.0, 4770.0, 4768.0, 4770.0, 4766.0, 4768.0, 4768.0, 4768.0, 4766.0, 4772.0, 4766.0, 4766.0, 4766.0, 4768.0, 4770.0, 4768.0, 4768.0, 4768.0, 4768.0, 4768.0, 4768.0, 4772.0, 4794.0, 4770.0, 4794.0, 4794.0, 4794.0, 4768.0, 4770.0, 4768.0, 4768.0, 4770.0, 4768.0, 4768.0, 4768.0, 4768.0, 4772.0, 4768.0, 4766.0, 4768.0, 4790.0, 4792.0, 4792.0, 4768.0, 4768.0, 4764.0, 4770.0, 4768.0, 4772.0, 4770.0, 4792.0, 4768.0, 4768.0, 4768.0, 4770.0, 4770.0, 4764.0, 4766.0, 4766.0, 4768.0, 4770.0, 4766.0, 4768.0, 4772.0, 4772.0, 4772.0, 4768.0, 4770.0, 4768.0, 4764.0, 4768.0, 4770.0, 4768.0, 4766.0, 4772.0, 4764.0, 4768.0, 4768.0, 4766.0, 4770.0, 4768.0, 4770.0, 4768.0, 4766.0, 4790.0, 4770.0, 4766.0, 4766.0, 4768.0, 4764.0, 4766.0, 4768.0, 4768.0, 4792.0, 4766.0, 4792.0, 4770.0, 4768.0, 4770.0, 4768.0, 4770.0, 4770.0, 4768.0, 4768.0, 4770.0, 4768.0, 4768.0, 4794.0, 4768.0, 4770.0, 4774.0, 4766.0, 4766.0, 4764.0, 4772.0, 4790.0, 4790.0, 4798.0, 4798.0, 4770.0, 4768.0, 4768.0, 4766.0, 4768.0, 4766.0, 4768.0, 4792.0, 4794.0, 4766.0, 4768.0, 4766.0, 4770.0, 4766.0, 4768.0, 4766.0, 4770.0, 4768.0, 4768.0, 4794.0, 4768.0, 4768.0, 4794.0, 4768.0, 4770.0, 4766.0, 4764.0, 4766.0, 4770.0, 4794.0, 4794.0, 4792.0, 4768.0, 4764.0, 4766.0, 4768.0, 4770.0, 4770.0, 4768.0, 4766.0, 4768.0, 4792.0, 4798.0, 4768.0, 4762.0, 4768.0, 4766.0, 4772.0, 4770.0, 4770.0, 4770.0, 4794.0, 4800.0, 4796.0, 4792.0, 4770.0, 4768.0, 4770.0, 4768.0, 4768.0, 4768.0, 4772.0, 4772.0, 4772.0, 4770.0, 4770.0, 4768.0, 4770.0, 4770.0, 4768.0, 4772.0, 4772.0, 4766.0, 4768.0, 4770.0, 4768.0, 4796.0, 4768.0, 4768.0, 4772.0, 4772.0, 4770.0, 4768.0, 4768.0, 4772.0, 4772.0, 4770.0, 4770.0, 4770.0, 4768.0, 4770.0, 4772.0, 4768.0, 4772.0, 4796.0, 4770.0, 4766.0, 4772.0, 4770.0, 4794.0, 4768.0, 4770.0, 4774.0, 4772.0, 4766.0, 4768.0, 4772.0, 4768.0, 4770.0, 4770.0, 4772.0, 4770.0, 4770.0, 4768.0, 4770.0, 4768.0, 4766.0, 4768.0, 4768.0, 4768.0, 4792.0, 4796.0, 4794.0, 4770.0, 4772.0, 4768.0, 4772.0, 4770.0, 4768.0, 4770.0, 4798.0, 4802.0, 4798.0, 4770.0, 4766.0, 4768.0, 4772.0, 4746.0, 4770.0, 4770.0, 4772.0, 4792.0, 4794.0, 4772.0, 4770.0, 4768.0, 4768.0, 4766.0, 4768.0, 4768.0, 4770.0, 4770.0, 4766.0, 4768.0, 4770.0, 4768.0, 4770.0, 4768.0, 4772.0, 4768.0, 4768.0, 4766.0, 4770.0, 4768.0, 4768.0, 4770.0, 4770.0, 4768.0, 4768.0, 4772.0, 4768.0, 4768.0, 4772.0, 4766.0, 4768.0, 4768.0, 4768.0, 4770.0, 4766.0, 4772.0, 4768.0, 4772.0, 4768.0, 4770.0, 4768.0, 4770.0, 4768.0, 4770.0, 4766.0, 4766.0, 4790.0, 4766.0, 4788.0, 4768.0, 4768.0, 4770.0, 4766.0, 4766.0, 4764.0, 4768.0, 4768.0, 4770.0, 4768.0, 4742.0, 4770.0, 4770.0, 4768.0, 4768.0, 4790.0, 4768.0, 4768.0, 4770.0, 4772.0, 4768.0],
