{
  "AcquisitionMatrixPE": 104,
  "AcquisitionNumber": 1,
  "AcquisitionTime": "18:21:58.525000",
  "BandwidthPerPixelPhaseEncode": 17.17,
  "BaseResolution": 104,
  "BodyPartExamined": "BRAIN",
  "CoilCombinationMethod": "Sum of Squares",
  "ConsistencyInfo": "N4_VE11C_LATEST_20160120",
  "ConversionSoftware": "dcm2niix",
  "ConversionSoftwareVersion": "v1.0.20220505",
  "DerivedVendorReportedEchoSpacing": 0.000560011,
  "DeviceSerialNumber": "167006",
  "DwellTime": 2.1e-06,
  "EchoTime": 0.037,
  "EchoTime1": 0.037,
  "EchoTime2": 0.001,
  "EchoTrainLength": 104,
  "EffectiveEchoSpacing": 0.000560011,
  "FlipAngle": 52,
  "HeudiconvVersion": "0.5.3.post811+g6206e14",
  "ImageComments": "Unaliased MB4/PE3/LB",
  "ImageOrientationPatientDICOM": [0.999875, 0.0112852, 0.0110576, -0.00820223, 0.968932, -0.247192],
  "ImageOrientationText": "Tra>Cor(-14.3)>Sag(0.8)",
  "ImageType": [
    "ORIGINAL",
    "PRIMARY",
    "P",
    "MB",
    "ND",
    "MOSAIC",
    "PHASE"
],
  "ImagingFrequency": 123.26,
  "InPlanePhaseEncodingDirectionDICOM": "COL",
  "InstitutionAddress": "Chemin Queen-Mary 4565,Montreal,District,CA,H3W 1W5",
  "InstitutionName": "IUGM",
  "InstitutionalDepartmentName": "Department",
  "MRAcquisitionType": "2D",
  "MagneticFieldStrength": 3,
  "Manufacturer": "Siemens",
  "ManufacturersModelName": "Prisma_fit",
  "MatrixCoilMode": "SENSE",
  "Modality": "MR",
  "MultibandAccelerationFactor": 4,
  "PartialFourier": 1,
  "PatientPosition": "HFS",
  "PercentPhaseFOV": 100,
  "PercentSampling": 100,
  "PhaseEncodingDirection": "j",
  "PhaseEncodingSteps": 104,
  "PhaseResolution": 1,
  "PixelBandwidth": 2290,
  "ProcedureStepDescription": "games^mario3",
  "ProtocolName": "func_task-mario3_run-02",
  "PulseSequenceDetails": "%CustomerSeq%\\cmrr_mbep2d_bold",
  "ReceiveCoilActiveElements": "HC1-7;NC1,2",
  "ReceiveCoilName": "HeadNeck_64",
  "ReconMatrixPE": 104,
  "RepetitionTime": 1.49,
  "SAR": 0.0362188,
  "ScanOptions": "FS",
  "ScanningSequence": "EP",
  "SequenceName": "epfid2d1_104",
  "SequenceVariant": "SK\\SS",
  "SeriesDescription": "func_task-mario3_run-02",
  "SeriesNumber": 14,
  "ShimSetting": [621, -7242, -8716, 737, 63, -41, 79, 6],
  "SliceThickness": 2,
  "SliceTiming": [0, 0.7825, 0.0975, 0.8825, 0.195, 0.98, 0.2925, 1.0775, 0.3925, 1.175, 0.49, 1.2725, 0.5875, 1.3725, 0.685, 0, 0.7825, 0.0975, 0.8825, 0.195, 0.98, 0.2925, 1.0775, 0.3925, 1.175, 0.49, 1.2725, 0.5875, 1.3725, 0.685, 0, 0.7825, 0.0975, 0.8825, 0.195, 0.98, 0.2925, 1.0775, 0.3925, 1.175, 0.49, 1.2725, 0.5875, 1.3725, 0.685, 0, 0.7825, 0.0975, 0.8825, 0.195, 0.98, 0.2925, 1.0775, 0.3925, 1.175, 0.49, 1.2725, 0.5875, 1.3725, 0.685],
  "SoftwareVersions": "syngo MR E11",
  "SpacingBetweenSlices": 2,
  "StationName": "MRC35049",
  "TaskName": "mario3",
  "TotalReadoutTime": 0.0576811,
  "TxRefAmp": 206.33,
  "WipMemBlock": "577e49d7-3de4-4e39-8331-e73ecd87c319||Sequence: R017 ve11c/master r/75a17815+; Jun 28 2022 16:32:11 by eja",
  "dcmmeta_affine": [
    [-1.9997503757476807, -0.01640445552766323, 0.027007432654500008, 109.14628601074219],
    [-0.02257036231458187, 1.9378634691238403, -0.4941416382789612, -73.79918670654297],
    [0.022115295752882957, 0.4943847358226776, 1.9378067255020142, -38.52891540527344],
    [0.0, 0.0, 0.0, 1.0]
],
  "dcmmeta_reorient_transform": [
    [0.0, -1.0, 0.0, 103.0],
    [1.0, 0.0, 0.0, 0.0],
    [0.0, 0.0, 1.0, 0.0],
    [0.0, 0.0, 0.0, 1.0]
],
  "dcmmeta_shape": [104, 104, 60, 336],
  "dcmmeta_slice_dim": 2,
  "dcmmeta_version": 0.6,
  "global": {
    "const": {
      "AcquisitionMatrix": [104, 0, 0, 104],
      "AngioFlag": "N",
      "BitsAllocated": 16,
      "BitsStored": 16,
      "BodyPartExamined": "BRAIN",
      "Columns": 832,
      "EchoNumbers": 1,
      "EchoTime": 37.0,
      "EchoTrainLength": 104,
      "FlipAngle": 52.0,
      "HighBit": 15,
      "ImageOrientationPatient": [0.99987517876512, 0.0112851811111, 0.01105764788283, -0.0082022274594, 0.96893170883032, -0.2471923685874],
      "ImagePositionPatient": [-829.39453256747, -839.39863915307, 184.29879107167],
      "ImageType": [
        "ORIGINAL",
        "PRIMARY",
        "P",
        "MB",
        "ND",
        "MOSAIC"
],
      "ImagedNucleus": "1H",
      "ImagingFrequency": 123.260264,
      "InPlanePhaseEncodingDirection": "COL",
      "LargestImagePixelValue": 4095,
      "MRAcquisitionType": "2D",
      "MagneticFieldStrength": 3.0,
      "Manufacturer": "SIEMENS",
      "ManufacturerModelName": "Prisma_fit",
      "Modality": "MR",
      "NumberOfAverages": 1.0,
      "NumberOfPhaseEncodingSteps": 104,
      "PercentPhaseFieldOfView": 100.0,
      "PercentSampling": 100.0,
      "PerformedProcedureStepStartTime": "181057.394000",
      "PhotometricInterpretation": "MONOCHROME2",
      "PixelBandwidth": 2290.0,
      "PixelRepresentation": 0,
      "PixelSpacing": [2.0, 2.0],
      "ProtocolName": "func_task-mario3_run-02",
      "RepetitionTime": 1490.0,
      "RescaleIntercept": -4096.0,
      "RescaleSlope": 2.0,
      "RescaleType": "US",
      "Rows": 832,
      "SAR": 0.03621880771186,
      "SamplesPerPixel": 1,
      "ScanOptions": "FS",
      "ScanningSequence": "EP",
      "SequenceName": "epfid2d1_104",
      "SequenceVariant": [
        "SK",
        "SS"
],
      "SeriesDescription": "func_task-mario3_run-02",
      "SeriesNumber": 14,
      "SeriesTime": "182321.351000",
      "SliceLocation": -17.623286338467,
      "SliceThickness": 2.0,
      "SmallestImagePixelValue": 0,
      "SoftwareVersions": "syngo MR E11",
      "SpacingBetweenSlices": 2.0000000361748,
      "SpecificCharacterSet": "ISO_IR 100",
      "StudyID": "1",
      "StudyTime": "181057.315000",
      "TransmitCoilName": "Body",
      "VariableFlipAngleFlag": "N",
      "WindowCenterWidthExplanation": "Algo1",
      "dBdt": 0.0},
    "slices": {}
  },
  "time": {
    "samples": {
      "AcquisitionNumber": [1, 2, 3, 4, 5, 6, 7, 8, 9, 10, 11, 12, 13, 14, 15, 16, 17, 18, 19, 20, 21, 22, 23, 24, 25, 26, 27, 28, 29, 30, 31, 32, 33, 34, 35, 36, 37, 38, 39, 40, 41, 42, 43, 44, 45, 46, 47, 48, 49, 50, 51, 52, 53, 54, 55, 56, 57, 58, 59, 60, 61, 62, 63, 64, 65, 66, 67, 68, 69, 70, 71, 72, 73, 74, 75, 76, 77, 78, 79, 80, 81, 82, 83, 84, 85, 86, 87, 88, 89, 90, 91, 92, 93, 94, 95, 96, 97, 98, 99, 100, 101, 102, 103, 104, 105, 106, 107, 108, 109, 110, 111, 112, 113, 114, 115, 116, 117, 118, 119, 120, 121, 122, 123, 124, 125, 126, 127, 128, 129, 130, 131, 132, 133, 134, 135, 136, 137, 138, 139, 140, 141, 142, 143, 144, 145, 146, 147, 148, 149, 150, 151, 152, 153, 154, 155, 156, 157, 158, 159, 160, 161, 162, 163, 164, 165, 166, 167, 168, 169, 170, 171, 172, 173, 174, 175, 176, 177, 178, 179, 180, 181, 182, 183, 184, 185, 186, 187, 188, 189, 190, 191, 192, 193, 194, 195, 196, 197, 198, 199, 200, 201, 202, 203, 204, 205, 206, 207, 208, 209, 210, 211, 212, 213, 214, 215, 216, 217, 218, 219, 220, 221, 222, 223, 224, 225, 226, 227, 228, 229, 230, 231, 232, 233, 234, 235, 236, 237, 238, 239, 240, 241, 242, 243, 244, 245, 246, 247, 248, 249, 250, 251, 252, 253, 254, 255, 256, 257, 258, 259, 260, 261, 262, 263, 264, 265, 266, 267, 268, 269, 270, 271, 272, 273, 274, 275, 276, 277, 278, 279, 280, 281, 282, 283, 284, 285, 286, 287, 288, 289, 290, 291, 292, 293, 294, 295, 296, 297, 298, 299, 300, 301, 302, 303, 304, 305, 306, 307, 308, 309, 310, 311, 312, 313, 314, 315, 316, 317, 318, 319, 320, 321, 322, 323, 324, 325, 326, 327, 328, 329, 330, 331, 332, 333, 334, 335, 336],
      "AcquisitionTime": ["182158.525000", "182200.015000", "182201.505000", "182202.995000", "182204.485000", "182205.975000", "182207.465000", "182208.955000", "182210.445000", "182211.935000", "182213.425000", "182214.915000", "182216.405000", "182217.895000", "182219.385000", "182220.875000", "182222.365000", "182223.855000", "182225.345000", "182226.835000", "182228.325000", "182229.815000", "182231.305000", "182232.795000", "182234.285000", "182235.775000", "182237.265000", "182238.755000", "182240.245000", "182241.735000", "182243.225000", "182244.715000", "182246.205000", "182247.695000", "182249.185000", "182250.675000", "182252.165000", "182253.655000", "182255.145000", "182256.635000", "182258.125000", "182259.615000", "182301.105000", "182302.595000", "182304.085000", "182305.575000", "182307.065000", "182308.555000", "182310.045000", "182311.535000", "182313.025000", "182314.515000", "182316.005000", "182317.495000", "182318.985000", "182320.475000", "182321.965000", "182323.455000", "182324.945000", "182326.435000", "182327.925000", "182329.415000", "182330.905000", "182332.395000", "182333.885000", "182335.375000", "182336.865000", "182338.355000", "182339.845000", "182341.335000", "182342.825000", "182344.315000", "182345.805000", "182347.295000", "182348.785000", "182350.275000", "182351.765000", "182353.255000", "182354.745000", "182356.235000", "182357.725000", "182359.215000", "182400.705000", "182402.195000", "182403.685000", "182405.175000", "182406.665000", "182408.155000", "182409.645000", "182411.135000", "182412.625000", "182414.115000", "182415.605000", "182417.095000", "182418.585000", "182420.075000", "182421.565000", "182423.055000", "182424.545000", "182426.035000", "182427.525000", "182429.015000", "182430.505000", "182431.995000", "182433.485000", "182434.975000", "182436.465000", "182437.955000", "182439.445000", "182440.935000", "182442.425000", "182443.915000", "182445.405000", "182446.895000", "182448.385000", "182449.875000", "182451.365000", "182452.855000", "182454.345000", "182455.835000", "182457.325000", "182458.815000", "182500.305000", "182501.795000", "182503.285000", "182504.775000", "182506.265000", "182507.755000", "182509.245000", "182510.735000", "182512.225000", "182513.715000", "182515.205000", "182516.695000", "182518.185000", "182519.675000", "182521.165000", "182522.655000", "182524.145000", "182525.635000", "182527.125000", "182528.615000", "182530.105000", "182531.595000", "182533.085000", "182534.575000", "182536.065000", "182537.555000", "182539.045000", "182540.535000", "182542.025000", "182543.515000", "182545.005000", "182546.495000", "182547.985000", "182549.475000", "182550.965000", "182552.455000", "182553.945000", "182555.435000", "182556.925000", "182558.415000", "182559.905000", "182601.395000", "182602.885000", "182604.375000", "182605.865000", "182607.355000", "182608.845000", "182610.335000", "182611.825000", "182613.315000", "182614.805000", "182616.295000", "182617.785000", "182619.275000", "182620.765000", "182622.255000", "182623.745000", "182625.235000", "182626.725000", "182628.215000", "182629.705000", "182631.195000", "182632.685000", "182634.175000", "182635.665000", "182637.155000", "182638.645000", "182640.135000", "182641.625000", "182643.115000", "182644.605000", "182646.095000", "182647.585000", "182649.075000", "182650.565000", "182652.055000", "182653.545000", "182655.035000", "182656.525000", "182658.015000", "182659.505000", "182700.995000", "182702.485000", "182703.975000", "182705.465000", "182706.955000", "182708.445000", "182709.935000", "182711.425000", "182712.915000", "182714.405000", "182715.895000", "182717.385000", "182718.875000", "182720.365000", "182721.855000", "182723.345000", "182724.835000", "182726.325000", "182727.815000", "182729.305000", "182730.795000", "182732.285000", "182733.775000", "182735.265000", "182736.755000", "182738.245000", "182739.735000", "182741.225000", "182742.715000", "182744.205000", "182745.695000", "182747.185000", "182748.675000", "182750.165000", "182751.655000", "182753.145000", "182754.635000", "182756.125000", "182757.615000", "182759.105000", "182800.595000", "182802.085000", "182803.575000", "182805.065000", "182806.555000", "182808.045000", "182809.535000", "182811.025000", "182812.515000", "182814.005000", "182815.495000", "182816.985000", "182818.475000", "182819.965000", "182821.455000", "182822.945000", "182824.435000", "182825.925000", "182827.415000", "182828.905000", "182830.395000", "182831.885000", "182833.375000", "182834.865000", "182836.355000", "182837.845000", "182839.335000", "182840.825000", "182842.315000", "182843.805000", "182845.295000", "182846.785000", "182848.275000", "182849.765000", "182851.255000", "182852.745000", "182854.235000", "182855.725000", "182857.215000", "182858.705000", "182900.195000", "182901.685000", "182903.175000", "182904.665000", "182906.155000", "182907.645000", "182909.135000", "182910.625000", "182912.115000", "182913.605000", "182915.095000", "182916.585000", "182918.075000", "182919.565000", "182921.055000", "182922.545000", "182924.035000", "182925.525000", "182927.015000", "182928.505000", "182929.995000", "182931.485000", "182932.975000", "182934.465000", "182935.955000", "182937.445000", "182938.935000", "182940.425000", "182941.915000", "182943.405000", "182944.895000", "182946.385000", "182947.875000", "182949.365000", "182950.855000", "182952.345000", "182953.835000", "182955.325000", "182956.815000", "182958.305000", "182959.795000", "183001.285000", "183002.775000", "183004.265000", "183005.755000", "183007.245000", "183008.735000", "183010.225000", "183011.715000", "183013.205000", "183014.695000", "183016.185000", "183017.675000"],
      "ContentTime": ["182321.353000", "182321.356000", "182321.358000", "182321.361000", "182321.364000", "182321.366000", "182321.369000", "182321.371000", "182321.374000", "182321.377000", "182321.379000", "182321.382000", "182321.384000", "182321.393000", "182321.395000", "182321.398000", "182321.401000", "182321.403000", "182321.406000", "182321.408000", "182321.411000", "182321.413000", "182321.416000", "182321.418000", "182321.421000", "182321.424000", "182321.426000", "182321.429000", "182321.431000", "182321.434000", "182321.437000", "182321.439000", "182341.287000", "182341.290000", "182341.293000", "182341.295000", "182341.298000", "182341.300000", "182341.303000", "182341.305000", "182341.308000", "182341.310000", "182341.313000", "182341.315000", "182341.318000", "182341.320000", "182341.323000", "182341.325000", "182341.328000", "182341.330000", "182341.333000", "182341.335000", "182401.303000", "182401.306000", "182401.309000", "182401.311000", "182401.314000", "182401.316000", "182401.319000", "182401.322000", "182401.324000", "182401.327000", "182401.329000", "182401.332000", "182401.335000", "182401.337000", "182401.340000", "182401.342000", "182401.345000", "182401.347000", "182401.350000", "182401.353000", "182421.280000", "182421.283000", "182421.285000", "182421.288000", "182421.291000", "182421.293000", "182421.296000", "182421.298000", "182421.301000", "182421.303000", "182421.306000", "182421.309000", "182421.311000", "182421.314000", "182421.316000", "182421.319000", "182421.321000", "182421.324000", "182421.327000", "182421.329000", "182501.323000", "182501.326000", "182501.336000", "182501.338000", "182501.341000", "182501.343000", "182501.346000", "182501.348000", "182501.351000", "182501.353000", "182501.356000", "182501.359000", "182501.361000", "182501.364000", "182501.366000", "182501.369000", "182501.371000", "182501.374000", "182501.377000", "182501.379000", "182501.382000", "182501.384000", "182501.387000", "182501.390000", "182501.392000", "182501.395000", "182501.398000", "182501.400000", "182501.403000", "182501.405000", "182541.313000", "182541.316000", "182541.319000", "182541.321000", "182541.324000", "182541.326000", "182541.329000", "182541.332000", "182541.334000", "182541.337000", "182541.340000", "182541.342000", "182541.345000", "182541.347000", "182541.351000", "182541.354000", "182541.357000", "182541.359000", "182541.362000", "182541.365000", "182541.368000", "182541.372000", "182541.375000", "182541.378000", "182541.380000", "182541.383000", "182621.338000", "182621.341000", "182621.343000", "182621.346000", "182621.348000", "182621.351000", "182621.354000", "182621.356000", "182621.359000", "182621.361000", "182621.364000", "182621.366000", "182621.369000", "182621.372000", "182621.374000", "182621.377000", "182621.379000", "182621.382000", "182621.385000", "182621.387000", "182621.390000", "182621.392000", "182621.395000", "182621.397000", "182621.400000", "182621.403000", "182621.405000", "182701.317000", "182701.319000", "182701.322000", "182701.325000", "182701.327000", "182701.330000", "182701.332000", "182701.335000", "182701.338000", "182701.340000", "182701.343000", "182701.345000", "182701.348000", "182701.351000", "182701.353000", "182701.356000", "182701.358000", "182701.361000", "182701.371000", "182701.374000", "182701.376000", "182701.379000", "182701.381000", "182701.384000", "182701.387000", "182701.389000", "182701.392000", "182741.320000", "182741.323000", "182741.325000", "182741.328000", "182741.330000", "182741.333000", "182741.336000", "182741.338000", "182741.341000", "182741.344000", "182741.346000", "182741.349000", "182741.351000", "182741.354000", "182741.356000", "182741.359000", "182741.362000", "182741.364000", "182741.367000", "182741.369000", "182741.372000", "182741.374000", "182741.377000", "182741.380000", "182741.382000", "182741.385000", "182741.387000", "182821.310000", "182821.313000", "182821.316000", "182821.318000", "182821.321000", "182821.324000", "182821.326000", "182821.329000", "182821.331000", "182821.334000", "182821.336000", "182821.339000", "182821.342000", "182821.344000", "182821.347000", "182821.349000", "182821.352000", "182821.355000", "182821.357000", "182821.360000", "182821.362000", "182821.365000", "182821.367000", "182821.370000", "182821.373000", "182821.375000", "182821.378000", "182901.318000", "182901.321000", "182901.324000", "182901.326000", "182901.329000", "182901.332000", "182901.334000", "182901.337000", "182901.339000", "182901.342000", "182901.345000", "182901.347000", "182901.350000", "182901.352000", "182901.355000", "182901.357000", "182901.360000", "182901.363000", "182901.365000", "182901.368000", "182901.370000", "182901.373000", "182901.376000", "182901.378000", "182901.381000", "182901.383000", "182901.386000", "182941.321000", "182941.324000", "182941.326000", "182941.329000", "182941.336000", "182941.339000", "182941.341000", "182941.344000", "182941.347000", "182941.349000", "182941.352000", "182941.354000", "182941.357000", "182941.360000", "182941.362000", "182941.365000", "182941.367000", "182941.370000", "182941.372000", "182941.375000", "182941.378000", "182941.380000", "182941.383000", "182941.385000", "182941.388000", "182941.391000", "183021.425000", "183021.428000", "183021.431000", "183021.433000", "183021.436000", "183021.439000", "183021.441000", "183021.444000", "183021.446000", "183021.449000", "183021.451000", "183021.454000", "183021.457000", "183021.459000", "183021.462000", "183021.464000", "183021.467000", "183021.469000", "183021.472000", "183021.475000", "183021.477000", "183021.480000", "183021.482000", "183021.485000", "183021.487000", "183021.490000", "183021.493000"],
      "InstanceCreationTime": ["182321.353000", "182321.356000", "182321.358000", "182321.361000", "182321.364000", "182321.366000", "182321.369000", "182321.371000", "182321.374000", "182321.377000", "182321.379000", "182321.382000", "182321.384000", "182321.393000", "182321.395000", "182321.398000", "182321.401000", "182321.403000", "182321.406000", "182321.408000", "182321.411000", "182321.413000", "182321.416000", "182321.418000", "182321.421000", "182321.424000", "182321.426000", "182321.429000", "182321.431000", "182321.434000", "182321.437000", "182321.439000", "182341.287000", "182341.290000", "182341.293000", "182341.295000", "182341.298000", "182341.300000", "182341.303000", "182341.305000", "182341.308000", "182341.310000", "182341.313000", "182341.315000", "182341.318000", "182341.320000", "182341.323000", "182341.325000", "182341.328000", "182341.330000", "182341.333000", "182341.335000", "182401.303000", "182401.306000", "182401.309000", "182401.311000", "182401.314000", "182401.316000", "182401.319000", "182401.322000", "182401.324000", "182401.327000", "182401.329000", "182401.332000", "182401.335000", "182401.337000", "182401.340000", "182401.342000", "182401.345000", "182401.347000", "182401.350000", "182401.353000", "182421.280000", "182421.283000", "182421.285000", "182421.288000", "182421.291000", "182421.293000", "182421.296000", "182421.298000", "182421.301000", "182421.303000", "182421.306000", "182421.309000", "182421.311000", "182421.314000", "182421.316000", "182421.319000", "182421.321000", "182421.324000", "182421.327000", "182421.329000", "182501.323000", "182501.326000", "182501.336000", "182501.338000", "182501.341000", "182501.343000", "182501.346000", "182501.348000", "182501.351000", "182501.353000", "182501.356000", "182501.359000", "182501.361000", "182501.364000", "182501.366000", "182501.369000", "182501.371000", "182501.374000", "182501.377000", "182501.379000", "182501.382000", "182501.384000", "182501.387000", "182501.390000", "182501.392000", "182501.395000", "182501.398000", "182501.400000", "182501.403000", "182501.405000", "182541.313000", "182541.316000", "182541.319000", "182541.321000", "182541.324000", "182541.326000", "182541.329000", "182541.332000", "182541.334000", "182541.337000", "182541.340000", "182541.342000", "182541.345000", "182541.347000", "182541.351000", "182541.354000", "182541.357000", "182541.359000", "182541.362000", "182541.365000", "182541.368000", "182541.372000", "182541.375000", "182541.378000", "182541.380000", "182541.383000", "182621.338000", "182621.341000", "182621.343000", "182621.346000", "182621.348000", "182621.351000", "182621.354000", "182621.356000", "182621.359000", "182621.361000", "182621.364000", "182621.366000", "182621.369000", "182621.372000", "182621.374000", "182621.377000", "182621.379000", "182621.382000", "182621.385000", "182621.387000", "182621.390000", "182621.392000", "182621.395000", "182621.397000", "182621.400000", "182621.403000", "182621.405000", "182701.317000", "182701.319000", "182701.322000", "182701.325000", "182701.327000", "182701.330000", "182701.332000", "182701.335000", "182701.338000", "182701.340000", "182701.343000", "182701.345000", "182701.348000", "182701.351000", "182701.353000", "182701.356000", "182701.358000", "182701.361000", "182701.371000", "182701.374000", "182701.376000", "182701.379000", "182701.381000", "182701.384000", "182701.387000", "182701.389000", "182701.392000", "182741.320000", "182741.323000", "182741.325000", "182741.328000", "182741.330000", "182741.333000", "182741.336000", "182741.338000", "182741.341000", "182741.344000", "182741.346000", "182741.349000", "182741.351000", "182741.354000", "182741.356000", "182741.359000", "182741.362000", "182741.364000", "182741.367000", "182741.369000", "182741.372000", "182741.374000", "182741.377000", "182741.380000", "182741.382000", "182741.385000", "182741.387000", "182821.310000", "182821.313000", "182821.316000", "182821.318000", "182821.321000", "182821.324000", "182821.326000", "182821.329000", "182821.331000", "182821.334000", "182821.336000", "182821.339000", "182821.342000", "182821.344000", "182821.347000", "182821.349000", "182821.352000", "182821.355000", "182821.357000", "182821.360000", "182821.362000", "182821.365000", "182821.367000", "182821.370000", "182821.373000", "182821.375000", "182821.378000", "182901.318000", "182901.321000", "182901.324000", "182901.326000", "182901.329000", "182901.332000", "182901.334000", "182901.337000", "182901.339000", "182901.342000", "182901.345000", "182901.347000", "182901.350000", "182901.352000", "182901.355000", "182901.357000", "182901.360000", "182901.363000", "182901.365000", "182901.368000", "182901.370000", "182901.373000", "182901.376000", "182901.378000", "182901.381000", "182901.383000", "182901.386000", "182941.321000", "182941.324000", "182941.326000", "182941.329000", "182941.336000", "182941.339000", "182941.341000", "182941.344000", "182941.347000", "182941.349000", "182941.352000", "182941.354000", "182941.357000", "182941.360000", "182941.362000", "182941.365000", "182941.367000", "182941.370000", "182941.372000", "182941.375000", "182941.378000", "182941.380000", "182941.383000", "182941.385000", "182941.388000", "182941.391000", "183021.425000", "183021.428000", "183021.431000", "183021.433000", "183021.436000", "183021.439000", "183021.441000", "183021.444000", "183021.446000", "183021.449000", "183021.451000", "183021.454000", "183021.457000", "183021.459000", "183021.462000", "183021.464000", "183021.467000", "183021.469000", "183021.472000", "183021.475000", "183021.477000", "183021.480000", "183021.482000", "183021.485000", "183021.487000", "183021.490000", "183021.493000"],
      "InstanceNumber": [1, 2, 3, 4, 5, 6, 7, 8, 9, 10, 11, 12, 13, 14, 15, 16, 17, 18, 19, 20, 21, 22, 23, 24, 25, 26, 27, 28, 29, 30, 31, 32, 33, 34, 35, 36, 37, 38, 39, 40, 41, 42, 43, 44, 45, 46, 47, 48, 49, 50, 51, 52, 53, 54, 55, 56, 57, 58, 59, 60, 61, 62, 63, 64, 65, 66, 67, 68, 69, 70, 71, 72, 73, 74, 75, 76, 77, 78, 79, 80, 81, 82, 83, 84, 85, 86, 87, 88, 89, 90, 91, 92, 93, 94, 95, 96, 97, 98, 99, 100, 101, 102, 103, 104, 105, 106, 107, 108, 109, 110, 111, 112, 113, 114, 115, 116, 117, 118, 119, 120, 121, 122, 123, 124, 125, 126, 127, 128, 129, 130, 131, 132, 133, 134, 135, 136, 137, 138, 139, 140, 141, 142, 143, 144, 145, 146, 147, 148, 149, 150, 151, 152, 153, 154, 155, 156, 157, 158, 159, 160, 161, 162, 163, 164, 165, 166, 167, 168, 169, 170, 171, 172, 173, 174, 175, 176, 177, 178, 179, 180, 181, 182, 183, 184, 185, 186, 187, 188, 189, 190, 191, 192, 193, 194, 195, 196, 197, 198, 199, 200, 201, 202, 203, 204, 205, 206, 207, 208, 209, 210, 211, 212, 213, 214, 215, 216, 217, 218, 219, 220, 221, 222, 223, 224, 225, 226, 227, 228, 229, 230, 231, 232, 233, 234, 235, 236, 237, 238, 239, 240, 241, 242, 243, 244, 245, 246, 247, 248, 249, 250, 251, 252, 253, 254, 255, 256, 257, 258, 259, 260, 261, 262, 263, 264, 265, 266, 267, 268, 269, 270, 271, 272, 273, 274, 275, 276, 277, 278, 279, 280, 281, 282, 283, 284, 285, 286, 287, 288, 289, 290, 291, 292, 293, 294, 295, 296, 297, 298, 299, 300, 301, 302, 303, 304, 305, 306, 307, 308, 309, 310, 311, 312, 313, 314, 315, 316, 317, 318, 319, 320, 321, 322, 323, 324, 325, 326, 327, 328, 329, 330, 331, 332, 333, 334, 335, 336],
      "WindowCenter": [4768.0, 4770.0, 4770.0, 4770.0, 4746.0, 4744.0, 4748.0, 4770.0, 4772.0, 4770.0, 4768.0, 4766.0, 4772.0, 4748.0, 4746.0, 4772.0, 4748.0, 4748.0, 4770.0, 4770.0, 4770.0, 4768.0, 4770.0, 4770.0, 4748.0, 4750.0, 4766.0, 4768.0, 4768.0, 4766.0, 4772.0, 4772.0, 4750.0, 4752.0, 4750.0, 4750.0, 4748.0, 4774.0, 4748.0, 4746.0, 4768.0, 4766.0, 4768.0, 4748.0, 4752.0, 4770.0, 4768.0, 4768.0, 4770.0, 4750.0, 4748.0, 4750.0, 4752.0, 4750.0, 4772.0, 4748.0, 4770.0, 4768.0, 4772.0, 4746.0, 4752.0, 4750.0, 4770.0, 4774.0, 4770.0, 4772.0, 4746.0, 4768.0, 4768.0, 4774.0, 4750.0, 4750.0, 4750.0, 4752.0, 4748.0, 4748.0, 4748.0, 4746.0, 4742.0, 4746.0, 4770.0, 4748.0, 4746.0, 4752.0, 4748.0, 4748.0, 4746.0, 4770.0, 4750.0, 4748.0, 4750.0, 4750.0, 4746.0, 4772.0, 4770.0, 4750.0, 4772.0, 4748.0, 4746.0, 4754.0, 4770.0, 4748.0, 4746.0, 4746.0, 4774.0, 4750.0, 4748.0, 4772.0, 4748.0, 4750.0, 4750.0, 4754.0, 4746.0, 4770.0, 4768.0, 4768.0, 4748.0, 4752.0, 4750.0, 4770.0, 4770.0, 4774.0, 4750.0, 4748.0, 4748.0, 4770.0, 4748.0, 4750.0, 4772.0, 4770.0, 4770.0, 4772.0, 4772.0, 4752.0, 4774.0, 4752.0, 4746.0, 4748.0, 4774.0, 4770.0, 4746.0, 4748.0, 4748.0, 4750.0, 4754.0, 4766.0, 4764.0, 4766.0, 4750.0, 4758.0, 4758.0, 4756.0, 4748.0, 4770.0, 4746.0, 4764.0, 4766.0, 4764.0, 4750.0, 4752.0, 4754.0, 4758.0, 4750.0, 4750.0, 4746.0, 4772.0, 4768.0, 4770.0, 4770.0, 4750.0, 4750.0, 4756.0, 4754.0, 4774.0, 4774.0, 4770.0, 4772.0, 4774.0, 4770.0, 4772.0, 4772.0, 4770.0, 4774.0, 4774.0, 4752.0, 4754.0, 4774.0, 4752.0, 4772.0, 4770.0, 4770.0, 4768.0, 4746.0, 4750.0, 4776.0, 4754.0, 4772.0, 4752.0, 4770.0, 4748.0, 4772.0, 4770.0, 4772.0, 4770.0, 4772.0, 4776.0, 4750.0, 4752.0, 4748.0, 4748.0, 4746.0, 4772.0, 4770.0, 4766.0, 4764.0, 4770.0, 4772.0, 4774.0, 4778.0, 4762.0, 4758.0, 4754.0, 4772.0, 4770.0, 4770.0, 4768.0, 4766.0, 4770.0, 4768.0, 4746.0, 4772.0, 4772.0, 4750.0, 4778.0, 4750.0, 4750.0, 4774.0, 4746.0, 4774.0, 4748.0, 4774.0, 4770.0, 4746.0, 4770.0, 4746.0, 4766.0, 4772.0, 4774.0, 4750.0, 4750.0, 4748.0, 4748.0, 4772.0, 4772.0, 4752.0, 4770.0, 4772.0, 4768.0, 4768.0, 4772.0, 4772.0, 4754.0, 4774.0, 4752.0, 4748.0, 4772.0, 4768.0, 4770.0, 4772.0, 4770.0, 4770.0, 4748.0, 4774.0, 4756.0, 4758.0, 4756.0, 4756.0, 4748.0, 4768.0, 4770.0, 4770.0, 4766.0, 4772.0, 4750.0, 4752.0, 4750.0, 4752.0, 4750.0, 4746.0, 4770.0, 4750.0, 4772.0, 4770.0, 4748.0, 4748.0, 4770.0, 4770.0, 4750.0, 4748.0, 4754.0, 4748.0, 4748.0, 4750.0, 4748.0, 4770.0, 4770.0, 4770.0, 4750.0, 4744.0, 4766.0, 4766.0, 4772.0, 4750.0, 4752.0, 4760.0, 4756.0, 4752.0, 4772.0, 4768.0, 4770.0, 4768.0, 4770.0, 4770.0, 4774.0, 4748.0, 4752.0, 4760.0, 4752.0, 4752.0, 4772.0, 4770.0, 4770.0, 4772.0, 4770.0, 4770.0, 4748.0],
