{
  "AcquisitionMatrixPE": 104,
  "AcquisitionNumber": 1,
  "AcquisitionTime": "15:55:8.415000",
  "BandwidthPerPixelPhaseEncode": 17.17,
  "BaseResolution": 104,
  "BodyPartExamined": "BRAIN",
  "CoilCombinationMethod": "Sum of Squares",
  "ConsistencyInfo": "N4_VE11C_LATEST_20160120",
  "ConversionSoftware": "dcm2niix",
  "ConversionSoftwareVersion": "v1.0.20220505",
  "DerivedVendorReportedEchoSpacing": 0.000560011,
  "DeviceSerialNumber": "167006",
  "DwellTime": 2.1e-06,
  "EchoTime": 0.037,
  "EchoTrainLength": 104,
  "EffectiveEchoSpacing": 0.000560011,
  "FlipAngle": 52,
  "HeudiconvVersion": "0.5.3.post811+g6206e14",
  "ImageComments": "Unaliased MB4/PE3/LB",
  "ImageOrientationPatientDICOM": [0.999863, -0.0162979, 0.00277857, 0.0162308, 0.935636, -0.352592],
  "ImageOrientationText": "Tra>Cor(-20.6)>Sag(-0.2)",
  "ImageType": [
    "ORIGINAL",
    "PRIMARY",
    "M",
    "MB",
    "ND",
    "MOSAIC"
],
  "ImagingFrequency": 123.259,
  "InPlanePhaseEncodingDirectionDICOM": "COL",
  "InstitutionAddress": "Chemin Queen-Mary 4565,Montreal,District,CA,H3W 1W5",
  "InstitutionName": "IUGM",
  "InstitutionalDepartmentName": "Department",
  "MRAcquisitionType": "2D",
  "MagneticFieldStrength": 3,
  "Manufacturer": "Siemens",
  "ManufacturersModelName": "Prisma_fit",
  "MatrixCoilMode": "SENSE",
  "Modality": "MR",
  "MultibandAccelerationFactor": 4,
  "PartialFourier": 1,
  "PatientPosition": "HFS",
  "PercentPhaseFOV": 100,
  "PercentSampling": 100,
  "PhaseEncodingDirection": "j",
  "PhaseEncodingSteps": 104,
  "PhaseResolution": 1,
  "PixelBandwidth": 2290,
  "ProcedureStepDescription": "games^mario3",
  "ProtocolName": "func_task-mario3_run-02",
  "PulseSequenceDetails": "%CustomerSeq%\\cmrr_mbep2d_bold",
  "ReceiveCoilActiveElements": "HC1-7;NC1,2",
  "ReceiveCoilName": "HeadNeck_64",
  "ReconMatrixPE": 104,
  "RepetitionTime": 1.49,
  "SAR": 0.0477087,
  "ScanOptions": "FS",
  "ScanningSequence": "EP",
  "SequenceName": "epfid2d1_104",
  "SequenceVariant": "SK\\SS",
  "SeriesDescription": "func_task-mario3_run-02",
  "SeriesNumber": 13,
  "ShimSetting": [625, -7261, -8826, 521, 20, -189, -98, -6],
  "SliceThickness": 2,
  "SliceTiming": [0, 0.785, 0.0975, 0.8825, 0.1975, 0.98, 0.295, 1.0775, 0.3925, 1.1775, 0.49, 1.275, 0.5875, 1.3725, 0.6875, 0, 0.785, 0.0975, 0.8825, 0.1975, 0.98, 0.295, 1.0775, 0.3925, 1.1775, 0.49, 1.275, 0.5875, 1.3725, 0.6875, 0, 0.785, 0.0975, 0.8825, 0.1975, 0.98, 0.295, 1.0775, 0.3925, 1.1775, 0.49, 1.275, 0.5875, 1.3725, 0.6875, 0, 0.785, 0.0975, 0.8825, 0.1975, 0.98, 0.295, 1.0775, 0.3925, 1.1775, 0.49, 1.275, 0.5875, 1.3725, 0.6875],
  "SoftwareVersions": "syngo MR E11",
  "SpacingBetweenSlices": 2,
  "StationName": "MRC35049",
  "TaskName": "mario3",
  "TotalReadoutTime": 0.0576811,
  "TxRefAmp": 242.968,
  "WipMemBlock": "44e0c103-d42e-4880-9bc5-534baea732aa||Sequence: R017 ve11c/master r/75a17815+; Jun 28 2022 16:32:11 by eja",
  "dcmmeta_affine": [
    [-1.99972665309906, 0.03246157616376877, -0.0062935324385762215, 104.86327362060547],
    [0.032595716416835785, 1.8712724447250366, -0.7051785588264465, -65.00753784179688],
    [0.005557147320359945, 0.7051847577095032, 1.8715457916259766, -70.06279754638672],
    [0.0, 0.0, 0.0, 1.0]
],
  "dcmmeta_reorient_transform": [
    [0.0, -1.0, 0.0, 103.0],
    [1.0, 0.0, 0.0, 0.0],
    [0.0, 0.0, 1.0, 0.0],
    [0.0, 0.0, 0.0, 1.0]
],
  "dcmmeta_shape": [104, 104, 60, 372],
  "dcmmeta_slice_dim": 2,
  "dcmmeta_version": 0.6,
  "global": {
    "const": {
      "AcquisitionMatrix": [104, 0, 0, 104],
      "AngioFlag": "N",
      "BitsAllocated": 16,
      "BitsStored": 16,
      "BodyPartExamined": "BRAIN",
      "Columns": 832,
      "EchoNumbers": 1,
      "EchoTime": 37.0,
      "EchoTrainLength": 104,
      "FlipAngle": 52.0,
      "HighBit": 15,
      "ImageOrientationPatient": [0.99986332034195, -0.0162978576155, 0.00277857371971, 0.01623078855586, 0.93563623901671, -0.3525923846902],
      "ImagePositionPatient": [-847.92332887451, -797.01187066715, 257.23568444692],
      "ImageType": [
        "ORIGINAL",
        "PRIMARY",
        "M",
        "MB",
        "ND",
        "MOSAIC"
],
      "ImagedNucleus": "1H",
      "ImagingFrequency": 123.258771,
      "InPlanePhaseEncodingDirection": "COL",
      "MRAcquisitionType": "2D",
      "MagneticFieldStrength": 3.0,
      "Manufacturer": "SIEMENS",
      "ManufacturerModelName": "Prisma_fit",
      "Modality": "MR",
      "NumberOfAverages": 1.0,
      "NumberOfPhaseEncodingSteps": 104,
      "PercentPhaseFieldOfView": 100.0,
      "PercentSampling": 100.0,
      "PerformedProcedureStepStartTime": "154138.941000",
      "PhotometricInterpretation": "MONOCHROME2",
      "PixelBandwidth": 2290.0,
      "PixelRepresentation": 0,
      "PixelSpacing": [2.0, 2.0],
      "ProtocolName": "func_task-mario3_run-02",
      "RepetitionTime": 1490.0,
      "Rows": 832,
      "SAR": 0.04770871465276,
      "SamplesPerPixel": 1,
      "ScanOptions": "FS",
      "ScanningSequence": "EP",
      "SequenceName": "epfid2d1_104",
      "SequenceVariant": [
        "SK",
        "SS"
],
      "SeriesDescription": "func_task-mario3_run-02",
      "SeriesNumber": 13,
      "SeriesTime": "155617.947000",
      "SliceLocation": -42.971888609978,
      "SliceThickness": 2.0,
      "SmallestImagePixelValue": 0,
      "SoftwareVersions": "syngo MR E11",
      "SpacingBetweenSlices": 2.0000000103803,
      "SpecificCharacterSet": "ISO_IR 100",
      "StudyID": "1",
      "StudyTime": "154138.864000",
      "TransmitCoilName": "Body",
      "VariableFlipAngleFlag": "N",
      "WindowCenterWidthExplanation": "Algo1",
      "dBdt": 0.0},
    "slices": {}
  },
  "time": {
    "samples": {
      "AcquisitionNumber": [1, 2, 3, 4, 5, 6, 7, 8, 9, 10, 11, 12, 13, 14, 15, 16, 17, 18, 19, 20, 21, 22, 23, 24, 25, 26, 27, 28, 29, 30, 31, 32, 33, 34, 35, 36, 37, 38, 39, 40, 41, 42, 43, 44, 45, 46, 47, 48, 49, 50, 51, 52, 53, 54, 55, 56, 57, 58, 59, 60, 61, 62, 63, 64, 65, 66, 67, 68, 69, 70, 71, 72, 73, 74, 75, 76, 77, 78, 79, 80, 81, 82, 83, 84, 85, 86, 87, 88, 89, 90, 91, 92, 93, 94, 95, 96, 97, 98, 99, 100, 101, 102, 103, 104, 105, 106, 107, 108, 109, 110, 111, 112, 113, 114, 115, 116, 117, 118, 119, 120, 121, 122, 123, 124, 125, 126, 127, 128, 129, 130, 131, 132, 133, 134, 135, 136, 137, 138, 139, 140, 141, 142, 143, 144, 145, 146, 147, 148, 149, 150, 151, 152, 153, 154, 155, 156, 157, 158, 159, 160, 161, 162, 163, 164, 165, 166, 167, 168, 169, 170, 171, 172, 173, 174, 175, 176, 177, 178, 179, 180, 181, 182, 183, 184, 185, 186, 187, 188, 189, 190, 191, 192, 193, 194, 195, 196, 197, 198, 199, 200, 201, 202, 203, 204, 205, 206, 207, 208, 209, 210, 211, 212, 213, 214, 215, 216, 217, 218, 219, 220, 221, 222, 223, 224, 225, 226, 227, 228, 229, 230, 231, 232, 233, 234, 235, 236, 237, 238, 239, 240, 241, 242, 243, 244, 245, 246, 247, 248, 249, 250, 251, 252, 253, 254, 255, 256, 257, 258, 259, 260, 261, 262, 263, 264, 265, 266, 267, 268, 269, 270, 271, 272, 273, 274, 275, 276, 277, 278, 279, 280, 281, 282, 283, 284, 285, 286, 287, 288, 289, 290, 291, 292, 293, 294, 295, 296, 297, 298, 299, 300, 301, 302, 303, 304, 305, 306, 307, 308, 309, 310, 311, 312, 313, 314, 315, 316, 317, 318, 319, 320, 321, 322, 323, 324, 325, 326, 327, 328, 329, 330, 331, 332, 333, 334, 335, 336, 337, 338, 339, 340, 341, 342, 343, 344, 345, 346, 347, 348, 349, 350, 351, 352, 353, 354, 355, 356, 357, 358, 359, 360, 361, 362, 363, 364, 365, 366, 367, 368, 369, 370, 371, 372],
      "AcquisitionTime": ["155508.415000", "155509.905000", "155511.395000", "155512.885000", "155514.375000", "155515.865000", "155517.355000", "155518.845000", "155520.335000", "155521.825000", "155523.315000", "155524.805000", "155526.295000", "155527.785000", "155529.275000", "155530.765000", "155532.255000", "155533.745000", "155535.235000", "155536.725000", "155538.215000", "155539.705000", "155541.195000", "155542.685000", "155544.175000", "155545.665000", "155547.155000", "155548.645000", "155550.135000", "155551.625000", "155553.115000", "155554.605000", "155556.095000", "155557.585000", "155559.075000", "155600.565000", "155602.055000", "155603.545000", "155605.035000", "155606.525000", "155608.015000", "155609.505000", "155610.995000", "155612.485000", "155613.975000", "155615.465000", "155616.955000", "155618.445000", "155619.935000", "155621.425000", "155622.915000", "155624.405000", "155625.895000", "155627.385000", "155628.875000", "155630.365000", "155631.855000", "155633.345000", "155634.835000", "155636.325000", "155637.815000", "155639.305000", "155640.795000", "155642.285000", "155643.775000", "155645.265000", "155646.755000", "155648.245000", "155649.735000", "155651.225000", "155652.715000", "155654.205000", "155655.695000", "155657.185000", "155658.675000", "155700.165000", "155701.655000", "155703.145000", "155704.635000", "155706.125000", "155707.615000", "155709.105000", "155710.595000", "155712.085000", "155713.575000", "155715.065000", "155716.555000", "155718.045000", "155719.535000", "155721.025000", "155722.515000", "155724.005000", "155725.495000", "155726.985000", "155728.475000", "155729.965000", "155731.455000", "155732.945000", "155734.435000", "155735.925000", "155737.415000", "155738.905000", "155740.395000", "155741.885000", "155743.375000", "155744.865000", "155746.355000", "155747.845000", "155749.335000", "155750.825000", "155752.315000", "155753.805000", "155755.295000", "155756.785000", "155758.275000", "155759.765000", "155801.255000", "155802.745000", "155804.235000", "155805.725000", "155807.215000", "155808.705000", "155810.195000", "155811.685000", "155813.175000", "155814.665000", "155816.155000", "155817.645000", "155819.135000", "155820.625000", "155822.115000", "155823.605000", "155825.095000", "155826.585000", "155828.075000", "155829.565000", "155831.055000", "155832.545000", "155834.035000", "155835.525000", "155837.015000", "155838.505000", "155839.995000", "155841.485000", "155842.975000", "155844.465000", "155845.955000", "155847.445000", "155848.935000", "155850.425000", "155851.915000", "155853.405000", "155854.895000", "155856.385000", "155857.875000", "155859.365000", "155900.855000", "155902.345000", "155903.835000", "155905.325000", "155906.815000", "155908.305000", "155909.795000", "155911.285000", "155912.775000", "155914.265000", "155915.755000", "155917.245000", "155918.735000", "155920.225000", "155921.715000", "155923.205000", "155924.695000", "155926.185000", "155927.675000", "155929.165000", "155930.655000", "155932.145000", "155933.635000", "155935.125000", "155936.615000", "155938.105000", "155939.595000", "155941.085000", "155942.575000", "155944.065000", "155945.555000", "155947.045000", "155948.535000", "155950.025000", "155951.515000", "155953.005000", "155954.495000", "155955.985000", "155957.475000", "155958.965000", "160000.455000", "160001.945000", "160003.435000", "160004.925000", "160006.415000", "160007.905000", "160009.395000", "160010.885000", "160012.375000", "160013.865000", "160015.355000", "160016.845000", "160018.335000", "160019.825000", "160021.315000", "160022.805000", "160024.295000", "160025.785000", "160027.275000", "160028.765000", "160030.255000", "160031.745000", "160033.235000", "160034.725000", "160036.215000", "160037.705000", "160039.195000", "160040.685000", "160042.175000", "160043.665000", "160045.155000", "160046.645000", "160048.135000", "160049.625000", "160051.115000", "160052.605000", "160054.095000", "160055.585000", "160057.075000", "160058.565000", "160100.055000", "160101.545000", "160103.035000", "160104.525000", "160106.015000", "160107.505000", "160108.995000", "160110.485000", "160111.975000", "160113.465000", "160114.955000", "160116.445000", "160117.935000", "160119.425000", "160120.915000", "160122.405000", "160123.895000", "160125.385000", "160126.875000", "160128.365000", "160129.855000", "160131.345000", "160132.835000", "160134.325000", "160135.815000", "160137.305000", "160138.795000", "160140.285000", "160141.775000", "160143.265000", "160144.755000", "160146.245000", "160147.735000", "160149.225000", "160150.715000", "160152.205000", "160153.695000", "160155.185000", "160156.675000", "160158.165000", "160159.655000", "160201.145000", "160202.635000", "160204.125000", "160205.615000", "160207.105000", "160208.595000", "160210.085000", "160211.575000", "160213.065000", "160214.555000", "160216.045000", "160217.535000", "160219.025000", "160220.515000", "160222.005000", "160223.495000", "160224.985000", "160226.475000", "160227.965000", "160229.455000", "160230.945000", "160232.435000", "160233.925000", "160235.415000", "160236.905000", "160238.395000", "160239.885000", "160241.375000", "160242.865000", "160244.355000", "160245.845000", "160247.335000", "160248.825000", "160250.315000", "160251.805000", "160253.295000", "160254.785000", "160256.275000", "160257.765000", "160259.255000", "160300.745000", "160302.235000", "160303.725000", "160305.215000", "160306.705000", "160308.195000", "160309.685000", "160311.175000", "160312.665000", "160314.155000", "160315.645000", "160317.135000", "160318.625000", "160320.115000", "160321.605000", "160323.095000", "160324.585000", "160326.075000", "160327.565000", "160329.055000", "160330.545000", "160332.035000", "160333.525000", "160335.015000", "160336.505000", "160337.995000", "160339.485000", "160340.975000", "160342.465000", "160343.955000", "160345.445000", "160346.935000", "160348.425000", "160349.915000", "160351.405000", "160352.895000", "160354.385000", "160355.875000", "160357.365000", "160358.855000", "160400.345000", "160401.835000", "160403.325000", "160404.815000", "160406.305000", "160407.795000", "160409.285000", "160410.775000", "160412.265000", "160413.755000", "160415.245000", "160416.735000", "160418.225000", "160419.715000", "160421.205000"],
      "ContentTime": ["155617.950000", "155617.954000", "155617.958000", "155617.961000", "155617.964000", "155617.968000", "155617.971000", "155617.975000", "155617.979000", "155617.983000", "155617.986000", "155617.989000", "155617.993000", "155617.996000", "155618.000000", "155618.004000", "155618.007000", "155618.020000", "155618.023000", "155618.026000", "155637.899000", "155637.903000", "155637.906000", "155637.909000", "155637.913000", "155637.916000", "155637.919000", "155637.923000", "155637.926000", "155637.929000", "155637.933000", "155637.936000", "155637.939000", "155637.943000", "155637.946000", "155637.950000", "155637.953000", "155637.956000", "155637.960000", "155637.963000", "155637.966000", "155657.899000", "155657.903000", "155657.906000", "155657.909000", "155657.913000", "155657.923000", "155657.926000", "155657.929000", "155657.933000", "155657.936000", "155657.940000", "155657.943000", "155657.946000", "155657.950000", "155657.953000", "155657.957000", "155657.960000", "155657.964000", "155657.967000", "155657.971000", "155717.900000", "155717.904000", "155717.907000", "155717.911000", "155717.914000", "155717.918000", "155717.921000", "155717.925000", "155717.932000", "155717.935000", "155717.938000", "155717.942000", "155717.945000", "155717.949000", "155717.952000", "155717.955000", "155717.959000", "155717.962000", "155717.965000", "155717.969000", "155757.900000", "155757.904000", "155757.907000", "155757.922000", "155757.925000", "155757.928000", "155757.932000", "155757.942000", "155757.946000", "155757.949000", "155757.952000", "155757.956000", "155757.959000", "155757.962000", "155757.966000", "155757.969000", "155757.972000", "155757.976000", "155757.979000", "155757.982000", "155757.986000", "155757.989000", "155757.993000", "155757.996000", "155758.000000", "155758.004000", "155758.007000", "155758.010000", "155758.014000", "155758.017000", "155758.021000", "155758.024000", "155837.899000", "155837.903000", "155837.906000", "155837.910000", "155837.913000", "155837.916000", "155837.920000", "155837.923000", "155837.927000", "155837.930000", "155837.934000", "155837.937000", "155837.941000", "155837.944000", "155837.947000", "155837.951000", "155837.954000", "155837.957000", "155837.961000", "155837.964000", "155837.968000", "155837.971000", "155837.974000", "155837.981000", "155837.985000", "155837.988000", "155837.991000", "155917.899000", "155917.903000", "155917.906000", "155917.910000", "155917.913000", "155917.916000", "155917.920000", "155917.923000", "155917.926000", "155917.930000", "155917.933000", "155917.937000", "155917.940000", "155917.943000", "155917.947000", "155917.950000", "155917.954000", "155917.957000", "155917.968000", "155917.971000", "155917.975000", "155917.990000", "155917.994000", "155917.997000", "155918.002000", "155918.005000", "155918.008000", "155957.901000", "155957.904000", "155957.908000", "155957.911000", "155957.915000", "155957.918000", "155957.952000", "155957.956000", "155957.959000", "155957.963000", "155957.966000", "155957.969000", "155957.973000", "155957.976000", "155957.980000", "155957.983000", "155957.986000", "155957.990000", "155957.993000", "155957.997000", "155958.001000", "155958.004000", "155958.008000", "155958.011000", "155958.015000", "155958.018000", "160037.900000", "160037.904000", "160037.907000", "160037.911000", "160037.914000", "160037.917000", "160037.921000", "160037.924000", "160037.928000", "160037.931000", "160037.934000", "160037.938000", "160037.941000", "160037.945000", "160037.948000", "160037.952000", "160037.955000", "160037.959000", "160037.962000", "160037.966000", "160037.969000", "160037.973000", "160037.976000", "160037.979000", "160037.983000", "160037.986000", "160037.990000", "160117.899000", "160117.903000", "160117.906000", "160117.910000", "160117.913000", "160117.917000", "160117.920000", "160117.923000", "160117.927000", "160117.930000", "160117.934000", "160117.937000", "160117.940000", "160117.944000", "160117.947000", "160117.951000", "160117.954000", "160117.957000", "160117.961000", "160117.964000", "160117.967000", "160117.971000", "160117.974000", "160117.978000", "160117.981000", "160117.984000", "160117.988000", "160157.900000", "160157.904000", "160157.908000", "160157.911000", "160157.914000", "160157.918000", "160157.921000", "160157.925000", "160157.928000", "160157.931000", "160157.935000", "160157.949000", "160157.952000", "160157.955000", "160157.973000", "160157.977000", "160157.980000", "160157.984000", "160157.987000", "160157.990000", "160157.994000", "160157.997000", "160158.002000", "160158.005000", "160158.008000", "160158.012000", "160158.015000", "160217.900000", "160217.904000", "160217.908000", "160217.911000", "160217.914000", "160217.918000", "160217.922000", "160217.925000", "160217.928000", "160217.932000", "160217.935000", "160217.939000", "160217.942000", "160257.899000", "160257.903000", "160257.906000", "160257.910000", "160257.913000", "160257.916000", "160257.920000", "160257.923000", "160257.927000", "160257.930000", "160257.933000", "160257.937000", "160257.940000", "160257.943000", "160257.947000", "160257.950000", "160257.954000", "160257.957000", "160257.960000", "160257.964000", "160257.967000", "160257.970000", "160257.974000", "160257.977000", "160257.980000", "160257.984000", "160257.987000", "160337.899000", "160337.903000", "160337.906000", "160337.910000", "160337.913000", "160337.917000", "160337.920000", "160337.923000", "160337.927000", "160337.930000", "160337.934000", "160337.937000", "160337.940000", "160337.944000", "160337.947000", "160337.951000", "160337.954000", "160337.957000", "160337.961000", "160337.964000", "160337.967000", "160337.971000", "160337.974000", "160337.978000", "160337.981000", "160337.984000", "160337.988000", "160417.900000", "160417.904000", "160417.907000", "160417.911000", "160417.915000", "160417.918000", "160417.921000", "160417.925000", "160417.929000", "160417.932000", "160417.935000", "160417.939000", "160417.942000", "160417.960000", "160417.964000", "160417.967000", "160417.971000", "160417.974000", "160417.977000", "160417.981000", "160417.991000", "160417.994000", "160417.998000", "160418.002000", "160418.005000", "160418.009000", "160418.012000", "160423.939000", "160423.943000", "160423.946000", "160423.949000"],
      "InstanceCreationTime": ["155617.950000", "155617.954000", "155617.958000", "155617.961000", "155617.964000", "155617.968000", "155617.971000", "155617.975000", "155617.979000", "155617.983000", "155617.986000", "155617.989000", "155617.993000", "155617.996000", "155618.000000", "155618.004000", "155618.007000", "155618.020000", "155618.023000", "155618.026000", "155637.899000", "155637.903000", "155637.906000", "155637.909000", "155637.913000", "155637.916000", "155637.919000", "155637.923000", "155637.926000", "155637.929000", "155637.933000", "155637.936000", "155637.939000", "155637.943000", "155637.946000", "155637.950000", "155637.953000", "155637.956000", "155637.960000", "155637.963000", "155637.966000", "155657.899000", "155657.903000", "155657.906000", "155657.909000", "155657.913000", "155657.923000", "155657.926000", "155657.929000", "155657.933000", "155657.936000", "155657.940000", "155657.943000", "155657.946000", "155657.950000", "155657.953000", "155657.957000", "155657.960000", "155657.964000", "155657.967000", "155657.971000", "155717.900000", "155717.904000", "155717.907000", "155717.911000", "155717.914000", "155717.918000", "155717.921000", "155717.925000", "155717.932000", "155717.935000", "155717.938000", "155717.942000", "155717.945000", "155717.949000", "155717.952000", "155717.955000", "155717.959000", "155717.962000", "155717.965000", "155717.969000", "155757.900000", "155757.904000", "155757.907000", "155757.922000", "155757.925000", "155757.928000", "155757.932000", "155757.942000", "155757.946000", "155757.949000", "155757.952000", "155757.956000", "155757.959000", "155757.962000", "155757.966000", "155757.969000", "155757.972000", "155757.976000", "155757.979000", "155757.982000", "155757.986000", "155757.989000", "155757.993000", "155757.996000", "155758.000000", "155758.004000", "155758.007000", "155758.010000", "155758.014000", "155758.017000", "155758.021000", "155758.024000", "155837.899000", "155837.903000", "155837.906000", "155837.910000", "155837.913000", "155837.916000", "155837.920000", "155837.923000", "155837.927000", "155837.930000", "155837.934000", "155837.937000", "155837.941000", "155837.944000", "155837.947000", "155837.951000", "155837.954000", "155837.957000", "155837.961000", "155837.964000", "155837.968000", "155837.971000", "155837.974000", "155837.981000", "155837.985000", "155837.988000", "155837.991000", "155917.899000", "155917.903000", "155917.906000", "155917.910000", "155917.913000", "155917.916000", "155917.920000", "155917.923000", "155917.926000", "155917.930000", "155917.933000", "155917.937000", "155917.940000", "155917.943000", "155917.947000", "155917.950000", "155917.954000", "155917.957000", "155917.968000", "155917.971000", "155917.975000", "155917.990000", "155917.994000", "155917.997000", "155918.002000", "155918.005000", "155918.008000", "155957.901000", "155957.904000", "155957.908000", "155957.911000", "155957.915000", "155957.918000", "155957.952000", "155957.956000", "155957.959000", "155957.963000", "155957.966000", "155957.969000", "155957.973000", "155957.976000", "155957.980000", "155957.983000", "155957.986000", "155957.990000", "155957.993000", "155957.997000", "155958.001000", "155958.004000", "155958.008000", "155958.011000", "155958.015000", "155958.018000", "160037.900000", "160037.904000", "160037.907000", "160037.911000", "160037.914000", "160037.917000", "160037.921000", "160037.924000", "160037.928000", "160037.931000", "160037.934000", "160037.938000", "160037.941000", "160037.945000", "160037.948000", "160037.952000", "160037.955000", "160037.959000", "160037.962000", "160037.966000", "160037.969000", "160037.973000", "160037.976000", "160037.979000", "160037.983000", "160037.986000", "160037.990000", "160117.899000", "160117.903000", "160117.906000", "160117.910000", "160117.913000", "160117.917000", "160117.920000", "160117.923000", "160117.927000", "160117.930000", "160117.934000", "160117.937000", "160117.940000", "160117.944000", "160117.947000", "160117.951000", "160117.954000", "160117.957000", "160117.961000", "160117.964000", "160117.967000", "160117.971000", "160117.974000", "160117.978000", "160117.981000", "160117.984000", "160117.988000", "160157.900000", "160157.904000", "160157.908000", "160157.911000", "160157.914000", "160157.918000", "160157.921000", "160157.925000", "160157.928000", "160157.931000", "160157.935000", "160157.949000", "160157.952000", "160157.955000", "160157.973000", "160157.977000", "160157.980000", "160157.984000", "160157.987000", "160157.990000", "160157.994000", "160157.997000", "160158.002000", "160158.005000", "160158.008000", "160158.012000", "160158.015000", "160217.900000", "160217.904000", "160217.908000", "160217.911000", "160217.914000", "160217.918000", "160217.922000", "160217.925000", "160217.928000", "160217.932000", "160217.935000", "160217.939000", "160217.942000", "160257.899000", "160257.903000", "160257.906000", "160257.910000", "160257.913000", "160257.916000", "160257.920000", "160257.923000", "160257.927000", "160257.930000", "160257.933000", "160257.937000", "160257.940000", "160257.943000", "160257.947000", "160257.950000", "160257.954000", "160257.957000", "160257.960000", "160257.964000", "160257.967000", "160257.970000", "160257.974000", "160257.977000", "160257.980000", "160257.984000", "160257.987000", "160337.899000", "160337.903000", "160337.906000", "160337.910000", "160337.913000", "160337.917000", "160337.920000", "160337.923000", "160337.927000", "160337.930000", "160337.934000", "160337.937000", "160337.940000", "160337.944000", "160337.947000", "160337.951000", "160337.954000", "160337.957000", "160337.961000", "160337.964000", "160337.967000", "160337.971000", "160337.974000", "160337.978000", "160337.981000", "160337.984000", "160337.988000", "160417.900000", "160417.904000", "160417.907000", "160417.911000", "160417.915000", "160417.918000", "160417.921000", "160417.925000", "160417.929000", "160417.932000", "160417.935000", "160417.939000", "160417.942000", "160417.960000", "160417.964000", "160417.967000", "160417.971000", "160417.974000", "160417.977000", "160417.981000", "160417.991000", "160417.994000", "160417.998000", "160418.002000", "160418.005000", "160418.009000", "160418.012000", "160423.939000", "160423.943000", "160423.946000", "160423.949000"],
      "InstanceNumber": [1, 2, 3, 4, 5, 6, 7, 8, 9, 10, 11, 12, 13, 14, 15, 16, 17, 18, 19, 20, 21, 22, 23, 24, 25, 26, 27, 28, 29, 30, 31, 32, 33, 34, 35, 36, 37, 38, 39, 40, 41, 42, 43, 44, 45, 46, 47, 48, 49, 50, 51, 52, 53, 54, 55, 56, 57, 58, 59, 60, 61, 62, 63, 64, 65, 66, 67, 68, 69, 70, 71, 72, 73, 74, 75, 76, 77, 78, 79, 80, 81, 82, 83, 84, 85, 86, 87, 88, 89, 90, 91, 92, 93, 94, 95, 96, 97, 98, 99, 100, 101, 102, 103, 104, 105, 106, 107, 108, 109, 110, 111, 112, 113, 114, 115, 116, 117, 118, 119, 120, 121, 122, 123, 124, 125, 126, 127, 128, 129, 130, 131, 132, 133, 134, 135, 136, 137, 138, 139, 140, 141, 142, 143, 144, 145, 146, 147, 148, 149, 150, 151, 152, 153, 154, 155, 156, 157, 158, 159, 160, 161, 162, 163, 164, 165, 166, 167, 168, 169, 170, 171, 172, 173, 174, 175, 176, 177, 178, 179, 180, 181, 182, 183, 184, 185, 186, 187, 188, 189, 190, 191, 192, 193, 194, 195, 196, 197, 198, 199, 200, 201, 202, 203, 204, 205, 206, 207, 208, 209, 210, 211, 212, 213, 214, 215, 216, 217, 218, 219, 220, 221, 222, 223, 224, 225, 226, 227, 228, 229, 230, 231, 232, 233, 234, 235, 236, 237, 238, 239, 240, 241, 242, 243, 244, 245, 246, 247, 248, 249, 250, 251, 252, 253, 254, 255, 256, 257, 258, 259, 260, 261, 262, 263, 264, 265, 266, 267, 268, 269, 270, 271, 272, 273, 274, 275, 276, 277, 278, 279, 280, 281, 282, 283, 284, 285, 286, 287, 288, 289, 290, 291, 292, 293, 294, 295, 296, 297, 298, 299, 300, 301, 302, 303, 304, 305, 306, 307, 308, 309, 310, 311, 312, 313, 314, 315, 316, 317, 318, 319, 320, 321, 322, 323, 324, 325, 326, 327, 328, 329, 330, 331, 332, 333, 334, 335, 336, 337, 338, 339, 340, 341, 342, 343, 344, 345, 346, 347, 348, 349, 350, 351, 352, 353, 354, 355, 356, 357, 358, 359, 360, 361, 362, 363, 364, 365, 366, 367, 368, 369, 370, 371, 372],
