{
  "AcquisitionMatrixPE": 104,
  "AcquisitionNumber": 1,
  "AcquisitionTime": "15:55:8.415000",
  "BandwidthPerPixelPhaseEncode": 17.17,
  "BaseResolution": 104,
  "BodyPartExamined": "BRAIN",
  "CoilCombinationMethod": "Sum of Squares",
  "ConsistencyInfo": "N4_VE11C_LATEST_20160120",
  "ConversionSoftware": "dcm2niix",
  "ConversionSoftwareVersion": "v1.0.20220505",
  "DerivedVendorReportedEchoSpacing": 0.000560011,
  "DeviceSerialNumber": "167006",
  "DwellTime": 2.1e-06,
  "EchoTime": 0.037,
  "EchoTime1": 0.037,
  "EchoTime2": 0.001,
  "EchoTrainLength": 104,
  "EffectiveEchoSpacing": 0.000560011,
  "FlipAngle": 52,
  "HeudiconvVersion": "0.5.3.post811+g6206e14",
  "ImageComments": "Unaliased MB4/PE3/LB",
  "ImageOrientationPatientDICOM": [0.999863, -0.0162979, 0.00277857, 0.0162308, 0.935636, -0.352592],
  "ImageOrientationText": "Tra>Cor(-20.6)>Sag(-0.2)",
  "ImageType": [
    "ORIGINAL",
    "PRIMARY",
    "P",
    "MB",
    "ND",
    "MOSAIC",
    "PHASE"
],
  "ImagingFrequency": 123.259,
  "InPlanePhaseEncodingDirectionDICOM": "COL",
  "InstitutionAddress": "Chemin Queen-Mary 4565,Montreal,District,CA,H3W 1W5",
  "InstitutionName": "IUGM",
  "InstitutionalDepartmentName": "Department",
  "MRAcquisitionType": "2D",
  "MagneticFieldStrength": 3,
  "Manufacturer": "Siemens",
  "ManufacturersModelName": "Prisma_fit",
  "MatrixCoilMode": "SENSE",
  "Modality": "MR",
  "MultibandAccelerationFactor": 4,
  "PartialFourier": 1,
  "PatientPosition": "HFS",
  "PercentPhaseFOV": 100,
  "PercentSampling": 100,
  "PhaseEncodingDirection": "j",
  "PhaseEncodingSteps": 104,
  "PhaseResolution": 1,
  "PixelBandwidth": 2290,
  "ProcedureStepDescription": "games^mario3",
  "ProtocolName": "func_task-mario3_run-02",
  "PulseSequenceDetails": "%CustomerSeq%\\cmrr_mbep2d_bold",
  "ReceiveCoilActiveElements": "HC1-7;NC1,2",
  "ReceiveCoilName": "HeadNeck_64",
  "ReconMatrixPE": 104,
  "RepetitionTime": 1.49,
  "SAR": 0.0477087,
  "ScanOptions": "FS",
  "ScanningSequence": "EP",
  "SequenceName": "epfid2d1_104",
  "SequenceVariant": "SK\\SS",
  "SeriesDescription": "func_task-mario3_run-02",
  "SeriesNumber": 14,
  "ShimSetting": [625, -7261, -8826, 521, 20, -189, -98, -6],
  "SliceThickness": 2,
  "SliceTiming": [0, 0.785, 0.0975, 0.8825, 0.1975, 0.98, 0.295, 1.0775, 0.3925, 1.1775, 0.49, 1.275, 0.5875, 1.3725, 0.6875, 0, 0.785, 0.0975, 0.8825, 0.1975, 0.98, 0.295, 1.0775, 0.3925, 1.1775, 0.49, 1.275, 0.5875, 1.3725, 0.6875, 0, 0.785, 0.0975, 0.8825, 0.1975, 0.98, 0.295, 1.0775, 0.3925, 1.1775, 0.49, 1.275, 0.5875, 1.3725, 0.6875, 0, 0.785, 0.0975, 0.8825, 0.1975, 0.98, 0.295, 1.0775, 0.3925, 1.1775, 0.49, 1.275, 0.5875, 1.3725, 0.6875],
  "SoftwareVersions": "syngo MR E11",
  "SpacingBetweenSlices": 2,
  "StationName": "MRC35049",
  "TaskName": "mario3",
  "TotalReadoutTime": 0.0576811,
  "TxRefAmp": 242.968,
  "WipMemBlock": "44e0c103-d42e-4880-9bc5-534baea732aa||Sequence: R017 ve11c/master r/75a17815+; Jun 28 2022 16:32:11 by eja",
  "dcmmeta_affine": [
    [-1.99972665309906, 0.03246157616376877, -0.0062935324385762215, 104.86327362060547],
    [0.032595716416835785, 1.8712724447250366, -0.7051785588264465, -65.00753784179688],
    [0.005557147320359945, 0.7051847577095032, 1.8715457916259766, -70.06279754638672],
    [0.0, 0.0, 0.0, 1.0]
],
  "dcmmeta_reorient_transform": [
    [0.0, -1.0, 0.0, 103.0],
    [1.0, 0.0, 0.0, 0.0],
    [0.0, 0.0, 1.0, 0.0],
    [0.0, 0.0, 0.0, 1.0]
],
  "dcmmeta_shape": [104, 104, 60, 372],
  "dcmmeta_slice_dim": 2,
  "dcmmeta_version": 0.6,
  "global": {
    "const": {
      "AcquisitionMatrix": [104, 0, 0, 104],
      "AngioFlag": "N",
      "BitsAllocated": 16,
      "BitsStored": 16,
      "BodyPartExamined": "BRAIN",
      "Columns": 832,
      "EchoNumbers": 1,
      "EchoTime": 37.0,
      "EchoTrainLength": 104,
      "FlipAngle": 52.0,
      "HighBit": 15,
      "ImageOrientationPatient": [0.99986332034195, -0.0162978576155, 0.00277857371971, 0.01623078855586, 0.93563623901671, -0.3525923846902],
      "ImagePositionPatient": [-847.92332887451, -797.01187066715, 257.23568444692],
      "ImageType": [
        "ORIGINAL",
        "PRIMARY",
        "P",
        "MB",
        "ND",
        "MOSAIC"
],
      "ImagedNucleus": "1H",
      "ImagingFrequency": 123.258771,
      "InPlanePhaseEncodingDirection": "COL",
      "LargestImagePixelValue": 4095,
      "MRAcquisitionType": "2D",
      "MagneticFieldStrength": 3.0,
      "Manufacturer": "SIEMENS",
      "ManufacturerModelName": "Prisma_fit",
      "Modality": "MR",
      "NumberOfAverages": 1.0,
      "NumberOfPhaseEncodingSteps": 104,
      "PercentPhaseFieldOfView": 100.0,
      "PercentSampling": 100.0,
      "PerformedProcedureStepStartTime": "154138.941000",
      "PhotometricInterpretation": "MONOCHROME2",
      "PixelBandwidth": 2290.0,
      "PixelRepresentation": 0,
      "PixelSpacing": [2.0, 2.0],
      "ProtocolName": "func_task-mario3_run-02",
      "RepetitionTime": 1490.0,
      "RescaleIntercept": -4096.0,
      "RescaleSlope": 2.0,
      "RescaleType": "US",
      "Rows": 832,
      "SAR": 0.04770871465276,
      "SamplesPerPixel": 1,
      "ScanOptions": "FS",
      "ScanningSequence": "EP",
      "SequenceName": "epfid2d1_104",
      "SequenceVariant": [
        "SK",
        "SS"
],
      "SeriesDescription": "func_task-mario3_run-02",
      "SeriesNumber": 14,
      "SeriesTime": "155618.087000",
      "SliceLocation": -42.971888609978,
      "SliceThickness": 2.0,
      "SmallestImagePixelValue": 0,
      "SoftwareVersions": "syngo MR E11",
      "SpacingBetweenSlices": 2.0000000103803,
      "SpecificCharacterSet": "ISO_IR 100",
      "StudyID": "1",
      "StudyTime": "154138.864000",
      "TransmitCoilName": "Body",
      "VariableFlipAngleFlag": "N",
      "WindowCenterWidthExplanation": "Algo1",
      "dBdt": 0.0},
    "slices": {}
  },
  "time": {
    "samples": {
      "AcquisitionNumber": [1, 2, 3, 4, 5, 6, 7, 8, 9, 10, 11, 12, 13, 14, 15, 16, 17, 18, 19, 20, 21, 22, 23, 24, 25, 26, 27, 28, 29, 30, 31, 32, 33, 34, 35, 36, 37, 38, 39, 40, 41, 42, 43, 44, 45, 46, 47, 48, 49, 50, 51, 52, 53, 54, 55, 56, 57, 58, 59, 60, 61, 62, 63, 64, 65, 66, 67, 68, 69, 70, 71, 72, 73, 74, 75, 76, 77, 78, 79, 80, 81, 82, 83, 84, 85, 86, 87, 88, 89, 90, 91, 92, 93, 94, 95, 96, 97, 98, 99, 100, 101, 102, 103, 104, 105, 106, 107, 108, 109, 110, 111, 112, 113, 114, 115, 116, 117, 118, 119, 120, 121, 122, 123, 124, 125, 126, 127, 128, 129, 130, 131, 132, 133, 134, 135, 136, 137, 138, 139, 140, 141, 142, 143, 144, 145, 146, 147, 148, 149, 150, 151, 152, 153, 154, 155, 156, 157, 158, 159, 160, 161, 162, 163, 164, 165, 166, 167, 168, 169, 170, 171, 172, 173, 174, 175, 176, 177, 178, 179, 180, 181, 182, 183, 184, 185, 186, 187, 188, 189, 190, 191, 192, 193, 194, 195, 196, 197, 198, 199, 200, 201, 202, 203, 204, 205, 206, 207, 208, 209, 210, 211, 212, 213, 214, 215, 216, 217, 218, 219, 220, 221, 222, 223, 224, 225, 226, 227, 228, 229, 230, 231, 232, 233, 234, 235, 236, 237, 238, 239, 240, 241, 242, 243, 244, 245, 246, 247, 248, 249, 250, 251, 252, 253, 254, 255, 256, 257, 258, 259, 260, 261, 262, 263, 264, 265, 266, 267, 268, 269, 270, 271, 272, 273, 274, 275, 276, 277, 278, 279, 280, 281, 282, 283, 284, 285, 286, 287, 288, 289, 290, 291, 292, 293, 294, 295, 296, 297, 298, 299, 300, 301, 302, 303, 304, 305, 306, 307, 308, 309, 310, 311, 312, 313, 314, 315, 316, 317, 318, 319, 320, 321, 322, 323, 324, 325, 326, 327, 328, 329, 330, 331, 332, 333, 334, 335, 336, 337, 338, 339, 340, 341, 342, 343, 344, 345, 346, 347, 348, 349, 350, 351, 352, 353, 354, 355, 356, 357, 358, 359, 360, 361, 362, 363, 364, 365, 366, 367, 368, 369, 370, 371, 372],
      "AcquisitionTime": ["155508.415000", "155509.905000", "155511.395000", "155512.885000", "155514.375000", "155515.865000", "155517.355000", "155518.845000", "155520.335000", "155521.825000", "155523.315000", "155524.805000", "155526.295000", "155527.785000", "155529.275000", "155530.765000", "155532.255000", "155533.745000", "155535.235000", "155536.725000", "155538.215000", "155539.705000", "155541.195000", "155542.685000", "155544.175000", "155545.665000", "155547.155000", "155548.645000", "155550.135000", "155551.625000", "155553.115000", "155554.605000", "155556.095000", "155557.585000", "155559.075000", "155600.565000", "155602.055000", "155603.545000", "155605.035000", "155606.525000", "155608.015000", "155609.505000", "155610.995000", "155612.485000", "155613.975000", "155615.465000", "155616.955000", "155618.445000", "155619.935000", "155621.425000", "155622.915000", "155624.405000", "155625.895000", "155627.385000", "155628.875000", "155630.365000", "155631.855000", "155633.345000", "155634.835000", "155636.325000", "155637.815000", "155639.305000", "155640.795000", "155642.285000", "155643.775000", "155645.265000", "155646.755000", "155648.245000", "155649.735000", "155651.225000", "155652.715000", "155654.205000", "155655.695000", "155657.185000", "155658.675000", "155700.165000", "155701.655000", "155703.145000", "155704.635000", "155706.125000", "155707.615000", "155709.105000", "155710.595000", "155712.085000", "155713.575000", "155715.065000", "155716.555000", "155718.045000", "155719.535000", "155721.025000", "155722.515000", "155724.005000", "155725.495000", "155726.985000", "155728.475000", "155729.965000", "155731.455000", "155732.945000", "155734.435000", "155735.925000", "155737.415000", "155738.905000", "155740.395000", "155741.885000", "155743.375000", "155744.865000", "155746.355000", "155747.845000", "155749.335000", "155750.825000", "155752.315000", "155753.805000", "155755.295000", "155756.785000", "155758.275000", "155759.765000", "155801.255000", "155802.745000", "155804.235000", "155805.725000", "155807.215000", "155808.705000", "155810.195000", "155811.685000", "155813.175000", "155814.665000", "155816.155000", "155817.645000", "155819.135000", "155820.625000", "155822.115000", "155823.605000", "155825.095000", "155826.585000", "155828.075000", "155829.565000", "155831.055000", "155832.545000", "155834.035000", "155835.525000", "155837.015000", "155838.505000", "155839.995000", "155841.485000", "155842.975000", "155844.465000", "155845.955000", "155847.445000", "155848.935000", "155850.425000", "155851.915000", "155853.405000", "155854.895000", "155856.385000", "155857.875000", "155859.365000", "155900.855000", "155902.345000", "155903.835000", "155905.325000", "155906.815000", "155908.305000", "155909.795000", "155911.285000", "155912.775000", "155914.265000", "155915.755000", "155917.245000", "155918.735000", "155920.225000", "155921.715000", "155923.205000", "155924.695000", "155926.185000", "155927.675000", "155929.165000", "155930.655000", "155932.145000", "155933.635000", "155935.125000", "155936.615000", "155938.105000", "155939.595000", "155941.085000", "155942.575000", "155944.065000", "155945.555000", "155947.045000", "155948.535000", "155950.025000", "155951.515000", "155953.005000", "155954.495000", "155955.985000", "155957.475000", "155958.965000", "160000.455000", "160001.945000", "160003.435000", "160004.925000", "160006.415000", "160007.905000", "160009.395000", "160010.885000", "160012.375000", "160013.865000", "160015.355000", "160016.845000", "160018.335000", "160019.825000", "160021.315000", "160022.805000", "160024.295000", "160025.785000", "160027.275000", "160028.765000", "160030.255000", "160031.745000", "160033.235000", "160034.725000", "160036.215000", "160037.705000", "160039.195000", "160040.685000", "160042.175000", "160043.665000", "160045.155000", "160046.645000", "160048.135000", "160049.625000", "160051.115000", "160052.605000", "160054.095000", "160055.585000", "160057.075000", "160058.565000", "160100.055000", "160101.545000", "160103.035000", "160104.525000", "160106.015000", "160107.505000", "160108.995000", "160110.485000", "160111.975000", "160113.465000", "160114.955000", "160116.445000", "160117.935000", "160119.425000", "160120.915000", "160122.405000", "160123.895000", "160125.385000", "160126.875000", "160128.365000", "160129.855000", "160131.345000", "160132.835000", "160134.325000", "160135.815000", "160137.305000", "160138.795000", "160140.285000", "160141.775000", "160143.265000", "160144.755000", "160146.245000", "160147.735000", "160149.225000", "160150.715000", "160152.205000", "160153.695000", "160155.185000", "160156.675000", "160158.165000", "160159.655000", "160201.145000", "160202.635000", "160204.125000", "160205.615000", "160207.105000", "160208.595000", "160210.085000", "160211.575000", "160213.065000", "160214.555000", "160216.045000", "160217.535000", "160219.025000", "160220.515000", "160222.005000", "160223.495000", "160224.985000", "160226.475000", "160227.965000", "160229.455000", "160230.945000", "160232.435000", "160233.925000", "160235.415000", "160236.905000", "160238.395000", "160239.885000", "160241.375000", "160242.865000", "160244.355000", "160245.845000", "160247.335000", "160248.825000", "160250.315000", "160251.805000", "160253.295000", "160254.785000", "160256.275000", "160257.765000", "160259.255000", "160300.745000", "160302.235000", "160303.725000", "160305.215000", "160306.705000", "160308.195000", "160309.685000", "160311.175000", "160312.665000", "160314.155000", "160315.645000", "160317.135000", "160318.625000", "160320.115000", "160321.605000", "160323.095000", "160324.585000", "160326.075000", "160327.565000", "160329.055000", "160330.545000", "160332.035000", "160333.525000", "160335.015000", "160336.505000", "160337.995000", "160339.485000", "160340.975000", "160342.465000", "160343.955000", "160345.445000", "160346.935000", "160348.425000", "160349.915000", "160351.405000", "160352.895000", "160354.385000", "160355.875000", "160357.365000", "160358.855000", "160400.345000", "160401.835000", "160403.325000", "160404.815000", "160406.305000", "160407.795000", "160409.285000", "160410.775000", "160412.265000", "160413.755000", "160415.245000", "160416.735000", "160418.225000", "160419.715000", "160421.205000"],
      "ContentTime": ["155618.089000", "155618.092000", "155618.094000", "155618.097000", "155618.099000", "155618.102000", "155618.104000", "155618.107000", "155618.110000", "155618.112000", "155618.115000", "155618.118000", "155618.120000", "155618.123000", "155618.125000", "155618.128000", "155618.130000", "155618.133000", "155618.135000", "155618.138000", "155638.023000", "155638.026000", "155638.028000", "155638.031000", "155638.033000", "155638.036000", "155638.038000", "155638.041000", "155638.043000", "155638.046000", "155638.048000", "155638.051000", "155638.053000", "155638.056000", "155638.059000", "155638.061000", "155638.064000", "155638.066000", "155638.069000", "155638.071000", "155638.074000", "155658.037000", "155658.040000", "155658.052000", "155658.055000", "155658.058000", "155658.060000", "155658.063000", "155658.065000", "155658.068000", "155658.070000", "155658.073000", "155658.075000", "155658.085000", "155658.088000", "155658.091000", "155658.093000", "155658.096000", "155658.098000", "155658.101000", "155658.104000", "155718.010000", "155718.012000", "155718.015000", "155718.018000", "155718.020000", "155718.023000", "155718.025000", "155718.028000", "155718.030000", "155718.033000", "155718.035000", "155718.038000", "155718.040000", "155718.043000", "155718.045000", "155718.048000", "155718.050000", "155718.053000", "155718.055000", "155718.058000", "155758.075000", "155758.077000", "155758.080000", "155758.082000", "155758.085000", "155758.087000", "155758.090000", "155758.093000", "155758.095000", "155758.098000", "155758.100000", "155758.103000", "155758.105000", "155758.108000", "155758.110000", "155758.113000", "155758.115000", "155758.118000", "155758.121000", "155758.123000", "155758.126000", "155758.128000", "155758.131000", "155758.133000", "155758.136000", "155758.139000", "155758.141000", "155758.144000", "155758.147000", "155758.149000", "155758.152000", "155758.154000", "155838.042000", "155838.045000", "155838.047000", "155838.050000", "155838.052000", "155838.055000", "155838.057000", "155838.060000", "155838.062000", "155838.065000", "155838.068000", "155838.070000", "155838.073000", "155838.075000", "155838.078000", "155838.080000", "155838.083000", "155838.086000", "155838.088000", "155838.091000", "155838.093000", "155838.096000", "155838.098000", "155838.101000", "155838.103000", "155838.106000", "155838.108000", "155918.055000", "155918.063000", "155918.066000", "155918.068000", "155918.071000", "155918.073000", "155918.076000", "155918.079000", "155918.081000", "155918.084000", "155918.086000", "155918.089000", "155918.091000", "155918.094000", "155918.096000", "155918.099000", "155918.102000", "155918.104000", "155918.107000", "155918.109000", "155918.112000", "155918.114000", "155918.117000", "155918.120000", "155918.122000", "155918.125000", "155918.127000", "155958.075000", "155958.078000", "155958.080000", "155958.083000", "155958.085000", "155958.088000", "155958.090000", "155958.093000", "155958.096000", "155958.098000", "155958.101000", "155958.103000", "155958.106000", "155958.108000", "155958.111000", "155958.113000", "155958.116000", "155958.119000", "155958.121000", "155958.124000", "155958.126000", "155958.129000", "155958.131000", "155958.134000", "155958.136000", "155958.139000", "160038.037000", "160038.039000", "160038.042000", "160038.044000", "160038.047000", "160038.050000", "160038.052000", "160038.055000", "160038.058000", "160038.060000", "160038.063000", "160038.065000", "160038.068000", "160038.070000", "160038.073000", "160038.075000", "160038.078000", "160038.081000", "160038.083000", "160038.086000", "160038.088000", "160038.091000", "160038.093000", "160038.096000", "160038.098000", "160038.101000", "160038.103000", "160118.039000", "160118.041000", "160118.044000", "160118.046000", "160118.049000", "160118.052000", "160118.054000", "160118.057000", "160118.059000", "160118.062000", "160118.064000", "160118.067000", "160118.070000", "160118.072000", "160118.075000", "160118.077000", "160118.080000", "160118.082000", "160118.085000", "160118.087000", "160118.090000", "160118.093000", "160118.095000", "160118.098000", "160118.100000", "160118.103000", "160118.105000", "160158.064000", "160158.067000", "160158.070000", "160158.072000", "160158.075000", "160158.078000", "160158.080000", "160158.083000", "160158.085000", "160158.088000", "160158.090000", "160158.093000", "160158.095000", "160158.098000", "160158.101000", "160158.103000", "160158.106000", "160158.108000", "160158.111000", "160158.113000", "160158.116000", "160158.118000", "160158.121000", "160158.124000", "160158.126000", "160158.129000", "160158.131000", "160217.977000", "160217.980000", "160217.983000", "160217.986000", "160217.988000", "160217.991000", "160217.993000", "160217.996000", "160217.998000", "160218.002000", "160218.004000", "160218.007000", "160218.010000", "160258.042000", "160258.045000", "160258.048000", "160258.050000", "160258.053000", "160258.055000", "160258.058000", "160258.061000", "160258.064000", "160258.066000", "160258.069000", "160258.071000", "160258.074000", "160258.082000", "160258.085000", "160258.087000", "160258.090000", "160258.093000", "160258.095000", "160258.098000", "160258.100000", "160258.103000", "160258.105000", "160258.108000", "160258.111000", "160258.114000", "160258.116000", "160338.039000", "160338.042000", "160338.045000", "160338.047000", "160338.050000", "160338.052000", "160338.055000", "160338.069000", "160338.071000", "160338.074000", "160338.076000", "160338.079000", "160338.081000", "160338.084000", "160338.087000", "160338.089000", "160338.092000", "160338.094000", "160338.097000", "160338.099000", "160338.102000", "160338.104000", "160338.107000", "160338.110000", "160338.112000", "160338.115000", "160338.117000", "160418.059000", "160418.062000", "160418.065000", "160418.067000", "160418.070000", "160418.072000", "160418.075000", "160418.078000", "160418.080000", "160418.083000", "160418.086000", "160418.088000", "160418.091000", "160418.093000", "160418.096000", "160418.098000", "160418.101000", "160418.103000", "160418.106000", "160418.109000", "160418.111000", "160418.114000", "160418.116000", "160418.119000", "160418.121000", "160418.124000", "160418.126000", "160423.985000", "160423.987000", "160423.990000", "160423.993000"],
      "InstanceCreationTime": ["155618.089000", "155618.092000", "155618.094000", "155618.097000", "155618.099000", "155618.102000", "155618.104000", "155618.107000", "155618.110000", "155618.112000", "155618.115000", "155618.118000", "155618.120000", "155618.123000", "155618.125000", "155618.128000", "155618.130000", "155618.133000", "155618.135000", "155618.138000", "155638.023000", "155638.026000", "155638.028000", "155638.031000", "155638.033000", "155638.036000", "155638.038000", "155638.041000", "155638.043000", "155638.046000", "155638.048000", "155638.051000", "155638.053000", "155638.056000", "155638.059000", "155638.061000", "155638.064000", "155638.066000", "155638.069000", "155638.071000", "155638.074000", "155658.037000", "155658.040000", "155658.052000", "155658.055000", "155658.058000", "155658.060000", "155658.063000", "155658.065000", "155658.068000", "155658.070000", "155658.073000", "155658.075000", "155658.085000", "155658.088000", "155658.091000", "155658.093000", "155658.096000", "155658.098000", "155658.101000", "155658.104000", "155718.010000", "155718.012000", "155718.015000", "155718.018000", "155718.020000", "155718.023000", "155718.025000", "155718.028000", "155718.030000", "155718.033000", "155718.035000", "155718.038000", "155718.040000", "155718.043000", "155718.045000", "155718.048000", "155718.050000", "155718.053000", "155718.055000", "155718.058000", "155758.075000", "155758.077000", "155758.080000", "155758.082000", "155758.085000", "155758.087000", "155758.090000", "155758.093000", "155758.095000", "155758.098000", "155758.100000", "155758.103000", "155758.105000", "155758.108000", "155758.110000", "155758.113000", "155758.115000", "155758.118000", "155758.121000", "155758.123000", "155758.126000", "155758.128000", "155758.131000", "155758.133000", "155758.136000", "155758.139000", "155758.141000", "155758.144000", "155758.147000", "155758.149000", "155758.152000", "155758.154000", "155838.042000", "155838.045000", "155838.047000", "155838.050000", "155838.052000", "155838.055000", "155838.057000", "155838.060000", "155838.062000", "155838.065000", "155838.068000", "155838.070000", "155838.073000", "155838.075000", "155838.078000", "155838.080000", "155838.083000", "155838.086000", "155838.088000", "155838.091000", "155838.093000", "155838.096000", "155838.098000", "155838.101000", "155838.103000", "155838.106000", "155838.108000", "155918.055000", "155918.063000", "155918.066000", "155918.068000", "155918.071000", "155918.073000", "155918.076000", "155918.079000", "155918.081000", "155918.084000", "155918.086000", "155918.089000", "155918.091000", "155918.094000", "155918.096000", "155918.099000", "155918.102000", "155918.104000", "155918.107000", "155918.109000", "155918.112000", "155918.114000", "155918.117000", "155918.120000", "155918.122000", "155918.125000", "155918.127000", "155958.075000", "155958.078000", "155958.080000", "155958.083000", "155958.085000", "155958.088000", "155958.090000", "155958.093000", "155958.096000", "155958.098000", "155958.101000", "155958.103000", "155958.106000", "155958.108000", "155958.111000", "155958.113000", "155958.116000", "155958.119000", "155958.121000", "155958.124000", "155958.126000", "155958.129000", "155958.131000", "155958.134000", "155958.136000", "155958.139000", "160038.037000", "160038.039000", "160038.042000", "160038.044000", "160038.047000", "160038.050000", "160038.052000", "160038.055000", "160038.058000", "160038.060000", "160038.063000", "160038.065000", "160038.068000", "160038.070000", "160038.073000", "160038.075000", "160038.078000", "160038.081000", "160038.083000", "160038.086000", "160038.088000", "160038.091000", "160038.093000", "160038.096000", "160038.098000", "160038.101000", "160038.103000", "160118.039000", "160118.041000", "160118.044000", "160118.046000", "160118.049000", "160118.052000", "160118.054000", "160118.057000", "160118.059000", "160118.062000", "160118.064000", "160118.067000", "160118.070000", "160118.072000", "160118.075000", "160118.077000", "160118.080000", "160118.082000", "160118.085000", "160118.087000", "160118.090000", "160118.093000", "160118.095000", "160118.098000", "160118.100000", "160118.103000", "160118.105000", "160158.064000", "160158.067000", "160158.070000", "160158.072000", "160158.075000", "160158.078000", "160158.080000", "160158.083000", "160158.085000", "160158.088000", "160158.090000", "160158.093000", "160158.095000", "160158.098000", "160158.101000", "160158.103000", "160158.106000", "160158.108000", "160158.111000", "160158.113000", "160158.116000", "160158.118000", "160158.121000", "160158.124000", "160158.126000", "160158.129000", "160158.131000", "160217.977000", "160217.980000", "160217.983000", "160217.986000", "160217.988000", "160217.991000", "160217.993000", "160217.996000", "160217.998000", "160218.002000", "160218.004000", "160218.007000", "160218.010000", "160258.042000", "160258.045000", "160258.048000", "160258.050000", "160258.053000", "160258.055000", "160258.058000", "160258.061000", "160258.064000", "160258.066000", "160258.069000", "160258.071000", "160258.074000", "160258.082000", "160258.085000", "160258.087000", "160258.090000", "160258.093000", "160258.095000", "160258.098000", "160258.100000", "160258.103000", "160258.105000", "160258.108000", "160258.111000", "160258.114000", "160258.116000", "160338.039000", "160338.042000", "160338.045000", "160338.047000", "160338.050000", "160338.052000", "160338.055000", "160338.069000", "160338.071000", "160338.074000", "160338.076000", "160338.079000", "160338.081000", "160338.084000", "160338.087000", "160338.089000", "160338.092000", "160338.094000", "160338.097000", "160338.099000", "160338.102000", "160338.104000", "160338.107000", "160338.110000", "160338.112000", "160338.115000", "160338.117000", "160418.059000", "160418.062000", "160418.065000", "160418.067000", "160418.070000", "160418.072000", "160418.075000", "160418.078000", "160418.080000", "160418.083000", "160418.086000", "160418.088000", "160418.091000", "160418.093000", "160418.096000", "160418.098000", "160418.101000", "160418.103000", "160418.106000", "160418.109000", "160418.111000", "160418.114000", "160418.116000", "160418.119000", "160418.121000", "160418.124000", "160418.126000", "160423.985000", "160423.987000", "160423.990000", "160423.993000"],
      "InstanceNumber": [1, 2, 3, 4, 5, 6, 7, 8, 9, 10, 11, 12, 13, 14, 15, 16, 17, 18, 19, 20, 21, 22, 23, 24, 25, 26, 27, 28, 29, 30, 31, 32, 33, 34, 35, 36, 37, 38, 39, 40, 41, 42, 43, 44, 45, 46, 47, 48, 49, 50, 51, 52, 53, 54, 55, 56, 57, 58, 59, 60, 61, 62, 63, 64, 65, 66, 67, 68, 69, 70, 71, 72, 73, 74, 75, 76, 77, 78, 79, 80, 81, 82, 83, 84, 85, 86, 87, 88, 89, 90, 91, 92, 93, 94, 95, 96, 97, 98, 99, 100, 101, 102, 103, 104, 105, 106, 107, 108, 109, 110, 111, 112, 113, 114, 115, 116, 117, 118, 119, 120, 121, 122, 123, 124, 125, 126, 127, 128, 129, 130, 131, 132, 133, 134, 135, 136, 137, 138, 139, 140, 141, 142, 143, 144, 145, 146, 147, 148, 149, 150, 151, 152, 153, 154, 155, 156, 157, 158, 159, 160, 161, 162, 163, 164, 165, 166, 167, 168, 169, 170, 171, 172, 173, 174, 175, 176, 177, 178, 179, 180, 181, 182, 183, 184, 185, 186, 187, 188, 189, 190, 191, 192, 193, 194, 195, 196, 197, 198, 199, 200, 201, 202, 203, 204, 205, 206, 207, 208, 209, 210, 211, 212, 213, 214, 215, 216, 217, 218, 219, 220, 221, 222, 223, 224, 225, 226, 227, 228, 229, 230, 231, 232, 233, 234, 235, 236, 237, 238, 239, 240, 241, 242, 243, 244, 245, 246, 247, 248, 249, 250, 251, 252, 253, 254, 255, 256, 257, 258, 259, 260, 261, 262, 263, 264, 265, 266, 267, 268, 269, 270, 271, 272, 273, 274, 275, 276, 277, 278, 279, 280, 281, 282, 283, 284, 285, 286, 287, 288, 289, 290, 291, 292, 293, 294, 295, 296, 297, 298, 299, 300, 301, 302, 303, 304, 305, 306, 307, 308, 309, 310, 311, 312, 313, 314, 315, 316, 317, 318, 319, 320, 321, 322, 323, 324, 325, 326, 327, 328, 329, 330, 331, 332, 333, 334, 335, 336, 337, 338, 339, 340, 341, 342, 343, 344, 345, 346, 347, 348, 349, 350, 351, 352, 353, 354, 355, 356, 357, 358, 359, 360, 361, 362, 363, 364, 365, 366, 367, 368, 369, 370, 371, 372],
