{
  "AcquisitionMatrixPE": 104,
  "AcquisitionNumber": 1,
  "AcquisitionTime": "15:46:13.485000",
  "BandwidthPerPixelPhaseEncode": 17.17,
  "BaseResolution": 104,
  "BodyPartExamined": "BRAIN",
  "CoilCombinationMethod": "Sum of Squares",
  "ConsistencyInfo": "N4_VE11C_LATEST_20160120",
  "ConversionSoftware": "dcm2niix",
  "ConversionSoftwareVersion": "v1.0.20220505",
  "DerivedVendorReportedEchoSpacing": 0.000560011,
  "DeviceSerialNumber": "167006",
  "DwellTime": 2.1e-06,
  "EchoTime": 0.037,
  "EchoTime1": 0.037,
  "EchoTime2": 0.001,
  "EchoTrainLength": 104,
  "EffectiveEchoSpacing": 0.000560011,
  "FlipAngle": 52,
  "HeudiconvVersion": "0.5.3.post811+g6206e14",
  "ImageComments": "Unaliased MB4/PE3/LB",
  "ImageOrientationPatientDICOM": [0.999863, -0.0162979, 0.00277857, 0.0162308, 0.935636, -0.352592],
  "ImageOrientationText": "Tra>Cor(-20.6)>Sag(-0.2)",
  "ImageType": [
    "ORIGINAL",
    "PRIMARY",
    "P",
    "MB",
    "ND",
    "MOSAIC",
    "PHASE"
],
  "ImagingFrequency": 123.259,
  "InPlanePhaseEncodingDirectionDICOM": "COL",
  "InstitutionAddress": "Chemin Queen-Mary 4565,Montreal,District,CA,H3W 1W5",
  "InstitutionName": "IUGM",
  "InstitutionalDepartmentName": "Department",
  "MRAcquisitionType": "2D",
  "MagneticFieldStrength": 3,
  "Manufacturer": "Siemens",
  "ManufacturersModelName": "Prisma_fit",
  "MatrixCoilMode": "SENSE",
  "Modality": "MR",
  "MultibandAccelerationFactor": 4,
  "PartialFourier": 1,
  "PatientPosition": "HFS",
  "PercentPhaseFOV": 100,
  "PercentSampling": 100,
  "PhaseEncodingDirection": "j",
  "PhaseEncodingSteps": 104,
  "PhaseResolution": 1,
  "PixelBandwidth": 2290,
  "ProcedureStepDescription": "games^mario3",
  "ProtocolName": "func_task-mario3_run-01",
  "PulseSequenceDetails": "%CustomerSeq%\\cmrr_mbep2d_bold",
  "ReceiveCoilActiveElements": "HC1-7;NC1,2",
  "ReceiveCoilName": "HeadNeck_64",
  "ReconMatrixPE": 104,
  "RepetitionTime": 1.49,
  "SAR": 0.0477087,
  "ScanOptions": "FS",
  "ScanningSequence": "EP",
  "SequenceName": "epfid2d1_104",
  "SequenceVariant": "SK\\SS",
  "SeriesDescription": "func_task-mario3_run-01",
  "SeriesNumber": 11,
  "ShimSetting": [625, -7261, -8826, 521, 20, -189, -98, -6],
  "SliceThickness": 2,
  "SliceTiming": [0, 0.785, 0.1, 0.8825, 0.1975, 0.98, 0.295, 1.08, 0.3925, 1.1775, 0.49, 1.275, 0.59, 1.3725, 0.6875, 0, 0.785, 0.1, 0.8825, 0.1975, 0.98, 0.295, 1.08, 0.3925, 1.1775, 0.49, 1.275, 0.59, 1.3725, 0.6875, 0, 0.785, 0.1, 0.8825, 0.1975, 0.98, 0.295, 1.08, 0.3925, 1.1775, 0.49, 1.275, 0.59, 1.3725, 0.6875, 0, 0.785, 0.1, 0.8825, 0.1975, 0.98, 0.295, 1.08, 0.3925, 1.1775, 0.49, 1.275, 0.59, 1.3725, 0.6875],
  "SoftwareVersions": "syngo MR E11",
  "SpacingBetweenSlices": 2,
  "StationName": "MRC35049",
  "TaskName": "mario3",
  "TotalReadoutTime": 0.0576811,
  "TxRefAmp": 242.968,
  "WipMemBlock": "c27f2caa-a519-49c6-96bf-7f871a8763c0||Sequence: R017 ve11c/master r/75a17815+; Jun 28 2022 16:32:11 by eja",
  "dcmmeta_affine": [
    [-1.99972665309906, 0.03246157616376877, -0.0062935324385762215, 104.86327362060547],
    [0.032595716416835785, 1.8712724447250366, -0.7051785588264465, -65.00753784179688],
    [0.005557147320359945, 0.7051847577095032, 1.8715457916259766, -70.06279754638672],
    [0.0, 0.0, 0.0, 1.0]
],
  "dcmmeta_reorient_transform": [
    [0.0, -1.0, 0.0, 103.0],
    [1.0, 0.0, 0.0, 0.0],
    [0.0, 0.0, 1.0, 0.0],
    [0.0, 0.0, 0.0, 1.0]
],
  "dcmmeta_shape": [104, 104, 60, 318],
  "dcmmeta_slice_dim": 2,
  "dcmmeta_version": 0.6,
  "global": {
    "const": {
      "AcquisitionMatrix": [104, 0, 0, 104],
      "AngioFlag": "N",
      "BitsAllocated": 16,
      "BitsStored": 16,
      "BodyPartExamined": "BRAIN",
      "Columns": 832,
      "EchoNumbers": 1,
      "EchoTime": 37.0,
      "EchoTrainLength": 104,
      "FlipAngle": 52.0,
      "HighBit": 15,
      "ImageOrientationPatient": [0.99986332034195, -0.0162978576155, 0.00277857371971, 0.01623078855586, 0.93563623901671, -0.3525923846902],
      "ImagePositionPatient": [-847.92332887451, -797.01187066715, 257.23568444692],
      "ImageType": [
        "ORIGINAL",
        "PRIMARY",
        "P",
        "MB",
        "ND",
        "MOSAIC"
],
      "ImagedNucleus": "1H",
      "ImagingFrequency": 123.258768,
      "InPlanePhaseEncodingDirection": "COL",
      "LargestImagePixelValue": 4095,
      "MRAcquisitionType": "2D",
      "MagneticFieldStrength": 3.0,
      "Manufacturer": "SIEMENS",
      "ManufacturerModelName": "Prisma_fit",
      "Modality": "MR",
      "NumberOfAverages": 1.0,
      "NumberOfPhaseEncodingSteps": 104,
      "PercentPhaseFieldOfView": 100.0,
      "PercentSampling": 100.0,
      "PerformedProcedureStepStartTime": "154138.941000",
      "PhotometricInterpretation": "MONOCHROME2",
      "PixelBandwidth": 2290.0,
      "PixelRepresentation": 0,
      "PixelSpacing": [2.0, 2.0],
      "ProtocolName": "func_task-mario3_run-01",
      "RepetitionTime": 1490.0,
      "RescaleIntercept": -4096.0,
      "RescaleSlope": 2.0,
      "RescaleType": "US",
      "Rows": 832,
      "SAR": 0.04770871465276,
      "SamplesPerPixel": 1,
      "ScanOptions": "FS",
      "ScanningSequence": "EP",
      "SequenceName": "epfid2d1_104",
      "SequenceVariant": [
        "SK",
        "SS"
],
      "SeriesDescription": "func_task-mario3_run-01",
      "SeriesNumber": 11,
      "SeriesTime": "154724.626000",
      "SliceLocation": -42.971888609978,
      "SliceThickness": 2.0,
      "SmallestImagePixelValue": 0,
      "SoftwareVersions": "syngo MR E11",
      "SpacingBetweenSlices": 2.0000000103803,
      "SpecificCharacterSet": "ISO_IR 100",
      "StudyID": "1",
      "StudyTime": "154138.864000",
      "TransmitCoilName": "Body",
      "VariableFlipAngleFlag": "N",
      "WindowCenterWidthExplanation": "Algo1",
      "dBdt": 0.0},
    "slices": {}
  },
  "time": {
    "samples": {
      "AcquisitionNumber": [1, 2, 3, 4, 5, 6, 7, 8, 9, 10, 11, 12, 13, 14, 15, 16, 17, 18, 19, 20, 21, 22, 23, 24, 25, 26, 27, 28, 29, 30, 31, 32, 33, 34, 35, 36, 37, 38, 39, 40, 41, 42, 43, 44, 45, 46, 47, 48, 49, 50, 51, 52, 53, 54, 55, 56, 57, 58, 59, 60, 61, 62, 63, 64, 65, 66, 67, 68, 69, 70, 71, 72, 73, 74, 75, 76, 77, 78, 79, 80, 81, 82, 83, 84, 85, 86, 87, 88, 89, 90, 91, 92, 93, 94, 95, 96, 97, 98, 99, 100, 101, 102, 103, 104, 105, 106, 107, 108, 109, 110, 111, 112, 113, 114, 115, 116, 117, 118, 119, 120, 121, 122, 123, 124, 125, 126, 127, 128, 129, 130, 131, 132, 133, 134, 135, 136, 137, 138, 139, 140, 141, 142, 143, 144, 145, 146, 147, 148, 149, 150, 151, 152, 153, 154, 155, 156, 157, 158, 159, 160, 161, 162, 163, 164, 165, 166, 167, 168, 169, 170, 171, 172, 173, 174, 175, 176, 177, 178, 179, 180, 181, 182, 183, 184, 185, 186, 187, 188, 189, 190, 191, 192, 193, 194, 195, 196, 197, 198, 199, 200, 201, 202, 203, 204, 205, 206, 207, 208, 209, 210, 211, 212, 213, 214, 215, 216, 217, 218, 219, 220, 221, 222, 223, 224, 225, 226, 227, 228, 229, 230, 231, 232, 233, 234, 235, 236, 237, 238, 239, 240, 241, 242, 243, 244, 245, 246, 247, 248, 249, 250, 251, 252, 253, 254, 255, 256, 257, 258, 259, 260, 261, 262, 263, 264, 265, 266, 267, 268, 269, 270, 271, 272, 273, 274, 275, 276, 277, 278, 279, 280, 281, 282, 283, 284, 285, 286, 287, 288, 289, 290, 291, 292, 293, 294, 295, 296, 297, 298, 299, 300, 301, 302, 303, 304, 305, 306, 307, 308, 309, 310, 311, 312, 313, 314, 315, 316, 317, 318],
      "AcquisitionTime": ["154613.485000", "154614.975000", "154616.465000", "154617.955000", "154619.445000", "154620.935000", "154622.425000", "154623.915000", "154625.405000", "154626.895000", "154628.385000", "154629.875000", "154631.365000", "154632.855000", "154634.345000", "154635.835000", "154637.325000", "154638.815000", "154640.305000", "154641.795000", "154643.285000", "154644.775000", "154646.265000", "154647.755000", "154649.245000", "154650.735000", "154652.225000", "154653.715000", "154655.205000", "154656.695000", "154658.185000", "154659.675000", "154701.165000", "154702.655000", "154704.145000", "154705.635000", "154707.125000", "154708.615000", "154710.105000", "154711.595000", "154713.085000", "154714.575000", "154716.065000", "154717.555000", "154719.045000", "154720.535000", "154722.025000", "154723.515000", "154725.005000", "154726.495000", "154727.985000", "154729.475000", "154730.965000", "154732.455000", "154733.945000", "154735.435000", "154736.925000", "154738.415000", "154739.905000", "154741.395000", "154742.885000", "154744.375000", "154745.865000", "154747.355000", "154748.845000", "154750.335000", "154751.825000", "154753.315000", "154754.805000", "154756.295000", "154757.785000", "154759.275000", "154800.765000", "154802.255000", "154803.745000", "154805.235000", "154806.725000", "154808.215000", "154809.705000", "154811.195000", "154812.685000", "154814.175000", "154815.665000", "154817.155000", "154818.645000", "154820.135000", "154821.625000", "154823.115000", "154824.605000", "154826.095000", "154827.585000", "154829.075000", "154830.565000", "154832.055000", "154833.545000", "154835.035000", "154836.525000", "154838.015000", "154839.505000", "154840.995000", "154842.485000", "154843.975000", "154845.465000", "154846.955000", "154848.445000", "154849.935000", "154851.425000", "154852.915000", "154854.405000", "154855.895000", "154857.385000", "154858.875000", "154900.365000", "154901.855000", "154903.345000", "154904.835000", "154906.325000", "154907.815000", "154909.305000", "154910.795000", "154912.285000", "154913.775000", "154915.265000", "154916.755000", "154918.245000", "154919.735000", "154921.225000", "154922.715000", "154924.205000", "154925.695000", "154927.185000", "154928.675000", "154930.165000", "154931.655000", "154933.145000", "154934.635000", "154936.125000", "154937.615000", "154939.105000", "154940.595000", "154942.085000", "154943.575000", "154945.065000", "154946.555000", "154948.045000", "154949.535000", "154951.025000", "154952.515000", "154954.005000", "154955.495000", "154956.985000", "154958.475000", "154959.965000", "155001.455000", "155002.945000", "155004.435000", "155005.925000", "155007.415000", "155008.905000", "155010.395000", "155011.885000", "155013.375000", "155014.865000", "155016.355000", "155017.845000", "155019.335000", "155020.825000", "155022.315000", "155023.805000", "155025.295000", "155026.785000", "155028.275000", "155029.765000", "155031.255000", "155032.745000", "155034.235000", "155035.725000", "155037.215000", "155038.705000", "155040.195000", "155041.685000", "155043.175000", "155044.665000", "155046.155000", "155047.645000", "155049.135000", "155050.625000", "155052.115000", "155053.605000", "155055.095000", "155056.585000", "155058.075000", "155059.565000", "155101.055000", "155102.545000", "155104.035000", "155105.525000", "155107.015000", "155108.505000", "155109.995000", "155111.485000", "155112.975000", "155114.465000", "155115.955000", "155117.445000", "155118.935000", "155120.425000", "155121.915000", "155123.405000", "155124.895000", "155126.385000", "155127.875000", "155129.365000", "155130.855000", "155132.345000", "155133.835000", "155135.325000", "155136.815000", "155138.305000", "155139.795000", "155141.285000", "155142.775000", "155144.265000", "155145.755000", "155147.245000", "155148.735000", "155150.225000", "155151.715000", "155153.205000", "155154.695000", "155156.185000", "155157.675000", "155159.165000", "155200.655000", "155202.145000", "155203.635000", "155205.125000", "155206.615000", "155208.105000", "155209.595000", "155211.085000", "155212.575000", "155214.065000", "155215.555000", "155217.045000", "155218.535000", "155220.025000", "155221.515000", "155223.005000", "155224.495000", "155225.985000", "155227.475000", "155228.965000", "155230.455000", "155231.945000", "155233.435000", "155234.925000", "155236.415000", "155237.905000", "155239.395000", "155240.885000", "155242.375000", "155243.865000", "155245.355000", "155246.845000", "155248.335000", "155249.825000", "155251.315000", "155252.805000", "155254.295000", "155255.785000", "155257.275000", "155258.765000", "155300.255000", "155301.745000", "155303.235000", "155304.725000", "155306.215000", "155307.705000", "155309.195000", "155310.685000", "155312.175000", "155313.665000", "155315.155000", "155316.645000", "155318.135000", "155319.625000", "155321.115000", "155322.605000", "155324.095000", "155325.585000", "155327.075000", "155328.565000", "155330.055000", "155331.545000", "155333.035000", "155334.525000", "155336.015000", "155337.505000", "155338.995000", "155340.485000", "155341.975000", "155343.465000", "155344.955000", "155346.445000", "155347.935000", "155349.425000", "155350.915000", "155352.405000", "155353.895000", "155355.385000", "155356.875000", "155358.365000", "155359.855000", "155401.345000", "155402.835000", "155404.325000", "155405.815000"],
      "ContentTime": ["154724.628000", "154724.631000", "154724.633000", "154724.636000", "154724.638000", "154724.641000", "154724.643000", "154724.646000", "154724.649000", "154724.651000", "154724.654000", "154724.656000", "154724.659000", "154724.661000", "154724.664000", "154724.666000", "154724.669000", "154724.671000", "154724.674000", "154724.689000", "154744.562000", "154744.565000", "154744.568000", "154744.570000", "154744.573000", "154744.575000", "154744.578000", "154744.580000", "154744.583000", "154744.585000", "154744.588000", "154744.591000", "154744.593000", "154744.596000", "154744.598000", "154744.601000", "154744.603000", "154744.606000", "154744.608000", "154744.611000", "154804.585000", "154804.587000", "154804.590000", "154804.592000", "154804.595000", "154804.598000", "154804.600000", "154804.603000", "154804.606000", "154804.609000", "154804.612000", "154804.614000", "154804.617000", "154804.619000", "154804.622000", "154804.625000", "154804.627000", "154804.630000", "154804.632000", "154804.635000", "154824.578000", "154824.581000", "154824.583000", "154824.586000", "154824.588000", "154824.591000", "154824.593000", "154824.596000", "154824.598000", "154824.601000", "154824.603000", "154824.606000", "154824.609000", "154824.611000", "154824.617000", "154824.620000", "154824.622000", "154824.625000", "154824.627000", "154824.630000", "154824.632000", "154844.594000", "154844.597000", "154844.600000", "154844.602000", "154844.605000", "154844.607000", "154844.610000", "154844.612000", "154844.615000", "154844.617000", "154844.620000", "154844.622000", "154844.625000", "154844.628000", "154844.630000", "154844.633000", "154844.635000", "154844.645000", "154844.648000", "154844.650000", "154924.608000", "154924.611000", "154924.614000", "154924.616000", "154924.619000", "154924.622000", "154924.624000", "154924.627000", "154924.629000", "154924.632000", "154924.635000", "154924.637000", "154924.640000", "154924.642000", "154924.645000", "154924.647000", "154924.650000", "154924.653000", "154924.656000", "154924.658000", "154924.661000", "154924.663000", "154924.666000", "154924.668000", "154924.671000", "154924.674000", "155004.599000", "155004.601000", "155004.604000", "155004.607000", "155004.609000", "155004.612000", "155004.614000", "155004.617000", "155004.619000", "155004.622000", "155004.630000", "155004.632000", "155004.635000", "155004.637000", "155004.640000", "155004.643000", "155004.646000", "155004.649000", "155004.652000", "155004.654000", "155004.657000", "155004.659000", "155004.662000", "155004.664000", "155004.667000", "155004.670000", "155004.672000", "155044.635000", "155044.638000", "155044.641000", "155044.643000", "155044.646000", "155044.648000", "155044.651000", "155044.654000", "155044.656000", "155044.659000", "155044.661000", "155044.664000", "155044.667000", "155044.669000", "155044.672000", "155044.674000", "155044.677000", "155044.679000", "155044.682000", "155044.684000", "155044.687000", "155044.689000", "155044.692000", "155044.695000", "155044.697000", "155044.700000", "155044.702000", "155124.614000", "155124.617000", "155124.620000", "155124.622000", "155124.625000", "155124.627000", "155124.630000", "155124.632000", "155124.635000", "155124.638000", "155124.640000", "155124.643000", "155124.645000", "155124.648000", "155124.650000", "155124.653000", "155124.655000", "155124.658000", "155124.660000", "155124.663000", "155124.665000", "155124.668000", "155124.670000", "155124.673000", "155124.676000", "155124.678000", "155124.681000", "155204.630000", "155204.632000", "155204.635000", "155204.638000", "155204.640000", "155204.643000", "155204.645000", "155204.648000", "155204.656000", "155204.658000", "155204.661000", "155204.663000", "155204.666000", "155204.669000", "155204.671000", "155204.674000", "155204.676000", "155204.679000", "155204.682000", "155204.685000", "155204.688000", "155204.691000", "155204.693000", "155204.696000", "155204.699000", "155204.701000", "155204.704000", "155244.625000", "155244.628000", "155244.631000", "155244.633000", "155244.636000", "155244.638000", "155244.641000", "155244.643000", "155244.646000", "155244.648000", "155244.651000", "155244.653000", "155244.656000", "155244.659000", "155244.661000", "155244.664000", "155244.666000", "155244.669000", "155244.671000", "155244.674000", "155244.677000", "155244.679000", "155244.682000", "155244.684000", "155244.687000", "155244.689000", "155244.692000", "155324.621000", "155324.624000", "155324.627000", "155324.629000", "155324.632000", "155324.635000", "155324.637000", "155324.640000", "155324.642000", "155324.645000", "155324.647000", "155324.650000", "155324.653000", "155324.655000", "155324.658000", "155324.660000", "155324.663000", "155324.665000", "155324.668000", "155324.671000", "155324.673000", "155324.676000", "155324.678000", "155324.681000", "155324.683000", "155324.686000", "155404.625000", "155404.628000", "155404.630000", "155404.633000", "155404.636000", "155404.638000", "155404.641000", "155404.643000", "155404.646000", "155404.649000", "155404.651000", "155404.654000", "155404.656000", "155404.659000", "155404.661000", "155404.664000", "155404.666000", "155404.669000", "155404.672000", "155404.674000", "155404.677000", "155404.679000", "155404.682000", "155404.685000", "155404.687000", "155404.690000", "155404.692000", "155407.823000", "155407.826000", "155407.828000"],
      "InstanceCreationTime": ["154724.628000", "154724.631000", "154724.633000", "154724.636000", "154724.638000", "154724.641000", "154724.643000", "154724.646000", "154724.649000", "154724.651000", "154724.654000", "154724.656000", "154724.659000", "154724.661000", "154724.664000", "154724.666000", "154724.669000", "154724.671000", "154724.674000", "154724.689000", "154744.562000", "154744.565000", "154744.568000", "154744.570000", "154744.573000", "154744.575000", "154744.578000", "154744.580000", "154744.583000", "154744.585000", "154744.588000", "154744.591000", "154744.593000", "154744.596000", "154744.598000", "154744.601000", "154744.603000", "154744.606000", "154744.608000", "154744.611000", "154804.585000", "154804.587000", "154804.590000", "154804.592000", "154804.595000", "154804.598000", "154804.600000", "154804.603000", "154804.606000", "154804.609000", "154804.612000", "154804.614000", "154804.617000", "154804.619000", "154804.622000", "154804.625000", "154804.627000", "154804.630000", "154804.632000", "154804.635000", "154824.578000", "154824.581000", "154824.583000", "154824.586000", "154824.588000", "154824.591000", "154824.593000", "154824.596000", "154824.598000", "154824.601000", "154824.603000", "154824.606000", "154824.609000", "154824.611000", "154824.617000", "154824.620000", "154824.622000", "154824.625000", "154824.627000", "154824.630000", "154824.632000", "154844.594000", "154844.597000", "154844.600000", "154844.602000", "154844.605000", "154844.607000", "154844.610000", "154844.612000", "154844.615000", "154844.617000", "154844.620000", "154844.622000", "154844.625000", "154844.628000", "154844.630000", "154844.633000", "154844.635000", "154844.645000", "154844.648000", "154844.650000", "154924.608000", "154924.611000", "154924.614000", "154924.616000", "154924.619000", "154924.622000", "154924.624000", "154924.627000", "154924.629000", "154924.632000", "154924.635000", "154924.637000", "154924.640000", "154924.642000", "154924.645000", "154924.647000", "154924.650000", "154924.653000", "154924.656000", "154924.658000", "154924.661000", "154924.663000", "154924.666000", "154924.668000", "154924.671000", "154924.674000", "155004.599000", "155004.601000", "155004.604000", "155004.607000", "155004.609000", "155004.612000", "155004.614000", "155004.617000", "155004.619000", "155004.622000", "155004.630000", "155004.632000", "155004.635000", "155004.637000", "155004.640000", "155004.643000", "155004.646000", "155004.649000", "155004.652000", "155004.654000", "155004.657000", "155004.659000", "155004.662000", "155004.664000", "155004.667000", "155004.670000", "155004.672000", "155044.635000", "155044.638000", "155044.641000", "155044.643000", "155044.646000", "155044.648000", "155044.651000", "155044.654000", "155044.656000", "155044.659000", "155044.661000", "155044.664000", "155044.667000", "155044.669000", "155044.672000", "155044.674000", "155044.677000", "155044.679000", "155044.682000", "155044.684000", "155044.687000", "155044.689000", "155044.692000", "155044.695000", "155044.697000", "155044.700000", "155044.702000", "155124.614000", "155124.617000", "155124.620000", "155124.622000", "155124.625000", "155124.627000", "155124.630000", "155124.632000", "155124.635000", "155124.638000", "155124.640000", "155124.643000", "155124.645000", "155124.648000", "155124.650000", "155124.653000", "155124.655000", "155124.658000", "155124.660000", "155124.663000", "155124.665000", "155124.668000", "155124.670000", "155124.673000", "155124.676000", "155124.678000", "155124.681000", "155204.630000", "155204.632000", "155204.635000", "155204.638000", "155204.640000", "155204.643000", "155204.645000", "155204.648000", "155204.656000", "155204.658000", "155204.661000", "155204.663000", "155204.666000", "155204.669000", "155204.671000", "155204.674000", "155204.676000", "155204.679000", "155204.682000", "155204.685000", "155204.688000", "155204.691000", "155204.693000", "155204.696000", "155204.699000", "155204.701000", "155204.704000", "155244.625000", "155244.628000", "155244.631000", "155244.633000", "155244.636000", "155244.638000", "155244.641000", "155244.643000", "155244.646000", "155244.648000", "155244.651000", "155244.653000", "155244.656000", "155244.659000", "155244.661000", "155244.664000", "155244.666000", "155244.669000", "155244.671000", "155244.674000", "155244.677000", "155244.679000", "155244.682000", "155244.684000", "155244.687000", "155244.689000", "155244.692000", "155324.621000", "155324.624000", "155324.627000", "155324.629000", "155324.632000", "155324.635000", "155324.637000", "155324.640000", "155324.642000", "155324.645000", "155324.647000", "155324.650000", "155324.653000", "155324.655000", "155324.658000", "155324.660000", "155324.663000", "155324.665000", "155324.668000", "155324.671000", "155324.673000", "155324.676000", "155324.678000", "155324.681000", "155324.683000", "155324.686000", "155404.625000", "155404.628000", "155404.630000", "155404.633000", "155404.636000", "155404.638000", "155404.641000", "155404.643000", "155404.646000", "155404.649000", "155404.651000", "155404.654000", "155404.656000", "155404.659000", "155404.661000", "155404.664000", "155404.666000", "155404.669000", "155404.672000", "155404.674000", "155404.677000", "155404.679000", "155404.682000", "155404.685000", "155404.687000", "155404.690000", "155404.692000", "155407.823000", "155407.826000", "155407.828000"],
      "InstanceNumber": [1, 2, 3, 4, 5, 6, 7, 8, 9, 10, 11, 12, 13, 14, 15, 16, 17, 18, 19, 20, 21, 22, 23, 24, 25, 26, 27, 28, 29, 30, 31, 32, 33, 34, 35, 36, 37, 38, 39, 40, 41, 42, 43, 44, 45, 46, 47, 48, 49, 50, 51, 52, 53, 54, 55, 56, 57, 58, 59, 60, 61, 62, 63, 64, 65, 66, 67, 68, 69, 70, 71, 72, 73, 74, 75, 76, 77, 78, 79, 80, 81, 82, 83, 84, 85, 86, 87, 88, 89, 90, 91, 92, 93, 94, 95, 96, 97, 98, 99, 100, 101, 102, 103, 104, 105, 106, 107, 108, 109, 110, 111, 112, 113, 114, 115, 116, 117, 118, 119, 120, 121, 122, 123, 124, 125, 126, 127, 128, 129, 130, 131, 132, 133, 134, 135, 136, 137, 138, 139, 140, 141, 142, 143, 144, 145, 146, 147, 148, 149, 150, 151, 152, 153, 154, 155, 156, 157, 158, 159, 160, 161, 162, 163, 164, 165, 166, 167, 168, 169, 170, 171, 172, 173, 174, 175, 176, 177, 178, 179, 180, 181, 182, 183, 184, 185, 186, 187, 188, 189, 190, 191, 192, 193, 194, 195, 196, 197, 198, 199, 200, 201, 202, 203, 204, 205, 206, 207, 208, 209, 210, 211, 212, 213, 214, 215, 216, 217, 218, 219, 220, 221, 222, 223, 224, 225, 226, 227, 228, 229, 230, 231, 232, 233, 234, 235, 236, 237, 238, 239, 240, 241, 242, 243, 244, 245, 246, 247, 248, 249, 250, 251, 252, 253, 254, 255, 256, 257, 258, 259, 260, 261, 262, 263, 264, 265, 266, 267, 268, 269, 270, 271, 272, 273, 274, 275, 276, 277, 278, 279, 280, 281, 282, 283, 284, 285, 286, 287, 288, 289, 290, 291, 292, 293, 294, 295, 296, 297, 298, 299, 300, 301, 302, 303, 304, 305, 306, 307, 308, 309, 310, 311, 312, 313, 314, 315, 316, 317, 318],
      "WindowCenter": [4764.0, 4764.0, 4770.0, 4772.0, 4768.0, 4768.0, 4740.0, 4762.0, 4760.0, 4740.0, 4740.0, 4766.0, 4768.0, 4766.0, 4768.0, 4770.0, 4772.0, 4778.0, 4740.0, 4762.0, 4738.0, 4740.0, 4766.0, 4766.0, 4770.0, 4772.0, 4770.0, 4772.0, 4768.0, 4774.0, 4774.0, 4804.0, 4742.0, 4762.0, 4736.0, 4734.0, 4764.0, 4768.0, 4772.0, 4780.0, 4832.0, 4774.0, 4768.0, 4758.0, 4744.0, 4742.0, 4764.0, 4804.0, 4808.0, 4766.0, 4736.0, 4756.0, 4756.0, 4760.0, 4770.0, 4774.0, 4776.0, 4804.0, 4802.0, 4772.0, 4768.0, 4760.0, 4762.0, 4760.0, 4768.0, 4744.0, 4776.0, 4774.0, 4778.0, 4772.0, 4772.0, 4774.0, 4766.0, 4770.0, 4764.0, 4766.0, 4768.0, 4768.0, 4768.0, 4770.0, 4770.0, 4800.0, 4776.0, 4744.0, 4766.0, 4758.0, 4766.0, 4764.0, 4764.0, 4776.0, 4778.0, 4768.0, 4770.0, 4770.0, 4770.0, 4764.0, 4778.0, 4838.0, 4778.0, 4734.0, 4754.0, 4754.0, 4734.0, 4760.0, 4778.0, 4778.0, 4808.0, 4802.0, 4806.0, 4770.0, 4736.0, 4760.0, 4760.0, 4770.0, 4764.0, 4770.0, 4772.0, 4772.0, 4766.0, 4810.0, 4864.0, 4772.0, 4734.0, 4754.0, 4752.0, 4756.0, 4762.0, 4774.0, 4810.0, 4810.0, 4836.0, 4774.0, 4766.0, 4760.0, 4756.0, 4758.0, 4768.0, 4770.0, 4774.0, 4778.0, 4778.0, 4776.0, 4772.0, 4770.0, 4810.0, 4806.0, 4734.0, 4754.0, 4758.0, 4760.0, 4744.0, 4770.0, 4804.0, 4812.0, 4774.0, 4776.0, 4776.0, 4740.0, 4738.0, 4762.0, 4734.0, 4764.0, 4770.0, 4774.0, 4778.0, 4802.0, 4832.0, 4808.0, 4762.0, 4734.0, 4734.0, 4754.0, 4738.0, 4766.0, 4776.0, 4778.0, 4810.0, 4800.0, 4768.0, 4766.0, 4762.0, 4776.0, 4770.0, 4758.0, 4760.0, 4766.0, 4768.0, 4772.0, 4776.0, 4774.0, 4778.0, 4778.0, 4772.0, 4772.0, 4744.0, 4772.0, 4776.0, 4766.0, 4762.0, 4742.0, 4764.0, 4772.0, 4774.0, 4776.0, 4798.0, 4772.0, 4770.0, 4774.0, 4780.0, 4762.0, 4760.0, 4762.0, 4764.0, 4764.0, 4772.0, 4772.0, 4776.0, 4776.0, 4776.0, 4770.0, 4762.0, 4768.0, 4770.0, 4772.0, 4768.0, 4806.0, 4862.0, 4776.0, 4758.0, 4732.0, 4732.0, 4736.0, 4764.0, 4778.0, 4778.0, 4806.0, 4804.0, 4804.0, 4802.0, 4768.0, 4772.0, 4736.0, 4760.0, 4740.0, 4762.0, 4766.0, 4772.0, 4808.0, 4804.0, 4804.0, 4776.0, 4772.0, 4766.0, 4762.0, 4738.0, 4764.0, 4740.0, 4768.0, 4776.0, 4800.0, 4774.0, 4770.0, 4772.0, 4768.0, 4774.0, 4764.0, 4766.0, 4762.0, 4808.0, 4774.0, 4768.0, 4766.0, 4768.0, 4764.0, 4768.0, 4766.0, 4800.0, 4810.0, 4772.0, 4734.0, 4736.0, 4738.0, 4768.0, 4770.0, 4836.0, 4862.0, 4772.0, 4760.0, 4734.0, 4752.0, 4736.0, 4740.0, 4776.0, 4804.0, 4806.0, 4802.0, 4800.0, 4772.0, 4776.0, 4762.0, 4758.0, 4736.0, 4760.0, 4766.0, 4830.0, 4800.0, 4796.0, 4774.0, 4796.0, 4836.0, 4864.0, 4764.0, 4754.0, 4750.0, 4750.0, 4758.0, 4766.0, 4800.0],
