{
  "AcquisitionMatrixPE": 104,
  "AcquisitionNumber": 1,
  "AcquisitionTime": "16:17:15.292500",
  "BandwidthPerPixelPhaseEncode": 17.17,
  "BaseResolution": 104,
  "BodyPartExamined": "BRAIN",
  "CoilCombinationMethod": "Sum of Squares",
  "ConsistencyInfo": "N4_VE11C_LATEST_20160120",
  "ConversionSoftware": "dcm2niix",
  "ConversionSoftwareVersion": "v1.0.20220505",
  "DerivedVendorReportedEchoSpacing": 0.000560011,
  "DeviceSerialNumber": "167006",
  "DwellTime": 2.1e-06,
  "EchoTime": 0.037,
  "EchoTrainLength": 104,
  "EffectiveEchoSpacing": 0.000560011,
  "FlipAngle": 52,
  "HeudiconvVersion": "0.5.3.post811+g6206e14",
  "ImageComments": "Unaliased MB4/PE3/LB",
  "ImageOrientationPatientDICOM": [0.999863, -0.0162979, 0.00277857, 0.0162308, 0.935636, -0.352592],
  "ImageOrientationText": "Tra>Cor(-20.6)>Sag(-0.2)",
  "ImageType": [
    "ORIGINAL",
    "PRIMARY",
    "M",
    "MB",
    "ND",
    "MOSAIC"
],
  "ImagingFrequency": 123.259,
  "InPlanePhaseEncodingDirectionDICOM": "COL",
  "InstitutionAddress": "Chemin Queen-Mary 4565,Montreal,District,CA,H3W 1W5",
  "InstitutionName": "IUGM",
  "InstitutionalDepartmentName": "Department",
  "MRAcquisitionType": "2D",
  "MagneticFieldStrength": 3,
  "Manufacturer": "Siemens",
  "ManufacturersModelName": "Prisma_fit",
  "MatrixCoilMode": "SENSE",
  "Modality": "MR",
  "MultibandAccelerationFactor": 4,
  "PartialFourier": 1,
  "PatientPosition": "HFS",
  "PercentPhaseFOV": 100,
  "PercentSampling": 100,
  "PhaseEncodingDirection": "j",
  "PhaseEncodingSteps": 104,
  "PhaseResolution": 1,
  "PixelBandwidth": 2290,
  "ProcedureStepDescription": "games^mario3",
  "ProtocolName": "func_task-mario3_run-04",
  "PulseSequenceDetails": "%CustomerSeq%\\cmrr_mbep2d_bold",
  "ReceiveCoilActiveElements": "HC1-7;NC1,2",
  "ReceiveCoilName": "HeadNeck_64",
  "ReconMatrixPE": 104,
  "RepetitionTime": 1.49,
  "SAR": 0.0477087,
  "ScanOptions": "FS",
  "ScanningSequence": "EP",
  "SequenceName": "epfid2d1_104",
  "SequenceVariant": "SK\\SS",
  "SeriesDescription": "func_task-mario3_run-04",
  "SeriesNumber": 19,
  "ShimSetting": [625, -7261, -8826, 521, 20, -189, -98, -6],
  "SliceThickness": 2,
  "SliceTiming": [0, 0.785, 0.0975, 0.8825, 0.195, 0.98, 0.295, 1.0775, 0.3925, 1.175, 0.49, 1.275, 0.5875, 1.3725, 0.685, 0, 0.785, 0.0975, 0.8825, 0.195, 0.98, 0.295, 1.0775, 0.3925, 1.175, 0.49, 1.275, 0.5875, 1.3725, 0.685, 0, 0.785, 0.0975, 0.8825, 0.195, 0.98, 0.295, 1.0775, 0.3925, 1.175, 0.49, 1.275, 0.5875, 1.3725, 0.685, 0, 0.785, 0.0975, 0.8825, 0.195, 0.98, 0.295, 1.0775, 0.3925, 1.175, 0.49, 1.275, 0.5875, 1.3725, 0.685],
  "SoftwareVersions": "syngo MR E11",
  "SpacingBetweenSlices": 2,
  "StationName": "MRC35049",
  "TaskName": "mario3",
  "TotalReadoutTime": 0.0576811,
  "TxRefAmp": 242.968,
  "WipMemBlock": "ef775270-d399-41c9-88c7-221452fb2c51||Sequence: R017 ve11c/master r/75a17815+; Jun 28 2022 16:32:11 by eja",
  "dcmmeta_affine": [
    [-1.99972665309906, 0.03246157616376877, -0.0062935324385762215, 104.86327362060547],
    [0.032595716416835785, 1.8712724447250366, -0.7051785588264465, -65.00753784179688],
    [0.005557147320359945, 0.7051847577095032, 1.8715457916259766, -70.06279754638672],
    [0.0, 0.0, 0.0, 1.0]
],
  "dcmmeta_reorient_transform": [
    [0.0, -1.0, 0.0, 103.0],
    [1.0, 0.0, 0.0, 0.0],
    [0.0, 0.0, 1.0, 0.0],
    [0.0, 0.0, 0.0, 1.0]
],
  "dcmmeta_shape": [104, 104, 60, 361],
  "dcmmeta_slice_dim": 2,
  "dcmmeta_version": 0.6,
  "global": {
    "const": {
      "AcquisitionMatrix": [104, 0, 0, 104],
      "AngioFlag": "N",
      "BitsAllocated": 16,
      "BitsStored": 16,
      "BodyPartExamined": "BRAIN",
      "Columns": 832,
      "EchoNumbers": 1,
      "EchoTime": 37.0,
      "EchoTrainLength": 104,
      "FlipAngle": 52.0,
      "HighBit": 15,
      "ImageOrientationPatient": [0.99986332034195, -0.0162978576155, 0.00277857371971, 0.01623078855586, 0.93563623901671, -0.3525923846902],
      "ImagePositionPatient": [-847.92332887451, -797.01187066715, 257.23568444692],
      "ImageType": [
        "ORIGINAL",
        "PRIMARY",
        "M",
        "MB",
        "ND",
        "MOSAIC"
],
      "ImagedNucleus": "1H",
      "ImagingFrequency": 123.258779,
      "InPlanePhaseEncodingDirection": "COL",
      "MRAcquisitionType": "2D",
      "MagneticFieldStrength": 3.0,
      "Manufacturer": "SIEMENS",
      "ManufacturerModelName": "Prisma_fit",
      "Modality": "MR",
      "NumberOfAverages": 1.0,
      "NumberOfPhaseEncodingSteps": 104,
      "PercentPhaseFieldOfView": 100.0,
      "PercentSampling": 100.0,
      "PerformedProcedureStepStartTime": "154138.941000",
      "PhotometricInterpretation": "MONOCHROME2",
      "PixelBandwidth": 2290.0,
      "PixelRepresentation": 0,
      "PixelSpacing": [2.0, 2.0],
      "ProtocolName": "func_task-mario3_run-04",
      "RepetitionTime": 1490.0,
      "Rows": 832,
      "SAR": 0.04770871465276,
      "SamplesPerPixel": 1,
      "ScanOptions": "FS",
      "ScanningSequence": "EP",
      "SequenceName": "epfid2d1_104",
      "SequenceVariant": [
        "SK",
        "SS"
],
      "SeriesDescription": "func_task-mario3_run-04",
      "SeriesNumber": 19,
      "SeriesTime": "161844.501000",
      "SliceLocation": -42.971888609978,
      "SliceThickness": 2.0,
      "SmallestImagePixelValue": 0,
      "SoftwareVersions": "syngo MR E11",
      "SpacingBetweenSlices": 2.0000000103803,
      "SpecificCharacterSet": "ISO_IR 100",
      "StudyID": "1",
      "StudyTime": "154138.864000",
      "TransmitCoilName": "Body",
      "VariableFlipAngleFlag": "N",
      "WindowCenterWidthExplanation": "Algo1",
      "dBdt": 0.0},
    "slices": {}
  },
  "time": {
    "samples": {
      "AcquisitionNumber": [1, 2, 3, 4, 5, 6, 7, 8, 9, 10, 11, 12, 13, 14, 15, 16, 17, 18, 19, 20, 21, 22, 23, 24, 25, 26, 27, 28, 29, 30, 31, 32, 33, 34, 35, 36, 37, 38, 39, 40, 41, 42, 43, 44, 45, 46, 47, 48, 49, 50, 51, 52, 53, 54, 55, 56, 57, 58, 59, 60, 61, 62, 63, 64, 65, 66, 67, 68, 69, 70, 71, 72, 73, 74, 75, 76, 77, 78, 79, 80, 81, 82, 83, 84, 85, 86, 87, 88, 89, 90, 91, 92, 93, 94, 95, 96, 97, 98, 99, 100, 101, 102, 103, 104, 105, 106, 107, 108, 109, 110, 111, 112, 113, 114, 115, 116, 117, 118, 119, 120, 121, 122, 123, 124, 125, 126, 127, 128, 129, 130, 131, 132, 133, 134, 135, 136, 137, 138, 139, 140, 141, 142, 143, 144, 145, 146, 147, 148, 149, 150, 151, 152, 153, 154, 155, 156, 157, 158, 159, 160, 161, 162, 163, 164, 165, 166, 167, 168, 169, 170, 171, 172, 173, 174, 175, 176, 177, 178, 179, 180, 181, 182, 183, 184, 185, 186, 187, 188, 189, 190, 191, 192, 193, 194, 195, 196, 197, 198, 199, 200, 201, 202, 203, 204, 205, 206, 207, 208, 209, 210, 211, 212, 213, 214, 215, 216, 217, 218, 219, 220, 221, 222, 223, 224, 225, 226, 227, 228, 229, 230, 231, 232, 233, 234, 235, 236, 237, 238, 239, 240, 241, 242, 243, 244, 245, 246, 247, 248, 249, 250, 251, 252, 253, 254, 255, 256, 257, 258, 259, 260, 261, 262, 263, 264, 265, 266, 267, 268, 269, 270, 271, 272, 273, 274, 275, 276, 277, 278, 279, 280, 281, 282, 283, 284, 285, 286, 287, 288, 289, 290, 291, 292, 293, 294, 295, 296, 297, 298, 299, 300, 301, 302, 303, 304, 305, 306, 307, 308, 309, 310, 311, 312, 313, 314, 315, 316, 317, 318, 319, 320, 321, 322, 323, 324, 325, 326, 327, 328, 329, 330, 331, 332, 333, 334, 335, 336, 337, 338, 339, 340, 341, 342, 343, 344, 345, 346, 347, 348, 349, 350, 351, 352, 353, 354, 355, 356, 357, 358, 359, 360, 361],
      "AcquisitionTime": ["161715.292500", "161716.782500", "161718.272500", "161719.762500", "161721.252500", "161722.742500", "161724.232500", "161725.722500", "161727.212500", "161728.702500", "161730.192500", "161731.682500", "161733.172500", "161734.662500", "161736.152500", "161737.642500", "161739.132500", "161740.622500", "161742.112500", "161743.602500", "161745.092500", "161746.582500", "161748.072500", "161749.562500", "161751.052500", "161752.542500", "161754.032500", "161755.522500", "161757.012500", "161758.502500", "161759.992500", "161801.482500", "161802.972500", "161804.462500", "161805.952500", "161807.442500", "161808.932500", "161810.422500", "161811.912500", "161813.402500", "161814.892500", "161816.382500", "161817.872500", "161819.362500", "161820.852500", "161822.342500", "161823.832500", "161825.322500", "161826.812500", "161828.302500", "161829.792500", "161831.282500", "161832.772500", "161834.262500", "161835.752500", "161837.242500", "161838.732500", "161840.222500", "161841.712500", "161843.202500", "161844.692500", "161846.182500", "161847.672500", "161849.162500", "161850.652500", "161852.142500", "161853.632500", "161855.122500", "161856.612500", "161858.102500", "161859.592500", "161901.082500", "161902.572500", "161904.062500", "161905.552500", "161907.042500", "161908.532500", "161910.022500", "161911.512500", "161913.002500", "161914.492500", "161915.982500", "161917.472500", "161918.962500", "161920.452500", "161921.942500", "161923.432500", "161924.922500", "161926.412500", "161927.902500", "161929.392500", "161930.882500", "161932.372500", "161933.862500", "161935.352500", "161936.842500", "161938.332500", "161939.822500", "161941.312500", "161942.802500", "161944.292500", "161945.782500", "161947.272500", "161948.762500", "161950.252500", "161951.742500", "161953.232500", "161954.722500", "161956.212500", "161957.702500", "161959.192500", "162000.682500", "162002.172500", "162003.662500", "162005.152500", "162006.642500", "162008.132500", "162009.622500", "162011.112500", "162012.602500", "162014.092500", "162015.582500", "162017.072500", "162018.562500", "162020.052500", "162021.542500", "162023.032500", "162024.522500", "162026.012500", "162027.502500", "162028.992500", "162030.482500", "162031.972500", "162033.462500", "162034.952500", "162036.442500", "162037.932500", "162039.422500", "162040.912500", "162042.402500", "162043.892500", "162045.382500", "162046.872500", "162048.362500", "162049.852500", "162051.342500", "162052.832500", "162054.322500", "162055.812500", "162057.302500", "162058.792500", "162100.282500", "162101.772500", "162103.262500", "162104.752500", "162106.242500", "162107.732500", "162109.222500", "162110.712500", "162112.202500", "162113.692500", "162115.182500", "162116.672500", "162118.162500", "162119.652500", "162121.142500", "162122.632500", "162124.122500", "162125.612500", "162127.102500", "162128.592500", "162130.082500", "162131.572500", "162133.062500", "162134.552500", "162136.042500", "162137.532500", "162139.022500", "162140.512500", "162142.002500", "162143.492500", "162144.982500", "162146.472500", "162147.962500", "162149.452500", "162150.942500", "162152.432500", "162153.922500", "162155.412500", "162156.902500", "162158.392500", "162159.882500", "162201.372500", "162202.862500", "162204.352500", "162205.842500", "162207.332500", "162208.822500", "162210.312500", "162211.802500", "162213.292500", "162214.782500", "162216.272500", "162217.762500", "162219.252500", "162220.742500", "162222.232500", "162223.722500", "162225.212500", "162226.702500", "162228.192500", "162229.682500", "162231.172500", "162232.662500", "162234.152500", "162235.642500", "162237.132500", "162238.622500", "162240.112500", "162241.602500", "162243.092500", "162244.582500", "162246.072500", "162247.562500", "162249.052500", "162250.542500", "162252.032500", "162253.522500", "162255.012500", "162256.502500", "162257.992500", "162259.482500", "162300.972500", "162302.462500", "162303.952500", "162305.442500", "162306.932500", "162308.422500", "162309.912500", "162311.402500", "162312.892500", "162314.382500", "162315.872500", "162317.362500", "162318.852500", "162320.342500", "162321.832500", "162323.322500", "162324.812500", "162326.302500", "162327.792500", "162329.282500", "162330.772500", "162332.262500", "162333.752500", "162335.242500", "162336.732500", "162338.222500", "162339.712500", "162341.202500", "162342.692500", "162344.182500", "162345.672500", "162347.162500", "162348.652500", "162350.142500", "162351.632500", "162353.122500", "162354.612500", "162356.102500", "162357.592500", "162359.082500", "162400.572500", "162402.062500", "162403.552500", "162405.042500", "162406.532500", "162408.022500", "162409.512500", "162411.002500", "162412.492500", "162413.982500", "162415.472500", "162416.962500", "162418.452500", "162419.942500", "162421.432500", "162422.922500", "162424.412500", "162425.902500", "162427.392500", "162428.882500", "162430.372500", "162431.862500", "162433.352500", "162434.842500", "162436.332500", "162437.822500", "162439.312500", "162440.802500", "162442.292500", "162443.782500", "162445.272500", "162446.762500", "162448.252500", "162449.742500", "162451.232500", "162452.722500", "162454.212500", "162455.702500", "162457.192500", "162458.682500", "162500.172500", "162501.662500", "162503.152500", "162504.642500", "162506.132500", "162507.622500", "162509.112500", "162510.602500", "162512.092500", "162513.582500", "162515.072500", "162516.562500", "162518.052500", "162519.542500", "162521.032500", "162522.522500", "162524.012500", "162525.502500", "162526.992500", "162528.482500", "162529.972500", "162531.462500", "162532.952500", "162534.442500", "162535.932500", "162537.422500", "162538.912500", "162540.402500", "162541.892500", "162543.382500", "162544.872500", "162546.362500", "162547.852500", "162549.342500", "162550.832500", "162552.322500", "162553.812500", "162555.302500", "162556.792500", "162558.282500", "162559.772500", "162601.262500", "162602.752500", "162604.242500", "162605.732500", "162607.222500", "162608.712500", "162610.202500", "162611.692500"],
      "ContentTime": ["161844.504000", "161844.508000", "161844.511000", "161844.515000", "161844.518000", "161844.521000", "161844.540000", "161844.543000", "161844.547000", "161844.550000", "161844.553000", "161844.557000", "161844.560000", "161844.563000", "161844.567000", "161844.570000", "161844.574000", "161844.577000", "161844.580000", "161844.584000", "161844.594000", "161844.597000", "161844.601000", "161844.604000", "161844.608000", "161844.611000", "161844.614000", "161844.618000", "161844.621000", "161844.624000", "161844.628000", "161844.631000", "161844.634000", "161844.638000", "161844.641000", "161844.645000", "161844.654000", "161844.657000", "161904.464000", "161904.468000", "161904.471000", "161904.475000", "161904.478000", "161904.481000", "161904.485000", "161904.488000", "161904.492000", "161904.495000", "161904.498000", "161904.502000", "161904.505000", "161904.509000", "161904.512000", "161904.515000", "161904.522000", "161904.525000", "161904.529000", "161904.532000", "161924.464000", "161924.468000", "161924.471000", "161924.475000", "161924.478000", "161924.481000", "161924.485000", "161924.488000", "161924.492000", "161924.495000", "161924.498000", "161924.502000", "161924.505000", "161924.509000", "161924.512000", "161924.515000", "161924.519000", "161924.522000", "161924.525000", "161924.529000", "161944.465000", "161944.469000", "161944.472000", "161944.476000", "161944.479000", "161944.482000", "161944.486000", "161944.489000", "161944.492000", "161944.496000", "161944.499000", "161944.503000", "161944.506000", "161944.509000", "161944.513000", "161944.516000", "161944.520000", "161944.523000", "161944.527000", "161944.530000", "162024.464000", "162024.468000", "162024.471000", "162024.475000", "162024.478000", "162024.481000", "162024.485000", "162024.488000", "162024.492000", "162024.495000", "162024.498000", "162024.502000", "162024.505000", "162024.509000", "162024.512000", "162024.515000", "162024.533000", "162024.537000", "162024.540000", "162024.550000", "162024.553000", "162024.557000", "162024.560000", "162024.563000", "162024.567000", "162024.570000", "162024.574000", "162024.577000", "162104.464000", "162104.468000", "162104.471000", "162104.475000", "162104.478000", "162104.482000", "162104.485000", "162104.488000", "162104.492000", "162104.495000", "162104.499000", "162104.502000", "162104.506000", "162104.509000", "162104.512000", "162104.516000", "162104.519000", "162104.523000", "162104.526000", "162104.529000", "162104.533000", "162104.536000", "162104.552000", "162104.555000", "162104.558000", "162104.562000", "162104.565000", "162144.464000", "162144.468000", "162144.471000", "162144.475000", "162144.478000", "162144.482000", "162144.485000", "162144.488000", "162144.492000", "162144.495000", "162144.498000", "162144.502000", "162144.505000", "162144.509000", "162144.512000", "162144.515000", "162144.519000", "162144.522000", "162144.526000", "162144.529000", "162144.532000", "162144.536000", "162144.539000", "162144.543000", "162144.546000", "162144.549000", "162144.553000", "162204.465000", "162204.469000", "162204.472000", "162204.476000", "162204.479000", "162204.482000", "162204.486000", "162204.489000", "162204.493000", "162204.496000", "162204.499000", "162204.503000", "162204.506000", "162244.464000", "162244.468000", "162244.471000", "162244.475000", "162244.478000", "162244.482000", "162244.485000", "162244.489000", "162244.492000", "162244.495000", "162244.499000", "162244.502000", "162244.506000", "162244.509000", "162244.525000", "162244.528000", "162244.532000", "162244.535000", "162244.539000", "162244.542000", "162244.545000", "162244.549000", "162244.552000", "162244.556000", "162244.559000", "162244.563000", "162244.566000", "162324.464000", "162324.468000", "162324.471000", "162324.475000", "162324.478000", "162324.482000", "162324.485000", "162324.489000", "162324.492000", "162324.495000", "162324.499000", "162324.502000", "162324.505000", "162324.516000", "162324.519000", "162324.523000", "162324.526000", "162324.530000", "162324.533000", "162324.536000", "162324.540000", "162324.543000", "162324.547000", "162324.550000", "162324.553000", "162324.557000", "162324.560000", "162404.464000", "162404.468000", "162404.471000", "162404.475000", "162404.478000", "162404.481000", "162404.485000", "162404.488000", "162404.492000", "162404.495000", "162404.498000", "162404.502000", "162404.505000", "162404.509000", "162404.512000", "162404.516000", "162404.519000", "162404.522000", "162404.526000", "162404.529000", "162404.532000", "162404.536000", "162404.539000", "162404.543000", "162404.546000", "162404.549000", "162404.553000", "162444.464000", "162444.468000", "162444.471000", "162444.475000", "162444.478000", "162444.481000", "162444.485000", "162444.488000", "162444.492000", "162444.495000", "162444.499000", "162444.502000", "162444.506000", "162444.509000", "162444.513000", "162444.516000", "162444.519000", "162444.523000", "162444.526000", "162444.530000", "162444.533000", "162444.536000", "162444.540000", "162444.543000", "162444.547000", "162444.550000", "162524.464000", "162524.468000", "162524.472000", "162524.475000", "162524.478000", "162524.482000", "162524.485000", "162524.489000", "162524.492000", "162524.502000", "162524.505000", "162524.509000", "162524.512000", "162524.515000", "162524.519000", "162524.522000", "162524.526000", "162524.529000", "162524.532000", "162524.536000", "162524.539000", "162524.543000", "162524.546000", "162524.549000", "162524.553000", "162524.556000", "162524.560000", "162604.464000", "162604.469000", "162604.472000", "162604.476000", "162604.479000", "162604.482000", "162604.486000", "162604.489000", "162604.493000", "162604.496000", "162604.500000", "162604.503000", "162604.506000", "162604.510000", "162604.513000", "162604.517000", "162604.520000", "162604.523000", "162604.527000", "162604.530000", "162604.534000", "162604.537000", "162604.541000", "162604.544000", "162604.547000", "162604.551000", "162604.554000", "162615.289000", "162615.293000", "162615.297000", "162615.300000", "162615.303000", "162615.307000", "162615.310000"],
      "InstanceCreationTime": ["161844.504000", "161844.508000", "161844.511000", "161844.515000", "161844.518000", "161844.521000", "161844.540000", "161844.543000", "161844.547000", "161844.550000", "161844.553000", "161844.557000", "161844.560000", "161844.563000", "161844.567000", "161844.570000", "161844.574000", "161844.577000", "161844.580000", "161844.584000", "161844.594000", "161844.597000", "161844.601000", "161844.604000", "161844.608000", "161844.611000", "161844.614000", "161844.618000", "161844.621000", "161844.624000", "161844.628000", "161844.631000", "161844.634000", "161844.638000", "161844.641000", "161844.645000", "161844.654000", "161844.657000", "161904.464000", "161904.468000", "161904.471000", "161904.475000", "161904.478000", "161904.481000", "161904.485000", "161904.488000", "161904.492000", "161904.495000", "161904.498000", "161904.502000", "161904.505000", "161904.509000", "161904.512000", "161904.515000", "161904.522000", "161904.525000", "161904.529000", "161904.532000", "161924.464000", "161924.468000", "161924.471000", "161924.475000", "161924.478000", "161924.481000", "161924.485000", "161924.488000", "161924.492000", "161924.495000", "161924.498000", "161924.502000", "161924.505000", "161924.509000", "161924.512000", "161924.515000", "161924.519000", "161924.522000", "161924.525000", "161924.529000", "161944.465000", "161944.469000", "161944.472000", "161944.476000", "161944.479000", "161944.482000", "161944.486000", "161944.489000", "161944.492000", "161944.496000", "161944.499000", "161944.503000", "161944.506000", "161944.509000", "161944.513000", "161944.516000", "161944.520000", "161944.523000", "161944.527000", "161944.530000", "162024.464000", "162024.468000", "162024.471000", "162024.475000", "162024.478000", "162024.481000", "162024.485000", "162024.488000", "162024.492000", "162024.495000", "162024.498000", "162024.502000", "162024.505000", "162024.509000", "162024.512000", "162024.515000", "162024.533000", "162024.537000", "162024.540000", "162024.550000", "162024.553000", "162024.557000", "162024.560000", "162024.563000", "162024.567000", "162024.570000", "162024.574000", "162024.577000", "162104.464000", "162104.468000", "162104.471000", "162104.475000", "162104.478000", "162104.482000", "162104.485000", "162104.488000", "162104.492000", "162104.495000", "162104.499000", "162104.502000", "162104.506000", "162104.509000", "162104.512000", "162104.516000", "162104.519000", "162104.523000", "162104.526000", "162104.529000", "162104.533000", "162104.536000", "162104.552000", "162104.555000", "162104.558000", "162104.562000", "162104.565000", "162144.464000", "162144.468000", "162144.471000", "162144.475000", "162144.478000", "162144.482000", "162144.485000", "162144.488000", "162144.492000", "162144.495000", "162144.498000", "162144.502000", "162144.505000", "162144.509000", "162144.512000", "162144.515000", "162144.519000", "162144.522000", "162144.526000", "162144.529000", "162144.532000", "162144.536000", "162144.539000", "162144.543000", "162144.546000", "162144.549000", "162144.553000", "162204.465000", "162204.469000", "162204.472000", "162204.476000", "162204.479000", "162204.482000", "162204.486000", "162204.489000", "162204.493000", "162204.496000", "162204.499000", "162204.503000", "162204.506000", "162244.464000", "162244.468000", "162244.471000", "162244.475000", "162244.478000", "162244.482000", "162244.485000", "162244.489000", "162244.492000", "162244.495000", "162244.499000", "162244.502000", "162244.506000", "162244.509000", "162244.525000", "162244.528000", "162244.532000", "162244.535000", "162244.539000", "162244.542000", "162244.545000", "162244.549000", "162244.552000", "162244.556000", "162244.559000", "162244.563000", "162244.566000", "162324.464000", "162324.468000", "162324.471000", "162324.475000", "162324.478000", "162324.482000", "162324.485000", "162324.489000", "162324.492000", "162324.495000", "162324.499000", "162324.502000", "162324.505000", "162324.516000", "162324.519000", "162324.523000", "162324.526000", "162324.530000", "162324.533000", "162324.536000", "162324.540000", "162324.543000", "162324.547000", "162324.550000", "162324.553000", "162324.557000", "162324.560000", "162404.464000", "162404.468000", "162404.471000", "162404.475000", "162404.478000", "162404.481000", "162404.485000", "162404.488000", "162404.492000", "162404.495000", "162404.498000", "162404.502000", "162404.505000", "162404.509000", "162404.512000", "162404.516000", "162404.519000", "162404.522000", "162404.526000", "162404.529000", "162404.532000", "162404.536000", "162404.539000", "162404.543000", "162404.546000", "162404.549000", "162404.553000", "162444.464000", "162444.468000", "162444.471000", "162444.475000", "162444.478000", "162444.481000", "162444.485000", "162444.488000", "162444.492000", "162444.495000", "162444.499000", "162444.502000", "162444.506000", "162444.509000", "162444.513000", "162444.516000", "162444.519000", "162444.523000", "162444.526000", "162444.530000", "162444.533000", "162444.536000", "162444.540000", "162444.543000", "162444.547000", "162444.550000", "162524.464000", "162524.468000", "162524.472000", "162524.475000", "162524.478000", "162524.482000", "162524.485000", "162524.489000", "162524.492000", "162524.502000", "162524.505000", "162524.509000", "162524.512000", "162524.515000", "162524.519000", "162524.522000", "162524.526000", "162524.529000", "162524.532000", "162524.536000", "162524.539000", "162524.543000", "162524.546000", "162524.549000", "162524.553000", "162524.556000", "162524.560000", "162604.464000", "162604.469000", "162604.472000", "162604.476000", "162604.479000", "162604.482000", "162604.486000", "162604.489000", "162604.493000", "162604.496000", "162604.500000", "162604.503000", "162604.506000", "162604.510000", "162604.513000", "162604.517000", "162604.520000", "162604.523000", "162604.527000", "162604.530000", "162604.534000", "162604.537000", "162604.541000", "162604.544000", "162604.547000", "162604.551000", "162604.554000", "162615.289000", "162615.293000", "162615.297000", "162615.300000", "162615.303000", "162615.307000", "162615.310000"],
      "InstanceNumber": [1, 2, 3, 4, 5, 6, 7, 8, 9, 10, 11, 12, 13, 14, 15, 16, 17, 18, 19, 20, 21, 22, 23, 24, 25, 26, 27, 28, 29, 30, 31, 32, 33, 34, 35, 36, 37, 38, 39, 40, 41, 42, 43, 44, 45, 46, 47, 48, 49, 50, 51, 52, 53, 54, 55, 56, 57, 58, 59, 60, 61, 62, 63, 64, 65, 66, 67, 68, 69, 70, 71, 72, 73, 74, 75, 76, 77, 78, 79, 80, 81, 82, 83, 84, 85, 86, 87, 88, 89, 90, 91, 92, 93, 94, 95, 96, 97, 98, 99, 100, 101, 102, 103, 104, 105, 106, 107, 108, 109, 110, 111, 112, 113, 114, 115, 116, 117, 118, 119, 120, 121, 122, 123, 124, 125, 126, 127, 128, 129, 130, 131, 132, 133, 134, 135, 136, 137, 138, 139, 140, 141, 142, 143, 144, 145, 146, 147, 148, 149, 150, 151, 152, 153, 154, 155, 156, 157, 158, 159, 160, 161, 162, 163, 164, 165, 166, 167, 168, 169, 170, 171, 172, 173, 174, 175, 176, 177, 178, 179, 180, 181, 182, 183, 184, 185, 186, 187, 188, 189, 190, 191, 192, 193, 194, 195, 196, 197, 198, 199, 200, 201, 202, 203, 204, 205, 206, 207, 208, 209, 210, 211, 212, 213, 214, 215, 216, 217, 218, 219, 220, 221, 222, 223, 224, 225, 226, 227, 228, 229, 230, 231, 232, 233, 234, 235, 236, 237, 238, 239, 240, 241, 242, 243, 244, 245, 246, 247, 248, 249, 250, 251, 252, 253, 254, 255, 256, 257, 258, 259, 260, 261, 262, 263, 264, 265, 266, 267, 268, 269, 270, 271, 272, 273, 274, 275, 276, 277, 278, 279, 280, 281, 282, 283, 284, 285, 286, 287, 288, 289, 290, 291, 292, 293, 294, 295, 296, 297, 298, 299, 300, 301, 302, 303, 304, 305, 306, 307, 308, 309, 310, 311, 312, 313, 314, 315, 316, 317, 318, 319, 320, 321, 322, 323, 324, 325, 326, 327, 328, 329, 330, 331, 332, 333, 334, 335, 336, 337, 338, 339, 340, 341, 342, 343, 344, 345, 346, 347, 348, 349, 350, 351, 352, 353, 354, 355, 356, 357, 358, 359, 360, 361],
