{
  "AcquisitionMatrixPE": 104,
  "AcquisitionNumber": 1,
  "AcquisitionTime": "16:05:31.080000",
  "BandwidthPerPixelPhaseEncode": 17.17,
  "BaseResolution": 104,
  "BodyPartExamined": "BRAIN",
  "CoilCombinationMethod": "Sum of Squares",
  "ConsistencyInfo": "N4_VE11C_LATEST_20160120",
  "ConversionSoftware": "dcm2niix",
  "ConversionSoftwareVersion": "v1.0.20220505",
  "DerivedVendorReportedEchoSpacing": 0.000560011,
  "DeviceSerialNumber": "167006",
  "DwellTime": 2.1e-06,
  "EchoTime": 0.037,
  "EchoTrainLength": 104,
  "EffectiveEchoSpacing": 0.000560011,
  "FlipAngle": 52,
  "HeudiconvVersion": "0.5.3.post811+g6206e14",
  "ImageComments": "Unaliased MB4/PE3/LB",
  "ImageOrientationPatientDICOM": [0.999863, -0.0162979, 0.00277857, 0.0162308, 0.935636, -0.352592],
  "ImageOrientationText": "Tra>Cor(-20.6)>Sag(-0.2)",
  "ImageType": [
    "ORIGINAL",
    "PRIMARY",
    "M",
    "MB",
    "ND",
    "MOSAIC"
],
  "ImagingFrequency": 123.259,
  "InPlanePhaseEncodingDirectionDICOM": "COL",
  "InstitutionAddress": "Chemin Queen-Mary 4565,Montreal,District,CA,H3W 1W5",
  "InstitutionName": "IUGM",
  "InstitutionalDepartmentName": "Department",
  "MRAcquisitionType": "2D",
  "MagneticFieldStrength": 3,
  "Manufacturer": "Siemens",
  "ManufacturersModelName": "Prisma_fit",
  "MatrixCoilMode": "SENSE",
  "Modality": "MR",
  "MultibandAccelerationFactor": 4,
  "PartialFourier": 1,
  "PatientPosition": "HFS",
  "PercentPhaseFOV": 100,
  "PercentSampling": 100,
  "PhaseEncodingDirection": "j",
  "PhaseEncodingSteps": 104,
  "PhaseResolution": 1,
  "PixelBandwidth": 2290,
  "ProcedureStepDescription": "games^mario3",
  "ProtocolName": "func_task-mario3_run-03",
  "PulseSequenceDetails": "%CustomerSeq%\\cmrr_mbep2d_bold",
  "ReceiveCoilActiveElements": "HC1-7;NC1,2",
  "ReceiveCoilName": "HeadNeck_64",
  "ReconMatrixPE": 104,
  "RepetitionTime": 1.49,
  "SAR": 0.0477087,
  "ScanOptions": "FS",
  "ScanningSequence": "EP",
  "SequenceName": "epfid2d1_104",
  "SequenceVariant": "SK\\SS",
  "SeriesDescription": "func_task-mario3_run-03",
  "SeriesNumber": 16,
  "ShimSetting": [625, -7261, -8826, 521, 20, -189, -98, -6],
  "SliceThickness": 2,
  "SliceTiming": [0, 0.785, 0.1, 0.8825, 0.1975, 0.98, 0.295, 1.0775, 0.3925, 1.1775, 0.49, 1.275, 0.59, 1.3725, 0.6875, 0, 0.785, 0.1, 0.8825, 0.1975, 0.98, 0.295, 1.0775, 0.3925, 1.1775, 0.49, 1.275, 0.59, 1.3725, 0.6875, 0, 0.785, 0.1, 0.8825, 0.1975, 0.98, 0.295, 1.0775, 0.3925, 1.1775, 0.49, 1.275, 0.59, 1.3725, 0.6875, 0, 0.785, 0.1, 0.8825, 0.1975, 0.98, 0.295, 1.0775, 0.3925, 1.1775, 0.49, 1.275, 0.59, 1.3725, 0.6875],
  "SoftwareVersions": "syngo MR E11",
  "SpacingBetweenSlices": 2,
  "StationName": "MRC35049",
  "TaskName": "mario3",
  "TotalReadoutTime": 0.0576811,
  "TxRefAmp": 242.968,
  "WipMemBlock": "3dcdf65f-f449-4dcc-be32-4bf36230c6d5||Sequence: R017 ve11c/master r/75a17815+; Jun 28 2022 16:32:11 by eja",
  "dcmmeta_affine": [
    [-1.99972665309906, 0.03246157616376877, -0.0062935324385762215, 104.86327362060547],
    [0.032595716416835785, 1.8712724447250366, -0.7051785588264465, -65.00753784179688],
    [0.005557147320359945, 0.7051847577095032, 1.8715457916259766, -70.06279754638672],
    [0.0, 0.0, 0.0, 1.0]
],
  "dcmmeta_reorient_transform": [
    [0.0, -1.0, 0.0, 103.0],
    [1.0, 0.0, 0.0, 0.0],
    [0.0, 0.0, 1.0, 0.0],
    [0.0, 0.0, 0.0, 1.0]
],
  "dcmmeta_shape": [104, 104, 60, 426],
  "dcmmeta_slice_dim": 2,
  "dcmmeta_version": 0.6,
  "global": {
    "const": {
      "AcquisitionMatrix": [104, 0, 0, 104],
      "AngioFlag": "N",
      "BitsAllocated": 16,
      "BitsStored": 16,
      "BodyPartExamined": "BRAIN",
      "Columns": 832,
      "EchoNumbers": 1,
      "EchoTime": 37.0,
      "EchoTrainLength": 104,
      "FlipAngle": 52.0,
      "HighBit": 15,
      "ImageOrientationPatient": [0.99986332034195, -0.0162978576155, 0.00277857371971, 0.01623078855586, 0.93563623901671, -0.3525923846902],
      "ImagePositionPatient": [-847.92332887451, -797.01187066715, 257.23568444692],
      "ImageType": [
        "ORIGINAL",
        "PRIMARY",
        "M",
        "MB",
        "ND",
        "MOSAIC"
],
      "ImagedNucleus": "1H",
      "ImagingFrequency": 123.258776,
      "InPlanePhaseEncodingDirection": "COL",
      "MRAcquisitionType": "2D",
      "MagneticFieldStrength": 3.0,
      "Manufacturer": "SIEMENS",
      "ManufacturerModelName": "Prisma_fit",
      "Modality": "MR",
      "NumberOfAverages": 1.0,
      "NumberOfPhaseEncodingSteps": 104,
      "PercentPhaseFieldOfView": 100.0,
      "PercentSampling": 100.0,
      "PerformedProcedureStepStartTime": "154138.941000",
      "PhotometricInterpretation": "MONOCHROME2",
      "PixelBandwidth": 2290.0,
      "PixelRepresentation": 0,
      "PixelSpacing": [2.0, 2.0],
      "ProtocolName": "func_task-mario3_run-03",
      "RepetitionTime": 1490.0,
      "Rows": 832,
      "SAR": 0.04770871465276,
      "SamplesPerPixel": 1,
      "ScanOptions": "FS",
      "ScanningSequence": "EP",
      "SequenceName": "epfid2d1_104",
      "SequenceVariant": [
        "SK",
        "SS"
],
      "SeriesDescription": "func_task-mario3_run-03",
      "SeriesNumber": 16,
      "SeriesTime": "160638.654000",
      "SliceLocation": -42.971888609978,
      "SliceThickness": 2.0,
      "SmallestImagePixelValue": 0,
      "SoftwareVersions": "syngo MR E11",
      "SpacingBetweenSlices": 2.0000000103803,
      "SpecificCharacterSet": "ISO_IR 100",
      "StudyID": "1",
      "StudyTime": "154138.864000",
      "TransmitCoilName": "Body",
      "VariableFlipAngleFlag": "N",
      "WindowCenterWidthExplanation": "Algo1",
      "dBdt": 0.0},
    "slices": {}
  },
  "time": {
    "samples": {
      "AcquisitionNumber": [1, 2, 3, 4, 5, 6, 7, 8, 9, 10, 11, 12, 13, 14, 15, 16, 17, 18, 19, 20, 21, 22, 23, 24, 25, 26, 27, 28, 29, 30, 31, 32, 33, 34, 35, 36, 37, 38, 39, 40, 41, 42, 43, 44, 45, 46, 47, 48, 49, 50, 51, 52, 53, 54, 55, 56, 57, 58, 59, 60, 61, 62, 63, 64, 65, 66, 67, 68, 69, 70, 71, 72, 73, 74, 75, 76, 77, 78, 79, 80, 81, 82, 83, 84, 85, 86, 87, 88, 89, 90, 91, 92, 93, 94, 95, 96, 97, 98, 99, 100, 101, 102, 103, 104, 105, 106, 107, 108, 109, 110, 111, 112, 113, 114, 115, 116, 117, 118, 119, 120, 121, 122, 123, 124, 125, 126, 127, 128, 129, 130, 131, 132, 133, 134, 135, 136, 137, 138, 139, 140, 141, 142, 143, 144, 145, 146, 147, 148, 149, 150, 151, 152, 153, 154, 155, 156, 157, 158, 159, 160, 161, 162, 163, 164, 165, 166, 167, 168, 169, 170, 171, 172, 173, 174, 175, 176, 177, 178, 179, 180, 181, 182, 183, 184, 185, 186, 187, 188, 189, 190, 191, 192, 193, 194, 195, 196, 197, 198, 199, 200, 201, 202, 203, 204, 205, 206, 207, 208, 209, 210, 211, 212, 213, 214, 215, 216, 217, 218, 219, 220, 221, 222, 223, 224, 225, 226, 227, 228, 229, 230, 231, 232, 233, 234, 235, 236, 237, 238, 239, 240, 241, 242, 243, 244, 245, 246, 247, 248, 249, 250, 251, 252, 253, 254, 255, 256, 257, 258, 259, 260, 261, 262, 263, 264, 265, 266, 267, 268, 269, 270, 271, 272, 273, 274, 275, 276, 277, 278, 279, 280, 281, 282, 283, 284, 285, 286, 287, 288, 289, 290, 291, 292, 293, 294, 295, 296, 297, 298, 299, 300, 301, 302, 303, 304, 305, 306, 307, 308, 309, 310, 311, 312, 313, 314, 315, 316, 317, 318, 319, 320, 321, 322, 323, 324, 325, 326, 327, 328, 329, 330, 331, 332, 333, 334, 335, 336, 337, 338, 339, 340, 341, 342, 343, 344, 345, 346, 347, 348, 349, 350, 351, 352, 353, 354, 355, 356, 357, 358, 359, 360, 361, 362, 363, 364, 365, 366, 367, 368, 369, 370, 371, 372, 373, 374, 375, 376, 377, 378, 379, 380, 381, 382, 383, 384, 385, 386, 387, 388, 389, 390, 391, 392, 393, 394, 395, 396, 397, 398, 399, 400, 401, 402, 403, 404, 405, 406, 407, 408, 409, 410, 411, 412, 413, 414, 415, 416, 417, 418, 419, 420, 421, 422, 423, 424, 425, 426],
      "AcquisitionTime": ["160531.080000", "160532.570000", "160534.060000", "160535.550000", "160537.040000", "160538.530000", "160540.020000", "160541.510000", "160543.000000", "160544.490000", "160545.980000", "160547.470000", "160548.960000", "160550.450000", "160551.940000", "160553.430000", "160554.920000", "160556.410000", "160557.900000", "160559.390000", "160600.880000", "160602.370000", "160603.860000", "160605.350000", "160606.840000", "160608.330000", "160609.820000", "160611.310000", "160612.800000", "160614.290000", "160615.780000", "160617.270000", "160618.760000", "160620.250000", "160621.740000", "160623.230000", "160624.720000", "160626.210000", "160627.700000", "160629.190000", "160630.680000", "160632.170000", "160633.660000", "160635.150000", "160636.640000", "160638.130000", "160639.620000", "160641.110000", "160642.600000", "160644.090000", "160645.580000", "160647.070000", "160648.560000", "160650.050000", "160651.540000", "160653.030000", "160654.520000", "160656.010000", "160657.500000", "160658.990000", "160700.480000", "160701.970000", "160703.460000", "160704.950000", "160706.440000", "160707.930000", "160709.420000", "160710.910000", "160712.400000", "160713.890000", "160715.380000", "160716.870000", "160718.360000", "160719.850000", "160721.340000", "160722.830000", "160724.320000", "160725.810000", "160727.300000", "160728.790000", "160730.280000", "160731.770000", "160733.260000", "160734.750000", "160736.240000", "160737.730000", "160739.220000", "160740.710000", "160742.200000", "160743.690000", "160745.180000", "160746.670000", "160748.160000", "160749.650000", "160751.140000", "160752.630000", "160754.120000", "160755.610000", "160757.100000", "160758.590000", "160800.080000", "160801.570000", "160803.060000", "160804.550000", "160806.040000", "160807.530000", "160809.020000", "160810.510000", "160812.000000", "160813.490000", "160814.980000", "160816.470000", "160817.960000", "160819.450000", "160820.940000", "160822.430000", "160823.920000", "160825.410000", "160826.900000", "160828.390000", "160829.880000", "160831.370000", "160832.860000", "160834.350000", "160835.840000", "160837.330000", "160838.820000", "160840.310000", "160841.800000", "160843.290000", "160844.780000", "160846.270000", "160847.760000", "160849.250000", "160850.740000", "160852.230000", "160853.720000", "160855.210000", "160856.700000", "160858.190000", "160859.680000", "160901.170000", "160902.660000", "160904.150000", "160905.640000", "160907.130000", "160908.620000", "160910.110000", "160911.600000", "160913.090000", "160914.580000", "160916.070000", "160917.560000", "160919.050000", "160920.540000", "160922.030000", "160923.520000", "160925.010000", "160926.500000", "160927.990000", "160929.480000", "160930.970000", "160932.460000", "160933.950000", "160935.440000", "160936.930000", "160938.420000", "160939.910000", "160941.400000", "160942.890000", "160944.380000", "160945.870000", "160947.360000", "160948.850000", "160950.340000", "160951.830000", "160953.320000", "160954.810000", "160956.300000", "160957.790000", "160959.280000", "161000.770000", "161002.260000", "161003.750000", "161005.240000", "161006.730000", "161008.220000", "161009.710000", "161011.200000", "161012.690000", "161014.180000", "161015.670000", "161017.160000", "161018.650000", "161020.140000", "161021.630000", "161023.120000", "161024.610000", "161026.100000", "161027.590000", "161029.080000", "161030.570000", "161032.060000", "161033.550000", "161035.040000", "161036.530000", "161038.020000", "161039.510000", "161041.000000", "161042.490000", "161043.980000", "161045.470000", "161046.960000", "161048.450000", "161049.940000", "161051.430000", "161052.920000", "161054.410000", "161055.900000", "161057.390000", "161058.880000", "161100.370000", "161101.860000", "161103.350000", "161104.840000", "161106.330000", "161107.820000", "161109.310000", "161110.800000", "161112.290000", "161113.780000", "161115.270000", "161116.760000", "161118.250000", "161119.740000", "161121.230000", "161122.720000", "161124.210000", "161125.700000", "161127.190000", "161128.680000", "161130.170000", "161131.660000", "161133.150000", "161134.640000", "161136.130000", "161137.620000", "161139.110000", "161140.600000", "161142.090000", "161143.580000", "161145.070000", "161146.560000", "161148.050000", "161149.540000", "161151.030000", "161152.520000", "161154.010000", "161155.500000", "161156.990000", "161158.480000", "161159.970000", "161201.460000", "161202.950000", "161204.440000", "161205.930000", "161207.420000", "161208.910000", "161210.400000", "161211.890000", "161213.380000", "161214.870000", "161216.360000", "161217.850000", "161219.340000", "161220.830000", "161222.320000", "161223.810000", "161225.300000", "161226.790000", "161228.280000", "161229.770000", "161231.260000", "161232.750000", "161234.240000", "161235.730000", "161237.220000", "161238.710000", "161240.200000", "161241.690000", "161243.180000", "161244.670000", "161246.160000", "161247.650000", "161249.140000", "161250.630000", "161252.120000", "161253.610000", "161255.100000", "161256.590000", "161258.080000", "161259.570000", "161301.060000", "161302.550000", "161304.040000", "161305.530000", "161307.020000", "161308.510000", "161310.000000", "161311.490000", "161312.980000", "161314.470000", "161315.960000", "161317.450000", "161318.940000", "161320.430000", "161321.920000", "161323.410000", "161324.900000", "161326.390000", "161327.880000", "161329.370000", "161330.860000", "161332.350000", "161333.840000", "161335.330000", "161336.820000", "161338.310000", "161339.800000", "161341.290000", "161342.780000", "161344.270000", "161345.760000", "161347.250000", "161348.740000", "161350.230000", "161351.720000", "161353.210000", "161354.700000", "161356.190000", "161357.680000", "161359.170000", "161400.660000", "161402.150000", "161403.640000", "161405.130000", "161406.620000", "161408.110000", "161409.600000", "161411.090000", "161412.580000", "161414.070000", "161415.560000", "161417.050000", "161418.540000", "161420.030000", "161421.520000", "161423.010000", "161424.500000", "161425.990000", "161427.480000", "161428.970000", "161430.460000", "161431.950000", "161433.440000", "161434.930000", "161436.420000", "161437.910000", "161439.400000", "161440.890000", "161442.380000", "161443.870000", "161445.360000", "161446.850000", "161448.340000", "161449.830000", "161451.320000", "161452.810000", "161454.300000", "161455.790000", "161457.280000", "161458.770000", "161500.260000", "161501.750000", "161503.240000", "161504.730000", "161506.220000", "161507.710000", "161509.200000", "161510.690000", "161512.180000", "161513.670000", "161515.160000", "161516.650000", "161518.140000", "161519.630000", "161521.120000", "161522.610000", "161524.100000", "161525.590000", "161527.080000", "161528.570000", "161530.060000", "161531.550000", "161533.040000", "161534.530000", "161536.020000", "161537.510000", "161539.000000", "161540.490000", "161541.980000", "161543.470000", "161544.960000", "161546.450000", "161547.940000", "161549.430000", "161550.920000", "161552.410000", "161553.900000", "161555.390000", "161556.880000", "161558.370000", "161559.860000", "161601.350000", "161602.840000", "161604.330000"],
      "ContentTime": ["160638.658000", "160638.662000", "160638.665000", "160638.668000", "160638.672000", "160638.675000", "160638.679000", "160638.682000", "160638.686000", "160638.689000", "160638.692000", "160638.696000", "160638.699000", "160638.708000", "160638.711000", "160638.715000", "160638.718000", "160638.721000", "160638.725000", "160638.728000", "160658.612000", "160658.616000", "160658.619000", "160658.623000", "160658.626000", "160658.629000", "160658.633000", "160658.636000", "160658.640000", "160658.643000", "160658.646000", "160658.650000", "160658.653000", "160658.656000", "160658.660000", "160658.668000", "160658.672000", "160658.675000", "160658.678000", "160658.682000", "160718.613000", "160718.619000", "160718.622000", "160718.626000", "160718.629000", "160718.632000", "160718.636000", "160718.639000", "160718.643000", "160718.646000", "160718.649000", "160718.652000", "160718.656000", "160718.659000", "160718.663000", "160718.666000", "160718.669000", "160718.673000", "160718.676000", "160718.680000", "160718.683000", "160738.611000", "160738.615000", "160738.618000", "160738.622000", "160738.625000", "160738.643000", "160738.646000", "160738.649000", "160738.653000", "160738.656000", "160738.660000", "160738.663000", "160738.666000", "160738.670000", "160738.673000", "160738.676000", "160738.680000", "160738.683000", "160738.686000", "160738.690000", "160818.611000", "160818.615000", "160818.618000", "160818.622000", "160818.625000", "160818.629000", "160818.632000", "160818.635000", "160818.639000", "160818.642000", "160818.646000", "160818.649000", "160818.652000", "160818.656000", "160818.659000", "160818.663000", "160818.666000", "160818.669000", "160818.673000", "160818.676000", "160818.680000", "160818.683000", "160818.686000", "160818.690000", "160818.693000", "160818.696000", "160818.700000", "160818.703000", "160818.707000", "160818.710000", "160818.714000", "160858.612000", "160858.616000", "160858.619000", "160858.623000", "160858.626000", "160858.629000", "160858.633000", "160858.636000", "160858.640000", "160858.643000", "160858.646000", "160858.650000", "160858.653000", "160858.656000", "160858.660000", "160858.663000", "160858.667000", "160858.670000", "160858.673000", "160858.677000", "160858.680000", "160858.684000", "160858.687000", "160858.690000", "160858.694000", "160858.697000", "160858.701000", "160938.612000", "160938.616000", "160938.619000", "160938.623000", "160938.626000", "160938.630000", "160938.633000", "160938.636000", "160938.640000", "160938.643000", "160938.647000", "160938.650000", "160938.653000", "160938.657000", "160938.660000", "160938.664000", "160938.670000", "160938.673000", "160938.676000", "160938.680000", "160938.683000", "160938.686000", "160938.690000", "160938.693000", "160938.697000", "160938.700000", "160938.704000", "161018.611000", "161018.615000", "161018.618000", "161018.622000", "161018.625000", "161018.629000", "161018.632000", "161018.635000", "161018.639000", "161018.642000", "161018.646000", "161018.649000", "161018.652000", "161018.656000", "161018.659000", "161018.663000", "161018.666000", "161018.669000", "161018.673000", "161018.676000", "161018.680000", "161018.683000", "161018.686000", "161018.690000", "161018.694000", "161018.697000", "161058.612000", "161058.616000", "161058.619000", "161058.623000", "161058.626000", "161058.630000", "161058.633000", "161058.636000", "161058.640000", "161058.643000", "161058.647000", "161058.650000", "161058.654000", "161058.657000", "161058.660000", "161058.664000", "161058.667000", "161058.670000", "161058.674000", "161058.677000", "161058.681000", "161058.684000", "161058.688000", "161058.691000", "161058.694000", "161058.698000", "161058.701000", "161138.612000", "161138.616000", "161138.619000", "161138.623000", "161138.626000", "161138.630000", "161138.633000", "161138.636000", "161138.640000", "161138.643000", "161138.647000", "161138.650000", "161138.653000", "161138.657000", "161138.660000", "161138.663000", "161138.667000", "161138.670000", "161138.674000", "161138.677000", "161138.680000", "161138.684000", "161138.687000", "161138.691000", "161138.694000", "161138.697000", "161138.701000", "161158.612000", "161158.616000", "161158.619000", "161158.623000", "161158.626000", "161158.630000", "161158.633000", "161158.636000", "161158.640000", "161158.644000", "161158.648000", "161158.652000", "161158.655000", "161238.625000", "161238.629000", "161238.632000", "161238.636000", "161238.639000", "161238.642000", "161238.646000", "161238.649000", "161238.653000", "161238.656000", "161238.659000", "161238.663000", "161238.666000", "161238.670000", "161238.673000", "161238.677000", "161238.680000", "161238.683000", "161238.687000", "161238.690000", "161238.694000", "161238.697000", "161238.700000", "161238.704000", "161238.707000", "161238.711000", "161238.714000", "161318.612000", "161318.616000", "161318.620000", "161318.623000", "161318.626000", "161318.630000", "161318.633000", "161318.637000", "161318.640000", "161318.643000", "161318.647000", "161318.650000", "161318.653000", "161318.657000", "161318.660000", "161318.664000", "161318.667000", "161318.670000", "161318.674000", "161318.677000", "161318.680000", "161318.684000", "161318.687000", "161318.691000", "161318.694000", "161318.698000", "161318.701000", "161358.612000", "161358.616000", "161358.619000", "161358.623000", "161358.626000", "161358.630000", "161358.633000", "161358.637000", "161358.640000", "161358.643000", "161358.647000", "161358.650000", "161358.654000", "161358.657000", "161358.660000", "161358.664000", "161358.667000", "161358.671000", "161358.674000", "161358.677000", "161358.681000", "161358.684000", "161358.688000", "161358.691000", "161358.694000", "161358.698000", "161358.701000", "161438.611000", "161438.615000", "161438.619000", "161438.622000", "161438.625000", "161438.629000", "161438.632000", "161438.635000", "161438.639000", "161438.642000", "161438.646000", "161438.667000", "161438.671000", "161438.674000", "161438.689000", "161438.693000", "161438.696000", "161438.700000", "161438.703000", "161438.706000", "161438.710000", "161438.713000", "161438.717000", "161438.720000", "161438.723000", "161438.727000", "161438.730000", "161518.611000", "161518.615000", "161518.619000", "161518.622000", "161518.626000", "161518.629000", "161518.634000", "161518.637000", "161518.641000", "161518.644000", "161518.648000", "161518.651000", "161518.654000", "161518.658000", "161518.661000", "161518.664000", "161518.668000", "161518.671000", "161518.675000", "161518.678000", "161518.681000", "161518.685000", "161518.688000", "161518.692000", "161518.695000", "161518.698000", "161518.702000", "161558.612000", "161558.616000", "161558.619000", "161558.623000", "161558.626000", "161558.629000", "161558.633000", "161558.636000", "161558.640000", "161558.643000", "161558.646000", "161558.650000", "161558.653000", "161558.656000", "161558.660000", "161558.663000", "161558.667000", "161558.670000", "161558.673000", "161558.677000", "161558.680000", "161558.684000", "161558.687000", "161558.690000", "161558.694000", "161558.697000", "161558.700000", "161606.128000", "161606.132000", "161606.136000", "161606.139000", "161606.152000"],
      "InstanceCreationTime": ["160638.658000", "160638.662000", "160638.665000", "160638.668000", "160638.672000", "160638.675000", "160638.679000", "160638.682000", "160638.686000", "160638.689000", "160638.692000", "160638.696000", "160638.699000", "160638.708000", "160638.711000", "160638.715000", "160638.718000", "160638.721000", "160638.725000", "160638.728000", "160658.612000", "160658.616000", "160658.619000", "160658.623000", "160658.626000", "160658.629000", "160658.633000", "160658.636000", "160658.640000", "160658.643000", "160658.646000", "160658.650000", "160658.653000", "160658.656000", "160658.660000", "160658.668000", "160658.672000", "160658.675000", "160658.678000", "160658.682000", "160718.613000", "160718.619000", "160718.622000", "160718.626000", "160718.629000", "160718.632000", "160718.636000", "160718.639000", "160718.643000", "160718.646000", "160718.649000", "160718.652000", "160718.656000", "160718.659000", "160718.663000", "160718.666000", "160718.669000", "160718.673000", "160718.676000", "160718.680000", "160718.683000", "160738.611000", "160738.615000", "160738.618000", "160738.622000", "160738.625000", "160738.643000", "160738.646000", "160738.649000", "160738.653000", "160738.656000", "160738.660000", "160738.663000", "160738.666000", "160738.670000", "160738.673000", "160738.676000", "160738.680000", "160738.683000", "160738.686000", "160738.690000", "160818.611000", "160818.615000", "160818.618000", "160818.622000", "160818.625000", "160818.629000", "160818.632000", "160818.635000", "160818.639000", "160818.642000", "160818.646000", "160818.649000", "160818.652000", "160818.656000", "160818.659000", "160818.663000", "160818.666000", "160818.669000", "160818.673000", "160818.676000", "160818.680000", "160818.683000", "160818.686000", "160818.690000", "160818.693000", "160818.696000", "160818.700000", "160818.703000", "160818.707000", "160818.710000", "160818.714000", "160858.612000", "160858.616000", "160858.619000", "160858.623000", "160858.626000", "160858.629000", "160858.633000", "160858.636000", "160858.640000", "160858.643000", "160858.646000", "160858.650000", "160858.653000", "160858.656000", "160858.660000", "160858.663000", "160858.667000", "160858.670000", "160858.673000", "160858.677000", "160858.680000", "160858.684000", "160858.687000", "160858.690000", "160858.694000", "160858.697000", "160858.701000", "160938.612000", "160938.616000", "160938.619000", "160938.623000", "160938.626000", "160938.630000", "160938.633000", "160938.636000", "160938.640000", "160938.643000", "160938.647000", "160938.650000", "160938.653000", "160938.657000", "160938.660000", "160938.664000", "160938.670000", "160938.673000", "160938.676000", "160938.680000", "160938.683000", "160938.686000", "160938.690000", "160938.693000", "160938.697000", "160938.700000", "160938.704000", "161018.611000", "161018.615000", "161018.618000", "161018.622000", "161018.625000", "161018.629000", "161018.632000", "161018.635000", "161018.639000", "161018.642000", "161018.646000", "161018.649000", "161018.652000", "161018.656000", "161018.659000", "161018.663000", "161018.666000", "161018.669000", "161018.673000", "161018.676000", "161018.680000", "161018.683000", "161018.686000", "161018.690000", "161018.694000", "161018.697000", "161058.612000", "161058.616000", "161058.619000", "161058.623000", "161058.626000", "161058.630000", "161058.633000", "161058.636000", "161058.640000", "161058.643000", "161058.647000", "161058.650000", "161058.654000", "161058.657000", "161058.660000", "161058.664000", "161058.667000", "161058.670000", "161058.674000", "161058.677000", "161058.681000", "161058.684000", "161058.688000", "161058.691000", "161058.694000", "161058.698000", "161058.701000", "161138.612000", "161138.616000", "161138.619000", "161138.623000", "161138.626000", "161138.630000", "161138.633000", "161138.636000", "161138.640000", "161138.643000", "161138.647000", "161138.650000", "161138.653000", "161138.657000", "161138.660000", "161138.663000", "161138.667000", "161138.670000", "161138.674000", "161138.677000", "161138.680000", "161138.684000", "161138.687000", "161138.691000", "161138.694000", "161138.697000", "161138.701000", "161158.612000", "161158.616000", "161158.619000", "161158.623000", "161158.626000", "161158.630000", "161158.633000", "161158.636000", "161158.640000", "161158.644000", "161158.648000", "161158.652000", "161158.655000", "161238.625000", "161238.629000", "161238.632000", "161238.636000", "161238.639000", "161238.642000", "161238.646000", "161238.649000", "161238.653000", "161238.656000", "161238.659000", "161238.663000", "161238.666000", "161238.670000", "161238.673000", "161238.677000", "161238.680000", "161238.683000", "161238.687000", "161238.690000", "161238.694000", "161238.697000", "161238.700000", "161238.704000", "161238.707000", "161238.711000", "161238.714000", "161318.612000", "161318.616000", "161318.620000", "161318.623000", "161318.626000", "161318.630000", "161318.633000", "161318.637000", "161318.640000", "161318.643000", "161318.647000", "161318.650000", "161318.653000", "161318.657000", "161318.660000", "161318.664000", "161318.667000", "161318.670000", "161318.674000", "161318.677000", "161318.680000", "161318.684000", "161318.687000", "161318.691000", "161318.694000", "161318.698000", "161318.701000", "161358.612000", "161358.616000", "161358.619000", "161358.623000", "161358.626000", "161358.630000", "161358.633000", "161358.637000", "161358.640000", "161358.643000", "161358.647000", "161358.650000", "161358.654000", "161358.657000", "161358.660000", "161358.664000", "161358.667000", "161358.671000", "161358.674000", "161358.677000", "161358.681000", "161358.684000", "161358.688000", "161358.691000", "161358.694000", "161358.698000", "161358.701000", "161438.611000", "161438.615000", "161438.619000", "161438.622000", "161438.625000", "161438.629000", "161438.632000", "161438.635000", "161438.639000", "161438.642000", "161438.646000", "161438.667000", "161438.671000", "161438.674000", "161438.689000", "161438.693000", "161438.696000", "161438.700000", "161438.703000", "161438.706000", "161438.710000", "161438.713000", "161438.717000", "161438.720000", "161438.723000", "161438.727000", "161438.730000", "161518.611000", "161518.615000", "161518.619000", "161518.622000", "161518.626000", "161518.629000", "161518.634000", "161518.637000", "161518.641000", "161518.644000", "161518.648000", "161518.651000", "161518.654000", "161518.658000", "161518.661000", "161518.664000", "161518.668000", "161518.671000", "161518.675000", "161518.678000", "161518.681000", "161518.685000", "161518.688000", "161518.692000", "161518.695000", "161518.698000", "161518.702000", "161558.612000", "161558.616000", "161558.619000", "161558.623000", "161558.626000", "161558.629000", "161558.633000", "161558.636000", "161558.640000", "161558.643000", "161558.646000", "161558.650000", "161558.653000", "161558.656000", "161558.660000", "161558.663000", "161558.667000", "161558.670000", "161558.673000", "161558.677000", "161558.680000", "161558.684000", "161558.687000", "161558.690000", "161558.694000", "161558.697000", "161558.700000", "161606.128000", "161606.132000", "161606.136000", "161606.139000", "161606.152000"],
