{
  "AcquisitionMatrixPE": 104,
  "AcquisitionNumber": 1,
  "AcquisitionTime": "19:42:29.080000",
  "BandwidthPerPixelPhaseEncode": 17.17,
  "BaseResolution": 104,
  "BodyPartExamined": "BRAIN",
  "CoilCombinationMethod": "Sum of Squares",
  "ConsistencyInfo": "N4_VE11C_LATEST_20160120",
  "ConversionSoftware": "dcm2niix",
  "ConversionSoftwareVersion": "v1.0.20220505",
  "DerivedVendorReportedEchoSpacing": 0.000560011,
  "DeviceSerialNumber": "167006",
  "DwellTime": 2.1e-06,
  "EchoTime": 0.037,
  "EchoTime1": 0.037,
  "EchoTime2": 0.001,
  "EchoTrainLength": 104,
  "EffectiveEchoSpacing": 0.000560011,
  "FlipAngle": 52,
  "HeudiconvVersion": "0.5.3.post811+g6206e14",
  "ImageComments": "Unaliased MB4/PE3/LB",
  "ImageOrientationPatientDICOM": [0.99943, -0.0337242, 0.00171381, 0.0319322, 0.92738, -0.372756],
  "ImageOrientationText": "Tra>Cor(-21.9)>Sag(-0.6)",
  "ImageType": [
    "ORIGINAL",
    "PRIMARY",
    "P",
    "MB",
    "ND",
    "MOSAIC",
    "PHASE"
],
  "ImagingFrequency": 123.259,
  "InPlanePhaseEncodingDirectionDICOM": "COL",
  "InstitutionAddress": "Chemin Queen-Mary 4565,Montreal,District,CA,H3W 1W5",
  "InstitutionName": "IUGM",
  "InstitutionalDepartmentName": "Department",
  "MRAcquisitionType": "2D",
  "MagneticFieldStrength": 3,
  "Manufacturer": "Siemens",
  "ManufacturersModelName": "Prisma_fit",
  "MatrixCoilMode": "SENSE",
  "Modality": "MR",
  "MultibandAccelerationFactor": 4,
  "PartialFourier": 1,
  "PatientPosition": "HFS",
  "PercentPhaseFOV": 100,
  "PercentSampling": 100,
  "PhaseEncodingDirection": "j",
  "PhaseEncodingSteps": 104,
  "PhaseResolution": 1,
  "PixelBandwidth": 2290,
  "ProcedureStepDescription": "games^mario3",
  "ProtocolName": "func_task-mario3_run-04",
  "PulseSequenceDetails": "%CustomerSeq%\\cmrr_mbep2d_bold",
  "ReceiveCoilActiveElements": "HC1-7;NC1,2",
  "ReceiveCoilName": "HeadNeck_64",
  "ReconMatrixPE": 104,
  "RepetitionTime": 1.49,
  "SAR": 0.0726219,
  "ScanOptions": "FS",
  "ScanningSequence": "EP",
  "SequenceName": "epfid2d1_104",
  "SequenceVariant": "SK\\SS",
  "SeriesDescription": "func_task-mario3_run-04",
  "SeriesNumber": 20,
  "ShimSetting": [589, -7297, -8821, 389, 47, -370, -32, 109],
  "SliceThickness": 2,
  "SliceTiming": [0, 0.785, 0.1, 0.8825, 0.1975, 0.98, 0.295, 1.0775, 0.3925, 1.1775, 0.49, 1.275, 0.59, 1.3725, 0.6875, 0, 0.785, 0.1, 0.8825, 0.1975, 0.98, 0.295, 1.0775, 0.3925, 1.1775, 0.49, 1.275, 0.59, 1.3725, 0.6875, 0, 0.785, 0.1, 0.8825, 0.1975, 0.98, 0.295, 1.0775, 0.3925, 1.1775, 0.49, 1.275, 0.59, 1.3725, 0.6875, 0, 0.785, 0.1, 0.8825, 0.1975, 0.98, 0.295, 1.0775, 0.3925, 1.1775, 0.49, 1.275, 0.59, 1.3725, 0.6875],
  "SoftwareVersions": "syngo MR E11",
  "SpacingBetweenSlices": 2,
  "StationName": "MRC35049",
  "TaskName": "mario3",
  "TotalReadoutTime": 0.0576811,
  "TxRefAmp": 286.202,
  "WipMemBlock": "cc853b59-d3a2-4f09-8043-cc1bff975e2f||Sequence: R017 ve11c/master r/75a17815+; Jun 28 2022 16:32:11 by eja",
  "dcmmeta_affine": [
    [-1.9988594055175781, 0.0638643205165863, -0.021963054314255714, 102.03355407714844],
    [0.06744834035634995, 1.854759693145752, -0.7451959252357483, -71.11678314208984],
    [0.003427620977163315, 0.7455116510391235, 1.8558557033538818, -63.947078704833984],
    [0.0, 0.0, 0.0, 1.0]
],
  "dcmmeta_reorient_transform": [
    [0.0, -1.0, 0.0, 103.0],
    [1.0, 0.0, 0.0, 0.0],
    [0.0, 0.0, 1.0, 0.0],
    [0.0, 0.0, 0.0, 1.0]
],
  "dcmmeta_shape": [104, 104, 60, 334],
  "dcmmeta_slice_dim": 2,
  "dcmmeta_version": 0.6,
  "global": {
    "const": {
      "AcquisitionMatrix": [104, 0, 0, 104],
      "AngioFlag": "N",
      "BitsAllocated": 16,
      "BitsStored": 16,
      "BodyPartExamined": "BRAIN",
      "Columns": 832,
      "EchoNumbers": 1,
      "EchoTime": 37.0,
      "EchoTrainLength": 104,
      "FlipAngle": 52.0,
      "HighBit": 15,
      "ImageOrientationPatient": [0.99942970901494, -0.0337241692554, 0.0017138104756, 0.03193215918105, 0.92737987001826, -0.3727558368355],
      "ImagePositionPatient": [-859.44301940742, -770.50482321661, 282.95922041755],
      "ImageType": [
        "ORIGINAL",
        "PRIMARY",
        "P",
        "MB",
        "ND",
        "MOSAIC"
],
      "ImagedNucleus": "1H",
      "ImagingFrequency": 123.259012,
      "InPlanePhaseEncodingDirection": "COL",
      "LargestImagePixelValue": 4095,
      "MRAcquisitionType": "2D",
      "MagneticFieldStrength": 3.0,
      "Manufacturer": "SIEMENS",
      "ManufacturerModelName": "Prisma_fit",
      "Modality": "MR",
      "NumberOfAverages": 1.0,
      "NumberOfPhaseEncodingSteps": 104,
      "PercentPhaseFieldOfView": 100.0,
      "PercentSampling": 100.0,
      "PerformedProcedureStepStartTime": "190210.893000",
      "PhotometricInterpretation": "MONOCHROME2",
      "PixelBandwidth": 2290.0,
      "PixelRepresentation": 0,
      "PixelSpacing": [2.0, 2.0],
      "ProtocolName": "func_task-mario3_run-04",
      "RepetitionTime": 1490.0,
      "RescaleIntercept": -4096.0,
      "RescaleSlope": 2.0,
      "RescaleType": "US",
      "Rows": 832,
      "SAR": 0.07262192526291,
      "SamplesPerPixel": 1,
      "ScanOptions": "FS",
      "ScanningSequence": "EP",
      "SequenceName": "epfid2d1_104",
      "SequenceVariant": [
        "SK",
        "SS"
],
      "SeriesDescription": "func_task-mario3_run-04",
      "SeriesNumber": 20,
      "SeriesTime": "194349.269000",
      "SliceLocation": -33.960791123595,
      "SliceThickness": 2.0,
      "SmallestImagePixelValue": 0,
      "SoftwareVersions": "syngo MR E11",
      "SpacingBetweenSlices": 1.9999999497839,
      "SpecificCharacterSet": "ISO_IR 100",
      "StudyID": "1",
      "StudyTime": "190210.823000",
      "TransmitCoilName": "Body",
      "VariableFlipAngleFlag": "N",
      "WindowCenterWidthExplanation": "Algo1",
      "dBdt": 0.0},
    "slices": {}
  },
  "time": {
    "samples": {
      "AcquisitionNumber": [1, 2, 3, 4, 5, 6, 7, 8, 9, 10, 11, 12, 13, 14, 15, 16, 17, 18, 19, 20, 21, 22, 23, 24, 25, 26, 27, 28, 29, 30, 31, 32, 33, 34, 35, 36, 37, 38, 39, 40, 41, 42, 43, 44, 45, 46, 47, 48, 49, 50, 51, 52, 53, 54, 55, 56, 57, 58, 59, 60, 61, 62, 63, 64, 65, 66, 67, 68, 69, 70, 71, 72, 73, 74, 75, 76, 77, 78, 79, 80, 81, 82, 83, 84, 85, 86, 87, 88, 89, 90, 91, 92, 93, 94, 95, 96, 97, 98, 99, 100, 101, 102, 103, 104, 105, 106, 107, 108, 109, 110, 111, 112, 113, 114, 115, 116, 117, 118, 119, 120, 121, 122, 123, 124, 125, 126, 127, 128, 129, 130, 131, 132, 133, 134, 135, 136, 137, 138, 139, 140, 141, 142, 143, 144, 145, 146, 147, 148, 149, 150, 151, 152, 153, 154, 155, 156, 157, 158, 159, 160, 161, 162, 163, 164, 165, 166, 167, 168, 169, 170, 171, 172, 173, 174, 175, 176, 177, 178, 179, 180, 181, 182, 183, 184, 185, 186, 187, 188, 189, 190, 191, 192, 193, 194, 195, 196, 197, 198, 199, 200, 201, 202, 203, 204, 205, 206, 207, 208, 209, 210, 211, 212, 213, 214, 215, 216, 217, 218, 219, 220, 221, 222, 223, 224, 225, 226, 227, 228, 229, 230, 231, 232, 233, 234, 235, 236, 237, 238, 239, 240, 241, 242, 243, 244, 245, 246, 247, 248, 249, 250, 251, 252, 253, 254, 255, 256, 257, 258, 259, 260, 261, 262, 263, 264, 265, 266, 267, 268, 269, 270, 271, 272, 273, 274, 275, 276, 277, 278, 279, 280, 281, 282, 283, 284, 285, 286, 287, 288, 289, 290, 291, 292, 293, 294, 295, 296, 297, 298, 299, 300, 301, 302, 303, 304, 305, 306, 307, 308, 309, 310, 311, 312, 313, 314, 315, 316, 317, 318, 319, 320, 321, 322, 323, 324, 325, 326, 327, 328, 329, 330, 331, 332, 333, 334],
      "AcquisitionTime": ["194229.080000", "194230.570000", "194232.060000", "194233.550000", "194235.040000", "194236.530000", "194238.020000", "194239.510000", "194241.000000", "194242.490000", "194243.980000", "194245.470000", "194246.960000", "194248.450000", "194249.940000", "194251.430000", "194252.920000", "194254.410000", "194255.900000", "194257.390000", "194258.880000", "194300.370000", "194301.860000", "194303.350000", "194304.840000", "194306.330000", "194307.820000", "194309.310000", "194310.800000", "194312.290000", "194313.780000", "194315.270000", "194316.760000", "194318.250000", "194319.740000", "194321.230000", "194322.720000", "194324.210000", "194325.700000", "194327.190000", "194328.680000", "194330.170000", "194331.660000", "194333.150000", "194334.640000", "194336.130000", "194337.620000", "194339.110000", "194340.600000", "194342.090000", "194343.580000", "194345.070000", "194346.560000", "194348.050000", "194349.540000", "194351.030000", "194352.520000", "194354.010000", "194355.500000", "194356.990000", "194358.480000", "194359.970000", "194401.460000", "194402.950000", "194404.440000", "194405.930000", "194407.420000", "194408.910000", "194410.400000", "194411.890000", "194413.380000", "194414.870000", "194416.360000", "194417.850000", "194419.340000", "194420.830000", "194422.320000", "194423.810000", "194425.300000", "194426.790000", "194428.280000", "194429.770000", "194431.260000", "194432.750000", "194434.240000", "194435.730000", "194437.220000", "194438.710000", "194440.200000", "194441.690000", "194443.180000", "194444.670000", "194446.160000", "194447.650000", "194449.140000", "194450.630000", "194452.120000", "194453.610000", "194455.100000", "194456.590000", "194458.080000", "194459.570000", "194501.060000", "194502.550000", "194504.040000", "194505.530000", "194507.020000", "194508.510000", "194510.000000", "194511.490000", "194512.980000", "194514.470000", "194515.960000", "194517.450000", "194518.940000", "194520.430000", "194521.920000", "194523.410000", "194524.900000", "194526.390000", "194527.880000", "194529.370000", "194530.860000", "194532.350000", "194533.840000", "194535.330000", "194536.820000", "194538.310000", "194539.800000", "194541.290000", "194542.780000", "194544.270000", "194545.760000", "194547.250000", "194548.740000", "194550.230000", "194551.720000", "194553.210000", "194554.700000", "194556.190000", "194557.680000", "194559.170000", "194600.660000", "194602.150000", "194603.640000", "194605.130000", "194606.620000", "194608.110000", "194609.600000", "194611.090000", "194612.580000", "194614.070000", "194615.560000", "194617.050000", "194618.540000", "194620.030000", "194621.520000", "194623.010000", "194624.500000", "194625.990000", "194627.480000", "194628.970000", "194630.460000", "194631.950000", "194633.440000", "194634.930000", "194636.420000", "194637.910000", "194639.400000", "194640.890000", "194642.380000", "194643.870000", "194645.360000", "194646.850000", "194648.340000", "194649.830000", "194651.320000", "194652.810000", "194654.300000", "194655.790000", "194657.280000", "194658.770000", "194700.260000", "194701.750000", "194703.240000", "194704.730000", "194706.220000", "194707.710000", "194709.200000", "194710.690000", "194712.180000", "194713.670000", "194715.160000", "194716.650000", "194718.140000", "194719.630000", "194721.120000", "194722.610000", "194724.100000", "194725.590000", "194727.080000", "194728.570000", "194730.060000", "194731.550000", "194733.040000", "194734.530000", "194736.020000", "194737.510000", "194739.000000", "194740.490000", "194741.980000", "194743.470000", "194744.960000", "194746.450000", "194747.940000", "194749.430000", "194750.920000", "194752.410000", "194753.900000", "194755.390000", "194756.880000", "194758.370000", "194759.860000", "194801.350000", "194802.840000", "194804.330000", "194805.820000", "194807.310000", "194808.800000", "194810.290000", "194811.780000", "194813.270000", "194814.760000", "194816.250000", "194817.740000", "194819.230000", "194820.720000", "194822.210000", "194823.700000", "194825.190000", "194826.680000", "194828.170000", "194829.660000", "194831.150000", "194832.640000", "194834.130000", "194835.620000", "194837.110000", "194838.600000", "194840.090000", "194841.580000", "194843.070000", "194844.560000", "194846.050000", "194847.540000", "194849.030000", "194850.520000", "194852.010000", "194853.500000", "194854.990000", "194856.480000", "194857.970000", "194859.460000", "194900.950000", "194902.440000", "194903.930000", "194905.420000", "194906.910000", "194908.400000", "194909.890000", "194911.380000", "194912.870000", "194914.360000", "194915.850000", "194917.340000", "194918.830000", "194920.320000", "194921.810000", "194923.300000", "194924.790000", "194926.280000", "194927.770000", "194929.260000", "194930.750000", "194932.240000", "194933.730000", "194935.220000", "194936.710000", "194938.200000", "194939.690000", "194941.180000", "194942.670000", "194944.160000", "194945.650000", "194947.140000", "194948.630000", "194950.120000", "194951.610000", "194953.100000", "194954.590000", "194956.080000", "194957.570000", "194959.060000", "195000.550000", "195002.040000", "195003.530000", "195005.020000", "195006.510000", "195008.000000", "195009.490000", "195010.980000", "195012.470000", "195013.960000", "195015.450000", "195016.940000", "195018.430000", "195019.920000", "195021.410000", "195022.900000", "195024.390000", "195025.880000", "195027.370000", "195028.860000", "195030.350000", "195031.840000", "195033.330000", "195034.820000", "195036.310000", "195037.800000", "195039.290000", "195040.780000", "195042.270000", "195043.760000", "195045.250000"],
      "ContentTime": ["194349.271000", "194349.274000", "194349.277000", "194349.280000", "194349.282000", "194349.285000", "194349.292000", "194349.294000", "194349.297000", "194349.300000", "194349.302000", "194349.305000", "194349.307000", "194349.310000", "194349.312000", "194349.316000", "194349.318000", "194349.321000", "194349.324000", "194349.326000", "194349.329000", "194349.331000", "194349.334000", "194349.337000", "194349.339000", "194349.342000", "194349.345000", "194349.348000", "194349.350000", "194349.353000", "194349.356000", "194408.727000", "194408.729000", "194408.732000", "194408.735000", "194408.737000", "194408.740000", "194408.742000", "194408.745000", "194408.748000", "194408.750000", "194408.753000", "194408.756000", "194408.758000", "194408.761000", "194408.763000", "194408.766000", "194408.768000", "194408.771000", "194408.774000", "194408.776000", "194428.709000", "194428.711000", "194428.714000", "194428.717000", "194428.719000", "194428.722000", "194428.725000", "194428.727000", "194428.730000", "194428.732000", "194428.735000", "194428.738000", "194428.740000", "194428.743000", "194428.745000", "194428.748000", "194428.751000", "194428.753000", "194428.756000", "194428.759000", "194448.713000", "194448.716000", "194448.719000", "194448.721000", "194448.724000", "194448.727000", "194448.729000", "194448.732000", "194448.734000", "194448.737000", "194448.739000", "194448.742000", "194448.745000", "194448.747000", "194448.750000", "194448.753000", "194448.756000", "194448.758000", "194448.761000", "194448.764000", "194448.766000", "194528.738000", "194528.741000", "194528.744000", "194528.746000", "194528.749000", "194528.751000", "194528.754000", "194528.757000", "194528.759000", "194528.762000", "194528.764000", "194528.767000", "194528.769000", "194528.772000", "194528.775000", "194528.777000", "194528.780000", "194528.783000", "194528.785000", "194528.788000", "194528.791000", "194528.793000", "194528.796000", "194528.798000", "194528.801000", "194528.804000", "194528.806000", "194608.752000", "194608.755000", "194608.758000", "194608.760000", "194608.763000", "194608.765000", "194608.768000", "194608.770000", "194608.773000", "194608.776000", "194608.778000", "194608.781000", "194608.783000", "194608.786000", "194608.788000", "194608.791000", "194608.794000", "194608.796000", "194608.799000", "194608.801000", "194608.804000", "194608.806000", "194608.809000", "194608.812000", "194608.814000", "194608.817000", "194608.820000", "194648.737000", "194648.740000", "194648.742000", "194648.745000", "194648.748000", "194648.750000", "194648.753000", "194648.755000", "194648.758000", "194648.761000", "194648.763000", "194648.766000", "194648.768000", "194648.771000", "194648.773000", "194648.776000", "194648.779000", "194648.781000", "194648.784000", "194648.786000", "194648.789000", "194648.792000", "194648.795000", "194648.798000", "194648.801000", "194648.803000", "194648.806000", "194728.739000", "194728.742000", "194728.744000", "194728.747000", "194728.750000", "194728.753000", "194728.755000", "194728.758000", "194728.768000", "194728.770000", "194728.773000", "194728.775000", "194728.778000", "194728.781000", "194728.783000", "194728.786000", "194728.789000", "194728.791000", "194728.794000", "194728.796000", "194728.799000", "194728.802000", "194728.804000", "194728.807000", "194728.809000", "194728.812000", "194728.815000", "194808.748000", "194808.750000", "194808.753000", "194808.756000", "194808.758000", "194808.761000", "194808.764000", "194808.766000", "194808.769000", "194808.771000", "194808.774000", "194808.776000", "194808.779000", "194808.782000", "194808.784000", "194808.787000", "194808.790000", "194808.792000", "194808.795000", "194808.798000", "194808.800000", "194808.803000", "194808.805000", "194808.808000", "194808.823000", "194808.825000", "194808.828000", "194848.761000", "194848.764000", "194848.766000", "194848.769000", "194848.772000", "194848.774000", "194848.777000", "194848.780000", "194848.782000", "194848.785000", "194848.788000", "194848.790000", "194848.793000", "194848.796000", "194848.798000", "194848.801000", "194848.803000", "194848.806000", "194848.809000", "194848.811000", "194848.814000", "194848.816000", "194848.819000", "194848.822000", "194848.825000", "194848.828000", "194848.831000", "194928.757000", "194928.760000", "194928.763000", "194928.765000", "194928.768000", "194928.770000", "194928.773000", "194928.776000", "194928.778000", "194928.781000", "194928.783000", "194928.786000", "194928.789000", "194928.791000", "194928.794000", "194928.797000", "194928.799000", "194928.802000", "194928.804000", "194928.807000", "194928.810000", "194928.812000", "194928.815000", "194928.818000", "194928.820000", "194928.823000", "195008.747000", "195008.750000", "195008.752000", "195008.755000", "195008.757000", "195008.760000", "195008.763000", "195008.765000", "195008.768000", "195008.771000", "195008.775000", "195008.777000", "195008.780000", "195008.782000", "195008.785000", "195008.788000", "195008.790000", "195008.793000", "195008.796000", "195008.798000", "195008.801000", "195008.803000", "195008.806000", "195008.809000", "195008.811000", "195008.814000", "195008.816000", "195048.722000", "195048.724000", "195048.727000", "195048.730000", "195048.732000", "195048.735000", "195048.737000", "195048.740000", "195048.743000", "195048.745000", "195048.748000", "195048.750000", "195048.753000", "195048.756000", "195048.758000", "195048.761000", "195048.764000", "195048.766000", "195048.769000", "195048.771000", "195048.774000", "195048.777000", "195048.779000", "195048.782000", "195048.784000", "195048.787000", "195048.790000"],
      "InstanceCreationTime": ["194349.271000", "194349.274000", "194349.277000", "194349.280000", "194349.282000", "194349.285000", "194349.292000", "194349.294000", "194349.297000", "194349.300000", "194349.302000", "194349.305000", "194349.307000", "194349.310000", "194349.312000", "194349.316000", "194349.318000", "194349.321000", "194349.324000", "194349.326000", "194349.329000", "194349.331000", "194349.334000", "194349.337000", "194349.339000", "194349.342000", "194349.345000", "194349.348000", "194349.350000", "194349.353000", "194349.356000", "194408.727000", "194408.729000", "194408.732000", "194408.735000", "194408.737000", "194408.740000", "194408.742000", "194408.745000", "194408.748000", "194408.750000", "194408.753000", "194408.756000", "194408.758000", "194408.761000", "194408.763000", "194408.766000", "194408.768000", "194408.771000", "194408.774000", "194408.776000", "194428.709000", "194428.711000", "194428.714000", "194428.717000", "194428.719000", "194428.722000", "194428.725000", "194428.727000", "194428.730000", "194428.732000", "194428.735000", "194428.738000", "194428.740000", "194428.743000", "194428.745000", "194428.748000", "194428.751000", "194428.753000", "194428.756000", "194428.759000", "194448.713000", "194448.716000", "194448.719000", "194448.721000", "194448.724000", "194448.727000", "194448.729000", "194448.732000", "194448.734000", "194448.737000", "194448.739000", "194448.742000", "194448.745000", "194448.747000", "194448.750000", "194448.753000", "194448.756000", "194448.758000", "194448.761000", "194448.764000", "194448.766000", "194528.738000", "194528.741000", "194528.744000", "194528.746000", "194528.749000", "194528.751000", "194528.754000", "194528.757000", "194528.759000", "194528.762000", "194528.764000", "194528.767000", "194528.769000", "194528.772000", "194528.775000", "194528.777000", "194528.780000", "194528.783000", "194528.785000", "194528.788000", "194528.791000", "194528.793000", "194528.796000", "194528.798000", "194528.801000", "194528.804000", "194528.806000", "194608.752000", "194608.755000", "194608.758000", "194608.760000", "194608.763000", "194608.765000", "194608.768000", "194608.770000", "194608.773000", "194608.776000", "194608.778000", "194608.781000", "194608.783000", "194608.786000", "194608.788000", "194608.791000", "194608.794000", "194608.796000", "194608.799000", "194608.801000", "194608.804000", "194608.806000", "194608.809000", "194608.812000", "194608.814000", "194608.817000", "194608.820000", "194648.737000", "194648.740000", "194648.742000", "194648.745000", "194648.748000", "194648.750000", "194648.753000", "194648.755000", "194648.758000", "194648.761000", "194648.763000", "194648.766000", "194648.768000", "194648.771000", "194648.773000", "194648.776000", "194648.779000", "194648.781000", "194648.784000", "194648.786000", "194648.789000", "194648.792000", "194648.795000", "194648.798000", "194648.801000", "194648.803000", "194648.806000", "194728.739000", "194728.742000", "194728.744000", "194728.747000", "194728.750000", "194728.753000", "194728.755000", "194728.758000", "194728.768000", "194728.770000", "194728.773000", "194728.775000", "194728.778000", "194728.781000", "194728.783000", "194728.786000", "194728.789000", "194728.791000", "194728.794000", "194728.796000", "194728.799000", "194728.802000", "194728.804000", "194728.807000", "194728.809000", "194728.812000", "194728.815000", "194808.748000", "194808.750000", "194808.753000", "194808.756000", "194808.758000", "194808.761000", "194808.764000", "194808.766000", "194808.769000", "194808.771000", "194808.774000", "194808.776000", "194808.779000", "194808.782000", "194808.784000", "194808.787000", "194808.790000", "194808.792000", "194808.795000", "194808.798000", "194808.800000", "194808.803000", "194808.805000", "194808.808000", "194808.823000", "194808.825000", "194808.828000", "194848.761000", "194848.764000", "194848.766000", "194848.769000", "194848.772000", "194848.774000", "194848.777000", "194848.780000", "194848.782000", "194848.785000", "194848.788000", "194848.790000", "194848.793000", "194848.796000", "194848.798000", "194848.801000", "194848.803000", "194848.806000", "194848.809000", "194848.811000", "194848.814000", "194848.816000", "194848.819000", "194848.822000", "194848.825000", "194848.828000", "194848.831000", "194928.757000", "194928.760000", "194928.763000", "194928.765000", "194928.768000", "194928.770000", "194928.773000", "194928.776000", "194928.778000", "194928.781000", "194928.783000", "194928.786000", "194928.789000", "194928.791000", "194928.794000", "194928.797000", "194928.799000", "194928.802000", "194928.804000", "194928.807000", "194928.810000", "194928.812000", "194928.815000", "194928.818000", "194928.820000", "194928.823000", "195008.747000", "195008.750000", "195008.752000", "195008.755000", "195008.757000", "195008.760000", "195008.763000", "195008.765000", "195008.768000", "195008.771000", "195008.775000", "195008.777000", "195008.780000", "195008.782000", "195008.785000", "195008.788000", "195008.790000", "195008.793000", "195008.796000", "195008.798000", "195008.801000", "195008.803000", "195008.806000", "195008.809000", "195008.811000", "195008.814000", "195008.816000", "195048.722000", "195048.724000", "195048.727000", "195048.730000", "195048.732000", "195048.735000", "195048.737000", "195048.740000", "195048.743000", "195048.745000", "195048.748000", "195048.750000", "195048.753000", "195048.756000", "195048.758000", "195048.761000", "195048.764000", "195048.766000", "195048.769000", "195048.771000", "195048.774000", "195048.777000", "195048.779000", "195048.782000", "195048.784000", "195048.787000", "195048.790000"],
      "InstanceNumber": [1, 2, 3, 4, 5, 6, 7, 8, 9, 10, 11, 12, 13, 14, 15, 16, 17, 18, 19, 20, 21, 22, 23, 24, 25, 26, 27, 28, 29, 30, 31, 32, 33, 34, 35, 36, 37, 38, 39, 40, 41, 42, 43, 44, 45, 46, 47, 48, 49, 50, 51, 52, 53, 54, 55, 56, 57, 58, 59, 60, 61, 62, 63, 64, 65, 66, 67, 68, 69, 70, 71, 72, 73, 74, 75, 76, 77, 78, 79, 80, 81, 82, 83, 84, 85, 86, 87, 88, 89, 90, 91, 92, 93, 94, 95, 96, 97, 98, 99, 100, 101, 102, 103, 104, 105, 106, 107, 108, 109, 110, 111, 112, 113, 114, 115, 116, 117, 118, 119, 120, 121, 122, 123, 124, 125, 126, 127, 128, 129, 130, 131, 132, 133, 134, 135, 136, 137, 138, 139, 140, 141, 142, 143, 144, 145, 146, 147, 148, 149, 150, 151, 152, 153, 154, 155, 156, 157, 158, 159, 160, 161, 162, 163, 164, 165, 166, 167, 168, 169, 170, 171, 172, 173, 174, 175, 176, 177, 178, 179, 180, 181, 182, 183, 184, 185, 186, 187, 188, 189, 190, 191, 192, 193, 194, 195, 196, 197, 198, 199, 200, 201, 202, 203, 204, 205, 206, 207, 208, 209, 210, 211, 212, 213, 214, 215, 216, 217, 218, 219, 220, 221, 222, 223, 224, 225, 226, 227, 228, 229, 230, 231, 232, 233, 234, 235, 236, 237, 238, 239, 240, 241, 242, 243, 244, 245, 246, 247, 248, 249, 250, 251, 252, 253, 254, 255, 256, 257, 258, 259, 260, 261, 262, 263, 264, 265, 266, 267, 268, 269, 270, 271, 272, 273, 274, 275, 276, 277, 278, 279, 280, 281, 282, 283, 284, 285, 286, 287, 288, 289, 290, 291, 292, 293, 294, 295, 296, 297, 298, 299, 300, 301, 302, 303, 304, 305, 306, 307, 308, 309, 310, 311, 312, 313, 314, 315, 316, 317, 318, 319, 320, 321, 322, 323, 324, 325, 326, 327, 328, 329, 330, 331, 332, 333, 334],
      "WindowCenter": [4744.0, 4746.0, 4742.0, 4720.0, 4740.0, 4744.0, 4744.0, 4742.0, 4748.0, 4746.0, 4744.0, 4748.0, 4742.0, 4740.0, 4742.0, 4744.0, 4740.0, 4742.0, 4742.0, 4748.0, 4748.0, 4746.0, 4742.0, 4740.0, 4742.0, 4742.0, 4744.0, 4740.0, 4748.0, 4746.0, 4744.0, 4744.0, 4750.0, 4748.0, 4748.0, 4752.0, 4742.0, 4740.0, 4738.0, 4742.0, 4742.0, 4742.0, 4748.0, 4748.0, 4748.0, 4750.0, 4744.0, 4748.0, 4746.0, 4740.0, 4750.0, 4742.0, 4740.0, 4744.0, 4740.0, 4744.0, 4744.0, 4740.0, 4742.0, 4744.0, 4742.0, 4744.0, 4746.0, 4742.0, 4744.0, 4746.0, 4746.0, 4744.0, 4744.0, 4746.0, 4748.0, 4746.0, 4744.0, 4746.0, 4740.0, 4738.0, 4742.0, 4748.0, 4750.0, 4746.0, 4744.0, 4744.0, 4746.0, 4738.0, 4738.0, 4738.0, 4742.0, 4740.0, 4740.0, 4746.0, 4744.0, 4746.0, 4744.0, 4748.0, 4746.0, 4740.0, 4740.0, 4744.0, 4742.0, 4742.0, 4740.0, 4746.0, 4742.0, 4744.0, 4744.0, 4744.0, 4744.0, 4744.0, 4742.0, 4742.0, 4744.0, 4748.0, 4740.0, 4748.0, 4742.0, 4746.0, 4742.0, 4742.0, 4742.0, 4738.0, 4760.0, 4750.0, 4744.0, 4740.0, 4734.0, 4732.0, 4736.0, 4738.0, 4746.0, 4748.0, 4748.0, 4750.0, 4746.0, 4740.0, 4744.0, 4738.0, 4740.0, 4738.0, 4716.0, 4740.0, 4752.0, 4748.0, 4746.0, 4748.0, 4744.0, 4740.0, 4740.0, 4740.0, 4740.0, 4744.0, 4742.0, 4744.0, 4746.0, 4746.0, 4742.0, 4744.0, 4722.0, 4720.0, 4742.0, 4744.0, 4744.0, 4750.0, 4744.0, 4744.0, 4748.0, 4748.0, 4742.0, 4746.0, 4722.0, 4740.0, 4742.0, 4744.0, 4742.0, 4744.0, 4744.0, 4744.0, 4744.0, 4746.0, 4742.0, 4744.0, 4740.0, 4742.0, 4720.0, 4742.0, 4742.0, 4744.0, 4744.0, 4752.0, 4748.0, 4752.0, 4746.0, 4744.0, 4746.0, 4740.0, 4744.0, 4748.0, 4740.0, 4746.0, 4746.0, 4748.0, 4750.0, 4746.0, 4742.0, 4748.0, 4748.0, 4746.0, 4748.0, 4718.0, 4748.0, 4744.0, 4744.0, 4740.0, 4742.0, 4746.0, 4750.0, 4750.0, 4746.0, 4752.0, 4742.0, 4746.0, 4740.0, 4742.0, 4744.0, 4740.0, 4720.0, 4746.0, 4746.0, 4748.0, 4748.0, 4746.0, 4748.0, 4744.0, 4748.0, 4746.0, 4750.0, 4746.0, 4746.0, 4740.0, 4744.0, 4746.0, 4746.0, 4750.0, 4750.0, 4746.0, 4744.0, 4746.0, 4744.0, 4746.0, 4748.0, 4746.0, 4744.0, 4750.0, 4746.0, 4746.0, 4746.0, 4748.0, 4748.0, 4746.0, 4744.0, 4744.0, 4744.0, 4746.0, 4722.0, 4744.0, 4748.0, 4746.0, 4746.0, 4752.0, 4744.0, 4740.0, 4746.0, 4744.0, 4748.0, 4748.0, 4746.0, 4744.0, 4746.0, 4748.0, 4746.0, 4746.0, 4744.0, 4746.0, 4744.0, 4742.0, 4750.0, 4750.0, 4748.0, 4750.0, 4746.0, 4746.0, 4746.0, 4742.0, 4746.0, 4748.0, 4748.0, 4748.0, 4750.0, 4742.0, 4746.0, 4744.0, 4746.0, 4748.0, 4744.0, 4750.0, 4742.0, 4746.0, 4748.0, 4746.0, 4752.0, 4750.0, 4746.0, 4746.0, 4746.0, 4746.0, 4748.0, 4744.0, 4748.0, 4744.0, 4756.0, 4768.0, 4750.0, 4736.0, 4734.0, 4730.0, 4734.0, 4736.0, 4748.0, 4752.0, 4762.0, 4760.0, 4758.0, 4750.0, 4748.0, 4740.0],
