{
  "AcquisitionMatrixPE": 104,
  "AcquisitionNumber": 1,
  "AcquisitionTime": "19:42:29.080000",
  "BandwidthPerPixelPhaseEncode": 17.17,
  "BaseResolution": 104,
  "BodyPartExamined": "BRAIN",
  "CoilCombinationMethod": "Sum of Squares",
  "ConsistencyInfo": "N4_VE11C_LATEST_20160120",
  "ConversionSoftware": "dcm2niix",
  "ConversionSoftwareVersion": "v1.0.20220505",
  "DerivedVendorReportedEchoSpacing": 0.000560011,
  "DeviceSerialNumber": "167006",
  "DwellTime": 2.1e-06,
  "EchoTime": 0.037,
  "EchoTrainLength": 104,
  "EffectiveEchoSpacing": 0.000560011,
  "FlipAngle": 52,
  "HeudiconvVersion": "0.5.3.post811+g6206e14",
  "ImageComments": "Unaliased MB4/PE3/LB",
  "ImageOrientationPatientDICOM": [0.99943, -0.0337242, 0.00171381, 0.0319322, 0.92738, -0.372756],
  "ImageOrientationText": "Tra>Cor(-21.9)>Sag(-0.6)",
  "ImageType": [
    "ORIGINAL",
    "PRIMARY",
    "M",
    "MB",
    "ND",
    "MOSAIC"
],
  "ImagingFrequency": 123.259,
  "InPlanePhaseEncodingDirectionDICOM": "COL",
  "InstitutionAddress": "Chemin Queen-Mary 4565,Montreal,District,CA,H3W 1W5",
  "InstitutionName": "IUGM",
  "InstitutionalDepartmentName": "Department",
  "MRAcquisitionType": "2D",
  "MagneticFieldStrength": 3,
  "Manufacturer": "Siemens",
  "ManufacturersModelName": "Prisma_fit",
  "MatrixCoilMode": "SENSE",
  "Modality": "MR",
  "MultibandAccelerationFactor": 4,
  "PartialFourier": 1,
  "PatientPosition": "HFS",
  "PercentPhaseFOV": 100,
  "PercentSampling": 100,
  "PhaseEncodingDirection": "j",
  "PhaseEncodingSteps": 104,
  "PhaseResolution": 1,
  "PixelBandwidth": 2290,
  "ProcedureStepDescription": "games^mario3",
  "ProtocolName": "func_task-mario3_run-04",
  "PulseSequenceDetails": "%CustomerSeq%\\cmrr_mbep2d_bold",
  "ReceiveCoilActiveElements": "HC1-7;NC1,2",
  "ReceiveCoilName": "HeadNeck_64",
  "ReconMatrixPE": 104,
  "RepetitionTime": 1.49,
  "SAR": 0.0726219,
  "ScanOptions": "FS",
  "ScanningSequence": "EP",
  "SequenceName": "epfid2d1_104",
  "SequenceVariant": "SK\\SS",
  "SeriesDescription": "func_task-mario3_run-04",
  "SeriesNumber": 19,
  "ShimSetting": [589, -7297, -8821, 389, 47, -370, -32, 109],
  "SliceThickness": 2,
  "SliceTiming": [0, 0.785, 0.1, 0.8825, 0.1975, 0.98, 0.295, 1.0775, 0.3925, 1.1775, 0.49, 1.275, 0.59, 1.3725, 0.6875, 0, 0.785, 0.1, 0.8825, 0.1975, 0.98, 0.295, 1.0775, 0.3925, 1.1775, 0.49, 1.275, 0.59, 1.3725, 0.6875, 0, 0.785, 0.1, 0.8825, 0.1975, 0.98, 0.295, 1.0775, 0.3925, 1.1775, 0.49, 1.275, 0.59, 1.3725, 0.6875, 0, 0.785, 0.1, 0.8825, 0.1975, 0.98, 0.295, 1.0775, 0.3925, 1.1775, 0.49, 1.275, 0.59, 1.3725, 0.6875],
  "SoftwareVersions": "syngo MR E11",
  "SpacingBetweenSlices": 2,
  "StationName": "MRC35049",
  "TaskName": "mario3",
  "TotalReadoutTime": 0.0576811,
  "TxRefAmp": 286.202,
  "WipMemBlock": "cc853b59-d3a2-4f09-8043-cc1bff975e2f||Sequence: R017 ve11c/master r/75a17815+; Jun 28 2022 16:32:11 by eja",
  "dcmmeta_affine": [
    [-1.9988594055175781, 0.0638643205165863, -0.021963054314255714, 102.03355407714844],
    [0.06744834035634995, 1.854759693145752, -0.7451959252357483, -71.11678314208984],
    [0.003427620977163315, 0.7455116510391235, 1.8558557033538818, -63.947078704833984],
    [0.0, 0.0, 0.0, 1.0]
],
  "dcmmeta_reorient_transform": [
    [0.0, -1.0, 0.0, 103.0],
    [1.0, 0.0, 0.0, 0.0],
    [0.0, 0.0, 1.0, 0.0],
    [0.0, 0.0, 0.0, 1.0]
],
  "dcmmeta_shape": [104, 104, 60, 334],
  "dcmmeta_slice_dim": 2,
  "dcmmeta_version": 0.6,
  "global": {
    "const": {
      "AcquisitionMatrix": [104, 0, 0, 104],
      "AngioFlag": "N",
      "BitsAllocated": 16,
      "BitsStored": 16,
      "BodyPartExamined": "BRAIN",
      "Columns": 832,
      "EchoNumbers": 1,
      "EchoTime": 37.0,
      "EchoTrainLength": 104,
      "FlipAngle": 52.0,
      "HighBit": 15,
      "ImageOrientationPatient": [0.99942970901494, -0.0337241692554, 0.0017138104756, 0.03193215918105, 0.92737987001826, -0.3727558368355],
      "ImagePositionPatient": [-859.44301940742, -770.50482321661, 282.95922041755],
      "ImageType": [
        "ORIGINAL",
        "PRIMARY",
        "M",
        "MB",
        "ND",
        "MOSAIC"
],
      "ImagedNucleus": "1H",
      "ImagingFrequency": 123.259012,
      "InPlanePhaseEncodingDirection": "COL",
      "MRAcquisitionType": "2D",
      "MagneticFieldStrength": 3.0,
      "Manufacturer": "SIEMENS",
      "ManufacturerModelName": "Prisma_fit",
      "Modality": "MR",
      "NumberOfAverages": 1.0,
      "NumberOfPhaseEncodingSteps": 104,
      "PercentPhaseFieldOfView": 100.0,
      "PercentSampling": 100.0,
      "PerformedProcedureStepStartTime": "190210.893000",
      "PhotometricInterpretation": "MONOCHROME2",
      "PixelBandwidth": 2290.0,
      "PixelRepresentation": 0,
      "PixelSpacing": [2.0, 2.0],
      "ProtocolName": "func_task-mario3_run-04",
      "RepetitionTime": 1490.0,
      "Rows": 832,
      "SAR": 0.07262192526291,
      "SamplesPerPixel": 1,
      "ScanOptions": "FS",
      "ScanningSequence": "EP",
      "SequenceName": "epfid2d1_104",
      "SequenceVariant": [
        "SK",
        "SS"
],
      "SeriesDescription": "func_task-mario3_run-04",
      "SeriesNumber": 19,
      "SeriesTime": "194348.637000",
      "SliceLocation": -33.960791123595,
      "SliceThickness": 2.0,
      "SmallestImagePixelValue": 0,
      "SoftwareVersions": "syngo MR E11",
      "SpacingBetweenSlices": 1.9999999497839,
      "SpecificCharacterSet": "ISO_IR 100",
      "StudyID": "1",
      "StudyTime": "190210.823000",
      "TransmitCoilName": "Body",
      "VariableFlipAngleFlag": "N",
      "WindowCenterWidthExplanation": "Algo1",
      "dBdt": 0.0},
    "slices": {}
  },
  "time": {
    "samples": {
      "AcquisitionNumber": [1, 2, 3, 4, 5, 6, 7, 8, 9, 10, 11, 12, 13, 14, 15, 16, 17, 18, 19, 20, 21, 22, 23, 24, 25, 26, 27, 28, 29, 30, 31, 32, 33, 34, 35, 36, 37, 38, 39, 40, 41, 42, 43, 44, 45, 46, 47, 48, 49, 50, 51, 52, 53, 54, 55, 56, 57, 58, 59, 60, 61, 62, 63, 64, 65, 66, 67, 68, 69, 70, 71, 72, 73, 74, 75, 76, 77, 78, 79, 80, 81, 82, 83, 84, 85, 86, 87, 88, 89, 90, 91, 92, 93, 94, 95, 96, 97, 98, 99, 100, 101, 102, 103, 104, 105, 106, 107, 108, 109, 110, 111, 112, 113, 114, 115, 116, 117, 118, 119, 120, 121, 122, 123, 124, 125, 126, 127, 128, 129, 130, 131, 132, 133, 134, 135, 136, 137, 138, 139, 140, 141, 142, 143, 144, 145, 146, 147, 148, 149, 150, 151, 152, 153, 154, 155, 156, 157, 158, 159, 160, 161, 162, 163, 164, 165, 166, 167, 168, 169, 170, 171, 172, 173, 174, 175, 176, 177, 178, 179, 180, 181, 182, 183, 184, 185, 186, 187, 188, 189, 190, 191, 192, 193, 194, 195, 196, 197, 198, 199, 200, 201, 202, 203, 204, 205, 206, 207, 208, 209, 210, 211, 212, 213, 214, 215, 216, 217, 218, 219, 220, 221, 222, 223, 224, 225, 226, 227, 228, 229, 230, 231, 232, 233, 234, 235, 236, 237, 238, 239, 240, 241, 242, 243, 244, 245, 246, 247, 248, 249, 250, 251, 252, 253, 254, 255, 256, 257, 258, 259, 260, 261, 262, 263, 264, 265, 266, 267, 268, 269, 270, 271, 272, 273, 274, 275, 276, 277, 278, 279, 280, 281, 282, 283, 284, 285, 286, 287, 288, 289, 290, 291, 292, 293, 294, 295, 296, 297, 298, 299, 300, 301, 302, 303, 304, 305, 306, 307, 308, 309, 310, 311, 312, 313, 314, 315, 316, 317, 318, 319, 320, 321, 322, 323, 324, 325, 326, 327, 328, 329, 330, 331, 332, 333, 334],
      "AcquisitionTime": ["194229.080000", "194230.570000", "194232.060000", "194233.550000", "194235.040000", "194236.530000", "194238.020000", "194239.510000", "194241.000000", "194242.490000", "194243.980000", "194245.470000", "194246.960000", "194248.450000", "194249.940000", "194251.430000", "194252.920000", "194254.410000", "194255.900000", "194257.390000", "194258.880000", "194300.370000", "194301.860000", "194303.350000", "194304.840000", "194306.330000", "194307.820000", "194309.310000", "194310.800000", "194312.290000", "194313.780000", "194315.270000", "194316.760000", "194318.250000", "194319.740000", "194321.230000", "194322.720000", "194324.210000", "194325.700000", "194327.190000", "194328.680000", "194330.170000", "194331.660000", "194333.150000", "194334.640000", "194336.130000", "194337.620000", "194339.110000", "194340.600000", "194342.090000", "194343.580000", "194345.070000", "194346.560000", "194348.050000", "194349.540000", "194351.030000", "194352.520000", "194354.010000", "194355.500000", "194356.990000", "194358.480000", "194359.970000", "194401.460000", "194402.950000", "194404.440000", "194405.930000", "194407.420000", "194408.910000", "194410.400000", "194411.890000", "194413.380000", "194414.870000", "194416.360000", "194417.850000", "194419.340000", "194420.830000", "194422.320000", "194423.810000", "194425.300000", "194426.790000", "194428.280000", "194429.770000", "194431.260000", "194432.750000", "194434.240000", "194435.730000", "194437.220000", "194438.710000", "194440.200000", "194441.690000", "194443.180000", "194444.670000", "194446.160000", "194447.650000", "194449.140000", "194450.630000", "194452.120000", "194453.610000", "194455.100000", "194456.590000", "194458.080000", "194459.570000", "194501.060000", "194502.550000", "194504.040000", "194505.530000", "194507.020000", "194508.510000", "194510.000000", "194511.490000", "194512.980000", "194514.470000", "194515.960000", "194517.450000", "194518.940000", "194520.430000", "194521.920000", "194523.410000", "194524.900000", "194526.390000", "194527.880000", "194529.370000", "194530.860000", "194532.350000", "194533.840000", "194535.330000", "194536.820000", "194538.310000", "194539.800000", "194541.290000", "194542.780000", "194544.270000", "194545.760000", "194547.250000", "194548.740000", "194550.230000", "194551.720000", "194553.210000", "194554.700000", "194556.190000", "194557.680000", "194559.170000", "194600.660000", "194602.150000", "194603.640000", "194605.130000", "194606.620000", "194608.110000", "194609.600000", "194611.090000", "194612.580000", "194614.070000", "194615.560000", "194617.050000", "194618.540000", "194620.030000", "194621.520000", "194623.010000", "194624.500000", "194625.990000", "194627.480000", "194628.970000", "194630.460000", "194631.950000", "194633.440000", "194634.930000", "194636.420000", "194637.910000", "194639.400000", "194640.890000", "194642.380000", "194643.870000", "194645.360000", "194646.850000", "194648.340000", "194649.830000", "194651.320000", "194652.810000", "194654.300000", "194655.790000", "194657.280000", "194658.770000", "194700.260000", "194701.750000", "194703.240000", "194704.730000", "194706.220000", "194707.710000", "194709.200000", "194710.690000", "194712.180000", "194713.670000", "194715.160000", "194716.650000", "194718.140000", "194719.630000", "194721.120000", "194722.610000", "194724.100000", "194725.590000", "194727.080000", "194728.570000", "194730.060000", "194731.550000", "194733.040000", "194734.530000", "194736.020000", "194737.510000", "194739.000000", "194740.490000", "194741.980000", "194743.470000", "194744.960000", "194746.450000", "194747.940000", "194749.430000", "194750.920000", "194752.410000", "194753.900000", "194755.390000", "194756.880000", "194758.370000", "194759.860000", "194801.350000", "194802.840000", "194804.330000", "194805.820000", "194807.310000", "194808.800000", "194810.290000", "194811.780000", "194813.270000", "194814.760000", "194816.250000", "194817.740000", "194819.230000", "194820.720000", "194822.210000", "194823.700000", "194825.190000", "194826.680000", "194828.170000", "194829.660000", "194831.150000", "194832.640000", "194834.130000", "194835.620000", "194837.110000", "194838.600000", "194840.090000", "194841.580000", "194843.070000", "194844.560000", "194846.050000", "194847.540000", "194849.030000", "194850.520000", "194852.010000", "194853.500000", "194854.990000", "194856.480000", "194857.970000", "194859.460000", "194900.950000", "194902.440000", "194903.930000", "194905.420000", "194906.910000", "194908.400000", "194909.890000", "194911.380000", "194912.870000", "194914.360000", "194915.850000", "194917.340000", "194918.830000", "194920.320000", "194921.810000", "194923.300000", "194924.790000", "194926.280000", "194927.770000", "194929.260000", "194930.750000", "194932.240000", "194933.730000", "194935.220000", "194936.710000", "194938.200000", "194939.690000", "194941.180000", "194942.670000", "194944.160000", "194945.650000", "194947.140000", "194948.630000", "194950.120000", "194951.610000", "194953.100000", "194954.590000", "194956.080000", "194957.570000", "194959.060000", "195000.550000", "195002.040000", "195003.530000", "195005.020000", "195006.510000", "195008.000000", "195009.490000", "195010.980000", "195012.470000", "195013.960000", "195015.450000", "195016.940000", "195018.430000", "195019.920000", "195021.410000", "195022.900000", "195024.390000", "195025.880000", "195027.370000", "195028.860000", "195030.350000", "195031.840000", "195033.330000", "195034.820000", "195036.310000", "195037.800000", "195039.290000", "195040.780000", "195042.270000", "195043.760000", "195045.250000"],
      "ContentTime": ["194348.641000", "194348.645000", "194348.648000", "194348.652000", "194348.655000", "194348.659000", "194348.662000", "194348.666000", "194348.669000", "194348.673000", "194348.676000", "194348.680000", "194348.683000", "194348.687000", "194348.690000", "194348.694000", "194348.697000", "194348.701000", "194348.704000", "194348.708000", "194348.711000", "194348.718000", "194348.722000", "194348.725000", "194348.729000", "194348.732000", "194348.736000", "194348.740000", "194348.744000", "194348.747000", "194348.751000", "194408.612000", "194408.620000", "194408.624000", "194408.630000", "194408.633000", "194408.637000", "194408.640000", "194408.644000", "194408.647000", "194408.651000", "194408.654000", "194408.658000", "194408.661000", "194408.665000", "194408.668000", "194408.672000", "194408.675000", "194408.678000", "194408.682000", "194408.685000", "194428.599000", "194428.603000", "194428.607000", "194428.610000", "194428.613000", "194428.617000", "194428.620000", "194428.624000", "194428.628000", "194428.631000", "194428.634000", "194428.638000", "194428.641000", "194428.645000", "194428.648000", "194428.652000", "194428.655000", "194428.659000", "194428.662000", "194428.665000", "194448.599000", "194448.603000", "194448.607000", "194448.610000", "194448.613000", "194448.622000", "194448.625000", "194448.628000", "194448.632000", "194448.636000", "194448.639000", "194448.643000", "194448.646000", "194448.649000", "194448.653000", "194448.656000", "194448.660000", "194448.663000", "194448.667000", "194448.670000", "194448.674000", "194528.598000", "194528.602000", "194528.606000", "194528.609000", "194528.613000", "194528.616000", "194528.620000", "194528.623000", "194528.627000", "194528.630000", "194528.633000", "194528.637000", "194528.640000", "194528.644000", "194528.647000", "194528.651000", "194528.654000", "194528.658000", "194528.662000", "194528.665000", "194528.669000", "194528.672000", "194528.676000", "194528.679000", "194528.682000", "194528.686000", "194528.689000", "194608.599000", "194608.603000", "194608.607000", "194608.610000", "194608.614000", "194608.617000", "194608.620000", "194608.624000", "194608.627000", "194608.631000", "194608.634000", "194608.638000", "194608.641000", "194608.645000", "194608.648000", "194608.652000", "194608.655000", "194608.658000", "194608.676000", "194608.680000", "194608.683000", "194608.686000", "194608.690000", "194608.693000", "194608.697000", "194608.700000", "194608.704000", "194648.599000", "194648.603000", "194648.607000", "194648.610000", "194648.614000", "194648.617000", "194648.621000", "194648.624000", "194648.627000", "194648.631000", "194648.634000", "194648.638000", "194648.641000", "194648.645000", "194648.648000", "194648.652000", "194648.655000", "194648.659000", "194648.662000", "194648.665000", "194648.669000", "194648.672000", "194648.676000", "194648.679000", "194648.683000", "194648.687000", "194648.690000", "194728.599000", "194728.603000", "194728.607000", "194728.610000", "194728.614000", "194728.617000", "194728.621000", "194728.625000", "194728.628000", "194728.632000", "194728.635000", "194728.639000", "194728.642000", "194728.645000", "194728.649000", "194728.652000", "194728.656000", "194728.659000", "194728.663000", "194728.666000", "194728.670000", "194728.673000", "194728.676000", "194728.680000", "194728.683000", "194728.687000", "194728.690000", "194808.600000", "194808.603000", "194808.607000", "194808.610000", "194808.614000", "194808.617000", "194808.621000", "194808.624000", "194808.628000", "194808.631000", "194808.634000", "194808.638000", "194808.641000", "194808.645000", "194808.648000", "194808.652000", "194808.655000", "194808.659000", "194808.662000", "194808.666000", "194808.669000", "194808.672000", "194808.676000", "194808.679000", "194808.683000", "194808.686000", "194808.690000", "194848.600000", "194848.603000", "194848.607000", "194848.611000", "194848.615000", "194848.618000", "194848.622000", "194848.626000", "194848.630000", "194848.633000", "194848.637000", "194848.641000", "194848.644000", "194848.648000", "194848.652000", "194848.655000", "194848.659000", "194848.662000", "194848.666000", "194848.669000", "194848.673000", "194848.676000", "194848.679000", "194848.683000", "194848.686000", "194848.690000", "194848.693000", "194928.600000", "194928.603000", "194928.607000", "194928.610000", "194928.614000", "194928.617000", "194928.621000", "194928.624000", "194928.628000", "194928.631000", "194928.634000", "194928.638000", "194928.642000", "194928.653000", "194928.657000", "194928.661000", "194928.664000", "194928.669000", "194928.672000", "194928.676000", "194928.680000", "194928.683000", "194928.687000", "194928.690000", "194928.694000", "194928.697000", "195008.598000", "195008.602000", "195008.606000", "195008.609000", "195008.613000", "195008.616000", "195008.619000", "195008.623000", "195008.626000", "195008.630000", "195008.633000", "195008.637000", "195008.640000", "195008.646000", "195008.650000", "195008.653000", "195008.657000", "195008.660000", "195008.664000", "195008.667000", "195008.671000", "195008.675000", "195008.678000", "195008.682000", "195008.685000", "195008.689000", "195008.692000", "195048.564000", "195048.567000", "195048.571000", "195048.574000", "195048.578000", "195048.581000", "195048.585000", "195048.588000", "195048.592000", "195048.595000", "195048.599000", "195048.602000", "195048.606000", "195048.609000", "195048.613000", "195048.616000", "195048.620000", "195048.623000", "195048.626000", "195048.645000", "195048.649000", "195048.652000", "195048.656000", "195048.659000", "195048.663000", "195048.666000", "195048.670000"],
      "InstanceCreationTime": ["194348.641000", "194348.645000", "194348.648000", "194348.652000", "194348.655000", "194348.659000", "194348.662000", "194348.666000", "194348.669000", "194348.673000", "194348.676000", "194348.680000", "194348.683000", "194348.687000", "194348.690000", "194348.694000", "194348.697000", "194348.701000", "194348.704000", "194348.708000", "194348.711000", "194348.718000", "194348.722000", "194348.725000", "194348.729000", "194348.732000", "194348.736000", "194348.740000", "194348.744000", "194348.747000", "194348.751000", "194408.612000", "194408.620000", "194408.624000", "194408.630000", "194408.633000", "194408.637000", "194408.640000", "194408.644000", "194408.647000", "194408.651000", "194408.654000", "194408.658000", "194408.661000", "194408.665000", "194408.668000", "194408.672000", "194408.675000", "194408.678000", "194408.682000", "194408.685000", "194428.599000", "194428.603000", "194428.607000", "194428.610000", "194428.613000", "194428.617000", "194428.620000", "194428.624000", "194428.628000", "194428.631000", "194428.634000", "194428.638000", "194428.641000", "194428.645000", "194428.648000", "194428.652000", "194428.655000", "194428.659000", "194428.662000", "194428.665000", "194448.599000", "194448.603000", "194448.607000", "194448.610000", "194448.613000", "194448.622000", "194448.625000", "194448.628000", "194448.632000", "194448.636000", "194448.639000", "194448.643000", "194448.646000", "194448.649000", "194448.653000", "194448.656000", "194448.660000", "194448.663000", "194448.667000", "194448.670000", "194448.674000", "194528.598000", "194528.602000", "194528.606000", "194528.609000", "194528.613000", "194528.616000", "194528.620000", "194528.623000", "194528.627000", "194528.630000", "194528.633000", "194528.637000", "194528.640000", "194528.644000", "194528.647000", "194528.651000", "194528.654000", "194528.658000", "194528.662000", "194528.665000", "194528.669000", "194528.672000", "194528.676000", "194528.679000", "194528.682000", "194528.686000", "194528.689000", "194608.599000", "194608.603000", "194608.607000", "194608.610000", "194608.614000", "194608.617000", "194608.620000", "194608.624000", "194608.627000", "194608.631000", "194608.634000", "194608.638000", "194608.641000", "194608.645000", "194608.648000", "194608.652000", "194608.655000", "194608.658000", "194608.676000", "194608.680000", "194608.683000", "194608.686000", "194608.690000", "194608.693000", "194608.697000", "194608.700000", "194608.704000", "194648.599000", "194648.603000", "194648.607000", "194648.610000", "194648.614000", "194648.617000", "194648.621000", "194648.624000", "194648.627000", "194648.631000", "194648.634000", "194648.638000", "194648.641000", "194648.645000", "194648.648000", "194648.652000", "194648.655000", "194648.659000", "194648.662000", "194648.665000", "194648.669000", "194648.672000", "194648.676000", "194648.679000", "194648.683000", "194648.687000", "194648.690000", "194728.599000", "194728.603000", "194728.607000", "194728.610000", "194728.614000", "194728.617000", "194728.621000", "194728.625000", "194728.628000", "194728.632000", "194728.635000", "194728.639000", "194728.642000", "194728.645000", "194728.649000", "194728.652000", "194728.656000", "194728.659000", "194728.663000", "194728.666000", "194728.670000", "194728.673000", "194728.676000", "194728.680000", "194728.683000", "194728.687000", "194728.690000", "194808.600000", "194808.603000", "194808.607000", "194808.610000", "194808.614000", "194808.617000", "194808.621000", "194808.624000", "194808.628000", "194808.631000", "194808.634000", "194808.638000", "194808.641000", "194808.645000", "194808.648000", "194808.652000", "194808.655000", "194808.659000", "194808.662000", "194808.666000", "194808.669000", "194808.672000", "194808.676000", "194808.679000", "194808.683000", "194808.686000", "194808.690000", "194848.600000", "194848.603000", "194848.607000", "194848.611000", "194848.615000", "194848.618000", "194848.622000", "194848.626000", "194848.630000", "194848.633000", "194848.637000", "194848.641000", "194848.644000", "194848.648000", "194848.652000", "194848.655000", "194848.659000", "194848.662000", "194848.666000", "194848.669000", "194848.673000", "194848.676000", "194848.679000", "194848.683000", "194848.686000", "194848.690000", "194848.693000", "194928.600000", "194928.603000", "194928.607000", "194928.610000", "194928.614000", "194928.617000", "194928.621000", "194928.624000", "194928.628000", "194928.631000", "194928.634000", "194928.638000", "194928.642000", "194928.653000", "194928.657000", "194928.661000", "194928.664000", "194928.669000", "194928.672000", "194928.676000", "194928.680000", "194928.683000", "194928.687000", "194928.690000", "194928.694000", "194928.697000", "195008.598000", "195008.602000", "195008.606000", "195008.609000", "195008.613000", "195008.616000", "195008.619000", "195008.623000", "195008.626000", "195008.630000", "195008.633000", "195008.637000", "195008.640000", "195008.646000", "195008.650000", "195008.653000", "195008.657000", "195008.660000", "195008.664000", "195008.667000", "195008.671000", "195008.675000", "195008.678000", "195008.682000", "195008.685000", "195008.689000", "195008.692000", "195048.564000", "195048.567000", "195048.571000", "195048.574000", "195048.578000", "195048.581000", "195048.585000", "195048.588000", "195048.592000", "195048.595000", "195048.599000", "195048.602000", "195048.606000", "195048.609000", "195048.613000", "195048.616000", "195048.620000", "195048.623000", "195048.626000", "195048.645000", "195048.649000", "195048.652000", "195048.656000", "195048.659000", "195048.663000", "195048.666000", "195048.670000"],
      "InstanceNumber": [1, 2, 3, 4, 5, 6, 7, 8, 9, 10, 11, 12, 13, 14, 15, 16, 17, 18, 19, 20, 21, 22, 23, 24, 25, 26, 27, 28, 29, 30, 31, 32, 33, 34, 35, 36, 37, 38, 39, 40, 41, 42, 43, 44, 45, 46, 47, 48, 49, 50, 51, 52, 53, 54, 55, 56, 57, 58, 59, 60, 61, 62, 63, 64, 65, 66, 67, 68, 69, 70, 71, 72, 73, 74, 75, 76, 77, 78, 79, 80, 81, 82, 83, 84, 85, 86, 87, 88, 89, 90, 91, 92, 93, 94, 95, 96, 97, 98, 99, 100, 101, 102, 103, 104, 105, 106, 107, 108, 109, 110, 111, 112, 113, 114, 115, 116, 117, 118, 119, 120, 121, 122, 123, 124, 125, 126, 127, 128, 129, 130, 131, 132, 133, 134, 135, 136, 137, 138, 139, 140, 141, 142, 143, 144, 145, 146, 147, 148, 149, 150, 151, 152, 153, 154, 155, 156, 157, 158, 159, 160, 161, 162, 163, 164, 165, 166, 167, 168, 169, 170, 171, 172, 173, 174, 175, 176, 177, 178, 179, 180, 181, 182, 183, 184, 185, 186, 187, 188, 189, 190, 191, 192, 193, 194, 195, 196, 197, 198, 199, 200, 201, 202, 203, 204, 205, 206, 207, 208, 209, 210, 211, 212, 213, 214, 215, 216, 217, 218, 219, 220, 221, 222, 223, 224, 225, 226, 227, 228, 229, 230, 231, 232, 233, 234, 235, 236, 237, 238, 239, 240, 241, 242, 243, 244, 245, 246, 247, 248, 249, 250, 251, 252, 253, 254, 255, 256, 257, 258, 259, 260, 261, 262, 263, 264, 265, 266, 267, 268, 269, 270, 271, 272, 273, 274, 275, 276, 277, 278, 279, 280, 281, 282, 283, 284, 285, 286, 287, 288, 289, 290, 291, 292, 293, 294, 295, 296, 297, 298, 299, 300, 301, 302, 303, 304, 305, 306, 307, 308, 309, 310, 311, 312, 313, 314, 315, 316, 317, 318, 319, 320, 321, 322, 323, 324, 325, 326, 327, 328, 329, 330, 331, 332, 333, 334],
      "LargestImagePixelValue": [58835, 56554, 55559, 54645, 53964, 55020, 55299, 55278, 55338, 55083, 55431, 55368, 55418, 55464, 54337, 55023, 54799, 54474, 55176, 54556, 54231, 54617, 54646, 54715, 54173, 54004, 54139, 53431, 53156, 53720, 53841, 54196, 53818, 54895, 54697, 53042, 54595, 52769, 53597, 52441, 52543, 52716, 52972, 52826, 53174, 53428, 53481, 54605, 54311, 53905, 53610, 55636, 54018, 53993, 54063, 53850, 53214, 52769, 52680, 53330, 53277, 52916, 53009, 53187, 52958, 53750, 53808, 53658, 53205, 53973, 54329, 53913, 53098, 53138, 52891, 51938, 51505, 53448, 52901, 54129, 55855, 55939, 53649, 53640, 54182, 54157, 53963, 54123, 54103, 54567, 54322, 54073, 54765, 54144, 54624, 54766, 54870, 53459, 53206, 54590, 53315, 53111, 53277, 52518, 53067, 53105, 52837, 52268, 53552, 52600, 52037, 52661, 53231, 53389, 53644, 52059, 53497, 54435, 56665, 53574, 59174, 57525, 57539, 54663, 54341, 53559, 53571, 53350, 53375, 52822, 53749, 53326, 53306, 53133, 53386, 52429, 52215, 52349, 52194, 51633, 52991, 53550, 52650, 52618, 53052, 53278, 51882, 52445, 53237, 52701, 53942, 53980, 54100, 54455, 54105, 54081, 53856, 53499, 53446, 54104, 54145, 53758, 53983, 53566, 53099, 53495, 54120, 53693, 54046, 52894, 53295, 53719, 53612, 53178, 53608, 54200, 54035, 54239, 53653, 53138, 53817, 53381, 53682, 53532, 52884, 53615, 53179, 54552, 53862, 53611, 54285, 53964, 54804, 54538, 52961, 54270, 54215, 53288, 54396, 54041, 53499, 54075, 54424, 55175, 54925, 53913, 54731, 54971, 54067, 54081, 54637, 52550, 52482, 53125, 55427, 54870, 52875, 53403, 53279, 53543, 53388, 52996, 53063, 53165, 52231, 53088, 53727, 53275, 52976, 54026, 54340, 54087, 54275, 54380, 53616, 53200, 53867, 53349, 53900, 54107, 53939, 54292, 54059, 53976, 54086, 53735, 53796, 54157, 54237, 53494, 53910, 53794, 54207, 53840, 53726, 53732, 54320, 54659, 53719, 53881, 54169, 54135, 53873, 53535, 54257, 53921, 53839, 54300, 52762, 53585, 53022, 53301, 52981, 53252, 52868, 52576, 53299, 53339, 53419, 52673, 52715, 52974, 53113, 52992, 53024, 52832, 52968, 53022, 52774, 52780, 53102, 52988, 52623, 52569, 52567, 52901, 52943, 52525, 52718, 53000, 52425, 52705, 52789, 52625, 52478, 52528, 52612, 52719, 52590, 53097, 52542, 52308, 53477, 52379, 53918, 54231, 54164, 54012, 54768, 54837, 54342, 54321, 54387, 55467, 55671, 56057, 56608, 56546, 56299, 56443, 57019, 57066, 56697, 56548],
