{
  "AcquisitionMatrixPE": 104,
  "AcquisitionNumber": 1,
  "AcquisitionTime": "19:07:26.205000",
  "BandwidthPerPixelPhaseEncode": 17.17,
  "BaseResolution": 104,
  "BodyPartExamined": "BRAIN",
  "CoilCombinationMethod": "Sum of Squares",
  "ConsistencyInfo": "N4_VE11C_LATEST_20160120",
  "ConversionSoftware": "dcm2niix",
  "ConversionSoftwareVersion": "v1.0.20220505",
  "DerivedVendorReportedEchoSpacing": 0.000560011,
  "DeviceSerialNumber": "167006",
  "DwellTime": 2.1e-06,
  "EchoTime": 0.037,
  "EchoTrainLength": 104,
  "EffectiveEchoSpacing": 0.000560011,
  "FlipAngle": 52,
  "HeudiconvVersion": "0.5.3.post811+g6206e14",
  "ImageComments": "Unaliased MB4/PE3/LB",
  "ImageOrientationPatientDICOM": [0.99943, -0.0337242, 0.00171381, 0.0319322, 0.92738, -0.372756],
  "ImageOrientationText": "Tra>Cor(-21.9)>Sag(-0.6)",
  "ImageType": [
    "ORIGINAL",
    "PRIMARY",
    "M",
    "MB",
    "ND",
    "MOSAIC"
],
  "ImagingFrequency": 123.259,
  "InPlanePhaseEncodingDirectionDICOM": "COL",
  "InstitutionAddress": "Chemin Queen-Mary 4565,Montreal,District,CA,H3W 1W5",
  "InstitutionName": "IUGM",
  "InstitutionalDepartmentName": "Department",
  "MRAcquisitionType": "2D",
  "MagneticFieldStrength": 3,
  "Manufacturer": "Siemens",
  "ManufacturersModelName": "Prisma_fit",
  "MatrixCoilMode": "SENSE",
  "Modality": "MR",
  "MultibandAccelerationFactor": 4,
  "PartialFourier": 1,
  "PatientPosition": "HFS",
  "PercentPhaseFOV": 100,
  "PercentSampling": 100,
  "PhaseEncodingDirection": "j",
  "PhaseEncodingSteps": 104,
  "PhaseResolution": 1,
  "PixelBandwidth": 2290,
  "ProcedureStepDescription": "games^mario3",
  "ProtocolName": "func_task-mario3_run-01",
  "PulseSequenceDetails": "%CustomerSeq%\\cmrr_mbep2d_bold",
  "ReceiveCoilActiveElements": "HC1-7;NC1,2",
  "ReceiveCoilName": "HeadNeck_64",
  "ReconMatrixPE": 104,
  "RepetitionTime": 1.49,
  "SAR": 0.0726219,
  "ScanOptions": "FS",
  "ScanningSequence": "EP",
  "SequenceName": "epfid2d1_104",
  "SequenceVariant": "SK\\SS",
  "SeriesDescription": "func_task-mario3_run-01",
  "SeriesNumber": 10,
  "ShimSetting": [589, -7297, -8821, 389, 47, -370, -32, 109],
  "SliceThickness": 2,
  "SliceTiming": [0, 0.7825, 0.0975, 0.88, 0.195, 0.98, 0.2925, 1.0775, 0.39, 1.175, 0.49, 1.2725, 0.5875, 1.37, 0.685, 0, 0.7825, 0.0975, 0.88, 0.195, 0.98, 0.2925, 1.0775, 0.39, 1.175, 0.49, 1.2725, 0.5875, 1.37, 0.685, 0, 0.7825, 0.0975, 0.88, 0.195, 0.98, 0.2925, 1.0775, 0.39, 1.175, 0.49, 1.2725, 0.5875, 1.37, 0.685, 0, 0.7825, 0.0975, 0.88, 0.195, 0.98, 0.2925, 1.0775, 0.39, 1.175, 0.49, 1.2725, 0.5875, 1.37, 0.685],
  "SoftwareVersions": "syngo MR E11",
  "SpacingBetweenSlices": 2,
  "StationName": "MRC35049",
  "TaskName": "mario3",
  "TotalReadoutTime": 0.0576811,
  "TxRefAmp": 286.202,
  "WipMemBlock": "7fa6d61b-40f8-4584-b83f-80c5163be30a||Sequence: R017 ve11c/master r/75a17815+; Jun 28 2022 16:32:11 by eja",
  "dcmmeta_affine": [
    [-1.9988594055175781, 0.0638643205165863, -0.021963054314255714, 102.03355407714844],
    [0.06744834035634995, 1.854759693145752, -0.7451959252357483, -71.11678314208984],
    [0.003427620977163315, 0.7455116510391235, 1.8558557033538818, -63.947078704833984],
    [0.0, 0.0, 0.0, 1.0]
],
  "dcmmeta_reorient_transform": [
    [0.0, -1.0, 0.0, 103.0],
    [1.0, 0.0, 0.0, 0.0],
    [0.0, 0.0, 1.0, 0.0],
    [0.0, 0.0, 0.0, 1.0]
],
  "dcmmeta_shape": [104, 104, 60, 320],
  "dcmmeta_slice_dim": 2,
  "dcmmeta_version": 0.6,
  "global": {
    "const": {
      "AcquisitionMatrix": [104, 0, 0, 104],
      "AngioFlag": "N",
      "BitsAllocated": 16,
      "BitsStored": 16,
      "BodyPartExamined": "BRAIN",
      "Columns": 832,
      "EchoNumbers": 1,
      "EchoTime": 37.0,
      "EchoTrainLength": 104,
      "FlipAngle": 52.0,
      "HighBit": 15,
      "ImageOrientationPatient": [0.99942970901494, -0.0337241692554, 0.0017138104756, 0.03193215918105, 0.92737987001826, -0.3727558368355],
      "ImagePositionPatient": [-859.44301940742, -770.50482321661, 282.95922041755],
      "ImageType": [
        "ORIGINAL",
        "PRIMARY",
        "M",
        "MB",
        "ND",
        "MOSAIC"
],
      "ImagedNucleus": "1H",
      "ImagingFrequency": 123.259015,
      "InPlanePhaseEncodingDirection": "COL",
      "MRAcquisitionType": "2D",
      "MagneticFieldStrength": 3.0,
      "Manufacturer": "SIEMENS",
      "ManufacturerModelName": "Prisma_fit",
      "Modality": "MR",
      "NumberOfAverages": 1.0,
      "NumberOfPhaseEncodingSteps": 104,
      "PercentPhaseFieldOfView": 100.0,
      "PercentSampling": 100.0,
      "PerformedProcedureStepStartTime": "190210.893000",
      "PhotometricInterpretation": "MONOCHROME2",
      "PixelBandwidth": 2290.0,
      "PixelRepresentation": 0,
      "PixelSpacing": [2.0, 2.0],
      "ProtocolName": "func_task-mario3_run-01",
      "RepetitionTime": 1490.0,
      "Rows": 832,
      "SAR": 0.07262192526291,
      "SamplesPerPixel": 1,
      "ScanOptions": "FS",
      "ScanningSequence": "EP",
      "SequenceName": "epfid2d1_104",
      "SequenceVariant": [
        "SK",
        "SS"
],
      "SeriesDescription": "func_task-mario3_run-01",
      "SeriesNumber": 10,
      "SeriesTime": "190828.627000",
      "SliceLocation": -33.960791123595,
      "SliceThickness": 2.0,
      "SmallestImagePixelValue": 0,
      "SoftwareVersions": "syngo MR E11",
      "SpacingBetweenSlices": 1.9999999497839,
      "SpecificCharacterSet": "ISO_IR 100",
      "StudyID": "1",
      "StudyTime": "190210.823000",
      "TransmitCoilName": "Body",
      "VariableFlipAngleFlag": "N",
      "WindowCenterWidthExplanation": "Algo1",
      "dBdt": 0.0},
    "slices": {}
  },
  "time": {
    "samples": {
      "AcquisitionNumber": [1, 2, 3, 4, 5, 6, 7, 8, 9, 10, 11, 12, 13, 14, 15, 16, 17, 18, 19, 20, 21, 22, 23, 24, 25, 26, 27, 28, 29, 30, 31, 32, 33, 34, 35, 36, 37, 38, 39, 40, 41, 42, 43, 44, 45, 46, 47, 48, 49, 50, 51, 52, 53, 54, 55, 56, 57, 58, 59, 60, 61, 62, 63, 64, 65, 66, 67, 68, 69, 70, 71, 72, 73, 74, 75, 76, 77, 78, 79, 80, 81, 82, 83, 84, 85, 86, 87, 88, 89, 90, 91, 92, 93, 94, 95, 96, 97, 98, 99, 100, 101, 102, 103, 104, 105, 106, 107, 108, 109, 110, 111, 112, 113, 114, 115, 116, 117, 118, 119, 120, 121, 122, 123, 124, 125, 126, 127, 128, 129, 130, 131, 132, 133, 134, 135, 136, 137, 138, 139, 140, 141, 142, 143, 144, 145, 146, 147, 148, 149, 150, 151, 152, 153, 154, 155, 156, 157, 158, 159, 160, 161, 162, 163, 164, 165, 166, 167, 168, 169, 170, 171, 172, 173, 174, 175, 176, 177, 178, 179, 180, 181, 182, 183, 184, 185, 186, 187, 188, 189, 190, 191, 192, 193, 194, 195, 196, 197, 198, 199, 200, 201, 202, 203, 204, 205, 206, 207, 208, 209, 210, 211, 212, 213, 214, 215, 216, 217, 218, 219, 220, 221, 222, 223, 224, 225, 226, 227, 228, 229, 230, 231, 232, 233, 234, 235, 236, 237, 238, 239, 240, 241, 242, 243, 244, 245, 246, 247, 248, 249, 250, 251, 252, 253, 254, 255, 256, 257, 258, 259, 260, 261, 262, 263, 264, 265, 266, 267, 268, 269, 270, 271, 272, 273, 274, 275, 276, 277, 278, 279, 280, 281, 282, 283, 284, 285, 286, 287, 288, 289, 290, 291, 292, 293, 294, 295, 296, 297, 298, 299, 300, 301, 302, 303, 304, 305, 306, 307, 308, 309, 310, 311, 312, 313, 314, 315, 316, 317, 318, 319, 320],
      "AcquisitionTime": ["190726.205000", "190727.695000", "190729.185000", "190730.675000", "190732.165000", "190733.655000", "190735.145000", "190736.635000", "190738.125000", "190739.615000", "190741.105000", "190742.595000", "190744.085000", "190745.575000", "190747.065000", "190748.555000", "190750.045000", "190751.535000", "190753.025000", "190754.515000", "190756.005000", "190757.495000", "190758.985000", "190800.475000", "190801.965000", "190803.455000", "190804.945000", "190806.435000", "190807.925000", "190809.415000", "190810.905000", "190812.395000", "190813.885000", "190815.375000", "190816.865000", "190818.355000", "190819.845000", "190821.335000", "190822.825000", "190824.315000", "190825.805000", "190827.295000", "190828.785000", "190830.275000", "190831.765000", "190833.255000", "190834.745000", "190836.235000", "190837.725000", "190839.215000", "190840.705000", "190842.195000", "190843.685000", "190845.175000", "190846.665000", "190848.155000", "190849.645000", "190851.135000", "190852.625000", "190854.115000", "190855.605000", "190857.095000", "190858.585000", "190900.075000", "190901.565000", "190903.055000", "190904.545000", "190906.035000", "190907.525000", "190909.015000", "190910.505000", "190911.995000", "190913.485000", "190914.975000", "190916.465000", "190917.955000", "190919.445000", "190920.935000", "190922.425000", "190923.915000", "190925.405000", "190926.895000", "190928.385000", "190929.875000", "190931.365000", "190932.855000", "190934.345000", "190935.835000", "190937.325000", "190938.815000", "190940.305000", "190941.795000", "190943.285000", "190944.775000", "190946.265000", "190947.755000", "190949.245000", "190950.735000", "190952.225000", "190953.715000", "190955.205000", "190956.695000", "190958.185000", "190959.675000", "191001.165000", "191002.655000", "191004.145000", "191005.635000", "191007.125000", "191008.615000", "191010.105000", "191011.595000", "191013.085000", "191014.575000", "191016.065000", "191017.555000", "191019.045000", "191020.535000", "191022.025000", "191023.515000", "191025.005000", "191026.495000", "191027.985000", "191029.475000", "191030.965000", "191032.455000", "191033.945000", "191035.435000", "191036.925000", "191038.415000", "191039.905000", "191041.395000", "191042.885000", "191044.375000", "191045.865000", "191047.355000", "191048.845000", "191050.335000", "191051.825000", "191053.315000", "191054.805000", "191056.295000", "191057.785000", "191059.275000", "191100.765000", "191102.255000", "191103.745000", "191105.235000", "191106.725000", "191108.215000", "191109.705000", "191111.195000", "191112.685000", "191114.175000", "191115.665000", "191117.155000", "191118.645000", "191120.135000", "191121.625000", "191123.115000", "191124.605000", "191126.095000", "191127.585000", "191129.075000", "191130.565000", "191132.055000", "191133.545000", "191135.035000", "191136.525000", "191138.015000", "191139.505000", "191140.995000", "191142.485000", "191143.975000", "191145.465000", "191146.955000", "191148.445000", "191149.935000", "191151.425000", "191152.915000", "191154.405000", "191155.895000", "191157.385000", "191158.875000", "191200.365000", "191201.855000", "191203.345000", "191204.835000", "191206.325000", "191207.815000", "191209.305000", "191210.795000", "191212.285000", "191213.775000", "191215.265000", "191216.755000", "191218.245000", "191219.735000", "191221.225000", "191222.715000", "191224.205000", "191225.695000", "191227.185000", "191228.675000", "191230.165000", "191231.655000", "191233.145000", "191234.635000", "191236.125000", "191237.615000", "191239.105000", "191240.595000", "191242.085000", "191243.575000", "191245.065000", "191246.555000", "191248.045000", "191249.535000", "191251.025000", "191252.515000", "191254.005000", "191255.495000", "191256.985000", "191258.475000", "191259.965000", "191301.455000", "191302.945000", "191304.435000", "191305.925000", "191307.415000", "191308.905000", "191310.395000", "191311.885000", "191313.375000", "191314.865000", "191316.355000", "191317.845000", "191319.335000", "191320.825000", "191322.315000", "191323.805000", "191325.295000", "191326.785000", "191328.275000", "191329.765000", "191331.255000", "191332.745000", "191334.235000", "191335.725000", "191337.215000", "191338.705000", "191340.195000", "191341.685000", "191343.175000", "191344.665000", "191346.155000", "191347.645000", "191349.135000", "191350.625000", "191352.115000", "191353.605000", "191355.095000", "191356.585000", "191358.075000", "191359.565000", "191401.055000", "191402.545000", "191404.035000", "191405.525000", "191407.015000", "191408.505000", "191409.995000", "191411.485000", "191412.975000", "191414.465000", "191415.955000", "191417.445000", "191418.935000", "191420.425000", "191421.915000", "191423.405000", "191424.895000", "191426.385000", "191427.875000", "191429.365000", "191430.855000", "191432.345000", "191433.835000", "191435.325000", "191436.815000", "191438.305000", "191439.795000", "191441.285000", "191442.775000", "191444.265000", "191445.755000", "191447.245000", "191448.735000", "191450.225000", "191451.715000", "191453.205000", "191454.695000", "191456.185000", "191457.675000", "191459.165000", "191500.655000", "191502.145000", "191503.635000", "191505.125000", "191506.615000", "191508.105000", "191509.595000", "191511.085000", "191512.575000", "191514.065000", "191515.555000", "191517.045000", "191518.535000", "191520.025000", "191521.515000"],
      "ContentTime": ["190828.630000", "190828.634000", "190828.638000", "190828.641000", "190828.644000", "190828.648000", "190828.652000", "190828.655000", "190828.658000", "190828.674000", "190828.677000", "190828.681000", "190828.684000", "190828.688000", "190848.599000", "190848.603000", "190848.606000", "190848.610000", "190848.613000", "190848.617000", "190848.620000", "190848.624000", "190848.627000", "190848.631000", "190848.634000", "190848.637000", "190848.641000", "190848.644000", "190848.648000", "190848.651000", "190848.654000", "190848.658000", "190848.662000", "190848.665000", "190908.599000", "190908.603000", "190908.606000", "190908.610000", "190908.614000", "190908.617000", "190908.620000", "190908.624000", "190908.627000", "190908.631000", "190908.634000", "190908.638000", "190908.641000", "190908.645000", "190908.648000", "190908.651000", "190908.655000", "190908.659000", "190908.663000", "190908.691000", "190928.599000", "190928.603000", "190928.606000", "190928.610000", "190928.613000", "190928.617000", "190928.620000", "190928.624000", "190928.627000", "190928.631000", "190928.634000", "190928.638000", "190928.641000", "190928.645000", "190928.648000", "190928.651000", "190928.655000", "190928.659000", "190928.662000", "190928.665000", "190948.599000", "190948.603000", "190948.607000", "190948.610000", "190948.614000", "190948.617000", "190948.620000", "190948.624000", "190948.627000", "190948.631000", "190948.634000", "190948.638000", "190948.641000", "190948.645000", "190948.648000", "190948.651000", "190948.655000", "190948.658000", "190948.662000", "190948.665000", "191028.599000", "191028.603000", "191028.606000", "191028.610000", "191028.614000", "191028.617000", "191028.621000", "191028.624000", "191028.627000", "191028.631000", "191028.634000", "191028.638000", "191028.641000", "191028.645000", "191028.648000", "191028.651000", "191028.655000", "191028.658000", "191028.662000", "191028.665000", "191028.668000", "191028.672000", "191028.675000", "191028.679000", "191028.682000", "191028.685000", "191028.689000", "191108.599000", "191108.603000", "191108.607000", "191108.610000", "191108.614000", "191108.617000", "191108.621000", "191108.624000", "191108.627000", "191108.631000", "191108.634000", "191108.638000", "191108.641000", "191108.645000", "191108.648000", "191108.652000", "191108.655000", "191108.659000", "191108.662000", "191108.666000", "191108.669000", "191108.672000", "191108.676000", "191108.679000", "191108.683000", "191108.686000", "191108.690000", "191148.614000", "191148.618000", "191148.621000", "191148.624000", "191148.628000", "191148.631000", "191148.635000", "191148.638000", "191148.642000", "191148.645000", "191148.649000", "191148.652000", "191148.662000", "191148.665000", "191148.669000", "191148.672000", "191148.676000", "191148.679000", "191148.683000", "191148.686000", "191148.690000", "191148.693000", "191148.696000", "191148.700000", "191148.703000", "191148.707000", "191148.710000", "191228.599000", "191228.603000", "191228.607000", "191228.610000", "191228.614000", "191228.617000", "191228.620000", "191228.624000", "191228.627000", "191228.631000", "191228.638000", "191228.641000", "191228.645000", "191228.648000", "191228.652000", "191228.655000", "191228.659000", "191228.662000", "191228.666000", "191228.670000", "191228.673000", "191228.676000", "191228.680000", "191228.683000", "191228.687000", "191228.690000", "191228.694000", "191308.598000", "191308.602000", "191308.606000", "191308.609000", "191308.613000", "191308.616000", "191308.620000", "191308.623000", "191308.627000", "191308.630000", "191308.634000", "191308.637000", "191308.641000", "191308.644000", "191308.648000", "191308.651000", "191308.655000", "191308.658000", "191308.661000", "191308.665000", "191308.668000", "191308.672000", "191308.675000", "191308.679000", "191308.682000", "191308.686000", "191308.689000", "191348.599000", "191348.603000", "191348.607000", "191348.610000", "191348.627000", "191348.631000", "191348.634000", "191348.638000", "191348.641000", "191348.645000", "191348.648000", "191348.652000", "191348.655000", "191348.659000", "191348.662000", "191348.666000", "191348.669000", "191348.673000", "191348.676000", "191348.680000", "191348.683000", "191348.687000", "191348.690000", "191348.694000", "191348.697000", "191348.701000", "191348.704000", "191428.600000", "191428.604000", "191428.607000", "191428.610000", "191428.614000", "191428.618000", "191428.621000", "191428.624000", "191428.628000", "191428.631000", "191428.635000", "191428.638000", "191428.642000", "191428.645000", "191428.649000", "191428.653000", "191428.656000", "191428.660000", "191428.663000", "191428.667000", "191428.670000", "191428.674000", "191428.677000", "191428.681000", "191428.684000", "191428.688000", "191508.598000", "191508.602000", "191508.606000", "191508.609000", "191508.613000", "191508.616000", "191508.620000", "191508.623000", "191508.627000", "191508.630000", "191508.634000", "191508.637000", "191508.640000", "191508.644000", "191508.647000", "191508.651000", "191508.654000", "191508.658000", "191508.661000", "191508.665000", "191508.669000", "191508.672000", "191508.676000", "191508.679000", "191508.683000", "191508.686000", "191508.690000", "191524.273000", "191524.277000", "191524.280000", "191524.284000", "191524.287000", "191524.291000", "191524.294000", "191524.297000", "191524.301000", "191524.304000", "191524.308000"],
      "InstanceCreationTime": ["190828.630000", "190828.634000", "190828.638000", "190828.641000", "190828.644000", "190828.648000", "190828.652000", "190828.655000", "190828.658000", "190828.674000", "190828.677000", "190828.681000", "190828.684000", "190828.688000", "190848.599000", "190848.603000", "190848.606000", "190848.610000", "190848.613000", "190848.617000", "190848.620000", "190848.624000", "190848.627000", "190848.631000", "190848.634000", "190848.637000", "190848.641000", "190848.644000", "190848.648000", "190848.651000", "190848.654000", "190848.658000", "190848.662000", "190848.665000", "190908.599000", "190908.603000", "190908.606000", "190908.610000", "190908.614000", "190908.617000", "190908.620000", "190908.624000", "190908.627000", "190908.631000", "190908.634000", "190908.638000", "190908.641000", "190908.645000", "190908.648000", "190908.651000", "190908.655000", "190908.659000", "190908.663000", "190908.691000", "190928.599000", "190928.603000", "190928.606000", "190928.610000", "190928.613000", "190928.617000", "190928.620000", "190928.624000", "190928.627000", "190928.631000", "190928.634000", "190928.638000", "190928.641000", "190928.645000", "190928.648000", "190928.651000", "190928.655000", "190928.659000", "190928.662000", "190928.665000", "190948.599000", "190948.603000", "190948.607000", "190948.610000", "190948.614000", "190948.617000", "190948.620000", "190948.624000", "190948.627000", "190948.631000", "190948.634000", "190948.638000", "190948.641000", "190948.645000", "190948.648000", "190948.651000", "190948.655000", "190948.658000", "190948.662000", "190948.665000", "191028.599000", "191028.603000", "191028.606000", "191028.610000", "191028.614000", "191028.617000", "191028.621000", "191028.624000", "191028.627000", "191028.631000", "191028.634000", "191028.638000", "191028.641000", "191028.645000", "191028.648000", "191028.651000", "191028.655000", "191028.658000", "191028.662000", "191028.665000", "191028.668000", "191028.672000", "191028.675000", "191028.679000", "191028.682000", "191028.685000", "191028.689000", "191108.599000", "191108.603000", "191108.607000", "191108.610000", "191108.614000", "191108.617000", "191108.621000", "191108.624000", "191108.627000", "191108.631000", "191108.634000", "191108.638000", "191108.641000", "191108.645000", "191108.648000", "191108.652000", "191108.655000", "191108.659000", "191108.662000", "191108.666000", "191108.669000", "191108.672000", "191108.676000", "191108.679000", "191108.683000", "191108.686000", "191108.690000", "191148.614000", "191148.618000", "191148.621000", "191148.624000", "191148.628000", "191148.631000", "191148.635000", "191148.638000", "191148.642000", "191148.645000", "191148.649000", "191148.652000", "191148.662000", "191148.665000", "191148.669000", "191148.672000", "191148.676000", "191148.679000", "191148.683000", "191148.686000", "191148.690000", "191148.693000", "191148.696000", "191148.700000", "191148.703000", "191148.707000", "191148.710000", "191228.599000", "191228.603000", "191228.607000", "191228.610000", "191228.614000", "191228.617000", "191228.620000", "191228.624000", "191228.627000", "191228.631000", "191228.638000", "191228.641000", "191228.645000", "191228.648000", "191228.652000", "191228.655000", "191228.659000", "191228.662000", "191228.666000", "191228.670000", "191228.673000", "191228.676000", "191228.680000", "191228.683000", "191228.687000", "191228.690000", "191228.694000", "191308.598000", "191308.602000", "191308.606000", "191308.609000", "191308.613000", "191308.616000", "191308.620000", "191308.623000", "191308.627000", "191308.630000", "191308.634000", "191308.637000", "191308.641000", "191308.644000", "191308.648000", "191308.651000", "191308.655000", "191308.658000", "191308.661000", "191308.665000", "191308.668000", "191308.672000", "191308.675000", "191308.679000", "191308.682000", "191308.686000", "191308.689000", "191348.599000", "191348.603000", "191348.607000", "191348.610000", "191348.627000", "191348.631000", "191348.634000", "191348.638000", "191348.641000", "191348.645000", "191348.648000", "191348.652000", "191348.655000", "191348.659000", "191348.662000", "191348.666000", "191348.669000", "191348.673000", "191348.676000", "191348.680000", "191348.683000", "191348.687000", "191348.690000", "191348.694000", "191348.697000", "191348.701000", "191348.704000", "191428.600000", "191428.604000", "191428.607000", "191428.610000", "191428.614000", "191428.618000", "191428.621000", "191428.624000", "191428.628000", "191428.631000", "191428.635000", "191428.638000", "191428.642000", "191428.645000", "191428.649000", "191428.653000", "191428.656000", "191428.660000", "191428.663000", "191428.667000", "191428.670000", "191428.674000", "191428.677000", "191428.681000", "191428.684000", "191428.688000", "191508.598000", "191508.602000", "191508.606000", "191508.609000", "191508.613000", "191508.616000", "191508.620000", "191508.623000", "191508.627000", "191508.630000", "191508.634000", "191508.637000", "191508.640000", "191508.644000", "191508.647000", "191508.651000", "191508.654000", "191508.658000", "191508.661000", "191508.665000", "191508.669000", "191508.672000", "191508.676000", "191508.679000", "191508.683000", "191508.686000", "191508.690000", "191524.273000", "191524.277000", "191524.280000", "191524.284000", "191524.287000", "191524.291000", "191524.294000", "191524.297000", "191524.301000", "191524.304000", "191524.308000"],
      "InstanceNumber": [1, 2, 3, 4, 5, 6, 7, 8, 9, 10, 11, 12, 13, 14, 15, 16, 17, 18, 19, 20, 21, 22, 23, 24, 25, 26, 27, 28, 29, 30, 31, 32, 33, 34, 35, 36, 37, 38, 39, 40, 41, 42, 43, 44, 45, 46, 47, 48, 49, 50, 51, 52, 53, 54, 55, 56, 57, 58, 59, 60, 61, 62, 63, 64, 65, 66, 67, 68, 69, 70, 71, 72, 73, 74, 75, 76, 77, 78, 79, 80, 81, 82, 83, 84, 85, 86, 87, 88, 89, 90, 91, 92, 93, 94, 95, 96, 97, 98, 99, 100, 101, 102, 103, 104, 105, 106, 107, 108, 109, 110, 111, 112, 113, 114, 115, 116, 117, 118, 119, 120, 121, 122, 123, 124, 125, 126, 127, 128, 129, 130, 131, 132, 133, 134, 135, 136, 137, 138, 139, 140, 141, 142, 143, 144, 145, 146, 147, 148, 149, 150, 151, 152, 153, 154, 155, 156, 157, 158, 159, 160, 161, 162, 163, 164, 165, 166, 167, 168, 169, 170, 171, 172, 173, 174, 175, 176, 177, 178, 179, 180, 181, 182, 183, 184, 185, 186, 187, 188, 189, 190, 191, 192, 193, 194, 195, 196, 197, 198, 199, 200, 201, 202, 203, 204, 205, 206, 207, 208, 209, 210, 211, 212, 213, 214, 215, 216, 217, 218, 219, 220, 221, 222, 223, 224, 225, 226, 227, 228, 229, 230, 231, 232, 233, 234, 235, 236, 237, 238, 239, 240, 241, 242, 243, 244, 245, 246, 247, 248, 249, 250, 251, 252, 253, 254, 255, 256, 257, 258, 259, 260, 261, 262, 263, 264, 265, 266, 267, 268, 269, 270, 271, 272, 273, 274, 275, 276, 277, 278, 279, 280, 281, 282, 283, 284, 285, 286, 287, 288, 289, 290, 291, 292, 293, 294, 295, 296, 297, 298, 299, 300, 301, 302, 303, 304, 305, 306, 307, 308, 309, 310, 311, 312, 313, 314, 315, 316, 317, 318, 319, 320],
      "LargestImagePixelValue": [59792, 58181, 56637, 56407, 55703, 55979, 55306, 55689, 55696, 55726, 55481, 56008, 55856, 56209, 56333, 55891, 56283, 56167, 56142, 56888, 56638, 56329, 56405, 56211, 56606, 56160, 55984, 56273, 56497, 56279, 56078, 55833, 56283, 55844, 55709, 56023, 57098, 55943, 55404, 55462, 55439, 55165, 55109, 55777, 55570, 55365, 55798, 55357, 55555, 55065, 55251, 55406, 55734, 55614, 55676, 55064, 54754, 55096, 54935, 54914, 54930, 55028, 54935, 54946, 55502, 55284, 55551, 54648, 55441, 55143, 55017, 54802, 54704, 54787, 54278, 55115, 54272, 55299, 54697, 54562, 54698, 54718, 55412, 54871, 54915, 55193, 54809, 56226, 55262, 55390, 55609, 55607, 55533, 55502, 55715, 55730, 55589, 55659, 56402, 54973, 56051, 55823, 55952, 56036, 55455, 55378, 55592, 55420, 55483, 55783, 55722, 55976, 55915, 56154, 56454, 55762, 55910, 56488, 56115, 55827, 55790, 55976, 55976, 56147, 55821, 57382, 55251, 55991, 56192, 56440, 56554, 56316, 56341, 56350, 56259, 56092, 56364, 55979, 56095, 56321, 55909, 55717, 55906, 56018, 55908, 55655, 56454, 56218, 56397, 56037, 56206, 56281, 55986, 56253, 56398, 56305, 56072, 56173, 56322, 56343, 56093, 55764, 55709, 55520, 56273, 55976, 56560, 56249, 56057, 56213, 56256, 55615, 56162, 55786, 56002, 55841, 56009, 56150, 56352, 56197, 56202, 56438, 56432, 55965, 56301, 56113, 56445, 56225, 56600, 55740, 55780, 56499, 56063, 55975, 56190, 56329, 55998, 56500, 56076, 55922, 56180, 55833, 56383, 56025, 55803, 56638, 55930, 56201, 56415, 55702, 56231, 55973, 56397, 55852, 55722, 56045, 56065, 55519, 55748, 55566, 55370, 55583, 55447, 55134, 56164, 55626, 55956, 55373, 56151, 56323, 55907, 56004, 55771, 56045, 55372, 55903, 55715, 55487, 56178, 55429, 55281, 55744, 55943, 54873, 54304, 53841, 54479, 53761, 54169, 53920, 53914, 53712, 54207, 54256, 53961, 53674, 54460, 54102, 53747, 54432, 53719, 53532, 53655, 54084, 53739, 54446, 54505, 54398, 54719, 54442, 54603, 55862, 56517, 56779, 56651, 56338, 55911, 56250, 55701, 56166, 55538, 55899, 55872, 55839, 55499, 55345, 55889, 55488, 55064, 55586, 55273, 55814, 55454, 55528, 55759, 55733, 55631, 55984, 55973, 55967, 55934, 55978, 55436, 55710, 55977, 55289, 55684, 55696, 55353, 55071, 55409, 55527, 55531, 55948, 55557, 56011, 56100, 55603, 55881, 55962],
