{
  "AcquisitionMatrixPE": 104,
  "AcquisitionNumber": 1,
  "AcquisitionTime": "19:33:50.650000",
  "BandwidthPerPixelPhaseEncode": 17.17,
  "BaseResolution": 104,
  "BodyPartExamined": "BRAIN",
  "CoilCombinationMethod": "Sum of Squares",
  "ConsistencyInfo": "N4_VE11C_LATEST_20160120",
  "ConversionSoftware": "dcm2niix",
  "ConversionSoftwareVersion": "v1.0.20220505",
  "DerivedVendorReportedEchoSpacing": 0.000560011,
  "DeviceSerialNumber": "167006",
  "DwellTime": 2.1e-06,
  "EchoTime": 0.037,
  "EchoTrainLength": 104,
  "EffectiveEchoSpacing": 0.000560011,
  "FlipAngle": 52,
  "HeudiconvVersion": "0.5.3.post811+g6206e14",
  "ImageComments": "Unaliased MB4/PE3/LB",
  "ImageOrientationPatientDICOM": [0.99943, -0.0337242, 0.00171381, 0.0319322, 0.92738, -0.372756],
  "ImageOrientationText": "Tra>Cor(-21.9)>Sag(-0.6)",
  "ImageType": [
    "ORIGINAL",
    "PRIMARY",
    "M",
    "MB",
    "ND",
    "MOSAIC"
],
  "ImagingFrequency": 123.259,
  "InPlanePhaseEncodingDirectionDICOM": "COL",
  "InstitutionAddress": "Chemin Queen-Mary 4565,Montreal,District,CA,H3W 1W5",
  "InstitutionName": "IUGM",
  "InstitutionalDepartmentName": "Department",
  "MRAcquisitionType": "2D",
  "MagneticFieldStrength": 3,
  "Manufacturer": "Siemens",
  "ManufacturersModelName": "Prisma_fit",
  "MatrixCoilMode": "SENSE",
  "Modality": "MR",
  "MultibandAccelerationFactor": 4,
  "PartialFourier": 1,
  "PatientPosition": "HFS",
  "PercentPhaseFOV": 100,
  "PercentSampling": 100,
  "PhaseEncodingDirection": "j",
  "PhaseEncodingSteps": 104,
  "PhaseResolution": 1,
  "PixelBandwidth": 2290,
  "ProcedureStepDescription": "games^mario3",
  "ProtocolName": "func_task-mario3_run-03",
  "PulseSequenceDetails": "%CustomerSeq%\\cmrr_mbep2d_bold",
  "ReceiveCoilActiveElements": "HC1-7;NC1,2",
  "ReceiveCoilName": "HeadNeck_64",
  "ReconMatrixPE": 104,
  "RepetitionTime": 1.49,
  "SAR": 0.0726219,
  "ScanOptions": "FS",
  "ScanningSequence": "EP",
  "SequenceName": "epfid2d1_104",
  "SequenceVariant": "SK\\SS",
  "SeriesDescription": "func_task-mario3_run-03",
  "SeriesNumber": 16,
  "ShimSetting": [589, -7297, -8821, 389, 47, -370, -32, 109],
  "SliceThickness": 2,
  "SliceTiming": [0, 0.785, 0.0975, 0.8825, 0.195, 0.98, 0.295, 1.0775, 0.3925, 1.175, 0.49, 1.275, 0.5875, 1.3725, 0.685, 0, 0.785, 0.0975, 0.8825, 0.195, 0.98, 0.295, 1.0775, 0.3925, 1.175, 0.49, 1.275, 0.5875, 1.3725, 0.685, 0, 0.785, 0.0975, 0.8825, 0.195, 0.98, 0.295, 1.0775, 0.3925, 1.175, 0.49, 1.275, 0.5875, 1.3725, 0.685, 0, 0.785, 0.0975, 0.8825, 0.195, 0.98, 0.295, 1.0775, 0.3925, 1.175, 0.49, 1.275, 0.5875, 1.3725, 0.685],
  "SoftwareVersions": "syngo MR E11",
  "SpacingBetweenSlices": 2,
  "StationName": "MRC35049",
  "TaskName": "mario3",
  "TotalReadoutTime": 0.0576811,
  "TxRefAmp": 286.202,
  "WipMemBlock": "b95d6276-67b3-4e6a-9d58-bb6c0f8ebda4||Sequence: R017 ve11c/master r/75a17815+; Jun 28 2022 16:32:11 by eja",
  "dcmmeta_affine": [
    [-1.9988594055175781, 0.0638643205165863, -0.021963054314255714, 102.03355407714844],
    [0.06744834035634995, 1.854759693145752, -0.7451959252357483, -71.11678314208984],
    [0.003427620977163315, 0.7455116510391235, 1.8558557033538818, -63.947078704833984],
    [0.0, 0.0, 0.0, 1.0]
],
  "dcmmeta_reorient_transform": [
    [0.0, -1.0, 0.0, 103.0],
    [1.0, 0.0, 0.0, 0.0],
    [0.0, 0.0, 1.0, 0.0],
    [0.0, 0.0, 0.0, 1.0]
],
  "dcmmeta_shape": [104, 104, 60, 307],
  "dcmmeta_slice_dim": 2,
  "dcmmeta_version": 0.6,
  "global": {
    "const": {
      "AcquisitionMatrix": [104, 0, 0, 104],
      "AngioFlag": "N",
      "BitsAllocated": 16,
      "BitsStored": 16,
      "BodyPartExamined": "BRAIN",
      "Columns": 832,
      "EchoNumbers": 1,
      "EchoTime": 37.0,
      "EchoTrainLength": 104,
      "FlipAngle": 52.0,
      "HighBit": 15,
      "ImageOrientationPatient": [0.99942970901494, -0.0337241692554, 0.0017138104756, 0.03193215918105, 0.92737987001826, -0.3727558368355],
      "ImagePositionPatient": [-859.44301940742, -770.50482321661, 282.95922041755],
      "ImageType": [
        "ORIGINAL",
        "PRIMARY",
        "M",
        "MB",
        "ND",
        "MOSAIC"
],
      "ImagedNucleus": "1H",
      "ImagingFrequency": 123.25902,
      "InPlanePhaseEncodingDirection": "COL",
      "MRAcquisitionType": "2D",
      "MagneticFieldStrength": 3.0,
      "Manufacturer": "SIEMENS",
      "ManufacturerModelName": "Prisma_fit",
      "Modality": "MR",
      "NumberOfAverages": 1.0,
      "NumberOfPhaseEncodingSteps": 104,
      "PercentPhaseFieldOfView": 100.0,
      "PercentSampling": 100.0,
      "PerformedProcedureStepStartTime": "190210.893000",
      "PhotometricInterpretation": "MONOCHROME2",
      "PixelBandwidth": 2290.0,
      "PixelRepresentation": 0,
      "PixelSpacing": [2.0, 2.0],
      "ProtocolName": "func_task-mario3_run-03",
      "RepetitionTime": 1490.0,
      "Rows": 832,
      "SAR": 0.07262192526291,
      "SamplesPerPixel": 1,
      "ScanOptions": "FS",
      "ScanningSequence": "EP",
      "SequenceName": "epfid2d1_104",
      "SequenceVariant": [
        "SK",
        "SS"
],
      "SeriesDescription": "func_task-mario3_run-03",
      "SeriesNumber": 16,
      "SeriesTime": "193456.095000",
      "SliceLocation": -33.960791123595,
      "SliceThickness": 2.0,
      "SmallestImagePixelValue": 0,
      "SoftwareVersions": "syngo MR E11",
      "SpacingBetweenSlices": 1.9999999497839,
      "SpecificCharacterSet": "ISO_IR 100",
      "StudyID": "1",
      "StudyTime": "190210.823000",
      "TransmitCoilName": "Body",
      "VariableFlipAngleFlag": "N",
      "WindowCenterWidthExplanation": "Algo1",
      "dBdt": 0.0},
    "slices": {}
  },
  "time": {
    "samples": {
      "AcquisitionNumber": [1, 2, 3, 4, 5, 6, 7, 8, 9, 10, 11, 12, 13, 14, 15, 16, 17, 18, 19, 20, 21, 22, 23, 24, 25, 26, 27, 28, 29, 30, 31, 32, 33, 34, 35, 36, 37, 38, 39, 40, 41, 42, 43, 44, 45, 46, 47, 48, 49, 50, 51, 52, 53, 54, 55, 56, 57, 58, 59, 60, 61, 62, 63, 64, 65, 66, 67, 68, 69, 70, 71, 72, 73, 74, 75, 76, 77, 78, 79, 80, 81, 82, 83, 84, 85, 86, 87, 88, 89, 90, 91, 92, 93, 94, 95, 96, 97, 98, 99, 100, 101, 102, 103, 104, 105, 106, 107, 108, 109, 110, 111, 112, 113, 114, 115, 116, 117, 118, 119, 120, 121, 122, 123, 124, 125, 126, 127, 128, 129, 130, 131, 132, 133, 134, 135, 136, 137, 138, 139, 140, 141, 142, 143, 144, 145, 146, 147, 148, 149, 150, 151, 152, 153, 154, 155, 156, 157, 158, 159, 160, 161, 162, 163, 164, 165, 166, 167, 168, 169, 170, 171, 172, 173, 174, 175, 176, 177, 178, 179, 180, 181, 182, 183, 184, 185, 186, 187, 188, 189, 190, 191, 192, 193, 194, 195, 196, 197, 198, 199, 200, 201, 202, 203, 204, 205, 206, 207, 208, 209, 210, 211, 212, 213, 214, 215, 216, 217, 218, 219, 220, 221, 222, 223, 224, 225, 226, 227, 228, 229, 230, 231, 232, 233, 234, 235, 236, 237, 238, 239, 240, 241, 242, 243, 244, 245, 246, 247, 248, 249, 250, 251, 252, 253, 254, 255, 256, 257, 258, 259, 260, 261, 262, 263, 264, 265, 266, 267, 268, 269, 270, 271, 272, 273, 274, 275, 276, 277, 278, 279, 280, 281, 282, 283, 284, 285, 286, 287, 288, 289, 290, 291, 292, 293, 294, 295, 296, 297, 298, 299, 300, 301, 302, 303, 304, 305, 306, 307],
      "AcquisitionTime": ["193350.650000", "193352.140000", "193353.630000", "193355.120000", "193356.610000", "193358.100000", "193359.590000", "193401.080000", "193402.570000", "193404.060000", "193405.550000", "193407.040000", "193408.530000", "193410.020000", "193411.510000", "193413.000000", "193414.490000", "193415.980000", "193417.470000", "193418.960000", "193420.450000", "193421.940000", "193423.430000", "193424.920000", "193426.410000", "193427.900000", "193429.390000", "193430.880000", "193432.370000", "193433.860000", "193435.350000", "193436.840000", "193438.330000", "193439.820000", "193441.310000", "193442.800000", "193444.290000", "193445.780000", "193447.270000", "193448.760000", "193450.250000", "193451.740000", "193453.230000", "193454.720000", "193456.210000", "193457.700000", "193459.190000", "193500.680000", "193502.170000", "193503.660000", "193505.150000", "193506.640000", "193508.130000", "193509.620000", "193511.110000", "193512.600000", "193514.090000", "193515.580000", "193517.070000", "193518.560000", "193520.050000", "193521.540000", "193523.030000", "193524.520000", "193526.010000", "193527.500000", "193528.990000", "193530.480000", "193531.970000", "193533.460000", "193534.950000", "193536.440000", "193537.930000", "193539.420000", "193540.910000", "193542.400000", "193543.890000", "193545.380000", "193546.870000", "193548.360000", "193549.850000", "193551.340000", "193552.830000", "193554.320000", "193555.810000", "193557.300000", "193558.790000", "193600.280000", "193601.770000", "193603.260000", "193604.750000", "193606.240000", "193607.730000", "193609.220000", "193610.710000", "193612.200000", "193613.690000", "193615.180000", "193616.670000", "193618.160000", "193619.650000", "193621.140000", "193622.630000", "193624.120000", "193625.610000", "193627.100000", "193628.590000", "193630.080000", "193631.570000", "193633.060000", "193634.550000", "193636.040000", "193637.530000", "193639.020000", "193640.510000", "193642.000000", "193643.490000", "193644.980000", "193646.470000", "193647.960000", "193649.450000", "193650.940000", "193652.430000", "193653.920000", "193655.410000", "193656.900000", "193658.390000", "193659.880000", "193701.370000", "193702.860000", "193704.350000", "193705.840000", "193707.330000", "193708.820000", "193710.310000", "193711.800000", "193713.290000", "193714.780000", "193716.270000", "193717.760000", "193719.250000", "193720.740000", "193722.230000", "193723.720000", "193725.210000", "193726.700000", "193728.190000", "193729.680000", "193731.170000", "193732.660000", "193734.150000", "193735.640000", "193737.130000", "193738.620000", "193740.110000", "193741.600000", "193743.090000", "193744.580000", "193746.070000", "193747.560000", "193749.050000", "193750.540000", "193752.030000", "193753.520000", "193755.010000", "193756.500000", "193757.990000", "193759.480000", "193800.970000", "193802.460000", "193803.950000", "193805.440000", "193806.930000", "193808.420000", "193809.910000", "193811.400000", "193812.890000", "193814.380000", "193815.870000", "193817.360000", "193818.850000", "193820.340000", "193821.830000", "193823.320000", "193824.810000", "193826.300000", "193827.790000", "193829.280000", "193830.770000", "193832.260000", "193833.750000", "193835.240000", "193836.730000", "193838.220000", "193839.710000", "193841.200000", "193842.690000", "193844.180000", "193845.670000", "193847.160000", "193848.650000", "193850.140000", "193851.630000", "193853.120000", "193854.610000", "193856.100000", "193857.590000", "193859.080000", "193900.570000", "193902.060000", "193903.550000", "193905.040000", "193906.530000", "193908.020000", "193909.510000", "193911.000000", "193912.490000", "193913.980000", "193915.470000", "193916.960000", "193918.450000", "193919.940000", "193921.430000", "193922.920000", "193924.410000", "193925.900000", "193927.390000", "193928.880000", "193930.370000", "193931.860000", "193933.350000", "193934.840000", "193936.330000", "193937.820000", "193939.310000", "193940.800000", "193942.290000", "193943.780000", "193945.270000", "193946.760000", "193948.250000", "193949.740000", "193951.230000", "193952.720000", "193954.210000", "193955.700000", "193957.190000", "193958.680000", "194000.170000", "194001.660000", "194003.150000", "194004.640000", "194006.130000", "194007.620000", "194009.110000", "194010.600000", "194012.090000", "194013.580000", "194015.070000", "194016.560000", "194018.050000", "194019.540000", "194021.030000", "194022.520000", "194024.010000", "194025.500000", "194026.990000", "194028.480000", "194029.970000", "194031.460000", "194032.950000", "194034.440000", "194035.930000", "194037.420000", "194038.910000", "194040.400000", "194041.890000", "194043.380000", "194044.870000", "194046.360000", "194047.850000", "194049.340000", "194050.830000", "194052.320000", "194053.810000", "194055.300000", "194056.790000", "194058.280000", "194059.770000", "194101.260000", "194102.750000", "194104.240000", "194105.730000", "194107.220000", "194108.710000", "194110.200000", "194111.690000", "194113.180000", "194114.670000", "194116.160000", "194117.650000", "194119.140000", "194120.630000", "194122.120000", "194123.610000", "194125.100000", "194126.590000"],
      "ContentTime": ["193456.099000", "193456.103000", "193456.106000", "193456.110000", "193456.113000", "193456.117000", "193456.120000", "193456.124000", "193456.127000", "193456.131000", "193456.135000", "193456.138000", "193456.142000", "193456.145000", "193456.149000", "193456.152000", "193516.061000", "193516.065000", "193516.069000", "193516.094000", "193516.098000", "193516.102000", "193516.105000", "193516.109000", "193516.112000", "193516.116000", "193516.119000", "193516.123000", "193516.126000", "193516.130000", "193516.133000", "193516.137000", "193516.140000", "193516.143000", "193516.147000", "193516.150000", "193516.154000", "193536.062000", "193536.066000", "193536.070000", "193536.073000", "193536.077000", "193536.080000", "193536.084000", "193536.087000", "193536.091000", "193536.094000", "193536.098000", "193536.101000", "193536.105000", "193536.108000", "193536.112000", "193536.115000", "193536.119000", "193536.122000", "193536.126000", "193536.129000", "193556.062000", "193556.066000", "193556.069000", "193556.073000", "193556.077000", "193556.080000", "193556.083000", "193556.087000", "193556.090000", "193556.094000", "193556.097000", "193556.101000", "193556.104000", "193556.108000", "193556.111000", "193556.115000", "193556.118000", "193556.126000", "193556.130000", "193556.133000", "193616.062000", "193616.066000", "193616.070000", "193616.073000", "193616.077000", "193616.080000", "193616.084000", "193616.102000", "193616.106000", "193616.109000", "193616.113000", "193616.116000", "193616.120000", "193616.123000", "193616.127000", "193616.130000", "193616.134000", "193616.137000", "193616.141000", "193616.144000", "193656.062000", "193656.066000", "193656.070000", "193656.073000", "193656.077000", "193656.080000", "193656.084000", "193656.087000", "193656.090000", "193656.094000", "193656.097000", "193656.101000", "193656.104000", "193656.108000", "193656.111000", "193656.115000", "193656.118000", "193656.122000", "193656.125000", "193656.129000", "193656.132000", "193656.135000", "193656.139000", "193656.143000", "193656.146000", "193656.150000", "193656.153000", "193736.061000", "193736.065000", "193736.069000", "193736.072000", "193736.075000", "193736.079000", "193736.082000", "193736.086000", "193736.089000", "193736.093000", "193736.096000", "193736.100000", "193736.103000", "193736.107000", "193736.110000", "193736.114000", "193736.117000", "193736.121000", "193736.124000", "193736.127000", "193736.131000", "193736.134000", "193736.138000", "193736.141000", "193736.145000", "193736.148000", "193736.151000", "193816.063000", "193816.066000", "193816.070000", "193816.074000", "193816.078000", "193816.081000", "193816.085000", "193816.088000", "193816.092000", "193816.095000", "193816.099000", "193816.102000", "193816.106000", "193816.109000", "193816.122000", "193816.125000", "193816.129000", "193816.132000", "193816.136000", "193816.139000", "193816.143000", "193816.146000", "193816.150000", "193816.153000", "193816.157000", "193816.160000", "193856.062000", "193856.066000", "193856.070000", "193856.073000", "193856.077000", "193856.080000", "193856.084000", "193856.087000", "193856.091000", "193856.094000", "193856.097000", "193856.101000", "193856.104000", "193856.108000", "193856.111000", "193856.115000", "193856.119000", "193856.122000", "193856.126000", "193856.129000", "193856.133000", "193856.136000", "193856.140000", "193856.143000", "193856.147000", "193856.150000", "193856.153000", "193936.061000", "193936.065000", "193936.069000", "193936.072000", "193936.076000", "193936.079000", "193936.083000", "193936.086000", "193936.090000", "193936.093000", "193936.097000", "193936.101000", "193936.104000", "193936.108000", "193936.111000", "193936.115000", "193936.118000", "193936.122000", "193936.125000", "193936.133000", "193936.137000", "193936.140000", "193936.144000", "193936.147000", "193936.151000", "193936.154000", "193936.158000", "194016.062000", "194016.066000", "194016.070000", "194016.073000", "194016.077000", "194016.080000", "194016.084000", "194016.087000", "194016.091000", "194016.094000", "194016.098000", "194016.101000", "194016.104000", "194016.108000", "194016.111000", "194016.115000", "194016.118000", "194016.128000", "194016.131000", "194016.135000", "194016.138000", "194016.142000", "194016.145000", "194016.148000", "194016.152000", "194016.155000", "194016.159000", "194056.062000", "194056.066000", "194056.070000", "194056.073000", "194056.077000", "194056.081000", "194056.084000", "194056.088000", "194056.091000", "194056.095000", "194056.099000", "194056.102000", "194056.106000", "194056.109000", "194056.113000", "194056.117000", "194056.120000", "194056.124000", "194056.127000", "194056.131000", "194056.134000", "194056.138000", "194056.141000", "194056.145000", "194056.148000", "194056.152000", "194056.155000", "194129.040000", "194129.044000", "194129.048000", "194129.051000", "194129.055000", "194129.058000", "194129.062000", "194129.065000", "194129.069000", "194129.072000", "194129.076000", "194129.079000", "194129.083000", "194129.086000", "194129.090000", "194129.093000", "194129.103000", "194129.107000", "194129.110000", "194129.114000", "194129.117000", "194129.121000"],
      "InstanceCreationTime": ["193456.099000", "193456.103000", "193456.106000", "193456.110000", "193456.113000", "193456.117000", "193456.120000", "193456.124000", "193456.127000", "193456.131000", "193456.135000", "193456.138000", "193456.142000", "193456.145000", "193456.149000", "193456.152000", "193516.061000", "193516.065000", "193516.069000", "193516.094000", "193516.098000", "193516.102000", "193516.105000", "193516.109000", "193516.112000", "193516.116000", "193516.119000", "193516.123000", "193516.126000", "193516.130000", "193516.133000", "193516.137000", "193516.140000", "193516.143000", "193516.147000", "193516.150000", "193516.154000", "193536.062000", "193536.066000", "193536.070000", "193536.073000", "193536.077000", "193536.080000", "193536.084000", "193536.087000", "193536.091000", "193536.094000", "193536.098000", "193536.101000", "193536.105000", "193536.108000", "193536.112000", "193536.115000", "193536.119000", "193536.122000", "193536.126000", "193536.129000", "193556.062000", "193556.066000", "193556.069000", "193556.073000", "193556.077000", "193556.080000", "193556.083000", "193556.087000", "193556.090000", "193556.094000", "193556.097000", "193556.101000", "193556.104000", "193556.108000", "193556.111000", "193556.115000", "193556.118000", "193556.126000", "193556.130000", "193556.133000", "193616.062000", "193616.066000", "193616.070000", "193616.073000", "193616.077000", "193616.080000", "193616.084000", "193616.102000", "193616.106000", "193616.109000", "193616.113000", "193616.116000", "193616.120000", "193616.123000", "193616.127000", "193616.130000", "193616.134000", "193616.137000", "193616.141000", "193616.144000", "193656.062000", "193656.066000", "193656.070000", "193656.073000", "193656.077000", "193656.080000", "193656.084000", "193656.087000", "193656.090000", "193656.094000", "193656.097000", "193656.101000", "193656.104000", "193656.108000", "193656.111000", "193656.115000", "193656.118000", "193656.122000", "193656.125000", "193656.129000", "193656.132000", "193656.135000", "193656.139000", "193656.143000", "193656.146000", "193656.150000", "193656.153000", "193736.061000", "193736.065000", "193736.069000", "193736.072000", "193736.075000", "193736.079000", "193736.082000", "193736.086000", "193736.089000", "193736.093000", "193736.096000", "193736.100000", "193736.103000", "193736.107000", "193736.110000", "193736.114000", "193736.117000", "193736.121000", "193736.124000", "193736.127000", "193736.131000", "193736.134000", "193736.138000", "193736.141000", "193736.145000", "193736.148000", "193736.151000", "193816.063000", "193816.066000", "193816.070000", "193816.074000", "193816.078000", "193816.081000", "193816.085000", "193816.088000", "193816.092000", "193816.095000", "193816.099000", "193816.102000", "193816.106000", "193816.109000", "193816.122000", "193816.125000", "193816.129000", "193816.132000", "193816.136000", "193816.139000", "193816.143000", "193816.146000", "193816.150000", "193816.153000", "193816.157000", "193816.160000", "193856.062000", "193856.066000", "193856.070000", "193856.073000", "193856.077000", "193856.080000", "193856.084000", "193856.087000", "193856.091000", "193856.094000", "193856.097000", "193856.101000", "193856.104000", "193856.108000", "193856.111000", "193856.115000", "193856.119000", "193856.122000", "193856.126000", "193856.129000", "193856.133000", "193856.136000", "193856.140000", "193856.143000", "193856.147000", "193856.150000", "193856.153000", "193936.061000", "193936.065000", "193936.069000", "193936.072000", "193936.076000", "193936.079000", "193936.083000", "193936.086000", "193936.090000", "193936.093000", "193936.097000", "193936.101000", "193936.104000", "193936.108000", "193936.111000", "193936.115000", "193936.118000", "193936.122000", "193936.125000", "193936.133000", "193936.137000", "193936.140000", "193936.144000", "193936.147000", "193936.151000", "193936.154000", "193936.158000", "194016.062000", "194016.066000", "194016.070000", "194016.073000", "194016.077000", "194016.080000", "194016.084000", "194016.087000", "194016.091000", "194016.094000", "194016.098000", "194016.101000", "194016.104000", "194016.108000", "194016.111000", "194016.115000", "194016.118000", "194016.128000", "194016.131000", "194016.135000", "194016.138000", "194016.142000", "194016.145000", "194016.148000", "194016.152000", "194016.155000", "194016.159000", "194056.062000", "194056.066000", "194056.070000", "194056.073000", "194056.077000", "194056.081000", "194056.084000", "194056.088000", "194056.091000", "194056.095000", "194056.099000", "194056.102000", "194056.106000", "194056.109000", "194056.113000", "194056.117000", "194056.120000", "194056.124000", "194056.127000", "194056.131000", "194056.134000", "194056.138000", "194056.141000", "194056.145000", "194056.148000", "194056.152000", "194056.155000", "194129.040000", "194129.044000", "194129.048000", "194129.051000", "194129.055000", "194129.058000", "194129.062000", "194129.065000", "194129.069000", "194129.072000", "194129.076000", "194129.079000", "194129.083000", "194129.086000", "194129.090000", "194129.093000", "194129.103000", "194129.107000", "194129.110000", "194129.114000", "194129.117000", "194129.121000"],
      "InstanceNumber": [1, 2, 3, 4, 5, 6, 7, 8, 9, 10, 11, 12, 13, 14, 15, 16, 17, 18, 19, 20, 21, 22, 23, 24, 25, 26, 27, 28, 29, 30, 31, 32, 33, 34, 35, 36, 37, 38, 39, 40, 41, 42, 43, 44, 45, 46, 47, 48, 49, 50, 51, 52, 53, 54, 55, 56, 57, 58, 59, 60, 61, 62, 63, 64, 65, 66, 67, 68, 69, 70, 71, 72, 73, 74, 75, 76, 77, 78, 79, 80, 81, 82, 83, 84, 85, 86, 87, 88, 89, 90, 91, 92, 93, 94, 95, 96, 97, 98, 99, 100, 101, 102, 103, 104, 105, 106, 107, 108, 109, 110, 111, 112, 113, 114, 115, 116, 117, 118, 119, 120, 121, 122, 123, 124, 125, 126, 127, 128, 129, 130, 131, 132, 133, 134, 135, 136, 137, 138, 139, 140, 141, 142, 143, 144, 145, 146, 147, 148, 149, 150, 151, 152, 153, 154, 155, 156, 157, 158, 159, 160, 161, 162, 163, 164, 165, 166, 167, 168, 169, 170, 171, 172, 173, 174, 175, 176, 177, 178, 179, 180, 181, 182, 183, 184, 185, 186, 187, 188, 189, 190, 191, 192, 193, 194, 195, 196, 197, 198, 199, 200, 201, 202, 203, 204, 205, 206, 207, 208, 209, 210, 211, 212, 213, 214, 215, 216, 217, 218, 219, 220, 221, 222, 223, 224, 225, 226, 227, 228, 229, 230, 231, 232, 233, 234, 235, 236, 237, 238, 239, 240, 241, 242, 243, 244, 245, 246, 247, 248, 249, 250, 251, 252, 253, 254, 255, 256, 257, 258, 259, 260, 261, 262, 263, 264, 265, 266, 267, 268, 269, 270, 271, 272, 273, 274, 275, 276, 277, 278, 279, 280, 281, 282, 283, 284, 285, 286, 287, 288, 289, 290, 291, 292, 293, 294, 295, 296, 297, 298, 299, 300, 301, 302, 303, 304, 305, 306, 307],
      "LargestImagePixelValue": [60997, 58192, 57015, 56695, 56682, 55026, 56314, 55632, 55612, 55365, 55690, 55115, 55524, 55996, 56044, 56843, 56190, 55612, 55626, 56019, 55870, 56536, 55718, 55995, 56421, 56638, 56643, 56031, 56625, 56984, 57146, 56883, 55591, 56319, 56555, 55987, 57214, 55928, 56480, 57038, 56994, 58602, 57972, 57351, 57543, 57553, 57322, 57055, 57447, 57324, 56816, 56813, 57018, 56719, 57813, 57740, 57735, 57770, 57599, 57603, 57759, 57863, 57902, 57127, 57620, 57415, 56866, 57962, 58279, 57584, 57765, 57538, 57210, 57441, 57702, 56433, 57277, 57130, 57389, 57167, 57227, 57060, 57146, 57570, 57244, 57507, 57305, 57313, 58042, 58029, 57654, 57331, 56901, 56962, 57384, 57639, 56711, 56655, 57241, 57357, 57651, 58344, 57667, 56843, 57461, 57079, 56898, 57707, 57099, 56892, 57444, 57279, 56930, 57363, 57419, 56947, 56648, 56667, 57217, 57230, 57357, 57160, 57034, 57681, 57287, 56893, 57082, 57367, 57113, 56598, 57802, 57542, 58920, 57426, 57049, 57333, 57474, 56636, 57836, 57104, 56931, 57325, 57647, 57494, 57632, 56941, 57560, 56294, 55768, 56146, 55240, 55147, 55179, 55438, 54271, 54029, 54163, 54542, 53666, 53800, 54916, 56185, 54014, 53749, 53920, 54505, 54804, 54716, 55362, 55906, 55565, 54861, 55140, 54435, 55657, 56294, 56205, 55505, 55721, 56306, 56294, 55893, 55038, 55691, 55191, 55182, 54004, 54765, 54750, 54396, 54957, 55200, 54698, 54735, 54859, 54802, 55047, 54791, 55034, 55221, 55009, 55159, 54582, 54730, 54399, 55777, 56012, 57265, 57516, 55722, 56670, 56626, 56977, 57511, 55686, 55948, 55394, 54984, 54514, 54964, 54004, 54075, 53559, 54079, 53924, 53816, 53807, 53812, 53352, 53529, 54009, 55056, 52798, 52271, 51893, 51564, 51806, 52111, 52422, 51180, 51696, 51655, 51584, 52311, 51270, 52467, 52744, 51654, 52077, 51243, 51241, 52673, 52099, 51911, 53115, 52675, 52682, 53316, 52618, 52289, 53240, 53317, 53657, 53350, 52195, 53405, 52320, 52066, 51993, 52088, 52924, 53409, 51882, 52316, 52434, 51714, 52728, 51831, 51670, 51942, 52354, 52656, 51407, 53005, 53978, 53780, 53782, 53146, 54068, 53410, 52913, 53569, 52366, 52684, 53150, 53187, 53152, 53796, 53510, 52486, 54142, 52909, 51573, 53240, 51695, 59229, 53842],
      "WindowCenter": [10640.0, 10557.0, 10563.0, 10566.0, 10565.0, 10547.0, 10548.0, 10555.0, 10557.0, 10566.0, 10590.0, 10582.0, 10588.0, 10573.0, 10589.0, 10630.0, 10548.0, 10544.0, 10560.0, 10599.0, 10618.0, 10645.0, 10611.0, 10593.0, 10601.0, 10607.0, 10599.0, 10548.0, 10583.0, 10587.0, 10585.0, 10578.0, 10575.0, 10596.0, 10619.0, 10610.0, 10681.0, 10587.0, 10619.0, 10630.0, 10610.0, 10638.0, 10617.0, 10609.0, 10606.0, 10597.0, 10572.0, 10574.0, 10590.0, 10582.0, 10593.0, 10615.0, 10582.0, 10589.0, 10618.0, 10609.0, 10611.0, 10611.0, 10614.0, 10619.0, 10631.0, 10621.0, 10641.0, 10598.0, 10604.0, 10611.0, 10557.0, 10615.0, 10609.0, 10595.0, 10581.0, 10584.0, 10584.0, 10593.0, 10634.0, 10576.0, 10625.0, 10600.0, 10641.0, 10611.0, 10610.0, 10629.0, 10630.0, 10627.0, 10621.0, 10628.0, 10613.0, 10622.0, 10625.0, 10575.0, 10586.0, 10572.0, 10554.0, 10554.0, 10565.0, 10596.0, 10568.0, 10579.0, 10592.0, 10590.0, 10607.0, 10624.0, 10617.0, 10631.0, 10598.0, 10627.0, 10631.0, 10651.0, 10641.0, 10627.0, 10637.0, 10632.0, 10623.0, 10607.0, 10605.0, 10599.0, 10571.0, 10554.0, 10578.0, 10594.0, 10602.0, 10617.0, 10616.0, 10628.0, 10623.0, 10629.0, 10639.0, 10639.0, 10659.0, 10633.0, 10626.0, 10609.0, 10692.0, 10582.0, 10608.0, 10619.0, 10618.0, 10649.0, 10636.0, 10616.0, 10626.0, 10632.0, 10641.0, 10624.0, 10625.0, 10620.0, 10622.0, 10599.0, 10569.0, 10605.0, 10612.0, 10575.0, 10562.0, 10586.0, 10569.0, 10554.0, 10561.0, 10574.0, 10566.0, 10528.0, 10579.0, 10653.0, 10577.0, 10603.0, 10601.0, 10616.0, 10616.0, 10591.0, 10620.0, 10627.0, 10617.0, 10610.0, 10613.0, 10564.0, 10599.0, 10610.0, 10588.0, 10566.0, 10604.0, 10597.0, 10628.0, 10617.0, 10575.0, 10576.0, 10557.0, 10615.0, 10520.0, 10587.0, 10575.0, 10580.0, 10605.0, 10618.0, 10619.0, 10613.0, 10606.0, 10611.0, 10611.0, 10608.0, 10618.0, 10625.0, 10615.0, 10609.0, 10602.0, 10604.0, 10560.0, 10649.0, 10602.0, 10625.0, 10647.0, 10560.0, 10599.0, 10591.0, 10588.0, 10634.0, 10503.0, 10600.0, 10592.0, 10574.0, 10543.0, 10545.0, 10530.0, 10527.0, 10531.0, 10551.0, 10559.0, 10546.0, 10564.0, 10573.0, 10567.0, 10583.0, 10581.0, 10624.0, 10565.0, 10525.0, 10500.0, 10488.0, 10519.0, 10526.0, 10519.0, 10484.0, 10478.0, 10475.0, 10489.0, 10494.0, 10490.0, 10553.0, 10576.0, 10568.0, 10571.0, 10561.0, 10580.0, 10579.0, 10559.0, 10550.0, 10550.0, 10546.0, 10543.0, 10565.0, 10553.0, 10542.0, 10549.0, 10547.0, 10556.0, 10562.0, 10609.0, 10532.0, 10589.0, 10602.0, 10566.0, 10603.0, 10559.0, 10588.0, 10562.0, 10566.0, 10593.0, 10515.0, 10581.0, 10581.0, 10496.0, 10526.0, 10551.0, 10561.0, 10490.0, 10588.0, 10589.0, 10577.0, 10544.0, 10522.0, 10524.0, 10515.0, 10530.0, 10551.0, 10547.0, 10557.0, 10538.0, 10528.0, 10535.0, 10548.0, 10551.0, 10531.0, 10549.0, 10545.0, 10495.0, 10397.0, 10320.0, 10585.0, 10438.0],
