{
  "AcquisitionMatrixPE": 104,
  "AcquisitionNumber": 1,
  "AcquisitionTime": "11:26:6.727500",
  "BandwidthPerPixelPhaseEncode": 17.17,
  "BaseResolution": 104,
  "BodyPartExamined": "BRAIN",
  "CoilCombinationMethod": "Sum of Squares",
  "ConsistencyInfo": "N4_VE11C_LATEST_20160120",
  "ConversionSoftware": "dcm2niix",
  "ConversionSoftwareVersion": "v1.0.20220505",
  "DerivedVendorReportedEchoSpacing": 0.000560011,
  "DeviceSerialNumber": "167006",
  "DwellTime": 2.1e-06,
  "EchoTime": 0.037,
  "EchoTime1": 0.037,
  "EchoTime2": 0.001,
  "EchoTrainLength": 104,
  "EffectiveEchoSpacing": 0.000560011,
  "FlipAngle": 52,
  "HeudiconvVersion": "0.5.3.post811+g6206e14",
  "ImageComments": "Unaliased MB4/PE3/LB",
  "ImageOrientationPatientDICOM": [0.993406, 0.109267, 0.0347048, -0.0876107, 0.918775, -0.384937],
  "ImageOrientationText": "Tra>Cor(-22.4)>Sag(4.2)",
  "ImageType": [
    "ORIGINAL",
    "PRIMARY",
    "P",
    "MB",
    "ND",
    "MOSAIC",
    "PHASE"
],
  "ImagingFrequency": 123.259,
  "InPlanePhaseEncodingDirectionDICOM": "COL",
  "InstitutionAddress": "Chemin Queen-Mary 4565,Montreal,District,CA,H3W 1W5",
  "InstitutionName": "IUGM",
  "InstitutionalDepartmentName": "Department",
  "MRAcquisitionType": "2D",
  "MagneticFieldStrength": 3,
  "Manufacturer": "Siemens",
  "ManufacturersModelName": "Prisma_fit",
  "MatrixCoilMode": "SENSE",
  "Modality": "MR",
  "MultibandAccelerationFactor": 4,
  "PartialFourier": 1,
  "PatientPosition": "HFS",
  "PercentPhaseFOV": 100,
  "PercentSampling": 100,
  "PhaseEncodingDirection": "j",
  "PhaseEncodingSteps": 104,
  "PhaseResolution": 1,
  "PixelBandwidth": 2290,
  "ProcedureStepDescription": "games^mario3",
  "ProtocolName": "func_task-mario3_run-01",
  "PulseSequenceDetails": "%CustomerSeq%\\cmrr_mbep2d_bold",
  "ReceiveCoilActiveElements": "HC1-7;NC1,2",
  "ReceiveCoilName": "HeadNeck_64",
  "ReconMatrixPE": 104,
  "RepetitionTime": 1.49,
  "SAR": 0.0812763,
  "ScanOptions": "FS",
  "ScanningSequence": "EP",
  "SequenceName": "epfid2d1_104",
  "SequenceVariant": "SK\\SS",
  "SeriesDescription": "func_task-mario3_run-01",
  "SeriesNumber": 11,
  "ShimSetting": [636, -7182, -8844, 614, 101, 24, -98, 16],
  "SliceThickness": 2,
  "SliceTiming": [0, 0.7825, 0.0975, 0.8825, 0.195, 0.98, 0.2925, 1.0775, 0.3925, 1.175, 0.49, 1.2725, 0.5875, 1.3725, 0.685, 0, 0.7825, 0.0975, 0.8825, 0.195, 0.98, 0.2925, 1.0775, 0.3925, 1.175, 0.49, 1.2725, 0.5875, 1.3725, 0.685, 0, 0.7825, 0.0975, 0.8825, 0.195, 0.98, 0.2925, 1.0775, 0.3925, 1.175, 0.49, 1.2725, 0.5875, 1.3725, 0.685, 0, 0.7825, 0.0975, 0.8825, 0.195, 0.98, 0.2925, 1.0775, 0.3925, 1.175, 0.49, 1.2725, 0.5875, 1.3725, 0.685],
  "SoftwareVersions": "syngo MR E11",
  "SpacingBetweenSlices": 2,
  "StationName": "MRC35049",
  "TaskName": "mario3",
  "TotalReadoutTime": 0.0576811,
  "TxRefAmp": 316.832,
  "WipMemBlock": "9aa88b81-38a8-45d3-bf49-626b0090722a||Sequence: R017 ve11c/master r/75a17815+; Jun 28 2022 16:32:11 by eja",
  "dcmmeta_affine": [
    [-1.986812710762024, -0.17522145807743073, 0.14789408445358276, 110.50180053710938],
    [-0.21853496134281158, 1.8375500440597534, -0.7587175965309143, -45.71659469604492],
    [0.06940958648920059, 0.7698748707771301, 1.8445799350738525, -73.29668426513672],
    [0.0, 0.0, 0.0, 1.0]
],
  "dcmmeta_reorient_transform": [
    [0.0, -1.0, 0.0, 103.0],
    [1.0, 0.0, 0.0, 0.0],
    [0.0, 0.0, 1.0, 0.0],
    [0.0, 0.0, 0.0, 1.0]
],
  "dcmmeta_shape": [104, 104, 60, 365],
  "dcmmeta_slice_dim": 2,
  "dcmmeta_version": 0.6,
  "global": {
    "const": {
      "AcquisitionMatrix": [104, 0, 0, 104],
      "AngioFlag": "N",
      "BitsAllocated": 16,
      "BitsStored": 16,
      "BodyPartExamined": "BRAIN",
      "Columns": 832,
      "EchoNumbers": 1,
      "EchoTime": 37.0,
      "EchoTrainLength": 104,
      "FlipAngle": 52.0,
      "HighBit": 15,
      "ImageOrientationPatient": [0.99340635970004, 0.10926747794133, 0.03470479465238, -0.0876107273012, 0.9187750138746, -0.3849374421143],
      "ImagePositionPatient": [-751.87321296576, -891.96599293084, 260.96979750579],
      "ImageType": [
        "ORIGINAL",
        "PRIMARY",
        "P",
        "MB",
        "ND",
        "MOSAIC"
],
      "ImagedNucleus": "1H",
      "ImagingFrequency": 123.258855,
      "InPlanePhaseEncodingDirection": "COL",
      "LargestImagePixelValue": 4095,
      "MRAcquisitionType": "2D",
      "MagneticFieldStrength": 3.0,
      "Manufacturer": "SIEMENS",
      "ManufacturerModelName": "Prisma_fit",
      "Modality": "MR",
      "NumberOfAverages": 1.0,
      "NumberOfPhaseEncodingSteps": 104,
      "PercentPhaseFieldOfView": 100.0,
      "PercentSampling": 100.0,
      "PerformedProcedureStepStartTime": "112338.114000",
      "PhotometricInterpretation": "MONOCHROME2",
      "PixelBandwidth": 2290.0,
      "PixelRepresentation": 0,
      "PixelSpacing": [2.0, 2.0],
      "ProtocolName": "func_task-mario3_run-01",
      "RepetitionTime": 1490.0,
      "RescaleIntercept": -4096.0,
      "RescaleSlope": 2.0,
      "RescaleType": "US",
      "Rows": 832,
      "SAR": 0.08127628110853,
      "SamplesPerPixel": 1,
      "ScanOptions": "FS",
      "ScanningSequence": "EP",
      "SequenceName": "epfid2d1_104",
      "SequenceVariant": [
        "SK",
        "SS"
],
      "SeriesDescription": "func_task-mario3_run-01",
      "SeriesNumber": 11,
      "SeriesTime": "112722.204000",
      "SliceLocation": -42.086520478297,
      "SliceThickness": 2.0,
      "SmallestImagePixelValue": 0,
      "SoftwareVersions": "syngo MR E11",
      "SpacingBetweenSlices": 2.0000000118305,
      "SpecificCharacterSet": "ISO_IR 100",
      "StudyID": "1",
      "StudyTime": "112338.014000",
      "TransmitCoilName": "Body",
      "VariableFlipAngleFlag": "N",
      "WindowCenterWidthExplanation": "Algo1",
      "dBdt": 0.0},
    "slices": {}
  },
  "time": {
    "samples": {
      "AcquisitionNumber": [1, 2, 3, 4, 5, 6, 7, 8, 9, 10, 11, 12, 13, 14, 15, 16, 17, 18, 19, 20, 21, 22, 23, 24, 25, 26, 27, 28, 29, 30, 31, 32, 33, 34, 35, 36, 37, 38, 39, 40, 41, 42, 43, 44, 45, 46, 47, 48, 49, 50, 51, 52, 53, 54, 55, 56, 57, 58, 59, 60, 61, 62, 63, 64, 65, 66, 67, 68, 69, 70, 71, 72, 73, 74, 75, 76, 77, 78, 79, 80, 81, 82, 83, 84, 85, 86, 87, 88, 89, 90, 91, 92, 93, 94, 95, 96, 97, 98, 99, 100, 101, 102, 103, 104, 105, 106, 107, 108, 109, 110, 111, 112, 113, 114, 115, 116, 117, 118, 119, 120, 121, 122, 123, 124, 125, 126, 127, 128, 129, 130, 131, 132, 133, 134, 135, 136, 137, 138, 139, 140, 141, 142, 143, 144, 145, 146, 147, 148, 149, 150, 151, 152, 153, 154, 155, 156, 157, 158, 159, 160, 161, 162, 163, 164, 165, 166, 167, 168, 169, 170, 171, 172, 173, 174, 175, 176, 177, 178, 179, 180, 181, 182, 183, 184, 185, 186, 187, 188, 189, 190, 191, 192, 193, 194, 195, 196, 197, 198, 199, 200, 201, 202, 203, 204, 205, 206, 207, 208, 209, 210, 211, 212, 213, 214, 215, 216, 217, 218, 219, 220, 221, 222, 223, 224, 225, 226, 227, 228, 229, 230, 231, 232, 233, 234, 235, 236, 237, 238, 239, 240, 241, 242, 243, 244, 245, 246, 247, 248, 249, 250, 251, 252, 253, 254, 255, 256, 257, 258, 259, 260, 261, 262, 263, 264, 265, 266, 267, 268, 269, 270, 271, 272, 273, 274, 275, 276, 277, 278, 279, 280, 281, 282, 283, 284, 285, 286, 287, 288, 289, 290, 291, 292, 293, 294, 295, 296, 297, 298, 299, 300, 301, 302, 303, 304, 305, 306, 307, 308, 309, 310, 311, 312, 313, 314, 315, 316, 317, 318, 319, 320, 321, 322, 323, 324, 325, 326, 327, 328, 329, 330, 331, 332, 333, 334, 335, 336, 337, 338, 339, 340, 341, 342, 343, 344, 345, 346, 347, 348, 349, 350, 351, 352, 353, 354, 355, 356, 357, 358, 359, 360, 361, 362, 363, 364, 365],
      "AcquisitionTime": ["112606.727500", "112608.217500", "112609.707500", "112611.197500", "112612.687500", "112614.177500", "112615.667500", "112617.157500", "112618.647500", "112620.137500", "112621.627500", "112623.117500", "112624.607500", "112626.097500", "112627.587500", "112629.077500", "112630.567500", "112632.057500", "112633.547500", "112635.037500", "112636.527500", "112638.017500", "112639.507500", "112640.997500", "112642.487500", "112643.977500", "112645.467500", "112646.957500", "112648.447500", "112649.937500", "112651.427500", "112652.917500", "112654.407500", "112655.897500", "112657.387500", "112658.877500", "112700.367500", "112701.857500", "112703.347500", "112704.837500", "112706.327500", "112707.817500", "112709.307500", "112710.797500", "112712.287500", "112713.777500", "112715.267500", "112716.757500", "112718.247500", "112719.737500", "112721.227500", "112722.717500", "112724.207500", "112725.697500", "112727.187500", "112728.677500", "112730.167500", "112731.657500", "112733.147500", "112734.637500", "112736.127500", "112737.617500", "112739.107500", "112740.597500", "112742.087500", "112743.577500", "112745.067500", "112746.557500", "112748.047500", "112749.537500", "112751.027500", "112752.517500", "112754.007500", "112755.497500", "112756.987500", "112758.477500", "112759.967500", "112801.457500", "112802.947500", "112804.437500", "112805.927500", "112807.417500", "112808.907500", "112810.397500", "112811.887500", "112813.377500", "112814.867500", "112816.357500", "112817.847500", "112819.337500", "112820.827500", "112822.317500", "112823.807500", "112825.297500", "112826.787500", "112828.277500", "112829.767500", "112831.257500", "112832.747500", "112834.237500", "112835.727500", "112837.217500", "112838.707500", "112840.197500", "112841.687500", "112843.177500", "112844.667500", "112846.157500", "112847.647500", "112849.137500", "112850.627500", "112852.117500", "112853.607500", "112855.097500", "112856.587500", "112858.077500", "112859.567500", "112901.057500", "112902.547500", "112904.037500", "112905.527500", "112907.017500", "112908.507500", "112909.997500", "112911.487500", "112912.977500", "112914.467500", "112915.957500", "112917.447500", "112918.937500", "112920.427500", "112921.917500", "112923.407500", "112924.897500", "112926.387500", "112927.877500", "112929.367500", "112930.857500", "112932.347500", "112933.837500", "112935.327500", "112936.817500", "112938.307500", "112939.797500", "112941.287500", "112942.777500", "112944.267500", "112945.757500", "112947.247500", "112948.737500", "112950.227500", "112951.717500", "112953.207500", "112954.697500", "112956.187500", "112957.677500", "112959.167500", "113000.657500", "113002.147500", "113003.637500", "113005.127500", "113006.617500", "113008.107500", "113009.597500", "113011.087500", "113012.577500", "113014.067500", "113015.557500", "113017.047500", "113018.537500", "113020.027500", "113021.517500", "113023.007500", "113024.497500", "113025.987500", "113027.477500", "113028.967500", "113030.457500", "113031.947500", "113033.437500", "113034.927500", "113036.417500", "113037.907500", "113039.397500", "113040.887500", "113042.377500", "113043.867500", "113045.357500", "113046.847500", "113048.337500", "113049.827500", "113051.317500", "113052.807500", "113054.297500", "113055.787500", "113057.277500", "113058.767500", "113100.257500", "113101.747500", "113103.237500", "113104.727500", "113106.217500", "113107.707500", "113109.197500", "113110.687500", "113112.177500", "113113.667500", "113115.157500", "113116.647500", "113118.137500", "113119.627500", "113121.117500", "113122.607500", "113124.097500", "113125.587500", "113127.077500", "113128.567500", "113130.057500", "113131.547500", "113133.037500", "113134.527500", "113136.017500", "113137.507500", "113138.997500", "113140.487500", "113141.977500", "113143.467500", "113144.957500", "113146.447500", "113147.937500", "113149.427500", "113150.917500", "113152.407500", "113153.897500", "113155.387500", "113156.877500", "113158.367500", "113159.857500", "113201.347500", "113202.837500", "113204.327500", "113205.817500", "113207.307500", "113208.797500", "113210.287500", "113211.777500", "113213.267500", "113214.757500", "113216.247500", "113217.737500", "113219.227500", "113220.717500", "113222.207500", "113223.697500", "113225.187500", "113226.677500", "113228.167500", "113229.657500", "113231.147500", "113232.637500", "113234.127500", "113235.617500", "113237.107500", "113238.597500", "113240.087500", "113241.577500", "113243.067500", "113244.557500", "113246.047500", "113247.537500", "113249.027500", "113250.517500", "113252.007500", "113253.497500", "113254.987500", "113256.477500", "113257.967500", "113259.457500", "113300.947500", "113302.437500", "113303.927500", "113305.417500", "113306.907500", "113308.397500", "113309.887500", "113311.377500", "113312.867500", "113314.357500", "113315.847500", "113317.337500", "113318.827500", "113320.317500", "113321.807500", "113323.297500", "113324.787500", "113326.277500", "113327.767500", "113329.257500", "113330.747500", "113332.237500", "113333.727500", "113335.217500", "113336.707500", "113338.197500", "113339.687500", "113341.177500", "113342.667500", "113344.157500", "113345.647500", "113347.137500", "113348.627500", "113350.117500", "113351.607500", "113353.097500", "113354.587500", "113356.077500", "113357.567500", "113359.057500", "113400.547500", "113402.037500", "113403.527500", "113405.017500", "113406.507500", "113407.997500", "113409.487500", "113410.977500", "113412.467500", "113413.957500", "113415.447500", "113416.937500", "113418.427500", "113419.917500", "113421.407500", "113422.897500", "113424.387500", "113425.877500", "113427.367500", "113428.857500", "113430.347500", "113431.837500", "113433.327500", "113434.817500", "113436.307500", "113437.797500", "113439.287500", "113440.777500", "113442.267500", "113443.757500", "113445.247500", "113446.737500", "113448.227500", "113449.717500", "113451.207500", "113452.697500", "113454.187500", "113455.677500", "113457.167500", "113458.657500", "113500.147500", "113501.637500", "113503.127500", "113504.617500", "113506.107500", "113507.597500", "113509.087500"],
      "ContentTime": ["112722.206000", "112722.208000", "112722.211000", "112722.213000", "112722.216000", "112722.224000", "112722.226000", "112722.229000", "112722.231000", "112742.233000", "112742.236000", "112742.239000", "112742.241000", "112742.243000", "112742.246000", "112742.249000", "112742.251000", "112742.253000", "112742.256000", "112742.259000", "112742.261000", "112742.264000", "112742.266000", "112742.269000", "112742.271000", "112742.273000", "112742.276000", "112742.286000", "112742.289000", "112802.250000", "112802.252000", "112802.255000", "112802.257000", "112802.260000", "112802.262000", "112802.265000", "112802.267000", "112802.270000", "112802.272000", "112802.275000", "112802.277000", "112802.280000", "112802.282000", "112802.285000", "112802.287000", "112802.290000", "112802.292000", "112802.295000", "112802.297000", "112822.220000", "112822.223000", "112822.225000", "112822.228000", "112822.230000", "112822.233000", "112822.235000", "112822.238000", "112822.240000", "112822.243000", "112822.245000", "112822.248000", "112822.250000", "112822.252000", "112822.255000", "112822.257000", "112822.260000", "112822.262000", "112822.265000", "112822.267000", "112822.270000", "112842.243000", "112842.246000", "112842.248000", "112842.258000", "112842.260000", "112842.263000", "112842.265000", "112842.268000", "112842.271000", "112842.273000", "112842.275000", "112842.278000", "112842.281000", "112842.283000", "112842.286000", "112842.289000", "112842.291000", "112842.294000", "112842.296000", "112842.299000", "112902.259000", "112902.262000", "112902.265000", "112902.267000", "112902.270000", "112902.272000", "112902.275000", "112902.277000", "112902.280000", "112902.282000", "112902.285000", "112902.287000", "112902.290000", "112902.292000", "112902.295000", "112902.297000", "112902.300000", "112902.302000", "112902.305000", "112902.315000", "112922.219000", "112922.222000", "112922.225000", "112922.227000", "112922.230000", "112922.232000", "112922.235000", "112922.237000", "112922.240000", "112922.242000", "112922.245000", "112922.247000", "112922.250000", "112922.252000", "112922.254000", "112922.257000", "112922.259000", "112922.262000", "112922.264000", "112922.267000", "113002.227000", "113002.230000", "113002.232000", "113002.235000", "113002.237000", "113002.240000", "113002.242000", "113002.245000", "113002.247000", "113002.250000", "113002.252000", "113002.255000", "113002.257000", "113002.260000", "113002.262000", "113002.265000", "113002.267000", "113002.270000", "113002.272000", "113002.275000", "113002.277000", "113002.280000", "113002.282000", "113002.285000", "113002.287000", "113002.289000", "113002.292000", "113042.246000", "113042.249000", "113042.251000", "113042.254000", "113042.256000", "113042.259000", "113042.261000", "113042.264000", "113042.266000", "113042.269000", "113042.280000", "113042.282000", "113042.285000", "113042.287000", "113042.290000", "113042.292000", "113042.295000", "113042.297000", "113042.300000", "113042.302000", "113042.305000", "113042.307000", "113042.310000", "113042.312000", "113042.315000", "113042.318000", "113042.320000", "113122.226000", "113122.229000", "113122.232000", "113122.234000", "113122.237000", "113122.239000", "113122.242000", "113122.244000", "113122.247000", "113122.249000", "113122.252000", "113122.254000", "113122.257000", "113122.259000", "113122.262000", "113122.264000", "113122.266000", "113122.269000", "113122.271000", "113122.274000", "113122.276000", "113122.279000", "113122.281000", "113122.284000", "113122.286000", "113122.289000", "113122.291000", "113202.696000", "113202.699000", "113202.702000", "113202.704000", "113202.707000", "113202.709000", "113202.712000", "113202.714000", "113202.717000", "113202.719000", "113202.722000", "113202.724000", "113202.727000", "113202.729000", "113202.732000", "113202.734000", "113202.737000", "113202.739000", "113202.742000", "113202.744000", "113202.747000", "113202.749000", "113202.752000", "113202.754000", "113202.757000", "113202.759000", "113202.762000", "113242.241000", "113242.243000", "113242.246000", "113242.248000", "113242.251000", "113242.253000", "113242.256000", "113242.258000", "113242.261000", "113242.263000", "113242.266000", "113242.268000", "113242.271000", "113242.273000", "113242.276000", "113242.278000", "113242.281000", "113242.283000", "113242.286000", "113242.288000", "113242.291000", "113242.293000", "113242.304000", "113242.306000", "113242.309000", "113242.311000", "113242.314000", "113322.267000", "113322.269000", "113322.272000", "113322.274000", "113322.277000", "113322.279000", "113322.282000", "113322.284000", "113322.287000", "113322.289000", "113322.292000", "113322.294000", "113322.297000", "113322.299000", "113322.302000", "113322.304000", "113322.307000", "113322.309000", "113322.312000", "113322.314000", "113322.317000", "113322.319000", "113322.322000", "113322.324000", "113322.327000", "113322.329000", "113402.235000", "113402.237000", "113402.241000", "113402.243000", "113402.246000", "113402.248000", "113402.251000", "113402.253000", "113402.256000", "113402.258000", "113402.261000", "113402.263000", "113402.266000", "113402.268000", "113402.271000", "113402.273000", "113402.276000", "113402.278000", "113402.281000", "113402.283000", "113402.286000", "113402.288000", "113402.291000", "113402.293000", "113402.296000", "113402.299000", "113402.301000", "113442.237000", "113442.240000", "113442.242000", "113442.245000", "113442.247000", "113442.250000", "113442.252000", "113442.255000", "113442.257000", "113442.260000", "113442.262000", "113442.265000", "113442.267000", "113442.270000", "113442.272000", "113442.275000", "113442.277000", "113442.280000", "113442.282000", "113442.285000", "113442.287000", "113442.290000", "113442.298000", "113442.300000", "113442.303000", "113442.305000", "113442.308000", "113511.180000", "113511.183000", "113511.185000", "113511.188000", "113511.191000", "113511.193000", "113511.196000", "113511.198000", "113511.201000", "113511.203000", "113511.206000", "113511.208000", "113511.211000", "113511.213000", "113511.216000", "113511.218000", "113511.221000", "113511.223000", "113511.226000", "113511.228000"],
      "InstanceCreationTime": ["112722.206000", "112722.208000", "112722.211000", "112722.213000", "112722.216000", "112722.224000", "112722.226000", "112722.229000", "112722.231000", "112742.233000", "112742.236000", "112742.239000", "112742.241000", "112742.243000", "112742.246000", "112742.249000", "112742.251000", "112742.253000", "112742.256000", "112742.259000", "112742.261000", "112742.264000", "112742.266000", "112742.269000", "112742.271000", "112742.273000", "112742.276000", "112742.286000", "112742.289000", "112802.250000", "112802.252000", "112802.255000", "112802.257000", "112802.260000", "112802.262000", "112802.265000", "112802.267000", "112802.270000", "112802.272000", "112802.275000", "112802.277000", "112802.280000", "112802.282000", "112802.285000", "112802.287000", "112802.290000", "112802.292000", "112802.295000", "112802.297000", "112822.220000", "112822.223000", "112822.225000", "112822.228000", "112822.230000", "112822.233000", "112822.235000", "112822.238000", "112822.240000", "112822.243000", "112822.245000", "112822.248000", "112822.250000", "112822.252000", "112822.255000", "112822.257000", "112822.260000", "112822.262000", "112822.265000", "112822.267000", "112822.270000", "112842.243000", "112842.246000", "112842.248000", "112842.258000", "112842.260000", "112842.263000", "112842.265000", "112842.268000", "112842.271000", "112842.273000", "112842.275000", "112842.278000", "112842.281000", "112842.283000", "112842.286000", "112842.289000", "112842.291000", "112842.294000", "112842.296000", "112842.299000", "112902.259000", "112902.262000", "112902.265000", "112902.267000", "112902.270000", "112902.272000", "112902.275000", "112902.277000", "112902.280000", "112902.282000", "112902.285000", "112902.287000", "112902.290000", "112902.292000", "112902.295000", "112902.297000", "112902.300000", "112902.302000", "112902.305000", "112902.315000", "112922.219000", "112922.222000", "112922.225000", "112922.227000", "112922.230000", "112922.232000", "112922.235000", "112922.237000", "112922.240000", "112922.242000", "112922.245000", "112922.247000", "112922.250000", "112922.252000", "112922.254000", "112922.257000", "112922.259000", "112922.262000", "112922.264000", "112922.267000", "113002.227000", "113002.230000", "113002.232000", "113002.235000", "113002.237000", "113002.240000", "113002.242000", "113002.245000", "113002.247000", "113002.250000", "113002.252000", "113002.255000", "113002.257000", "113002.260000", "113002.262000", "113002.265000", "113002.267000", "113002.270000", "113002.272000", "113002.275000", "113002.277000", "113002.280000", "113002.282000", "113002.285000", "113002.287000", "113002.289000", "113002.292000", "113042.246000", "113042.249000", "113042.251000", "113042.254000", "113042.256000", "113042.259000", "113042.261000", "113042.264000", "113042.266000", "113042.269000", "113042.280000", "113042.282000", "113042.285000", "113042.287000", "113042.290000", "113042.292000", "113042.295000", "113042.297000", "113042.300000", "113042.302000", "113042.305000", "113042.307000", "113042.310000", "113042.312000", "113042.315000", "113042.318000", "113042.320000", "113122.226000", "113122.229000", "113122.232000", "113122.234000", "113122.237000", "113122.239000", "113122.242000", "113122.244000", "113122.247000", "113122.249000", "113122.252000", "113122.254000", "113122.257000", "113122.259000", "113122.262000", "113122.264000", "113122.266000", "113122.269000", "113122.271000", "113122.274000", "113122.276000", "113122.279000", "113122.281000", "113122.284000", "113122.286000", "113122.289000", "113122.291000", "113202.696000", "113202.699000", "113202.702000", "113202.704000", "113202.707000", "113202.709000", "113202.712000", "113202.714000", "113202.717000", "113202.719000", "113202.722000", "113202.724000", "113202.727000", "113202.729000", "113202.732000", "113202.734000", "113202.737000", "113202.739000", "113202.742000", "113202.744000", "113202.747000", "113202.749000", "113202.752000", "113202.754000", "113202.757000", "113202.759000", "113202.762000", "113242.241000", "113242.243000", "113242.246000", "113242.248000", "113242.251000", "113242.253000", "113242.256000", "113242.258000", "113242.261000", "113242.263000", "113242.266000", "113242.268000", "113242.271000", "113242.273000", "113242.276000", "113242.278000", "113242.281000", "113242.283000", "113242.286000", "113242.288000", "113242.291000", "113242.293000", "113242.304000", "113242.306000", "113242.309000", "113242.311000", "113242.314000", "113322.267000", "113322.269000", "113322.272000", "113322.274000", "113322.277000", "113322.279000", "113322.282000", "113322.284000", "113322.287000", "113322.289000", "113322.292000", "113322.294000", "113322.297000", "113322.299000", "113322.302000", "113322.304000", "113322.307000", "113322.309000", "113322.312000", "113322.314000", "113322.317000", "113322.319000", "113322.322000", "113322.324000", "113322.327000", "113322.329000", "113402.235000", "113402.237000", "113402.241000", "113402.243000", "113402.246000", "113402.248000", "113402.251000", "113402.253000", "113402.256000", "113402.258000", "113402.261000", "113402.263000", "113402.266000", "113402.268000", "113402.271000", "113402.273000", "113402.276000", "113402.278000", "113402.281000", "113402.283000", "113402.286000", "113402.288000", "113402.291000", "113402.293000", "113402.296000", "113402.299000", "113402.301000", "113442.237000", "113442.240000", "113442.242000", "113442.245000", "113442.247000", "113442.250000", "113442.252000", "113442.255000", "113442.257000", "113442.260000", "113442.262000", "113442.265000", "113442.267000", "113442.270000", "113442.272000", "113442.275000", "113442.277000", "113442.280000", "113442.282000", "113442.285000", "113442.287000", "113442.290000", "113442.298000", "113442.300000", "113442.303000", "113442.305000", "113442.308000", "113511.180000", "113511.183000", "113511.185000", "113511.188000", "113511.191000", "113511.193000", "113511.196000", "113511.198000", "113511.201000", "113511.203000", "113511.206000", "113511.208000", "113511.211000", "113511.213000", "113511.216000", "113511.218000", "113511.221000", "113511.223000", "113511.226000", "113511.228000"],
      "InstanceNumber": [1, 2, 3, 4, 5, 6, 7, 8, 9, 10, 11, 12, 13, 14, 15, 16, 17, 18, 19, 20, 21, 22, 23, 24, 25, 26, 27, 28, 29, 30, 31, 32, 33, 34, 35, 36, 37, 38, 39, 40, 41, 42, 43, 44, 45, 46, 47, 48, 49, 50, 51, 52, 53, 54, 55, 56, 57, 58, 59, 60, 61, 62, 63, 64, 65, 66, 67, 68, 69, 70, 71, 72, 73, 74, 75, 76, 77, 78, 79, 80, 81, 82, 83, 84, 85, 86, 87, 88, 89, 90, 91, 92, 93, 94, 95, 96, 97, 98, 99, 100, 101, 102, 103, 104, 105, 106, 107, 108, 109, 110, 111, 112, 113, 114, 115, 116, 117, 118, 119, 120, 121, 122, 123, 124, 125, 126, 127, 128, 129, 130, 131, 132, 133, 134, 135, 136, 137, 138, 139, 140, 141, 142, 143, 144, 145, 146, 147, 148, 149, 150, 151, 152, 153, 154, 155, 156, 157, 158, 159, 160, 161, 162, 163, 164, 165, 166, 167, 168, 169, 170, 171, 172, 173, 174, 175, 176, 177, 178, 179, 180, 181, 182, 183, 184, 185, 186, 187, 188, 189, 190, 191, 192, 193, 194, 195, 196, 197, 198, 199, 200, 201, 202, 203, 204, 205, 206, 207, 208, 209, 210, 211, 212, 213, 214, 215, 216, 217, 218, 219, 220, 221, 222, 223, 224, 225, 226, 227, 228, 229, 230, 231, 232, 233, 234, 235, 236, 237, 238, 239, 240, 241, 242, 243, 244, 245, 246, 247, 248, 249, 250, 251, 252, 253, 254, 255, 256, 257, 258, 259, 260, 261, 262, 263, 264, 265, 266, 267, 268, 269, 270, 271, 272, 273, 274, 275, 276, 277, 278, 279, 280, 281, 282, 283, 284, 285, 286, 287, 288, 289, 290, 291, 292, 293, 294, 295, 296, 297, 298, 299, 300, 301, 302, 303, 304, 305, 306, 307, 308, 309, 310, 311, 312, 313, 314, 315, 316, 317, 318, 319, 320, 321, 322, 323, 324, 325, 326, 327, 328, 329, 330, 331, 332, 333, 334, 335, 336, 337, 338, 339, 340, 341, 342, 343, 344, 345, 346, 347, 348, 349, 350, 351, 352, 353, 354, 355, 356, 357, 358, 359, 360, 361, 362, 363, 364, 365],
