{
  "AcquisitionMatrixPE": 104,
  "AcquisitionNumber": 1,
  "AcquisitionTime": "18:55:40.855000",
  "BandwidthPerPixelPhaseEncode": 17.17,
  "BaseResolution": 104,
  "BodyPartExamined": "BRAIN",
  "CoilCombinationMethod": "Sum of Squares",
  "ConsistencyInfo": "N4_VE11C_LATEST_20160120",
  "ConversionSoftware": "dcm2niix",
  "ConversionSoftwareVersion": "v1.0.20220505",
  "DerivedVendorReportedEchoSpacing": 0.000560011,
  "DeviceSerialNumber": "167006",
  "DwellTime": 2.1e-06,
  "EchoTime": 0.037,
  "EchoTime1": 0.037,
  "EchoTime2": 0.001,
  "EchoTrainLength": 104,
  "EffectiveEchoSpacing": 0.000560011,
  "FlipAngle": 52,
  "HeudiconvVersion": "0.5.3.post811+g6206e14",
  "ImageComments": "Unaliased MB4/PE3/LB",
  "ImageOrientationPatientDICOM": [0.999761, -0.020642, 0.00715794, 0.0218149, 0.925164, -0.37894],
  "ImageOrientationText": "Tra>Cor(-22.3)>Sag(-0.1)",
  "ImageType": [
    "ORIGINAL",
    "PRIMARY",
    "P",
    "MB",
    "ND",
    "MOSAIC",
    "PHASE"
],
  "ImagingFrequency": 123.259,
  "InPlanePhaseEncodingDirectionDICOM": "COL",
  "InstitutionAddress": "Chemin Queen-Mary 4565,Montreal,District,CA,H3W 1W5",
  "InstitutionName": "IUGM",
  "InstitutionalDepartmentName": "Department",
  "MRAcquisitionType": "2D",
  "MagneticFieldStrength": 3,
  "Manufacturer": "Siemens",
  "ManufacturersModelName": "Prisma_fit",
  "MatrixCoilMode": "SENSE",
  "Modality": "MR",
  "MultibandAccelerationFactor": 4,
  "PartialFourier": 1,
  "PatientPosition": "HFS",
  "PercentPhaseFOV": 100,
  "PercentSampling": 100,
  "PhaseEncodingDirection": "j",
  "PhaseEncodingSteps": 104,
  "PhaseResolution": 1,
  "PixelBandwidth": 2290,
  "ProcedureStepDescription": "games^mario3",
  "ProtocolName": "func_task-mario3_run-02",
  "PulseSequenceDetails": "%CustomerSeq%\\cmrr_mbep2d_bold",
  "ReceiveCoilActiveElements": "HC1-7;NC1,2",
  "ReceiveCoilName": "HeadNeck_64",
  "ReconMatrixPE": 104,
  "RepetitionTime": 1.49,
  "SAR": 0.0752436,
  "ScanOptions": "FS",
  "ScanningSequence": "EP",
  "SequenceName": "epfid2d1_104",
  "SequenceVariant": "SK\\SS",
  "SeriesDescription": "func_task-mario3_run-02",
  "SeriesNumber": 14,
  "ShimSetting": [590, -7284, -8820, 368, 38, -385, -52, 86],
  "SliceThickness": 2,
  "SliceTiming": [0, 0.785, 0.1, 0.8825, 0.1975, 0.98, 0.295, 1.0775, 0.3925, 1.1775, 0.49, 1.275, 0.5875, 1.3725, 0.6875, 0, 0.785, 0.1, 0.8825, 0.1975, 0.98, 0.295, 1.0775, 0.3925, 1.1775, 0.49, 1.275, 0.5875, 1.3725, 0.6875, 0, 0.785, 0.1, 0.8825, 0.1975, 0.98, 0.295, 1.0775, 0.3925, 1.1775, 0.49, 1.275, 0.5875, 1.3725, 0.6875, 0, 0.785, 0.1, 0.8825, 0.1975, 0.98, 0.295, 1.0775, 0.3925, 1.1775, 0.49, 1.275, 0.5875, 1.3725, 0.6875],
  "SoftwareVersions": "syngo MR E11",
  "SpacingBetweenSlices": 2,
  "StationName": "MRC35049",
  "TaskName": "mario3",
  "TotalReadoutTime": 0.0576811,
  "TxRefAmp": 303.404,
  "WipMemBlock": "623eb9af-11a2-4bb9-be53-ac369a600915||Sequence: R017 ve11c/master r/75a17815+; Jun 28 2022 16:32:11 by eja",
  "dcmmeta_affine": [
    [-1.9995225667953491, 0.04362984001636505, -0.0023996697273105383, 102.88732147216797],
    [0.04128409922122955, 1.850327968597412, -0.7580119371414185, -69.15214538574219],
    [0.014315882697701454, 0.7578805685043335, 1.8507869243621826, -64.99454498291016],
    [0.0, 0.0, 0.0, 1.0]
],
  "dcmmeta_reorient_transform": [
    [0.0, -1.0, 0.0, 103.0],
    [1.0, 0.0, 0.0, 0.0],
    [0.0, 0.0, 1.0, 0.0],
    [0.0, 0.0, 0.0, 1.0]
],
  "dcmmeta_shape": [104, 104, 60, 350],
  "dcmmeta_slice_dim": 2,
  "dcmmeta_version": 0.6,
  "global": {
    "const": {
      "AcquisitionMatrix": [104, 0, 0, 104],
      "AngioFlag": "N",
      "BitsAllocated": 16,
      "BitsStored": 16,
      "BodyPartExamined": "BRAIN",
      "Columns": 832,
      "EchoNumbers": 1,
      "EchoTime": 37.0,
      "EchoTrainLength": 104,
      "FlipAngle": 52.0,
      "HighBit": 15,
      "ImageOrientationPatient": [0.99976130632727, -0.0206420504797, 0.00715794123863, 0.02181492074307, 0.92516397388507, -0.3789402732069],
      "ImagePositionPatient": [-851.08868934656, -779.92359128644, 283.72468700183],
      "ImageType": [
        "ORIGINAL",
        "PRIMARY",
        "P",
        "MB",
        "ND",
        "MOSAIC"
],
      "ImagedNucleus": "1H",
      "ImagingFrequency": 123.259147,
      "InPlanePhaseEncodingDirection": "COL",
      "LargestImagePixelValue": 4095,
      "MRAcquisitionType": "2D",
      "MagneticFieldStrength": 3.0,
      "Manufacturer": "SIEMENS",
      "ManufacturerModelName": "Prisma_fit",
      "Modality": "MR",
      "NumberOfAverages": 1.0,
      "NumberOfPhaseEncodingSteps": 104,
      "PercentPhaseFieldOfView": 100.0,
      "PercentSampling": 100.0,
      "PerformedProcedureStepStartTime": "183936.743000",
      "PhotometricInterpretation": "MONOCHROME2",
      "PixelBandwidth": 2290.0,
      "PixelRepresentation": 0,
      "PixelSpacing": [2.0, 2.0],
      "ProtocolName": "func_task-mario3_run-02",
      "RepetitionTime": 1490.0,
      "RescaleIntercept": -4096.0,
      "RescaleSlope": 2.0,
      "RescaleType": "US",
      "Rows": 832,
      "SAR": 0.07524364066146,
      "SamplesPerPixel": 1,
      "ScanOptions": "FS",
      "ScanningSequence": "EP",
      "SequenceName": "epfid2d1_104",
      "SequenceVariant": [
        "SK",
        "SS"
],
      "SeriesDescription": "func_task-mario3_run-02",
      "SeriesNumber": 14,
      "SeriesTime": "185650.555000",
      "SliceLocation": -34.059898750124,
      "SliceThickness": 2.0,
      "SmallestImagePixelValue": 0,
      "SoftwareVersions": "syngo MR E11",
      "SpacingBetweenSlices": 1.9999999754424,
      "SpecificCharacterSet": "ISO_IR 100",
      "StudyID": "1",
      "StudyTime": "183936.663000",
      "TransmitCoilName": "Body",
      "VariableFlipAngleFlag": "N",
      "WindowCenterWidthExplanation": "Algo1",
      "dBdt": 0.0},
    "slices": {}
  },
  "time": {
    "samples": {
      "AcquisitionNumber": [1, 2, 3, 4, 5, 6, 7, 8, 9, 10, 11, 12, 13, 14, 15, 16, 17, 18, 19, 20, 21, 22, 23, 24, 25, 26, 27, 28, 29, 30, 31, 32, 33, 34, 35, 36, 37, 38, 39, 40, 41, 42, 43, 44, 45, 46, 47, 48, 49, 50, 51, 52, 53, 54, 55, 56, 57, 58, 59, 60, 61, 62, 63, 64, 65, 66, 67, 68, 69, 70, 71, 72, 73, 74, 75, 76, 77, 78, 79, 80, 81, 82, 83, 84, 85, 86, 87, 88, 89, 90, 91, 92, 93, 94, 95, 96, 97, 98, 99, 100, 101, 102, 103, 104, 105, 106, 107, 108, 109, 110, 111, 112, 113, 114, 115, 116, 117, 118, 119, 120, 121, 122, 123, 124, 125, 126, 127, 128, 129, 130, 131, 132, 133, 134, 135, 136, 137, 138, 139, 140, 141, 142, 143, 144, 145, 146, 147, 148, 149, 150, 151, 152, 153, 154, 155, 156, 157, 158, 159, 160, 161, 162, 163, 164, 165, 166, 167, 168, 169, 170, 171, 172, 173, 174, 175, 176, 177, 178, 179, 180, 181, 182, 183, 184, 185, 186, 187, 188, 189, 190, 191, 192, 193, 194, 195, 196, 197, 198, 199, 200, 201, 202, 203, 204, 205, 206, 207, 208, 209, 210, 211, 212, 213, 214, 215, 216, 217, 218, 219, 220, 221, 222, 223, 224, 225, 226, 227, 228, 229, 230, 231, 232, 233, 234, 235, 236, 237, 238, 239, 240, 241, 242, 243, 244, 245, 246, 247, 248, 249, 250, 251, 252, 253, 254, 255, 256, 257, 258, 259, 260, 261, 262, 263, 264, 265, 266, 267, 268, 269, 270, 271, 272, 273, 274, 275, 276, 277, 278, 279, 280, 281, 282, 283, 284, 285, 286, 287, 288, 289, 290, 291, 292, 293, 294, 295, 296, 297, 298, 299, 300, 301, 302, 303, 304, 305, 306, 307, 308, 309, 310, 311, 312, 313, 314, 315, 316, 317, 318, 319, 320, 321, 322, 323, 324, 325, 326, 327, 328, 329, 330, 331, 332, 333, 334, 335, 336, 337, 338, 339, 340, 341, 342, 343, 344, 345, 346, 347, 348, 349, 350],
      "AcquisitionTime": ["185540.855000", "185542.345000", "185543.835000", "185545.325000", "185546.815000", "185548.305000", "185549.795000", "185551.285000", "185552.775000", "185554.265000", "185555.755000", "185557.245000", "185558.735000", "185600.225000", "185601.715000", "185603.205000", "185604.695000", "185606.185000", "185607.675000", "185609.165000", "185610.655000", "185612.145000", "185613.635000", "185615.125000", "185616.615000", "185618.105000", "185619.595000", "185621.085000", "185622.575000", "185624.065000", "185625.555000", "185627.045000", "185628.535000", "185630.025000", "185631.515000", "185633.005000", "185634.495000", "185635.985000", "185637.475000", "185638.965000", "185640.455000", "185641.945000", "185643.435000", "185644.925000", "185646.415000", "185647.905000", "185649.395000", "185650.885000", "185652.375000", "185653.865000", "185655.355000", "185656.845000", "185658.335000", "185659.825000", "185701.315000", "185702.805000", "185704.295000", "185705.785000", "185707.275000", "185708.765000", "185710.255000", "185711.745000", "185713.235000", "185714.725000", "185716.215000", "185717.705000", "185719.195000", "185720.685000", "185722.175000", "185723.665000", "185725.155000", "185726.645000", "185728.135000", "185729.625000", "185731.115000", "185732.605000", "185734.095000", "185735.585000", "185737.075000", "185738.565000", "185740.055000", "185741.545000", "185743.035000", "185744.525000", "185746.015000", "185747.505000", "185748.995000", "185750.485000", "185751.975000", "185753.465000", "185754.955000", "185756.445000", "185757.935000", "185759.425000", "185800.915000", "185802.405000", "185803.895000", "185805.385000", "185806.875000", "185808.365000", "185809.855000", "185811.345000", "185812.835000", "185814.325000", "185815.815000", "185817.305000", "185818.795000", "185820.285000", "185821.775000", "185823.265000", "185824.755000", "185826.245000", "185827.735000", "185829.225000", "185830.715000", "185832.205000", "185833.695000", "185835.185000", "185836.675000", "185838.165000", "185839.655000", "185841.145000", "185842.635000", "185844.125000", "185845.615000", "185847.105000", "185848.595000", "185850.085000", "185851.575000", "185853.065000", "185854.555000", "185856.045000", "185857.535000", "185859.025000", "185900.515000", "185902.005000", "185903.495000", "185904.985000", "185906.475000", "185907.965000", "185909.455000", "185910.945000", "185912.435000", "185913.925000", "185915.415000", "185916.905000", "185918.395000", "185919.885000", "185921.375000", "185922.865000", "185924.355000", "185925.845000", "185927.335000", "185928.825000", "185930.315000", "185931.805000", "185933.295000", "185934.785000", "185936.275000", "185937.765000", "185939.255000", "185940.745000", "185942.235000", "185943.725000", "185945.215000", "185946.705000", "185948.195000", "185949.685000", "185951.175000", "185952.665000", "185954.155000", "185955.645000", "185957.135000", "185958.625000", "190000.115000", "190001.605000", "190003.095000", "190004.585000", "190006.075000", "190007.565000", "190009.055000", "190010.545000", "190012.035000", "190013.525000", "190015.015000", "190016.505000", "190017.995000", "190019.485000", "190020.975000", "190022.465000", "190023.955000", "190025.445000", "190026.935000", "190028.425000", "190029.915000", "190031.405000", "190032.895000", "190034.385000", "190035.875000", "190037.365000", "190038.855000", "190040.345000", "190041.835000", "190043.325000", "190044.815000", "190046.305000", "190047.795000", "190049.285000", "190050.775000", "190052.265000", "190053.755000", "190055.245000", "190056.735000", "190058.225000", "190059.715000", "190101.205000", "190102.695000", "190104.185000", "190105.675000", "190107.165000", "190108.655000", "190110.145000", "190111.635000", "190113.125000", "190114.615000", "190116.105000", "190117.595000", "190119.085000", "190120.575000", "190122.065000", "190123.555000", "190125.045000", "190126.535000", "190128.025000", "190129.515000", "190131.005000", "190132.495000", "190133.985000", "190135.475000", "190136.965000", "190138.455000", "190139.945000", "190141.435000", "190142.925000", "190144.415000", "190145.905000", "190147.395000", "190148.885000", "190150.375000", "190151.865000", "190153.355000", "190154.845000", "190156.335000", "190157.825000", "190159.315000", "190200.805000", "190202.295000", "190203.785000", "190205.275000", "190206.765000", "190208.255000", "190209.745000", "190211.235000", "190212.725000", "190214.215000", "190215.705000", "190217.195000", "190218.685000", "190220.175000", "190221.665000", "190223.155000", "190224.645000", "190226.135000", "190227.625000", "190229.115000", "190230.605000", "190232.095000", "190233.585000", "190235.075000", "190236.565000", "190238.055000", "190239.545000", "190241.035000", "190242.525000", "190244.015000", "190245.505000", "190246.995000", "190248.485000", "190249.975000", "190251.465000", "190252.955000", "190254.445000", "190255.935000", "190257.425000", "190258.915000", "190300.405000", "190301.895000", "190303.385000", "190304.875000", "190306.365000", "190307.855000", "190309.345000", "190310.835000", "190312.325000", "190313.815000", "190315.305000", "190316.795000", "190318.285000", "190319.775000", "190321.265000", "190322.755000", "190324.245000", "190325.735000", "190327.225000", "190328.715000", "190330.205000", "190331.695000", "190333.185000", "190334.675000", "190336.165000", "190337.655000", "190339.145000", "190340.635000", "190342.125000", "190343.615000", "190345.105000", "190346.595000", "190348.085000", "190349.575000", "190351.065000", "190352.555000", "190354.045000", "190355.535000", "190357.025000", "190358.515000", "190400.005000", "190401.495000", "190402.985000", "190404.475000", "190405.965000", "190407.455000", "190408.945000", "190410.435000", "190411.925000", "190413.415000", "190414.905000", "190416.395000", "190417.885000", "190419.375000", "190420.865000"],
      "ContentTime": ["185650.557000", "185650.560000", "185650.562000", "185650.565000", "185650.574000", "185650.576000", "185650.579000", "185650.581000", "185650.584000", "185650.587000", "185650.589000", "185650.592000", "185650.602000", "185650.604000", "185650.607000", "185650.609000", "185650.612000", "185650.614000", "185650.617000", "185650.619000", "185650.622000", "185710.487000", "185710.490000", "185710.493000", "185710.496000", "185710.499000", "185710.501000", "185710.504000", "185710.506000", "185710.509000", "185710.511000", "185710.514000", "185710.523000", "185710.526000", "185710.528000", "185710.531000", "185710.533000", "185710.536000", "185710.538000", "185710.541000", "185710.543000", "185730.485000", "185730.488000", "185730.490000", "185730.493000", "185730.495000", "185730.498000", "185730.501000", "185730.503000", "185730.505000", "185730.508000", "185730.511000", "185730.513000", "185730.515000", "185730.518000", "185730.521000", "185730.523000", "185730.526000", "185730.528000", "185730.531000", "185730.533000", "185730.536000", "185750.466000", "185750.468000", "185750.471000", "185750.473000", "185750.476000", "185750.479000", "185750.481000", "185750.483000", "185750.486000", "185750.489000", "185750.491000", "185750.494000", "185750.496000", "185750.499000", "185750.502000", "185750.504000", "185750.507000", "185750.509000", "185750.512000", "185750.514000", "185830.525000", "185830.528000", "185830.530000", "185830.533000", "185830.536000", "185830.538000", "185830.541000", "185830.543000", "185830.546000", "185830.548000", "185830.556000", "185830.559000", "185830.561000", "185830.564000", "185830.566000", "185830.569000", "185830.571000", "185830.574000", "185830.576000", "185830.579000", "185830.581000", "185830.584000", "185830.587000", "185830.589000", "185830.592000", "185830.594000", "185830.597000", "185830.599000", "185830.602000", "185830.605000", "185830.607000", "185850.882000", "185850.885000", "185850.888000", "185850.890000", "185850.893000", "185850.895000", "185850.898000", "185850.900000", "185850.903000", "185850.906000", "185850.908000", "185850.910000", "185850.913000", "185930.509000", "185930.519000", "185930.522000", "185930.524000", "185930.527000", "185930.529000", "185930.532000", "185930.534000", "185930.537000", "185930.540000", "185930.542000", "185930.545000", "185930.547000", "185930.550000", "185930.552000", "185930.555000", "185930.557000", "185930.566000", "185930.568000", "185930.571000", "185930.573000", "185930.576000", "185930.578000", "185930.581000", "185930.583000", "185930.586000", "185930.589000", "190010.516000", "190010.519000", "190010.522000", "190010.524000", "190010.527000", "190010.529000", "190010.532000", "190010.534000", "190010.537000", "190010.539000", "190010.542000", "190010.545000", "190010.547000", "190010.550000", "190010.552000", "190010.555000", "190010.557000", "190010.560000", "190010.562000", "190010.565000", "190010.567000", "190010.570000", "190010.572000", "190010.575000", "190010.578000", "190010.580000", "190010.582000", "190050.513000", "190050.515000", "190050.518000", "190050.520000", "190050.523000", "190050.526000", "190050.528000", "190050.531000", "190050.533000", "190050.536000", "190050.538000", "190050.541000", "190050.543000", "190050.546000", "190050.548000", "190050.551000", "190050.553000", "190050.556000", "190050.559000", "190050.561000", "190050.563000", "190050.566000", "190050.569000", "190050.571000", "190050.574000", "190050.576000", "190050.586000", "190130.510000", "190130.513000", "190130.515000", "190130.518000", "190130.520000", "190130.523000", "190130.525000", "190130.528000", "190130.530000", "190130.533000", "190130.535000", "190130.538000", "190130.541000", "190130.543000", "190130.546000", "190130.548000", "190130.551000", "190130.553000", "190130.556000", "190130.558000", "190130.561000", "190130.563000", "190130.566000", "190130.569000", "190130.571000", "190130.574000", "190130.576000", "190210.512000", "190210.515000", "190210.517000", "190210.520000", "190210.522000", "190210.528000", "190210.531000", "190210.533000", "190210.536000", "190210.539000", "190210.541000", "190210.544000", "190210.546000", "190210.549000", "190210.552000", "190210.554000", "190210.556000", "190210.559000", "190210.562000", "190210.564000", "190210.567000", "190210.569000", "190210.572000", "190210.574000", "190210.577000", "190210.580000", "190250.508000", "190250.511000", "190250.514000", "190250.516000", "190250.519000", "190250.522000", "190250.524000", "190250.527000", "190250.529000", "190250.532000", "190250.534000", "190250.537000", "190250.539000", "190250.542000", "190250.544000", "190250.547000", "190250.549000", "190250.552000", "190250.555000", "190250.557000", "190250.559000", "190250.562000", "190250.565000", "190250.567000", "190250.570000", "190250.572000", "190250.575000", "190330.522000", "190330.525000", "190330.527000", "190330.530000", "190330.532000", "190330.535000", "190330.537000", "190330.540000", "190330.542000", "190330.545000", "190330.547000", "190330.550000", "190330.553000", "190330.555000", "190330.558000", "190330.560000", "190330.563000", "190330.565000", "190330.568000", "190330.570000", "190330.573000", "190330.575000", "190330.578000", "190330.581000", "190330.583000", "190330.585000", "190330.588000", "190410.508000", "190410.511000", "190410.514000", "190410.516000", "190410.519000", "190410.521000", "190410.524000", "190410.526000", "190410.529000", "190410.531000", "190410.534000", "190410.536000", "190410.539000", "190410.542000", "190410.544000", "190410.546000", "190410.549000", "190410.552000", "190410.554000", "190410.557000", "190410.559000", "190410.562000", "190410.564000", "190410.567000", "190410.569000", "190410.572000", "190410.575000", "190423.302000", "190423.305000", "190423.307000", "190423.310000", "190423.312000", "190423.315000", "190423.317000", "190423.320000", "190423.322000"],
      "InstanceCreationTime": ["185650.557000", "185650.560000", "185650.562000", "185650.565000", "185650.574000", "185650.576000", "185650.579000", "185650.581000", "185650.584000", "185650.587000", "185650.589000", "185650.592000", "185650.602000", "185650.604000", "185650.607000", "185650.609000", "185650.612000", "185650.614000", "185650.617000", "185650.619000", "185650.622000", "185710.487000", "185710.490000", "185710.493000", "185710.496000", "185710.499000", "185710.501000", "185710.504000", "185710.506000", "185710.509000", "185710.511000", "185710.514000", "185710.523000", "185710.526000", "185710.528000", "185710.531000", "185710.533000", "185710.536000", "185710.538000", "185710.541000", "185710.543000", "185730.485000", "185730.488000", "185730.490000", "185730.493000", "185730.495000", "185730.498000", "185730.501000", "185730.503000", "185730.505000", "185730.508000", "185730.511000", "185730.513000", "185730.515000", "185730.518000", "185730.521000", "185730.523000", "185730.526000", "185730.528000", "185730.531000", "185730.533000", "185730.536000", "185750.466000", "185750.468000", "185750.471000", "185750.473000", "185750.476000", "185750.479000", "185750.481000", "185750.483000", "185750.486000", "185750.489000", "185750.491000", "185750.494000", "185750.496000", "185750.499000", "185750.502000", "185750.504000", "185750.507000", "185750.509000", "185750.512000", "185750.514000", "185830.525000", "185830.528000", "185830.530000", "185830.533000", "185830.536000", "185830.538000", "185830.541000", "185830.543000", "185830.546000", "185830.548000", "185830.556000", "185830.559000", "185830.561000", "185830.564000", "185830.566000", "185830.569000", "185830.571000", "185830.574000", "185830.576000", "185830.579000", "185830.581000", "185830.584000", "185830.587000", "185830.589000", "185830.592000", "185830.594000", "185830.597000", "185830.599000", "185830.602000", "185830.605000", "185830.607000", "185850.882000", "185850.885000", "185850.888000", "185850.890000", "185850.893000", "185850.895000", "185850.898000", "185850.900000", "185850.903000", "185850.906000", "185850.908000", "185850.910000", "185850.913000", "185930.509000", "185930.519000", "185930.522000", "185930.524000", "185930.527000", "185930.529000", "185930.532000", "185930.534000", "185930.537000", "185930.540000", "185930.542000", "185930.545000", "185930.547000", "185930.550000", "185930.552000", "185930.555000", "185930.557000", "185930.566000", "185930.568000", "185930.571000", "185930.573000", "185930.576000", "185930.578000", "185930.581000", "185930.583000", "185930.586000", "185930.589000", "190010.516000", "190010.519000", "190010.522000", "190010.524000", "190010.527000", "190010.529000", "190010.532000", "190010.534000", "190010.537000", "190010.539000", "190010.542000", "190010.545000", "190010.547000", "190010.550000", "190010.552000", "190010.555000", "190010.557000", "190010.560000", "190010.562000", "190010.565000", "190010.567000", "190010.570000", "190010.572000", "190010.575000", "190010.578000", "190010.580000", "190010.582000", "190050.513000", "190050.515000", "190050.518000", "190050.520000", "190050.523000", "190050.526000", "190050.528000", "190050.531000", "190050.533000", "190050.536000", "190050.538000", "190050.541000", "190050.543000", "190050.546000", "190050.548000", "190050.551000", "190050.553000", "190050.556000", "190050.559000", "190050.561000", "190050.563000", "190050.566000", "190050.569000", "190050.571000", "190050.574000", "190050.576000", "190050.586000", "190130.510000", "190130.513000", "190130.515000", "190130.518000", "190130.520000", "190130.523000", "190130.525000", "190130.528000", "190130.530000", "190130.533000", "190130.535000", "190130.538000", "190130.541000", "190130.543000", "190130.546000", "190130.548000", "190130.551000", "190130.553000", "190130.556000", "190130.558000", "190130.561000", "190130.563000", "190130.566000", "190130.569000", "190130.571000", "190130.574000", "190130.576000", "190210.512000", "190210.515000", "190210.517000", "190210.520000", "190210.522000", "190210.528000", "190210.531000", "190210.533000", "190210.536000", "190210.539000", "190210.541000", "190210.544000", "190210.546000", "190210.549000", "190210.552000", "190210.554000", "190210.556000", "190210.559000", "190210.562000", "190210.564000", "190210.567000", "190210.569000", "190210.572000", "190210.574000", "190210.577000", "190210.580000", "190250.508000", "190250.511000", "190250.514000", "190250.516000", "190250.519000", "190250.522000", "190250.524000", "190250.527000", "190250.529000", "190250.532000", "190250.534000", "190250.537000", "190250.539000", "190250.542000", "190250.544000", "190250.547000", "190250.549000", "190250.552000", "190250.555000", "190250.557000", "190250.559000", "190250.562000", "190250.565000", "190250.567000", "190250.570000", "190250.572000", "190250.575000", "190330.522000", "190330.525000", "190330.527000", "190330.530000", "190330.532000", "190330.535000", "190330.537000", "190330.540000", "190330.542000", "190330.545000", "190330.547000", "190330.550000", "190330.553000", "190330.555000", "190330.558000", "190330.560000", "190330.563000", "190330.565000", "190330.568000", "190330.570000", "190330.573000", "190330.575000", "190330.578000", "190330.581000", "190330.583000", "190330.585000", "190330.588000", "190410.508000", "190410.511000", "190410.514000", "190410.516000", "190410.519000", "190410.521000", "190410.524000", "190410.526000", "190410.529000", "190410.531000", "190410.534000", "190410.536000", "190410.539000", "190410.542000", "190410.544000", "190410.546000", "190410.549000", "190410.552000", "190410.554000", "190410.557000", "190410.559000", "190410.562000", "190410.564000", "190410.567000", "190410.569000", "190410.572000", "190410.575000", "190423.302000", "190423.305000", "190423.307000", "190423.310000", "190423.312000", "190423.315000", "190423.317000", "190423.320000", "190423.322000"],
      "InstanceNumber": [1, 2, 3, 4, 5, 6, 7, 8, 9, 10, 11, 12, 13, 14, 15, 16, 17, 18, 19, 20, 21, 22, 23, 24, 25, 26, 27, 28, 29, 30, 31, 32, 33, 34, 35, 36, 37, 38, 39, 40, 41, 42, 43, 44, 45, 46, 47, 48, 49, 50, 51, 52, 53, 54, 55, 56, 57, 58, 59, 60, 61, 62, 63, 64, 65, 66, 67, 68, 69, 70, 71, 72, 73, 74, 75, 76, 77, 78, 79, 80, 81, 82, 83, 84, 85, 86, 87, 88, 89, 90, 91, 92, 93, 94, 95, 96, 97, 98, 99, 100, 101, 102, 103, 104, 105, 106, 107, 108, 109, 110, 111, 112, 113, 114, 115, 116, 117, 118, 119, 120, 121, 122, 123, 124, 125, 126, 127, 128, 129, 130, 131, 132, 133, 134, 135, 136, 137, 138, 139, 140, 141, 142, 143, 144, 145, 146, 147, 148, 149, 150, 151, 152, 153, 154, 155, 156, 157, 158, 159, 160, 161, 162, 163, 164, 165, 166, 167, 168, 169, 170, 171, 172, 173, 174, 175, 176, 177, 178, 179, 180, 181, 182, 183, 184, 185, 186, 187, 188, 189, 190, 191, 192, 193, 194, 195, 196, 197, 198, 199, 200, 201, 202, 203, 204, 205, 206, 207, 208, 209, 210, 211, 212, 213, 214, 215, 216, 217, 218, 219, 220, 221, 222, 223, 224, 225, 226, 227, 228, 229, 230, 231, 232, 233, 234, 235, 236, 237, 238, 239, 240, 241, 242, 243, 244, 245, 246, 247, 248, 249, 250, 251, 252, 253, 254, 255, 256, 257, 258, 259, 260, 261, 262, 263, 264, 265, 266, 267, 268, 269, 270, 271, 272, 273, 274, 275, 276, 277, 278, 279, 280, 281, 282, 283, 284, 285, 286, 287, 288, 289, 290, 291, 292, 293, 294, 295, 296, 297, 298, 299, 300, 301, 302, 303, 304, 305, 306, 307, 308, 309, 310, 311, 312, 313, 314, 315, 316, 317, 318, 319, 320, 321, 322, 323, 324, 325, 326, 327, 328, 329, 330, 331, 332, 333, 334, 335, 336, 337, 338, 339, 340, 341, 342, 343, 344, 345, 346, 347, 348, 349, 350],
      "WindowCenter": [4808.0, 4804.0, 4804.0, 4802.0, 4808.0, 4806.0, 4808.0, 4808.0, 4832.0, 4808.0, 4806.0, 4804.0, 4806.0, 4804.0, 4806.0, 4802.0, 4806.0, 4804.0, 4804.0, 4832.0, 4808.0, 4834.0, 4804.0, 4810.0, 4804.0, 4802.0, 4804.0, 4804.0, 4806.0, 4832.0, 4806.0, 4808.0, 4810.0, 4804.0, 4804.0, 4804.0, 4802.0, 4808.0, 4804.0, 4808.0, 4804.0, 4832.0, 4810.0, 4810.0, 4808.0, 4810.0, 4804.0, 4806.0, 4806.0, 4802.0, 4808.0, 4804.0, 4808.0, 4810.0, 4806.0, 4808.0, 4804.0, 4806.0, 4808.0, 4806.0, 4808.0, 4806.0, 4806.0, 4804.0, 4808.0, 4812.0, 4806.0, 4806.0, 4806.0, 4832.0, 4832.0, 4832.0, 4810.0, 4810.0, 4808.0, 4806.0, 4806.0, 4804.0, 4832.0, 4808.0, 4834.0, 4804.0, 4806.0, 4808.0, 4808.0, 4810.0, 4806.0, 4808.0, 4804.0, 4810.0, 4806.0, 4808.0, 4808.0, 4804.0, 4810.0, 4804.0, 4810.0, 4808.0, 4840.0, 4808.0, 4806.0, 4804.0, 4806.0, 4806.0, 4806.0, 4808.0, 4806.0, 4810.0, 4808.0, 4810.0, 4834.0, 4830.0, 4810.0, 4830.0, 4804.0, 4830.0, 4806.0, 4806.0, 4808.0, 4804.0, 4830.0, 4808.0, 4804.0, 4830.0, 4806.0, 4808.0, 4830.0, 4804.0, 4808.0, 4830.0, 4810.0, 4810.0, 4806.0, 4806.0, 4808.0, 4808.0, 4806.0, 4808.0, 4806.0, 4806.0, 4808.0, 4806.0, 4806.0, 4806.0, 4804.0, 4808.0, 4804.0, 4806.0, 4808.0, 4806.0, 4808.0, 4808.0, 4804.0, 4808.0, 4810.0, 4806.0, 4812.0, 4804.0, 4808.0, 4806.0, 4808.0, 4808.0, 4808.0, 4808.0, 4808.0, 4806.0, 4808.0, 4804.0, 4832.0, 4808.0, 4836.0, 4834.0, 4808.0, 4802.0, 4800.0, 4798.0, 4802.0, 4804.0, 4830.0, 4812.0, 4832.0, 4834.0, 4830.0, 4810.0, 4806.0, 4804.0, 4806.0, 4804.0, 4804.0, 4804.0, 4806.0, 4808.0, 4832.0, 4834.0, 4808.0, 4806.0, 4804.0, 4804.0, 4804.0, 4804.0, 4808.0, 4808.0, 4832.0, 4830.0, 4830.0, 4808.0, 4808.0, 4806.0, 4804.0, 4806.0, 4810.0, 4806.0, 4810.0, 4804.0, 4806.0, 4808.0, 4808.0, 4806.0, 4804.0, 4834.0, 4806.0, 4808.0, 4808.0, 4808.0, 4808.0, 4806.0, 4804.0, 4802.0, 4806.0, 4804.0, 4804.0, 4808.0, 4800.0, 4808.0, 4806.0, 4808.0, 4804.0, 4808.0, 4808.0, 4806.0, 4806.0, 4832.0, 4808.0, 4808.0, 4804.0, 4806.0, 4804.0, 4804.0, 4808.0, 4808.0, 4806.0, 4808.0, 4832.0, 4808.0, 4806.0, 4806.0, 4806.0, 4804.0, 4808.0, 4806.0, 4812.0, 4860.0, 4834.0, 4828.0, 4798.0, 4800.0, 4796.0, 4798.0, 4804.0, 4810.0, 4836.0, 4834.0, 4836.0, 4810.0, 4806.0, 4806.0, 4802.0, 4800.0, 4806.0, 4804.0, 4806.0, 4810.0, 4812.0, 4808.0, 4810.0, 4830.0, 4834.0, 4804.0, 4808.0, 4804.0, 4806.0, 4806.0, 4808.0, 4810.0, 4808.0, 4830.0, 4810.0, 4808.0, 4806.0, 4806.0, 4830.0, 4830.0, 4810.0, 4806.0, 4806.0, 4804.0, 4806.0, 4808.0, 4804.0, 4832.0, 4806.0, 4810.0, 4806.0, 4808.0, 4806.0, 4830.0, 4806.0, 4830.0, 4806.0, 4806.0, 4804.0, 4810.0, 4830.0, 4808.0, 4806.0, 4808.0, 4834.0, 4808.0, 4810.0, 4806.0, 4810.0, 4806.0, 4806.0, 4806.0, 4808.0, 4808.0, 4808.0, 4832.0, 4808.0, 4806.0, 4806.0, 4830.0, 4806.0, 4808.0, 4806.0, 4804.0, 4808.0, 4806.0, 4808.0, 4830.0],
