{
  "AcquisitionMatrixPE": 104,
  "AcquisitionNumber": 1,
  "AcquisitionTime": "19:18:39.580000",
  "BandwidthPerPixelPhaseEncode": 17.17,
  "BaseResolution": 104,
  "BodyPartExamined": "BRAIN",
  "CoilCombinationMethod": "Sum of Squares",
  "ConsistencyInfo": "N4_VE11C_LATEST_20160120",
  "ConversionSoftware": "dcm2niix",
  "ConversionSoftwareVersion": "v1.0.20220505",
  "DerivedVendorReportedEchoSpacing": 0.000560011,
  "DeviceSerialNumber": "167006",
  "DwellTime": 2.1e-06,
  "EchoTime": 0.037,
  "EchoTrainLength": 104,
  "EffectiveEchoSpacing": 0.000560011,
  "FlipAngle": 52,
  "HeudiconvVersion": "0.5.3.post811+g6206e14",
  "ImageComments": "Unaliased MB4/PE3/LB",
  "ImageOrientationPatientDICOM": [0.999761, -0.020642, 0.00715794, 0.0218149, 0.925164, -0.37894],
  "ImageOrientationText": "Tra>Cor(-22.3)>Sag(-0.1)",
  "ImageType": [
    "ORIGINAL",
    "PRIMARY",
    "M",
    "MB",
    "ND",
    "MOSAIC"
],
  "ImagingFrequency": 123.259,
  "InPlanePhaseEncodingDirectionDICOM": "COL",
  "InstitutionAddress": "Chemin Queen-Mary 4565,Montreal,District,CA,H3W 1W5",
  "InstitutionName": "IUGM",
  "InstitutionalDepartmentName": "Department",
  "MRAcquisitionType": "2D",
  "MagneticFieldStrength": 3,
  "Manufacturer": "Siemens",
  "ManufacturersModelName": "Prisma_fit",
  "MatrixCoilMode": "SENSE",
  "Modality": "MR",
  "MultibandAccelerationFactor": 4,
  "PartialFourier": 1,
  "PatientPosition": "HFS",
  "PercentPhaseFOV": 100,
  "PercentSampling": 100,
  "PhaseEncodingDirection": "j",
  "PhaseEncodingSteps": 104,
  "PhaseResolution": 1,
  "PixelBandwidth": 2290,
  "ProcedureStepDescription": "games^mario3",
  "ProtocolName": "func_task-mario3_run-04",
  "PulseSequenceDetails": "%CustomerSeq%\\cmrr_mbep2d_bold",
  "ReceiveCoilActiveElements": "HC1-7;NC1,2",
  "ReceiveCoilName": "HeadNeck_64",
  "ReconMatrixPE": 104,
  "RepetitionTime": 1.49,
  "SAR": 0.0752436,
  "ScanOptions": "FS",
  "ScanningSequence": "EP",
  "SequenceName": "epfid2d1_104",
  "SequenceVariant": "SK\\SS",
  "SeriesDescription": "func_task-mario3_run-04",
  "SeriesNumber": 19,
  "ShimSetting": [590, -7284, -8820, 368, 38, -385, -52, 86],
  "SliceThickness": 2,
  "SliceTiming": [0, 0.785, 0.0975, 0.8825, 0.1975, 0.98, 0.295, 1.0775, 0.3925, 1.1775, 0.49, 1.275, 0.5875, 1.3725, 0.6875, 0, 0.785, 0.0975, 0.8825, 0.1975, 0.98, 0.295, 1.0775, 0.3925, 1.1775, 0.49, 1.275, 0.5875, 1.3725, 0.6875, 0, 0.785, 0.0975, 0.8825, 0.1975, 0.98, 0.295, 1.0775, 0.3925, 1.1775, 0.49, 1.275, 0.5875, 1.3725, 0.6875, 0, 0.785, 0.0975, 0.8825, 0.1975, 0.98, 0.295, 1.0775, 0.3925, 1.1775, 0.49, 1.275, 0.5875, 1.3725, 0.6875],
  "SoftwareVersions": "syngo MR E11",
  "SpacingBetweenSlices": 2,
  "StationName": "MRC35049",
  "TaskName": "mario3",
  "TotalReadoutTime": 0.0576811,
  "TxRefAmp": 303.404,
  "WipMemBlock": "d5371e8f-6156-4c6d-bf5f-887effa9e8c0||Sequence: R017 ve11c/master r/75a17815+; Jun 28 2022 16:32:11 by eja",
  "dcmmeta_affine": [
    [-1.9995225667953491, 0.04362984001636505, -0.0023996697273105383, 102.88732147216797],
    [0.04128409922122955, 1.850327968597412, -0.7580119371414185, -69.15214538574219],
    [0.014315882697701454, 0.7578805685043335, 1.8507869243621826, -64.99454498291016],
    [0.0, 0.0, 0.0, 1.0]
],
  "dcmmeta_reorient_transform": [
    [0.0, -1.0, 0.0, 103.0],
    [1.0, 0.0, 0.0, 0.0],
    [0.0, 0.0, 1.0, 0.0],
    [0.0, 0.0, 0.0, 1.0]
],
  "dcmmeta_shape": [104, 104, 60, 571],
  "dcmmeta_slice_dim": 2,
  "dcmmeta_version": 0.6,
  "global": {
    "const": {
      "AcquisitionMatrix": [104, 0, 0, 104],
      "AngioFlag": "N",
      "BitsAllocated": 16,
      "BitsStored": 16,
      "BodyPartExamined": "BRAIN",
      "Columns": 832,
      "EchoNumbers": 1,
      "EchoTime": 37.0,
      "EchoTrainLength": 104,
      "FlipAngle": 52.0,
      "HighBit": 15,
      "ImageOrientationPatient": [0.99976130632727, -0.0206420504797, 0.00715794123863, 0.02181492074307, 0.92516397388507, -0.3789402732069],
      "ImagePositionPatient": [-851.08868934656, -779.92359128644, 283.72468700183],
      "ImageType": [
        "ORIGINAL",
        "PRIMARY",
        "M",
        "MB",
        "ND",
        "MOSAIC"
],
      "ImagedNucleus": "1H",
      "ImagingFrequency": 123.259158,
      "InPlanePhaseEncodingDirection": "COL",
      "MRAcquisitionType": "2D",
      "MagneticFieldStrength": 3.0,
      "Manufacturer": "SIEMENS",
      "ManufacturerModelName": "Prisma_fit",
      "Modality": "MR",
      "NumberOfAverages": 1.0,
      "NumberOfPhaseEncodingSteps": 104,
      "PercentPhaseFieldOfView": 100.0,
      "PercentSampling": 100.0,
      "PerformedProcedureStepStartTime": "183936.743000",
      "PhotometricInterpretation": "MONOCHROME2",
      "PixelBandwidth": 2290.0,
      "PixelRepresentation": 0,
      "PixelSpacing": [2.0, 2.0],
      "ProtocolName": "func_task-mario3_run-04",
      "RepetitionTime": 1490.0,
      "Rows": 832,
      "SAR": 0.07524364066146,
      "SamplesPerPixel": 1,
      "ScanOptions": "FS",
      "ScanningSequence": "EP",
      "SequenceName": "epfid2d1_104",
      "SequenceVariant": [
        "SK",
        "SS"
],
      "SeriesDescription": "func_task-mario3_run-04",
      "SeriesNumber": 19,
      "SeriesTime": "191945.436000",
      "SliceLocation": -34.059898750124,
      "SliceThickness": 2.0,
      "SmallestImagePixelValue": 0,
      "SoftwareVersions": "syngo MR E11",
      "SpacingBetweenSlices": 1.9999999754424,
      "SpecificCharacterSet": "ISO_IR 100",
      "StudyID": "1",
      "StudyTime": "183936.663000",
      "TransmitCoilName": "Body",
      "VariableFlipAngleFlag": "N",
      "WindowCenterWidthExplanation": "Algo1",
      "dBdt": 0.0},
    "slices": {}
  },
  "time": {
    "samples": {
      "AcquisitionNumber": [1, 2, 3, 4, 5, 6, 7, 8, 9, 10, 11, 12, 13, 14, 15, 16, 17, 18, 19, 20, 21, 22, 23, 24, 25, 26, 27, 28, 29, 30, 31, 32, 33, 34, 35, 36, 37, 38, 39, 40, 41, 42, 43, 44, 45, 46, 47, 48, 49, 50, 51, 52, 53, 54, 55, 56, 57, 58, 59, 60, 61, 62, 63, 64, 65, 66, 67, 68, 69, 70, 71, 72, 73, 74, 75, 76, 77, 78, 79, 80, 81, 82, 83, 84, 85, 86, 87, 88, 89, 90, 91, 92, 93, 94, 95, 96, 97, 98, 99, 100, 101, 102, 103, 104, 105, 106, 107, 108, 109, 110, 111, 112, 113, 114, 115, 116, 117, 118, 119, 120, 121, 122, 123, 124, 125, 126, 127, 128, 129, 130, 131, 132, 133, 134, 135, 136, 137, 138, 139, 140, 141, 142, 143, 144, 145, 146, 147, 148, 149, 150, 151, 152, 153, 154, 155, 156, 157, 158, 159, 160, 161, 162, 163, 164, 165, 166, 167, 168, 169, 170, 171, 172, 173, 174, 175, 176, 177, 178, 179, 180, 181, 182, 183, 184, 185, 186, 187, 188, 189, 190, 191, 192, 193, 194, 195, 196, 197, 198, 199, 200, 201, 202, 203, 204, 205, 206, 207, 208, 209, 210, 211, 212, 213, 214, 215, 216, 217, 218, 219, 220, 221, 222, 223, 224, 225, 226, 227, 228, 229, 230, 231, 232, 233, 234, 235, 236, 237, 238, 239, 240, 241, 242, 243, 244, 245, 246, 247, 248, 249, 250, 251, 252, 253, 254, 255, 256, 257, 258, 259, 260, 261, 262, 263, 264, 265, 266, 267, 268, 269, 270, 271, 272, 273, 274, 275, 276, 277, 278, 279, 280, 281, 282, 283, 284, 285, 286, 287, 288, 289, 290, 291, 292, 293, 294, 295, 296, 297, 298, 299, 300, 301, 302, 303, 304, 305, 306, 307, 308, 309, 310, 311, 312, 313, 314, 315, 316, 317, 318, 319, 320, 321, 322, 323, 324, 325, 326, 327, 328, 329, 330, 331, 332, 333, 334, 335, 336, 337, 338, 339, 340, 341, 342, 343, 344, 345, 346, 347, 348, 349, 350, 351, 352, 353, 354, 355, 356, 357, 358, 359, 360, 361, 362, 363, 364, 365, 366, 367, 368, 369, 370, 371, 372, 373, 374, 375, 376, 377, 378, 379, 380, 381, 382, 383, 384, 385, 386, 387, 388, 389, 390, 391, 392, 393, 394, 395, 396, 397, 398, 399, 400, 401, 402, 403, 404, 405, 406, 407, 408, 409, 410, 411, 412, 413, 414, 415, 416, 417, 418, 419, 420, 421, 422, 423, 424, 425, 426, 427, 428, 429, 430, 431, 432, 433, 434, 435, 436, 437, 438, 439, 440, 441, 442, 443, 444, 445, 446, 447, 448, 449, 450, 451, 452, 453, 454, 455, 456, 457, 458, 459, 460, 461, 462, 463, 464, 465, 466, 467, 468, 469, 470, 471, 472, 473, 474, 475, 476, 477, 478, 479, 480, 481, 482, 483, 484, 485, 486, 487, 488, 489, 490, 491, 492, 493, 494, 495, 496, 497, 498, 499, 500, 501, 502, 503, 504, 505, 506, 507, 508, 509, 510, 511, 512, 513, 514, 515, 516, 517, 518, 519, 520, 521, 522, 523, 524, 525, 526, 527, 528, 529, 530, 531, 532, 533, 534, 535, 536, 537, 538, 539, 540, 541, 542, 543, 544, 545, 546, 547, 548, 549, 550, 551, 552, 553, 554, 555, 556, 557, 558, 559, 560, 561, 562, 563, 564, 565, 566, 567, 568, 569, 570, 571],
      "AcquisitionTime": ["191839.580000", "191841.070000", "191842.560000", "191844.050000", "191845.540000", "191847.030000", "191848.520000", "191850.010000", "191851.500000", "191852.990000", "191854.480000", "191855.970000", "191857.460000", "191858.950000", "191900.440000", "191901.930000", "191903.420000", "191904.910000", "191906.400000", "191907.890000", "191909.380000", "191910.870000", "191912.360000", "191913.850000", "191915.340000", "191916.830000", "191918.320000", "191919.810000", "191921.300000", "191922.790000", "191924.280000", "191925.770000", "191927.260000", "191928.750000", "191930.240000", "191931.730000", "191933.220000", "191934.710000", "191936.200000", "191937.690000", "191939.180000", "191940.670000", "191942.160000", "191943.650000", "191945.140000", "191946.630000", "191948.120000", "191949.610000", "191951.100000", "191952.590000", "191954.080000", "191955.570000", "191957.060000", "191958.550000", "192000.040000", "192001.530000", "192003.020000", "192004.510000", "192006.000000", "192007.490000", "192008.980000", "192010.470000", "192011.960000", "192013.450000", "192014.940000", "192016.430000", "192017.920000", "192019.410000", "192020.900000", "192022.390000", "192023.880000", "192025.370000", "192026.860000", "192028.350000", "192029.840000", "192031.330000", "192032.820000", "192034.310000", "192035.800000", "192037.290000", "192038.780000", "192040.270000", "192041.760000", "192043.250000", "192044.740000", "192046.230000", "192047.720000", "192049.210000", "192050.700000", "192052.190000", "192053.680000", "192055.170000", "192056.660000", "192058.150000", "192059.640000", "192101.130000", "192102.620000", "192104.110000", "192105.600000", "192107.090000", "192108.580000", "192110.070000", "192111.560000", "192113.050000", "192114.540000", "192116.030000", "192117.520000", "192119.010000", "192120.500000", "192121.990000", "192123.480000", "192124.970000", "192126.460000", "192127.950000", "192129.440000", "192130.930000", "192132.420000", "192133.910000", "192135.400000", "192136.890000", "192138.380000", "192139.870000", "192141.360000", "192142.850000", "192144.340000", "192145.830000", "192147.320000", "192148.810000", "192150.300000", "192151.790000", "192153.280000", "192154.770000", "192156.260000", "192157.750000", "192159.240000", "192200.730000", "192202.220000", "192203.710000", "192205.200000", "192206.690000", "192208.180000", "192209.670000", "192211.160000", "192212.650000", "192214.140000", "192215.630000", "192217.120000", "192218.610000", "192220.100000", "192221.590000", "192223.080000", "192224.570000", "192226.060000", "192227.550000", "192229.040000", "192230.530000", "192232.020000", "192233.510000", "192235.000000", "192236.490000", "192237.980000", "192239.470000", "192240.960000", "192242.450000", "192243.940000", "192245.430000", "192246.920000", "192248.410000", "192249.900000", "192251.390000", "192252.880000", "192254.370000", "192255.860000", "192257.350000", "192258.840000", "192300.330000", "192301.820000", "192303.310000", "192304.800000", "192306.290000", "192307.780000", "192309.270000", "192310.760000", "192312.250000", "192313.740000", "192315.230000", "192316.720000", "192318.210000", "192319.700000", "192321.190000", "192322.680000", "192324.170000", "192325.660000", "192327.150000", "192328.640000", "192330.130000", "192331.620000", "192333.110000", "192334.600000", "192336.090000", "192337.580000", "192339.070000", "192340.560000", "192342.050000", "192343.540000", "192345.030000", "192346.520000", "192348.010000", "192349.500000", "192350.990000", "192352.480000", "192353.970000", "192355.460000", "192356.950000", "192358.440000", "192359.930000", "192401.420000", "192402.910000", "192404.400000", "192405.890000", "192407.380000", "192408.870000", "192410.360000", "192411.850000", "192413.340000", "192414.830000", "192416.320000", "192417.810000", "192419.300000", "192420.790000", "192422.280000", "192423.770000", "192425.260000", "192426.750000", "192428.240000", "192429.730000", "192431.220000", "192432.710000", "192434.200000", "192435.690000", "192437.180000", "192438.670000", "192440.160000", "192441.650000", "192443.140000", "192444.630000", "192446.120000", "192447.610000", "192449.100000", "192450.590000", "192452.080000", "192453.570000", "192455.060000", "192456.550000", "192458.040000", "192459.530000", "192501.020000", "192502.510000", "192504.000000", "192505.490000", "192506.980000", "192508.470000", "192509.960000", "192511.450000", "192512.940000", "192514.430000", "192515.920000", "192517.410000", "192518.900000", "192520.390000", "192521.880000", "192523.370000", "192524.860000", "192526.350000", "192527.840000", "192529.330000", "192530.820000", "192532.310000", "192533.800000", "192535.290000", "192536.780000", "192538.270000", "192539.760000", "192541.250000", "192542.740000", "192544.230000", "192545.720000", "192547.210000", "192548.700000", "192550.190000", "192551.680000", "192553.170000", "192554.660000", "192556.150000", "192557.640000", "192559.130000", "192600.620000", "192602.110000", "192603.600000", "192605.090000", "192606.580000", "192608.070000", "192609.560000", "192611.050000", "192612.540000", "192614.030000", "192615.520000", "192617.010000", "192618.500000", "192619.990000", "192621.480000", "192622.970000", "192624.460000", "192625.950000", "192627.440000", "192628.930000", "192630.420000", "192631.910000", "192633.400000", "192634.890000", "192636.380000", "192637.870000", "192639.360000", "192640.850000", "192642.340000", "192643.830000", "192645.320000", "192646.810000", "192648.300000", "192649.790000", "192651.280000", "192652.770000", "192654.260000", "192655.750000", "192657.240000", "192658.730000", "192700.220000", "192701.710000", "192703.200000", "192704.690000", "192706.180000", "192707.670000", "192709.160000", "192710.650000", "192712.140000", "192713.630000", "192715.120000", "192716.610000", "192718.100000", "192719.590000", "192721.080000", "192722.570000", "192724.060000", "192725.550000", "192727.040000", "192728.530000", "192730.020000", "192731.510000", "192733.000000", "192734.490000", "192735.980000", "192737.470000", "192738.960000", "192740.450000", "192741.940000", "192743.430000", "192744.920000", "192746.410000", "192747.900000", "192749.390000", "192750.880000", "192752.370000", "192753.860000", "192755.350000", "192756.840000", "192758.330000", "192759.820000", "192801.310000", "192802.800000", "192804.290000", "192805.780000", "192807.270000", "192808.760000", "192810.250000", "192811.740000", "192813.230000", "192814.720000", "192816.210000", "192817.700000", "192819.190000", "192820.680000", "192822.170000", "192823.660000", "192825.150000", "192826.640000", "192828.130000", "192829.620000", "192831.110000", "192832.600000", "192834.090000", "192835.580000", "192837.070000", "192838.560000", "192840.050000", "192841.540000", "192843.030000", "192844.520000", "192846.010000", "192847.500000", "192848.990000", "192850.480000", "192851.970000", "192853.460000", "192854.950000", "192856.440000", "192857.930000", "192859.420000", "192900.910000", "192902.400000", "192903.890000", "192905.380000", "192906.870000", "192908.360000", "192909.850000", "192911.340000", "192912.830000", "192914.320000", "192915.810000", "192917.300000", "192918.790000", "192920.280000", "192921.770000", "192923.260000", "192924.750000", "192926.240000", "192927.730000", "192929.220000", "192930.710000", "192932.200000", "192933.690000", "192935.180000", "192936.670000", "192938.160000", "192939.650000", "192941.140000", "192942.630000", "192944.120000", "192945.610000", "192947.100000", "192948.590000", "192950.080000", "192951.570000", "192953.060000", "192954.550000", "192956.040000", "192957.530000", "192959.020000", "193000.510000", "193002.000000", "193003.490000", "193004.980000", "193006.470000", "193007.960000", "193009.450000", "193010.940000", "193012.430000", "193013.920000", "193015.410000", "193016.900000", "193018.390000", "193019.880000", "193021.370000", "193022.860000", "193024.350000", "193025.840000", "193027.330000", "193028.820000", "193030.310000", "193031.800000", "193033.290000", "193034.780000", "193036.270000", "193037.760000", "193039.250000", "193040.740000", "193042.230000", "193043.720000", "193045.210000", "193046.700000", "193048.190000", "193049.680000", "193051.170000", "193052.660000", "193054.150000", "193055.640000", "193057.130000", "193058.620000", "193100.110000", "193101.600000", "193103.090000", "193104.580000", "193106.070000", "193107.560000", "193109.050000", "193110.540000", "193112.030000", "193113.520000", "193115.010000", "193116.500000", "193117.990000", "193119.480000", "193120.970000", "193122.460000", "193123.950000", "193125.440000", "193126.930000", "193128.420000", "193129.910000", "193131.400000", "193132.890000", "193134.380000", "193135.870000", "193137.360000", "193138.850000", "193140.340000", "193141.830000", "193143.320000", "193144.810000", "193146.300000", "193147.790000", "193149.280000", "193150.770000", "193152.260000", "193153.750000", "193155.240000", "193156.730000", "193158.220000", "193159.710000", "193201.200000", "193202.690000", "193204.180000", "193205.670000", "193207.160000", "193208.650000", "193210.140000", "193211.630000", "193213.120000", "193214.610000", "193216.100000", "193217.590000", "193219.080000", "193220.570000", "193222.060000", "193223.550000", "193225.040000", "193226.530000", "193228.020000", "193229.510000", "193231.000000", "193232.490000", "193233.980000", "193235.470000", "193236.960000", "193238.450000", "193239.940000", "193241.430000", "193242.920000", "193244.410000", "193245.900000", "193247.390000", "193248.880000"],
      "ContentTime": ["191945.439000", "191945.443000", "191945.446000", "191945.450000", "191945.453000", "191945.457000", "191945.460000", "191945.463000", "191945.467000", "191945.470000", "191945.473000", "191945.477000", "191945.480000", "191945.483000", "192005.396000", "192005.400000", "192005.403000", "192005.407000", "192005.410000", "192005.413000", "192005.417000", "192005.420000", "192005.423000", "192005.427000", "192005.430000", "192005.433000", "192005.437000", "192005.440000", "192005.443000", "192005.446000", "192005.450000", "192005.453000", "192005.457000", "192005.460000", "192025.396000", "192025.400000", "192025.403000", "192025.407000", "192025.410000", "192025.413000", "192025.417000", "192025.420000", "192025.423000", "192025.426000", "192025.433000", "192025.436000", "192025.439000", "192025.443000", "192025.446000", "192025.449000", "192025.453000", "192025.456000", "192025.459000", "192025.463000", "192025.466000", "192045.396000", "192045.400000", "192045.403000", "192045.406000", "192045.410000", "192045.413000", "192045.416000", "192045.420000", "192045.423000", "192045.427000", "192045.430000", "192045.433000", "192045.437000", "192045.440000", "192045.443000", "192045.447000", "192045.450000", "192045.454000", "192045.457000", "192045.460000", "192105.396000", "192105.400000", "192105.403000", "192105.406000", "192105.410000", "192105.413000", "192105.416000", "192105.420000", "192105.423000", "192105.427000", "192105.430000", "192105.433000", "192105.437000", "192105.440000", "192105.443000", "192105.446000", "192105.450000", "192105.463000", "192105.467000", "192105.470000", "192145.396000", "192145.400000", "192145.403000", "192145.406000", "192145.410000", "192145.413000", "192145.417000", "192145.420000", "192145.423000", "192145.427000", "192145.430000", "192145.433000", "192145.437000", "192145.440000", "192145.443000", "192145.447000", "192145.450000", "192145.454000", "192145.457000", "192145.460000", "192145.464000", "192145.467000", "192145.470000", "192145.473000", "192145.477000", "192145.480000", "192145.484000", "192145.487000", "192145.491000", "192225.396000", "192225.400000", "192225.403000", "192225.407000", "192225.410000", "192225.413000", "192225.417000", "192225.420000", "192225.424000", "192225.427000", "192225.430000", "192225.434000", "192225.437000", "192225.441000", "192225.444000", "192225.448000", "192225.452000", "192225.456000", "192225.459000", "192225.463000", "192225.467000", "192225.470000", "192225.473000", "192225.477000", "192225.480000", "192225.483000", "192305.396000", "192305.400000", "192305.403000", "192305.407000", "192305.410000", "192305.413000", "192305.417000", "192305.420000", "192305.424000", "192305.427000", "192305.431000", "192305.434000", "192305.437000", "192305.440000", "192305.444000", "192305.447000", "192305.451000", "192305.454000", "192305.457000", "192305.461000", "192305.464000", "192305.467000", "192305.471000", "192305.474000", "192305.477000", "192305.480000", "192305.484000", "192345.396000", "192345.400000", "192345.403000", "192345.407000", "192345.419000", "192345.422000", "192345.425000", "192345.429000", "192345.432000", "192345.436000", "192345.439000", "192345.442000", "192345.446000", "192345.449000", "192345.452000", "192345.456000", "192345.459000", "192345.462000", "192345.466000", "192345.469000", "192345.472000", "192345.476000", "192345.479000", "192345.482000", "192345.486000", "192345.489000", "192345.492000", "192425.396000", "192425.400000", "192425.403000", "192425.407000", "192425.410000", "192425.414000", "192425.417000", "192425.421000", "192425.424000", "192425.427000", "192425.431000", "192425.434000", "192425.437000", "192425.441000", "192425.444000", "192425.448000", "192425.451000", "192425.454000", "192425.458000", "192425.461000", "192425.464000", "192425.468000", "192425.471000", "192425.474000", "192425.478000", "192425.481000", "192425.485000", "192505.396000", "192505.400000", "192505.403000", "192505.407000", "192505.410000", "192505.413000", "192505.417000", "192505.420000", "192505.424000", "192505.427000", "192505.430000", "192505.434000", "192505.437000", "192505.440000", "192505.444000", "192505.447000", "192505.451000", "192505.454000", "192505.457000", "192505.461000", "192505.464000", "192505.467000", "192505.471000", "192505.474000", "192505.477000", "192505.481000", "192505.484000", "192545.396000", "192545.400000", "192545.404000", "192545.407000", "192545.410000", "192545.414000", "192545.417000", "192545.420000", "192545.424000", "192545.427000", "192545.431000", "192545.434000", "192545.437000", "192545.441000", "192545.444000", "192545.447000", "192545.451000", "192545.454000", "192545.461000", "192545.464000", "192545.468000", "192545.471000", "192545.474000", "192545.478000", "192545.481000", "192545.484000", "192545.488000", "192625.396000", "192625.400000", "192625.403000", "192625.407000", "192625.414000", "192625.418000", "192625.421000", "192625.424000", "192625.428000", "192625.431000", "192625.435000", "192625.438000", "192625.441000", "192625.445000", "192625.448000", "192625.451000", "192625.455000", "192625.458000", "192625.462000", "192625.465000", "192625.468000", "192625.472000", "192625.475000", "192625.478000", "192625.482000", "192625.485000", "192625.488000", "192705.395000", "192705.399000", "192705.403000", "192705.406000", "192705.409000", "192705.412000", "192705.416000", "192705.420000", "192705.423000", "192705.426000", "192705.430000", "192705.434000", "192705.438000", "192705.441000", "192705.445000", "192705.448000", "192705.452000", "192705.455000", "192705.458000", "192705.462000", "192705.465000", "192705.469000", "192705.472000", "192705.475000", "192705.479000", "192705.482000", "192745.396000", "192745.400000", "192745.407000", "192745.411000", "192745.414000", "192745.417000", "192745.421000", "192745.425000", "192745.428000", "192745.431000", "192745.435000", "192745.438000", "192745.441000", "192745.445000", "192745.448000", "192745.452000", "192745.455000", "192745.458000", "192745.462000", "192745.465000", "192745.468000", "192745.472000", "192745.475000", "192745.478000", "192745.482000", "192745.485000", "192745.488000", "192825.396000", "192825.400000", "192825.403000", "192825.407000", "192825.410000", "192825.435000", "192825.438000", "192825.441000", "192825.445000", "192825.448000", "192825.452000", "192825.455000", "192825.459000", "192825.462000", "192825.466000", "192825.469000", "192825.473000", "192825.476000", "192825.479000", "192825.483000", "192825.486000", "192825.489000", "192825.493000", "192825.496000", "192825.499000", "192825.503000", "192825.506000", "192845.396000", "192845.401000", "192845.405000", "192845.409000", "192845.412000", "192845.416000", "192845.419000", "192845.423000", "192845.426000", "192845.429000", "192845.433000", "192845.436000", "192845.440000", "192925.395000", "192925.399000", "192925.402000", "192925.406000", "192925.409000", "192925.413000", "192925.416000", "192925.419000", "192925.423000", "192925.426000", "192925.430000", "192925.433000", "192925.437000", "192925.440000", "192925.443000", "192925.446000", "192925.450000", "192925.453000", "192925.457000", "192925.460000", "192925.463000", "192925.467000", "192925.470000", "192925.473000", "192925.477000", "192925.480000", "192925.483000", "193005.396000", "193005.400000", "193005.404000", "193005.407000", "193005.410000", "193005.414000", "193005.417000", "193005.421000", "193005.424000", "193005.427000", "193005.431000", "193005.434000", "193005.438000", "193005.441000", "193005.444000", "193005.448000", "193005.451000", "193005.454000", "193005.458000", "193005.461000", "193005.464000", "193005.468000", "193005.471000", "193005.474000", "193005.478000", "193005.497000", "193005.500000", "193045.396000", "193045.400000", "193045.403000", "193045.407000", "193045.410000", "193045.414000", "193045.417000", "193045.420000", "193045.424000", "193045.427000", "193045.430000", "193045.434000", "193045.437000", "193045.441000", "193045.444000", "193045.447000", "193045.451000", "193045.454000", "193045.457000", "193045.461000", "193045.464000", "193045.467000", "193045.471000", "193045.474000", "193045.478000", "193045.481000", "193045.484000", "193125.396000", "193125.400000", "193125.404000", "193125.407000", "193125.410000", "193125.414000", "193125.417000", "193125.421000", "193125.424000", "193125.427000", "193125.431000", "193125.434000", "193125.437000", "193125.441000", "193125.449000", "193125.452000", "193125.455000", "193125.459000", "193125.462000", "193125.466000", "193125.469000", "193125.472000", "193125.476000", "193125.479000", "193125.482000", "193125.486000", "193125.489000", "193205.396000", "193205.400000", "193205.403000", "193205.407000", "193205.410000", "193205.413000", "193205.417000", "193205.420000", "193205.424000", "193205.427000", "193205.430000", "193205.434000", "193205.437000", "193205.441000", "193205.444000", "193205.447000", "193205.451000", "193205.454000", "193205.457000", "193205.461000", "193205.464000", "193205.468000", "193205.471000", "193205.474000", "193205.478000", "193205.481000", "193205.484000", "193245.396000", "193245.400000", "193245.404000", "193245.407000", "193245.410000", "193245.414000", "193245.417000", "193245.421000", "193245.424000", "193245.427000", "193245.431000", "193245.434000", "193245.438000", "193245.441000", "193245.445000", "193245.448000", "193245.451000", "193245.455000", "193245.458000", "193245.462000", "193245.465000", "193245.468000", "193245.472000", "193245.475000", "193245.478000", "193245.482000", "193245.485000", "193251.317000", "193251.320000", "193251.324000", "193251.327000"],
