{
  "AcquisitionMatrixPE": 104,
  "AcquisitionNumber": 1,
  "AcquisitionTime": "18:55:40.855000",
  "BandwidthPerPixelPhaseEncode": 17.17,
  "BaseResolution": 104,
  "BodyPartExamined": "BRAIN",
  "CoilCombinationMethod": "Sum of Squares",
  "ConsistencyInfo": "N4_VE11C_LATEST_20160120",
  "ConversionSoftware": "dcm2niix",
  "ConversionSoftwareVersion": "v1.0.20220505",
  "DerivedVendorReportedEchoSpacing": 0.000560011,
  "DeviceSerialNumber": "167006",
  "DwellTime": 2.1e-06,
  "EchoTime": 0.037,
  "EchoTrainLength": 104,
  "EffectiveEchoSpacing": 0.000560011,
  "FlipAngle": 52,
  "HeudiconvVersion": "0.5.3.post811+g6206e14",
  "ImageComments": "Unaliased MB4/PE3/LB",
  "ImageOrientationPatientDICOM": [0.999761, -0.020642, 0.00715794, 0.0218149, 0.925164, -0.37894],
  "ImageOrientationText": "Tra>Cor(-22.3)>Sag(-0.1)",
  "ImageType": [
    "ORIGINAL",
    "PRIMARY",
    "M",
    "MB",
    "ND",
    "MOSAIC"
],
  "ImagingFrequency": 123.259,
  "InPlanePhaseEncodingDirectionDICOM": "COL",
  "InstitutionAddress": "Chemin Queen-Mary 4565,Montreal,District,CA,H3W 1W5",
  "InstitutionName": "IUGM",
  "InstitutionalDepartmentName": "Department",
  "MRAcquisitionType": "2D",
  "MagneticFieldStrength": 3,
  "Manufacturer": "Siemens",
  "ManufacturersModelName": "Prisma_fit",
  "MatrixCoilMode": "SENSE",
  "Modality": "MR",
  "MultibandAccelerationFactor": 4,
  "PartialFourier": 1,
  "PatientPosition": "HFS",
  "PercentPhaseFOV": 100,
  "PercentSampling": 100,
  "PhaseEncodingDirection": "j",
  "PhaseEncodingSteps": 104,
  "PhaseResolution": 1,
  "PixelBandwidth": 2290,
  "ProcedureStepDescription": "games^mario3",
  "ProtocolName": "func_task-mario3_run-02",
  "PulseSequenceDetails": "%CustomerSeq%\\cmrr_mbep2d_bold",
  "ReceiveCoilActiveElements": "HC1-7;NC1,2",
  "ReceiveCoilName": "HeadNeck_64",
  "ReconMatrixPE": 104,
  "RepetitionTime": 1.49,
  "SAR": 0.0752436,
  "ScanOptions": "FS",
  "ScanningSequence": "EP",
  "SequenceName": "epfid2d1_104",
  "SequenceVariant": "SK\\SS",
  "SeriesDescription": "func_task-mario3_run-02",
  "SeriesNumber": 13,
  "ShimSetting": [590, -7284, -8820, 368, 38, -385, -52, 86],
  "SliceThickness": 2,
  "SliceTiming": [0, 0.785, 0.1, 0.8825, 0.1975, 0.98, 0.295, 1.0775, 0.3925, 1.1775, 0.49, 1.275, 0.5875, 1.3725, 0.6875, 0, 0.785, 0.1, 0.8825, 0.1975, 0.98, 0.295, 1.0775, 0.3925, 1.1775, 0.49, 1.275, 0.5875, 1.3725, 0.6875, 0, 0.785, 0.1, 0.8825, 0.1975, 0.98, 0.295, 1.0775, 0.3925, 1.1775, 0.49, 1.275, 0.5875, 1.3725, 0.6875, 0, 0.785, 0.1, 0.8825, 0.1975, 0.98, 0.295, 1.0775, 0.3925, 1.1775, 0.49, 1.275, 0.5875, 1.3725, 0.6875],
  "SoftwareVersions": "syngo MR E11",
  "SpacingBetweenSlices": 2,
  "StationName": "MRC35049",
  "TaskName": "mario3",
  "TotalReadoutTime": 0.0576811,
  "TxRefAmp": 303.404,
  "WipMemBlock": "623eb9af-11a2-4bb9-be53-ac369a600915||Sequence: R017 ve11c/master r/75a17815+; Jun 28 2022 16:32:11 by eja",
  "dcmmeta_affine": [
    [-1.9995225667953491, 0.04362984001636505, -0.0023996697273105383, 102.88732147216797],
    [0.04128409922122955, 1.850327968597412, -0.7580119371414185, -69.15214538574219],
    [0.014315882697701454, 0.7578805685043335, 1.8507869243621826, -64.99454498291016],
    [0.0, 0.0, 0.0, 1.0]
],
  "dcmmeta_reorient_transform": [
    [0.0, -1.0, 0.0, 103.0],
    [1.0, 0.0, 0.0, 0.0],
    [0.0, 0.0, 1.0, 0.0],
    [0.0, 0.0, 0.0, 1.0]
],
  "dcmmeta_shape": [104, 104, 60, 350],
  "dcmmeta_slice_dim": 2,
  "dcmmeta_version": 0.6,
  "global": {
    "const": {
      "AcquisitionMatrix": [104, 0, 0, 104],
      "AngioFlag": "N",
      "BitsAllocated": 16,
      "BitsStored": 16,
      "BodyPartExamined": "BRAIN",
      "Columns": 832,
      "EchoNumbers": 1,
      "EchoTime": 37.0,
      "EchoTrainLength": 104,
      "FlipAngle": 52.0,
      "HighBit": 15,
      "ImageOrientationPatient": [0.99976130632727, -0.0206420504797, 0.00715794123863, 0.02181492074307, 0.92516397388507, -0.3789402732069],
      "ImagePositionPatient": [-851.08868934656, -779.92359128644, 283.72468700183],
      "ImageType": [
        "ORIGINAL",
        "PRIMARY",
        "M",
        "MB",
        "ND",
        "MOSAIC"
],
      "ImagedNucleus": "1H",
      "ImagingFrequency": 123.259147,
      "InPlanePhaseEncodingDirection": "COL",
      "MRAcquisitionType": "2D",
      "MagneticFieldStrength": 3.0,
      "Manufacturer": "SIEMENS",
      "ManufacturerModelName": "Prisma_fit",
      "Modality": "MR",
      "NumberOfAverages": 1.0,
      "NumberOfPhaseEncodingSteps": 104,
      "PercentPhaseFieldOfView": 100.0,
      "PercentSampling": 100.0,
      "PerformedProcedureStepStartTime": "183936.743000",
      "PhotometricInterpretation": "MONOCHROME2",
      "PixelBandwidth": 2290.0,
      "PixelRepresentation": 0,
      "PixelSpacing": [2.0, 2.0],
      "ProtocolName": "func_task-mario3_run-02",
      "RepetitionTime": 1490.0,
      "Rows": 832,
      "SAR": 0.07524364066146,
      "SamplesPerPixel": 1,
      "ScanOptions": "FS",
      "ScanningSequence": "EP",
      "SequenceName": "epfid2d1_104",
      "SequenceVariant": [
        "SK",
        "SS"
],
      "SeriesDescription": "func_task-mario3_run-02",
      "SeriesNumber": 13,
      "SeriesTime": "185650.415000",
      "SliceLocation": -34.059898750124,
      "SliceThickness": 2.0,
      "SmallestImagePixelValue": 0,
      "SoftwareVersions": "syngo MR E11",
      "SpacingBetweenSlices": 1.9999999754424,
      "SpecificCharacterSet": "ISO_IR 100",
      "StudyID": "1",
      "StudyTime": "183936.663000",
      "TransmitCoilName": "Body",
      "VariableFlipAngleFlag": "N",
      "WindowCenterWidthExplanation": "Algo1",
      "dBdt": 0.0},
    "slices": {}
  },
  "time": {
    "samples": {
      "AcquisitionNumber": [1, 2, 3, 4, 5, 6, 7, 8, 9, 10, 11, 12, 13, 14, 15, 16, 17, 18, 19, 20, 21, 22, 23, 24, 25, 26, 27, 28, 29, 30, 31, 32, 33, 34, 35, 36, 37, 38, 39, 40, 41, 42, 43, 44, 45, 46, 47, 48, 49, 50, 51, 52, 53, 54, 55, 56, 57, 58, 59, 60, 61, 62, 63, 64, 65, 66, 67, 68, 69, 70, 71, 72, 73, 74, 75, 76, 77, 78, 79, 80, 81, 82, 83, 84, 85, 86, 87, 88, 89, 90, 91, 92, 93, 94, 95, 96, 97, 98, 99, 100, 101, 102, 103, 104, 105, 106, 107, 108, 109, 110, 111, 112, 113, 114, 115, 116, 117, 118, 119, 120, 121, 122, 123, 124, 125, 126, 127, 128, 129, 130, 131, 132, 133, 134, 135, 136, 137, 138, 139, 140, 141, 142, 143, 144, 145, 146, 147, 148, 149, 150, 151, 152, 153, 154, 155, 156, 157, 158, 159, 160, 161, 162, 163, 164, 165, 166, 167, 168, 169, 170, 171, 172, 173, 174, 175, 176, 177, 178, 179, 180, 181, 182, 183, 184, 185, 186, 187, 188, 189, 190, 191, 192, 193, 194, 195, 196, 197, 198, 199, 200, 201, 202, 203, 204, 205, 206, 207, 208, 209, 210, 211, 212, 213, 214, 215, 216, 217, 218, 219, 220, 221, 222, 223, 224, 225, 226, 227, 228, 229, 230, 231, 232, 233, 234, 235, 236, 237, 238, 239, 240, 241, 242, 243, 244, 245, 246, 247, 248, 249, 250, 251, 252, 253, 254, 255, 256, 257, 258, 259, 260, 261, 262, 263, 264, 265, 266, 267, 268, 269, 270, 271, 272, 273, 274, 275, 276, 277, 278, 279, 280, 281, 282, 283, 284, 285, 286, 287, 288, 289, 290, 291, 292, 293, 294, 295, 296, 297, 298, 299, 300, 301, 302, 303, 304, 305, 306, 307, 308, 309, 310, 311, 312, 313, 314, 315, 316, 317, 318, 319, 320, 321, 322, 323, 324, 325, 326, 327, 328, 329, 330, 331, 332, 333, 334, 335, 336, 337, 338, 339, 340, 341, 342, 343, 344, 345, 346, 347, 348, 349, 350],
      "AcquisitionTime": ["185540.855000", "185542.345000", "185543.835000", "185545.325000", "185546.815000", "185548.305000", "185549.795000", "185551.285000", "185552.775000", "185554.265000", "185555.755000", "185557.245000", "185558.735000", "185600.225000", "185601.715000", "185603.205000", "185604.695000", "185606.185000", "185607.675000", "185609.165000", "185610.655000", "185612.145000", "185613.635000", "185615.125000", "185616.615000", "185618.105000", "185619.595000", "185621.085000", "185622.575000", "185624.065000", "185625.555000", "185627.045000", "185628.535000", "185630.025000", "185631.515000", "185633.005000", "185634.495000", "185635.985000", "185637.475000", "185638.965000", "185640.455000", "185641.945000", "185643.435000", "185644.925000", "185646.415000", "185647.905000", "185649.395000", "185650.885000", "185652.375000", "185653.865000", "185655.355000", "185656.845000", "185658.335000", "185659.825000", "185701.315000", "185702.805000", "185704.295000", "185705.785000", "185707.275000", "185708.765000", "185710.255000", "185711.745000", "185713.235000", "185714.725000", "185716.215000", "185717.705000", "185719.195000", "185720.685000", "185722.175000", "185723.665000", "185725.155000", "185726.645000", "185728.135000", "185729.625000", "185731.115000", "185732.605000", "185734.095000", "185735.585000", "185737.075000", "185738.565000", "185740.055000", "185741.545000", "185743.035000", "185744.525000", "185746.015000", "185747.505000", "185748.995000", "185750.485000", "185751.975000", "185753.465000", "185754.955000", "185756.445000", "185757.935000", "185759.425000", "185800.915000", "185802.405000", "185803.895000", "185805.385000", "185806.875000", "185808.365000", "185809.855000", "185811.345000", "185812.835000", "185814.325000", "185815.815000", "185817.305000", "185818.795000", "185820.285000", "185821.775000", "185823.265000", "185824.755000", "185826.245000", "185827.735000", "185829.225000", "185830.715000", "185832.205000", "185833.695000", "185835.185000", "185836.675000", "185838.165000", "185839.655000", "185841.145000", "185842.635000", "185844.125000", "185845.615000", "185847.105000", "185848.595000", "185850.085000", "185851.575000", "185853.065000", "185854.555000", "185856.045000", "185857.535000", "185859.025000", "185900.515000", "185902.005000", "185903.495000", "185904.985000", "185906.475000", "185907.965000", "185909.455000", "185910.945000", "185912.435000", "185913.925000", "185915.415000", "185916.905000", "185918.395000", "185919.885000", "185921.375000", "185922.865000", "185924.355000", "185925.845000", "185927.335000", "185928.825000", "185930.315000", "185931.805000", "185933.295000", "185934.785000", "185936.275000", "185937.765000", "185939.255000", "185940.745000", "185942.235000", "185943.725000", "185945.215000", "185946.705000", "185948.195000", "185949.685000", "185951.175000", "185952.665000", "185954.155000", "185955.645000", "185957.135000", "185958.625000", "190000.115000", "190001.605000", "190003.095000", "190004.585000", "190006.075000", "190007.565000", "190009.055000", "190010.545000", "190012.035000", "190013.525000", "190015.015000", "190016.505000", "190017.995000", "190019.485000", "190020.975000", "190022.465000", "190023.955000", "190025.445000", "190026.935000", "190028.425000", "190029.915000", "190031.405000", "190032.895000", "190034.385000", "190035.875000", "190037.365000", "190038.855000", "190040.345000", "190041.835000", "190043.325000", "190044.815000", "190046.305000", "190047.795000", "190049.285000", "190050.775000", "190052.265000", "190053.755000", "190055.245000", "190056.735000", "190058.225000", "190059.715000", "190101.205000", "190102.695000", "190104.185000", "190105.675000", "190107.165000", "190108.655000", "190110.145000", "190111.635000", "190113.125000", "190114.615000", "190116.105000", "190117.595000", "190119.085000", "190120.575000", "190122.065000", "190123.555000", "190125.045000", "190126.535000", "190128.025000", "190129.515000", "190131.005000", "190132.495000", "190133.985000", "190135.475000", "190136.965000", "190138.455000", "190139.945000", "190141.435000", "190142.925000", "190144.415000", "190145.905000", "190147.395000", "190148.885000", "190150.375000", "190151.865000", "190153.355000", "190154.845000", "190156.335000", "190157.825000", "190159.315000", "190200.805000", "190202.295000", "190203.785000", "190205.275000", "190206.765000", "190208.255000", "190209.745000", "190211.235000", "190212.725000", "190214.215000", "190215.705000", "190217.195000", "190218.685000", "190220.175000", "190221.665000", "190223.155000", "190224.645000", "190226.135000", "190227.625000", "190229.115000", "190230.605000", "190232.095000", "190233.585000", "190235.075000", "190236.565000", "190238.055000", "190239.545000", "190241.035000", "190242.525000", "190244.015000", "190245.505000", "190246.995000", "190248.485000", "190249.975000", "190251.465000", "190252.955000", "190254.445000", "190255.935000", "190257.425000", "190258.915000", "190300.405000", "190301.895000", "190303.385000", "190304.875000", "190306.365000", "190307.855000", "190309.345000", "190310.835000", "190312.325000", "190313.815000", "190315.305000", "190316.795000", "190318.285000", "190319.775000", "190321.265000", "190322.755000", "190324.245000", "190325.735000", "190327.225000", "190328.715000", "190330.205000", "190331.695000", "190333.185000", "190334.675000", "190336.165000", "190337.655000", "190339.145000", "190340.635000", "190342.125000", "190343.615000", "190345.105000", "190346.595000", "190348.085000", "190349.575000", "190351.065000", "190352.555000", "190354.045000", "190355.535000", "190357.025000", "190358.515000", "190400.005000", "190401.495000", "190402.985000", "190404.475000", "190405.965000", "190407.455000", "190408.945000", "190410.435000", "190411.925000", "190413.415000", "190414.905000", "190416.395000", "190417.885000", "190419.375000", "190420.865000"],
      "ContentTime": ["185650.418000", "185650.422000", "185650.426000", "185650.429000", "185650.442000", "185650.445000", "185650.449000", "185650.452000", "185650.455000", "185650.459000", "185650.462000", "185650.466000", "185650.469000", "185650.487000", "185650.490000", "185650.494000", "185650.497000", "185650.500000", "185650.504000", "185650.507000", "185650.510000", "185710.369000", "185710.373000", "185710.376000", "185710.379000", "185710.383000", "185710.386000", "185710.390000", "185710.393000", "185710.396000", "185710.400000", "185710.403000", "185710.407000", "185710.410000", "185710.413000", "185710.416000", "185710.420000", "185710.423000", "185710.426000", "185710.430000", "185710.433000", "185730.369000", "185730.373000", "185730.376000", "185730.380000", "185730.383000", "185730.386000", "185730.390000", "185730.393000", "185730.396000", "185730.403000", "185730.406000", "185730.409000", "185730.413000", "185730.416000", "185730.419000", "185730.423000", "185730.426000", "185730.430000", "185730.433000", "185730.436000", "185730.440000", "185750.369000", "185750.373000", "185750.376000", "185750.379000", "185750.383000", "185750.386000", "185750.389000", "185750.393000", "185750.396000", "185750.400000", "185750.403000", "185750.406000", "185750.410000", "185750.413000", "185750.417000", "185750.420000", "185750.423000", "185750.427000", "185750.430000", "185750.433000", "185830.369000", "185830.373000", "185830.376000", "185830.380000", "185830.383000", "185830.386000", "185830.390000", "185830.393000", "185830.396000", "185830.400000", "185830.404000", "185830.407000", "185830.410000", "185830.414000", "185830.417000", "185830.420000", "185830.424000", "185830.427000", "185830.430000", "185830.434000", "185830.437000", "185830.440000", "185830.444000", "185830.447000", "185830.451000", "185830.454000", "185830.457000", "185830.460000", "185830.464000", "185830.467000", "185830.471000", "185850.369000", "185850.373000", "185850.376000", "185850.392000", "185850.396000", "185850.399000", "185850.403000", "185850.406000", "185850.409000", "185850.413000", "185850.416000", "185850.419000", "185850.423000", "185930.369000", "185930.373000", "185930.376000", "185930.380000", "185930.383000", "185930.386000", "185930.390000", "185930.393000", "185930.397000", "185930.400000", "185930.403000", "185930.407000", "185930.410000", "185930.414000", "185930.417000", "185930.420000", "185930.424000", "185930.427000", "185930.431000", "185930.434000", "185930.438000", "185930.441000", "185930.444000", "185930.448000", "185930.451000", "185930.454000", "185930.458000", "190010.369000", "190010.373000", "190010.376000", "190010.380000", "190010.383000", "190010.386000", "190010.390000", "190010.393000", "190010.396000", "190010.400000", "190010.403000", "190010.407000", "190010.410000", "190010.413000", "190010.417000", "190010.420000", "190010.423000", "190010.427000", "190010.430000", "190010.433000", "190010.437000", "190010.440000", "190010.444000", "190010.447000", "190010.450000", "190010.454000", "190010.457000", "190050.369000", "190050.373000", "190050.376000", "190050.379000", "190050.383000", "190050.386000", "190050.390000", "190050.393000", "190050.396000", "190050.400000", "190050.403000", "190050.406000", "190050.410000", "190050.413000", "190050.416000", "190050.420000", "190050.423000", "190050.426000", "190050.430000", "190050.433000", "190050.437000", "190050.440000", "190050.443000", "190050.446000", "190050.450000", "190050.453000", "190050.456000", "190130.369000", "190130.373000", "190130.376000", "190130.380000", "190130.383000", "190130.386000", "190130.390000", "190130.393000", "190130.397000", "190130.400000", "190130.404000", "190130.407000", "190130.411000", "190130.414000", "190130.417000", "190130.421000", "190130.424000", "190130.428000", "190130.431000", "190130.434000", "190130.438000", "190130.441000", "190130.445000", "190130.448000", "190130.451000", "190130.455000", "190130.458000", "190210.369000", "190210.373000", "190210.376000", "190210.380000", "190210.383000", "190210.386000", "190210.390000", "190210.393000", "190210.397000", "190210.400000", "190210.403000", "190210.407000", "190210.410000", "190210.414000", "190210.417000", "190210.420000", "190210.424000", "190210.427000", "190210.431000", "190210.434000", "190210.437000", "190210.441000", "190210.444000", "190210.447000", "190210.451000", "190210.454000", "190210.458000", "190250.369000", "190250.373000", "190250.376000", "190250.380000", "190250.383000", "190250.386000", "190250.390000", "190250.393000", "190250.397000", "190250.400000", "190250.403000", "190250.407000", "190250.410000", "190250.413000", "190250.417000", "190250.420000", "190250.424000", "190250.427000", "190250.430000", "190250.434000", "190250.437000", "190250.440000", "190250.444000", "190250.447000", "190250.450000", "190250.454000", "190330.369000", "190330.373000", "190330.376000", "190330.380000", "190330.383000", "190330.387000", "190330.390000", "190330.393000", "190330.397000", "190330.400000", "190330.404000", "190330.407000", "190330.410000", "190330.432000", "190330.436000", "190330.439000", "190330.443000", "190330.446000", "190330.449000", "190330.453000", "190330.456000", "190330.459000", "190330.463000", "190330.466000", "190330.469000", "190330.473000", "190330.476000", "190410.370000", "190410.373000", "190410.376000", "190410.380000", "190410.383000", "190410.387000", "190410.390000", "190410.393000", "190410.397000", "190410.400000", "190410.404000", "190410.407000", "190410.410000", "190410.414000", "190410.417000", "190410.420000", "190410.424000", "190410.427000", "190410.430000", "190410.434000", "190410.437000", "190410.441000", "190410.444000", "190410.447000", "190410.451000", "190410.454000", "190410.457000", "190423.226000", "190423.230000", "190423.233000", "190423.236000", "190423.240000", "190423.243000", "190423.247000", "190423.250000", "190423.253000"],
      "InstanceCreationTime": ["185650.418000", "185650.422000", "185650.426000", "185650.429000", "185650.442000", "185650.445000", "185650.449000", "185650.452000", "185650.455000", "185650.459000", "185650.462000", "185650.466000", "185650.469000", "185650.487000", "185650.490000", "185650.494000", "185650.497000", "185650.500000", "185650.504000", "185650.507000", "185650.510000", "185710.369000", "185710.373000", "185710.376000", "185710.379000", "185710.383000", "185710.386000", "185710.390000", "185710.393000", "185710.396000", "185710.400000", "185710.403000", "185710.407000", "185710.410000", "185710.413000", "185710.416000", "185710.420000", "185710.423000", "185710.426000", "185710.430000", "185710.433000", "185730.369000", "185730.373000", "185730.376000", "185730.380000", "185730.383000", "185730.386000", "185730.390000", "185730.393000", "185730.396000", "185730.403000", "185730.406000", "185730.409000", "185730.413000", "185730.416000", "185730.419000", "185730.423000", "185730.426000", "185730.430000", "185730.433000", "185730.436000", "185730.440000", "185750.369000", "185750.373000", "185750.376000", "185750.379000", "185750.383000", "185750.386000", "185750.389000", "185750.393000", "185750.396000", "185750.400000", "185750.403000", "185750.406000", "185750.410000", "185750.413000", "185750.417000", "185750.420000", "185750.423000", "185750.427000", "185750.430000", "185750.433000", "185830.369000", "185830.373000", "185830.376000", "185830.380000", "185830.383000", "185830.386000", "185830.390000", "185830.393000", "185830.396000", "185830.400000", "185830.404000", "185830.407000", "185830.410000", "185830.414000", "185830.417000", "185830.420000", "185830.424000", "185830.427000", "185830.430000", "185830.434000", "185830.437000", "185830.440000", "185830.444000", "185830.447000", "185830.451000", "185830.454000", "185830.457000", "185830.460000", "185830.464000", "185830.467000", "185830.471000", "185850.369000", "185850.373000", "185850.376000", "185850.392000", "185850.396000", "185850.399000", "185850.403000", "185850.406000", "185850.409000", "185850.413000", "185850.416000", "185850.419000", "185850.423000", "185930.369000", "185930.373000", "185930.376000", "185930.380000", "185930.383000", "185930.386000", "185930.390000", "185930.393000", "185930.397000", "185930.400000", "185930.403000", "185930.407000", "185930.410000", "185930.414000", "185930.417000", "185930.420000", "185930.424000", "185930.427000", "185930.431000", "185930.434000", "185930.438000", "185930.441000", "185930.444000", "185930.448000", "185930.451000", "185930.454000", "185930.458000", "190010.369000", "190010.373000", "190010.376000", "190010.380000", "190010.383000", "190010.386000", "190010.390000", "190010.393000", "190010.396000", "190010.400000", "190010.403000", "190010.407000", "190010.410000", "190010.413000", "190010.417000", "190010.420000", "190010.423000", "190010.427000", "190010.430000", "190010.433000", "190010.437000", "190010.440000", "190010.444000", "190010.447000", "190010.450000", "190010.454000", "190010.457000", "190050.369000", "190050.373000", "190050.376000", "190050.379000", "190050.383000", "190050.386000", "190050.390000", "190050.393000", "190050.396000", "190050.400000", "190050.403000", "190050.406000", "190050.410000", "190050.413000", "190050.416000", "190050.420000", "190050.423000", "190050.426000", "190050.430000", "190050.433000", "190050.437000", "190050.440000", "190050.443000", "190050.446000", "190050.450000", "190050.453000", "190050.456000", "190130.369000", "190130.373000", "190130.376000", "190130.380000", "190130.383000", "190130.386000", "190130.390000", "190130.393000", "190130.397000", "190130.400000", "190130.404000", "190130.407000", "190130.411000", "190130.414000", "190130.417000", "190130.421000", "190130.424000", "190130.428000", "190130.431000", "190130.434000", "190130.438000", "190130.441000", "190130.445000", "190130.448000", "190130.451000", "190130.455000", "190130.458000", "190210.369000", "190210.373000", "190210.376000", "190210.380000", "190210.383000", "190210.386000", "190210.390000", "190210.393000", "190210.397000", "190210.400000", "190210.403000", "190210.407000", "190210.410000", "190210.414000", "190210.417000", "190210.420000", "190210.424000", "190210.427000", "190210.431000", "190210.434000", "190210.437000", "190210.441000", "190210.444000", "190210.447000", "190210.451000", "190210.454000", "190210.458000", "190250.369000", "190250.373000", "190250.376000", "190250.380000", "190250.383000", "190250.386000", "190250.390000", "190250.393000", "190250.397000", "190250.400000", "190250.403000", "190250.407000", "190250.410000", "190250.413000", "190250.417000", "190250.420000", "190250.424000", "190250.427000", "190250.430000", "190250.434000", "190250.437000", "190250.440000", "190250.444000", "190250.447000", "190250.450000", "190250.454000", "190330.369000", "190330.373000", "190330.376000", "190330.380000", "190330.383000", "190330.387000", "190330.390000", "190330.393000", "190330.397000", "190330.400000", "190330.404000", "190330.407000", "190330.410000", "190330.432000", "190330.436000", "190330.439000", "190330.443000", "190330.446000", "190330.449000", "190330.453000", "190330.456000", "190330.459000", "190330.463000", "190330.466000", "190330.469000", "190330.473000", "190330.476000", "190410.370000", "190410.373000", "190410.376000", "190410.380000", "190410.383000", "190410.387000", "190410.390000", "190410.393000", "190410.397000", "190410.400000", "190410.404000", "190410.407000", "190410.410000", "190410.414000", "190410.417000", "190410.420000", "190410.424000", "190410.427000", "190410.430000", "190410.434000", "190410.437000", "190410.441000", "190410.444000", "190410.447000", "190410.451000", "190410.454000", "190410.457000", "190423.226000", "190423.230000", "190423.233000", "190423.236000", "190423.240000", "190423.243000", "190423.247000", "190423.250000", "190423.253000"],
      "InstanceNumber": [1, 2, 3, 4, 5, 6, 7, 8, 9, 10, 11, 12, 13, 14, 15, 16, 17, 18, 19, 20, 21, 22, 23, 24, 25, 26, 27, 28, 29, 30, 31, 32, 33, 34, 35, 36, 37, 38, 39, 40, 41, 42, 43, 44, 45, 46, 47, 48, 49, 50, 51, 52, 53, 54, 55, 56, 57, 58, 59, 60, 61, 62, 63, 64, 65, 66, 67, 68, 69, 70, 71, 72, 73, 74, 75, 76, 77, 78, 79, 80, 81, 82, 83, 84, 85, 86, 87, 88, 89, 90, 91, 92, 93, 94, 95, 96, 97, 98, 99, 100, 101, 102, 103, 104, 105, 106, 107, 108, 109, 110, 111, 112, 113, 114, 115, 116, 117, 118, 119, 120, 121, 122, 123, 124, 125, 126, 127, 128, 129, 130, 131, 132, 133, 134, 135, 136, 137, 138, 139, 140, 141, 142, 143, 144, 145, 146, 147, 148, 149, 150, 151, 152, 153, 154, 155, 156, 157, 158, 159, 160, 161, 162, 163, 164, 165, 166, 167, 168, 169, 170, 171, 172, 173, 174, 175, 176, 177, 178, 179, 180, 181, 182, 183, 184, 185, 186, 187, 188, 189, 190, 191, 192, 193, 194, 195, 196, 197, 198, 199, 200, 201, 202, 203, 204, 205, 206, 207, 208, 209, 210, 211, 212, 213, 214, 215, 216, 217, 218, 219, 220, 221, 222, 223, 224, 225, 226, 227, 228, 229, 230, 231, 232, 233, 234, 235, 236, 237, 238, 239, 240, 241, 242, 243, 244, 245, 246, 247, 248, 249, 250, 251, 252, 253, 254, 255, 256, 257, 258, 259, 260, 261, 262, 263, 264, 265, 266, 267, 268, 269, 270, 271, 272, 273, 274, 275, 276, 277, 278, 279, 280, 281, 282, 283, 284, 285, 286, 287, 288, 289, 290, 291, 292, 293, 294, 295, 296, 297, 298, 299, 300, 301, 302, 303, 304, 305, 306, 307, 308, 309, 310, 311, 312, 313, 314, 315, 316, 317, 318, 319, 320, 321, 322, 323, 324, 325, 326, 327, 328, 329, 330, 331, 332, 333, 334, 335, 336, 337, 338, 339, 340, 341, 342, 343, 344, 345, 346, 347, 348, 349, 350],
      "LargestImagePixelValue": [60536, 59479, 58432, 58104, 57042, 57649, 57263, 57670, 57623, 57372, 57187, 57753, 57970, 57824, 58071, 57687, 58069, 57595, 57786, 57814, 58254, 57678, 57599, 58071, 57612, 57454, 57884, 57704, 58069, 57755, 58482, 57845, 57735, 57804, 57220, 57906, 57739, 58367, 58191, 57820, 57701, 57384, 57678, 57554, 57301, 57678, 57383, 57388, 57950, 57600, 58184, 57580, 57325, 58174, 57714, 57885, 57491, 58160, 57477, 57859, 57537, 57859, 57998, 57708, 57615, 57786, 57910, 57560, 57491, 58082, 58046, 57969, 57830, 57717, 57907, 57482, 58208, 57783, 58404, 58025, 57727, 57683, 57887, 57752, 57865, 58207, 58294, 58140, 58030, 58164, 58073, 58279, 58660, 58142, 58501, 58526, 58131, 57958, 57934, 57084, 57619, 57186, 57508, 57496, 57927, 57504, 57260, 57202, 57210, 57442, 57720, 58027, 57351, 57578, 57321, 57512, 57962, 57421, 57812, 57932, 57637, 57709, 57319, 57962, 57376, 57539, 57303, 57701, 57365, 57527, 57174, 57138, 57150, 56955, 57069, 57324, 56681, 57081, 57072, 57213, 58523, 56806, 57525, 57512, 57023, 57226, 57311, 57285, 56603, 56950, 56979, 56923, 56997, 56312, 56938, 56673, 56904, 56847, 57013, 57049, 57625, 57370, 56953, 57048, 57082, 56909, 57088, 57053, 56434, 57213, 57433, 57102, 56454, 57430, 57211, 57447, 57963, 57954, 57346, 57595, 57247, 57695, 57438, 57199, 57060, 57518, 57286, 57287, 56890, 57110, 56761, 57255, 56854, 57163, 56466, 56848, 56771, 56814, 56796, 57229, 57023, 57243, 57339, 57894, 57529, 57245, 57681, 57255, 57074, 56310, 56972, 56540, 56387, 56674, 57119, 56789, 57264, 57283, 56982, 56638, 56767, 57672, 57138, 56582, 57155, 56615, 56501, 56532, 56485, 56429, 56146, 56543, 56239, 56852, 55799, 56563, 56509, 56484, 56772, 56840, 55983, 55965, 56145, 55658, 56237, 56187, 56694, 56016, 56654, 56555, 57208, 56696, 56673, 57035, 56447, 56564, 56593, 56859, 56293, 56515, 56859, 57403, 56672, 56518, 56786, 56744, 56567, 56769, 56752, 57046, 57278, 56842, 56471, 56510, 56420, 56747, 55818, 56933, 56721, 56723, 56448, 56675, 56698, 56765, 56530, 57383, 56667, 56675, 56823, 56821, 56968, 57066, 56771, 56926, 56890, 56403, 56241, 56278, 56684, 56413, 56199, 56413, 56723, 56657, 57031, 56382, 56357, 56381, 56638, 56763, 56700, 56934, 56939, 56940, 56966, 57138, 56690, 57240, 57326, 56724, 56653, 56700, 57379, 56688, 56906, 56968, 56655, 56579, 56823, 56812, 57058, 57587, 57186, 57282, 57159, 57288, 56998, 56923, 57295, 56799, 56822, 57545, 57612, 56787, 56885, 57125, 57316, 57049, 57327, 57077],
