{
  "AcquisitionMatrixPE": 104,
  "AcquisitionNumber": 1,
  "AcquisitionTime": "18:44:29.337500",
  "BandwidthPerPixelPhaseEncode": 17.17,
  "BaseResolution": 104,
  "BodyPartExamined": "BRAIN",
  "CoilCombinationMethod": "Sum of Squares",
  "ConsistencyInfo": "N4_VE11C_LATEST_20160120",
  "ConversionSoftware": "dcm2niix",
  "ConversionSoftwareVersion": "v1.0.20220505",
  "DerivedVendorReportedEchoSpacing": 0.000560011,
  "DeviceSerialNumber": "167006",
  "DwellTime": 2.1e-06,
  "EchoTime": 0.037,
  "EchoTime1": 0.037,
  "EchoTime2": 0.001,
  "EchoTrainLength": 104,
  "EffectiveEchoSpacing": 0.000560011,
  "FlipAngle": 52,
  "HeudiconvVersion": "0.5.3.post811+g6206e14",
  "ImageComments": "Unaliased MB4/PE3/LB",
  "ImageOrientationPatientDICOM": [0.999761, -0.020642, 0.00715794, 0.0218149, 0.925164, -0.37894],
  "ImageOrientationText": "Tra>Cor(-22.3)>Sag(-0.1)",
  "ImageType": [
    "ORIGINAL",
    "PRIMARY",
    "P",
    "MB",
    "ND",
    "MOSAIC",
    "PHASE"
],
  "ImagingFrequency": 123.259,
  "InPlanePhaseEncodingDirectionDICOM": "COL",
  "InstitutionAddress": "Chemin Queen-Mary 4565,Montreal,District,CA,H3W 1W5",
  "InstitutionName": "IUGM",
  "InstitutionalDepartmentName": "Department",
  "MRAcquisitionType": "2D",
  "MagneticFieldStrength": 3,
  "Manufacturer": "Siemens",
  "ManufacturersModelName": "Prisma_fit",
  "MatrixCoilMode": "SENSE",
  "Modality": "MR",
  "MultibandAccelerationFactor": 4,
  "PartialFourier": 1,
  "PatientPosition": "HFS",
  "PercentPhaseFOV": 100,
  "PercentSampling": 100,
  "PhaseEncodingDirection": "j",
  "PhaseEncodingSteps": 104,
  "PhaseResolution": 1,
  "PixelBandwidth": 2290,
  "ProcedureStepDescription": "games^mario3",
  "ProtocolName": "func_task-mario3_run-01",
  "PulseSequenceDetails": "%CustomerSeq%\\cmrr_mbep2d_bold",
  "ReceiveCoilActiveElements": "HC1-7;NC1,2",
  "ReceiveCoilName": "HeadNeck_64",
  "ReconMatrixPE": 104,
  "RepetitionTime": 1.49,
  "SAR": 0.0752436,
  "ScanOptions": "FS",
  "ScanningSequence": "EP",
  "SequenceName": "epfid2d1_104",
  "SequenceVariant": "SK\\SS",
  "SeriesDescription": "func_task-mario3_run-01",
  "SeriesNumber": 11,
  "ShimSetting": [590, -7284, -8820, 368, 38, -385, -52, 86],
  "SliceThickness": 2,
  "SliceTiming": [0, 0.7825, 0.0975, 0.8825, 0.195, 0.98, 0.2925, 1.0775, 0.3925, 1.175, 0.49, 1.2725, 0.5875, 1.3725, 0.685, 0, 0.7825, 0.0975, 0.8825, 0.195, 0.98, 0.2925, 1.0775, 0.3925, 1.175, 0.49, 1.2725, 0.5875, 1.3725, 0.685, 0, 0.7825, 0.0975, 0.8825, 0.195, 0.98, 0.2925, 1.0775, 0.3925, 1.175, 0.49, 1.2725, 0.5875, 1.3725, 0.685, 0, 0.7825, 0.0975, 0.8825, 0.195, 0.98, 0.2925, 1.0775, 0.3925, 1.175, 0.49, 1.2725, 0.5875, 1.3725, 0.685],
  "SoftwareVersions": "syngo MR E11",
  "SpacingBetweenSlices": 2,
  "StationName": "MRC35049",
  "TaskName": "mario3",
  "TotalReadoutTime": 0.0576811,
  "TxRefAmp": 303.404,
  "WipMemBlock": "9278f65c-1e79-47ea-9e72-81a124242c81||Sequence: R017 ve11c/master r/75a17815+; Jun 28 2022 16:32:11 by eja",
  "dcmmeta_affine": [
    [-1.9995225667953491, 0.04362984001636505, -0.0023996697273105383, 102.88732147216797],
    [0.04128409922122955, 1.850327968597412, -0.7580119371414185, -69.15214538574219],
    [0.014315882697701454, 0.7578805685043335, 1.8507869243621826, -64.99454498291016],
    [0.0, 0.0, 0.0, 1.0]
],
  "dcmmeta_reorient_transform": [
    [0.0, -1.0, 0.0, 103.0],
    [1.0, 0.0, 0.0, 0.0],
    [0.0, 0.0, 1.0, 0.0],
    [0.0, 0.0, 0.0, 1.0]
],
  "dcmmeta_shape": [104, 104, 60, 402],
  "dcmmeta_slice_dim": 2,
  "dcmmeta_version": 0.6,
  "global": {
    "const": {
      "AcquisitionMatrix": [104, 0, 0, 104],
      "AngioFlag": "N",
      "BitsAllocated": 16,
      "BitsStored": 16,
      "BodyPartExamined": "BRAIN",
      "Columns": 832,
      "EchoNumbers": 1,
      "EchoTime": 37.0,
      "EchoTrainLength": 104,
      "FlipAngle": 52.0,
      "HighBit": 15,
      "ImageOrientationPatient": [0.99976130632727, -0.0206420504797, 0.00715794123863, 0.02181492074307, 0.92516397388507, -0.3789402732069],
      "ImagePositionPatient": [-851.08868934656, -779.92359128644, 283.72468700183],
      "ImageType": [
        "ORIGINAL",
        "PRIMARY",
        "P",
        "MB",
        "ND",
        "MOSAIC"
],
      "ImagedNucleus": "1H",
      "ImagingFrequency": 123.259138,
      "InPlanePhaseEncodingDirection": "COL",
      "LargestImagePixelValue": 4095,
      "MRAcquisitionType": "2D",
      "MagneticFieldStrength": 3.0,
      "Manufacturer": "SIEMENS",
      "ManufacturerModelName": "Prisma_fit",
      "Modality": "MR",
      "NumberOfAverages": 1.0,
      "NumberOfPhaseEncodingSteps": 104,
      "PercentPhaseFieldOfView": 100.0,
      "PercentSampling": 100.0,
      "PerformedProcedureStepStartTime": "183936.743000",
      "PhotometricInterpretation": "MONOCHROME2",
      "PixelBandwidth": 2290.0,
      "PixelRepresentation": 0,
      "PixelSpacing": [2.0, 2.0],
      "ProtocolName": "func_task-mario3_run-01",
      "RepetitionTime": 1490.0,
      "RescaleIntercept": -4096.0,
      "RescaleSlope": 2.0,
      "RescaleType": "US",
      "Rows": 832,
      "SAR": 0.07524364066146,
      "SamplesPerPixel": 1,
      "ScanOptions": "FS",
      "ScanningSequence": "EP",
      "SequenceName": "epfid2d1_104",
      "SequenceVariant": [
        "SK",
        "SS"
],
      "SeriesDescription": "func_task-mario3_run-01",
      "SeriesNumber": 11,
      "SeriesTime": "184545.584000",
      "SliceLocation": -34.059898750124,
      "SliceThickness": 2.0,
      "SmallestImagePixelValue": 0,
      "SoftwareVersions": "syngo MR E11",
      "SpacingBetweenSlices": 1.9999999754424,
      "SpecificCharacterSet": "ISO_IR 100",
      "StudyID": "1",
      "StudyTime": "183936.663000",
      "TransmitCoilName": "Body",
      "VariableFlipAngleFlag": "N",
      "WindowCenterWidthExplanation": "Algo1",
      "dBdt": 0.0},
    "slices": {}
  },
  "time": {
    "samples": {
      "AcquisitionNumber": [1, 2, 3, 4, 5, 6, 7, 8, 9, 10, 11, 12, 13, 14, 15, 16, 17, 18, 19, 20, 21, 22, 23, 24, 25, 26, 27, 28, 29, 30, 31, 32, 33, 34, 35, 36, 37, 38, 39, 40, 41, 42, 43, 44, 45, 46, 47, 48, 49, 50, 51, 52, 53, 54, 55, 56, 57, 58, 59, 60, 61, 62, 63, 64, 65, 66, 67, 68, 69, 70, 71, 72, 73, 74, 75, 76, 77, 78, 79, 80, 81, 82, 83, 84, 85, 86, 87, 88, 89, 90, 91, 92, 93, 94, 95, 96, 97, 98, 99, 100, 101, 102, 103, 104, 105, 106, 107, 108, 109, 110, 111, 112, 113, 114, 115, 116, 117, 118, 119, 120, 121, 122, 123, 124, 125, 126, 127, 128, 129, 130, 131, 132, 133, 134, 135, 136, 137, 138, 139, 140, 141, 142, 143, 144, 145, 146, 147, 148, 149, 150, 151, 152, 153, 154, 155, 156, 157, 158, 159, 160, 161, 162, 163, 164, 165, 166, 167, 168, 169, 170, 171, 172, 173, 174, 175, 176, 177, 178, 179, 180, 181, 182, 183, 184, 185, 186, 187, 188, 189, 190, 191, 192, 193, 194, 195, 196, 197, 198, 199, 200, 201, 202, 203, 204, 205, 206, 207, 208, 209, 210, 211, 212, 213, 214, 215, 216, 217, 218, 219, 220, 221, 222, 223, 224, 225, 226, 227, 228, 229, 230, 231, 232, 233, 234, 235, 236, 237, 238, 239, 240, 241, 242, 243, 244, 245, 246, 247, 248, 249, 250, 251, 252, 253, 254, 255, 256, 257, 258, 259, 260, 261, 262, 263, 264, 265, 266, 267, 268, 269, 270, 271, 272, 273, 274, 275, 276, 277, 278, 279, 280, 281, 282, 283, 284, 285, 286, 287, 288, 289, 290, 291, 292, 293, 294, 295, 296, 297, 298, 299, 300, 301, 302, 303, 304, 305, 306, 307, 308, 309, 310, 311, 312, 313, 314, 315, 316, 317, 318, 319, 320, 321, 322, 323, 324, 325, 326, 327, 328, 329, 330, 331, 332, 333, 334, 335, 336, 337, 338, 339, 340, 341, 342, 343, 344, 345, 346, 347, 348, 349, 350, 351, 352, 353, 354, 355, 356, 357, 358, 359, 360, 361, 362, 363, 364, 365, 366, 367, 368, 369, 370, 371, 372, 373, 374, 375, 376, 377, 378, 379, 380, 381, 382, 383, 384, 385, 386, 387, 388, 389, 390, 391, 392, 393, 394, 395, 396, 397, 398, 399, 400, 401, 402],
      "AcquisitionTime": ["184429.337500", "184430.827500", "184432.317500", "184433.807500", "184435.297500", "184436.787500", "184438.277500", "184439.767500", "184441.257500", "184442.747500", "184444.237500", "184445.727500", "184447.217500", "184448.707500", "184450.197500", "184451.687500", "184453.177500", "184454.667500", "184456.157500", "184457.647500", "184459.137500", "184500.627500", "184502.117500", "184503.607500", "184505.097500", "184506.587500", "184508.077500", "184509.567500", "184511.057500", "184512.547500", "184514.037500", "184515.527500", "184517.017500", "184518.507500", "184519.997500", "184521.487500", "184522.977500", "184524.467500", "184525.957500", "184527.447500", "184528.937500", "184530.427500", "184531.917500", "184533.407500", "184534.897500", "184536.387500", "184537.877500", "184539.367500", "184540.857500", "184542.347500", "184543.837500", "184545.327500", "184546.817500", "184548.307500", "184549.797500", "184551.287500", "184552.777500", "184554.267500", "184555.757500", "184557.247500", "184558.737500", "184600.227500", "184601.717500", "184603.207500", "184604.697500", "184606.187500", "184607.677500", "184609.167500", "184610.657500", "184612.147500", "184613.637500", "184615.127500", "184616.617500", "184618.107500", "184619.597500", "184621.087500", "184622.577500", "184624.067500", "184625.557500", "184627.047500", "184628.537500", "184630.027500", "184631.517500", "184633.007500", "184634.497500", "184635.987500", "184637.477500", "184638.967500", "184640.457500", "184641.947500", "184643.437500", "184644.927500", "184646.417500", "184647.907500", "184649.397500", "184650.887500", "184652.377500", "184653.867500", "184655.357500", "184656.847500", "184658.337500", "184659.827500", "184701.317500", "184702.807500", "184704.297500", "184705.787500", "184707.277500", "184708.767500", "184710.257500", "184711.747500", "184713.237500", "184714.727500", "184716.217500", "184717.707500", "184719.197500", "184720.687500", "184722.177500", "184723.667500", "184725.157500", "184726.647500", "184728.137500", "184729.627500", "184731.117500", "184732.607500", "184734.097500", "184735.587500", "184737.077500", "184738.567500", "184740.057500", "184741.547500", "184743.037500", "184744.527500", "184746.017500", "184747.507500", "184748.997500", "184750.487500", "184751.977500", "184753.467500", "184754.957500", "184756.447500", "184757.937500", "184759.427500", "184800.917500", "184802.407500", "184803.897500", "184805.387500", "184806.877500", "184808.367500", "184809.857500", "184811.347500", "184812.837500", "184814.327500", "184815.817500", "184817.307500", "184818.797500", "184820.287500", "184821.777500", "184823.267500", "184824.757500", "184826.247500", "184827.737500", "184829.227500", "184830.717500", "184832.207500", "184833.697500", "184835.187500", "184836.677500", "184838.167500", "184839.657500", "184841.147500", "184842.637500", "184844.127500", "184845.617500", "184847.107500", "184848.597500", "184850.087500", "184851.577500", "184853.067500", "184854.557500", "184856.047500", "184857.537500", "184859.027500", "184900.517500", "184902.007500", "184903.497500", "184904.987500", "184906.477500", "184907.967500", "184909.457500", "184910.947500", "184912.437500", "184913.927500", "184915.417500", "184916.907500", "184918.397500", "184919.887500", "184921.377500", "184922.867500", "184924.357500", "184925.847500", "184927.337500", "184928.827500", "184930.317500", "184931.807500", "184933.297500", "184934.787500", "184936.277500", "184937.767500", "184939.257500", "184940.747500", "184942.237500", "184943.727500", "184945.217500", "184946.707500", "184948.197500", "184949.687500", "184951.177500", "184952.667500", "184954.157500", "184955.647500", "184957.137500", "184958.627500", "185000.117500", "185001.607500", "185003.097500", "185004.587500", "185006.077500", "185007.567500", "185009.057500", "185010.547500", "185012.037500", "185013.527500", "185015.017500", "185016.507500", "185017.997500", "185019.487500", "185020.977500", "185022.467500", "185023.957500", "185025.447500", "185026.937500", "185028.427500", "185029.917500", "185031.407500", "185032.897500", "185034.387500", "185035.877500", "185037.367500", "185038.857500", "185040.347500", "185041.837500", "185043.327500", "185044.817500", "185046.307500", "185047.797500", "185049.287500", "185050.777500", "185052.267500", "185053.757500", "185055.247500", "185056.737500", "185058.227500", "185059.717500", "185101.207500", "185102.697500", "185104.187500", "185105.677500", "185107.167500", "185108.657500", "185110.147500", "185111.637500", "185113.127500", "185114.617500", "185116.107500", "185117.597500", "185119.087500", "185120.577500", "185122.067500", "185123.557500", "185125.047500", "185126.537500", "185128.027500", "185129.517500", "185131.007500", "185132.497500", "185133.987500", "185135.477500", "185136.967500", "185138.457500", "185139.947500", "185141.437500", "185142.927500", "185144.417500", "185145.907500", "185147.397500", "185148.887500", "185150.377500", "185151.867500", "185153.357500", "185154.847500", "185156.337500", "185157.827500", "185159.317500", "185200.807500", "185202.297500", "185203.787500", "185205.277500", "185206.767500", "185208.257500", "185209.747500", "185211.237500", "185212.727500", "185214.217500", "185215.707500", "185217.197500", "185218.687500", "185220.177500", "185221.667500", "185223.157500", "185224.647500", "185226.137500", "185227.627500", "185229.117500", "185230.607500", "185232.097500", "185233.587500", "185235.077500", "185236.567500", "185238.057500", "185239.547500", "185241.037500", "185242.527500", "185244.017500", "185245.507500", "185246.997500", "185248.487500", "185249.977500", "185251.467500", "185252.957500", "185254.447500", "185255.937500", "185257.427500", "185258.917500", "185300.407500", "185301.897500", "185303.387500", "185304.877500", "185306.367500", "185307.857500", "185309.347500", "185310.837500", "185312.327500", "185313.817500", "185315.307500", "185316.797500", "185318.287500", "185319.777500", "185321.267500", "185322.757500", "185324.247500", "185325.737500", "185327.227500", "185328.717500", "185330.207500", "185331.697500", "185333.187500", "185334.677500", "185336.167500", "185337.657500", "185339.147500", "185340.637500", "185342.127500", "185343.617500", "185345.107500", "185346.597500", "185348.087500", "185349.577500", "185351.067500", "185352.557500", "185354.047500", "185355.537500", "185357.027500", "185358.517500", "185400.007500", "185401.497500", "185402.987500", "185404.477500", "185405.967500", "185407.457500", "185408.947500", "185410.437500", "185411.927500", "185413.417500", "185414.907500", "185416.397500", "185417.887500", "185419.377500", "185420.867500", "185422.357500", "185423.847500", "185425.337500", "185426.827500"],
      "ContentTime": ["184545.586000", "184545.589000", "184545.591000", "184545.594000", "184545.596000", "184545.599000", "184545.601000", "184545.604000", "184545.606000", "184545.609000", "184545.611000", "184545.614000", "184545.616000", "184545.619000", "184545.621000", "184545.624000", "184545.626000", "184545.629000", "184545.631000", "184545.634000", "184545.636000", "184545.639000", "184545.641000", "184545.644000", "184545.647000", "184545.649000", "184545.652000", "184605.525000", "184605.528000", "184605.531000", "184605.533000", "184605.536000", "184605.548000", "184605.551000", "184605.553000", "184605.556000", "184605.558000", "184605.561000", "184605.563000", "184605.566000", "184605.568000", "184605.571000", "184605.574000", "184605.576000", "184605.578000", "184605.581000", "184605.584000", "184605.586000", "184625.519000", "184625.521000", "184625.524000", "184625.527000", "184625.529000", "184625.532000", "184625.534000", "184625.537000", "184625.539000", "184625.542000", "184625.544000", "184625.547000", "184625.549000", "184625.552000", "184625.554000", "184625.557000", "184625.559000", "184625.562000", "184625.564000", "184625.567000", "184645.506000", "184645.509000", "184645.512000", "184645.514000", "184645.517000", "184645.519000", "184645.522000", "184645.524000", "184645.527000", "184645.529000", "184645.532000", "184645.534000", "184645.537000", "184645.539000", "184645.542000", "184645.544000", "184645.547000", "184645.549000", "184645.552000", "184645.555000", "184726.090000", "184726.093000", "184726.096000", "184726.098000", "184726.100000", "184726.103000", "184726.106000", "184726.108000", "184726.111000", "184726.113000", "184726.116000", "184726.118000", "184726.121000", "184726.123000", "184726.126000", "184726.128000", "184726.131000", "184726.134000", "184726.136000", "184726.139000", "184726.141000", "184726.144000", "184726.146000", "184726.149000", "184726.151000", "184726.154000", "184726.156000", "184726.159000", "184726.161000", "184805.551000", "184805.554000", "184805.557000", "184805.559000", "184805.562000", "184805.564000", "184805.567000", "184805.569000", "184805.572000", "184805.575000", "184805.577000", "184805.587000", "184805.589000", "184805.592000", "184805.594000", "184805.597000", "184805.599000", "184805.602000", "184805.604000", "184805.607000", "184805.609000", "184805.612000", "184805.615000", "184805.617000", "184805.620000", "184805.623000", "184805.625000", "184845.553000", "184845.556000", "184845.558000", "184845.561000", "184845.563000", "184845.566000", "184845.568000", "184845.571000", "184845.574000", "184845.576000", "184845.579000", "184845.581000", "184845.584000", "184845.586000", "184845.589000", "184845.591000", "184845.594000", "184845.596000", "184845.599000", "184845.602000", "184845.604000", "184845.607000", "184845.609000", "184845.612000", "184845.614000", "184845.617000", "184845.619000", "184925.549000", "184925.552000", "184925.554000", "184925.557000", "184925.559000", "184925.562000", "184925.565000", "184925.567000", "184925.570000", "184925.572000", "184925.575000", "184925.577000", "184925.580000", "184925.582000", "184925.585000", "184925.587000", "184925.590000", "184925.592000", "184925.595000", "184925.597000", "184925.600000", "184925.602000", "184925.605000", "184925.607000", "184925.610000", "184925.612000", "184925.615000", "185005.534000", "185005.537000", "185005.539000", "185005.542000", "185005.544000", "185005.547000", "185005.549000", "185005.552000", "185005.554000", "185005.557000", "185005.559000", "185005.562000", "185005.564000", "185005.567000", "185005.570000", "185005.572000", "185005.575000", "185005.577000", "185005.580000", "185005.582000", "185005.585000", "185005.587000", "185005.590000", "185005.593000", "185005.595000", "185005.598000", "185005.600000", "185045.548000", "185045.551000", "185045.554000", "185045.556000", "185045.559000", "185045.561000", "185045.564000", "185045.566000", "185045.569000", "185045.572000", "185045.574000", "185045.577000", "185045.579000", "185045.582000", "185045.584000", "185045.587000", "185045.589000", "185045.592000", "185045.594000", "185045.597000", "185045.599000", "185045.602000", "185045.604000", "185045.607000", "185045.609000", "185045.612000", "185045.615000", "185125.556000", "185125.559000", "185125.561000", "185125.564000", "185125.567000", "185125.569000", "185125.572000", "185125.575000", "185125.577000", "185125.579000", "185125.582000", "185125.585000", "185125.587000", "185125.590000", "185125.592000", "185125.595000", "185125.597000", "185125.600000", "185125.602000", "185125.605000", "185125.607000", "185125.610000", "185125.612000", "185125.615000", "185125.618000", "185125.620000", "185125.623000", "185205.547000", "185205.550000", "185205.552000", "185205.555000", "185205.557000", "185205.560000", "185205.563000", "185205.565000", "185205.568000", "185205.570000", "185205.573000", "185205.575000", "185205.578000", "185205.580000", "185205.583000", "185205.586000", "185205.588000", "185205.591000", "185205.593000", "185205.596000", "185205.598000", "185205.601000", "185205.603000", "185205.606000", "185205.608000", "185205.611000", "185245.544000", "185245.547000", "185245.550000", "185245.552000", "185245.555000", "185245.557000", "185245.560000", "185245.562000", "185245.565000", "185245.567000", "185245.570000", "185245.573000", "185245.575000", "185245.578000", "185245.580000", "185245.583000", "185245.585000", "185245.588000", "185245.604000", "185245.607000", "185245.609000", "185245.612000", "185245.615000", "185245.617000", "185245.620000", "185245.622000", "185245.625000", "185325.538000", "185325.541000", "185325.544000", "185325.552000", "185325.554000", "185325.557000", "185325.559000", "185325.562000", "185325.565000", "185325.567000", "185325.570000", "185325.572000", "185325.575000", "185325.577000", "185325.580000", "185325.583000", "185325.585000", "185325.588000", "185325.590000", "185325.593000", "185325.595000", "185325.598000", "185325.600000", "185325.603000", "185325.605000", "185325.608000", "185325.610000", "185405.538000", "185405.541000", "185405.543000", "185405.546000", "185405.548000", "185405.551000", "185405.554000", "185405.556000", "185405.559000", "185405.561000", "185405.564000", "185405.566000", "185405.569000", "185405.572000", "185405.574000", "185405.577000", "185405.579000", "185405.582000", "185405.584000", "185405.587000", "185405.589000", "185405.592000", "185405.595000", "185405.597000", "185405.599000", "185405.602000", "185405.605000", "185428.770000", "185428.773000", "185428.776000", "185428.778000", "185428.781000", "185428.783000", "185428.786000", "185428.789000", "185428.791000", "185428.794000", "185428.796000", "185428.799000", "185428.801000", "185428.804000", "185428.807000", "185428.809000"],
      "InstanceCreationTime": ["184545.586000", "184545.589000", "184545.591000", "184545.594000", "184545.596000", "184545.599000", "184545.601000", "184545.604000", "184545.606000", "184545.609000", "184545.611000", "184545.614000", "184545.616000", "184545.619000", "184545.621000", "184545.624000", "184545.626000", "184545.629000", "184545.631000", "184545.634000", "184545.636000", "184545.639000", "184545.641000", "184545.644000", "184545.647000", "184545.649000", "184545.652000", "184605.525000", "184605.528000", "184605.531000", "184605.533000", "184605.536000", "184605.548000", "184605.551000", "184605.553000", "184605.556000", "184605.558000", "184605.561000", "184605.563000", "184605.566000", "184605.568000", "184605.571000", "184605.574000", "184605.576000", "184605.578000", "184605.581000", "184605.584000", "184605.586000", "184625.519000", "184625.521000", "184625.524000", "184625.527000", "184625.529000", "184625.532000", "184625.534000", "184625.537000", "184625.539000", "184625.542000", "184625.544000", "184625.547000", "184625.549000", "184625.552000", "184625.554000", "184625.557000", "184625.559000", "184625.562000", "184625.564000", "184625.567000", "184645.506000", "184645.509000", "184645.512000", "184645.514000", "184645.517000", "184645.519000", "184645.522000", "184645.524000", "184645.527000", "184645.529000", "184645.532000", "184645.534000", "184645.537000", "184645.539000", "184645.542000", "184645.544000", "184645.547000", "184645.549000", "184645.552000", "184645.555000", "184726.090000", "184726.093000", "184726.096000", "184726.098000", "184726.100000", "184726.103000", "184726.106000", "184726.108000", "184726.111000", "184726.113000", "184726.116000", "184726.118000", "184726.121000", "184726.123000", "184726.126000", "184726.128000", "184726.131000", "184726.134000", "184726.136000", "184726.139000", "184726.141000", "184726.144000", "184726.146000", "184726.149000", "184726.151000", "184726.154000", "184726.156000", "184726.159000", "184726.161000", "184805.551000", "184805.554000", "184805.557000", "184805.559000", "184805.562000", "184805.564000", "184805.567000", "184805.569000", "184805.572000", "184805.575000", "184805.577000", "184805.587000", "184805.589000", "184805.592000", "184805.594000", "184805.597000", "184805.599000", "184805.602000", "184805.604000", "184805.607000", "184805.609000", "184805.612000", "184805.615000", "184805.617000", "184805.620000", "184805.623000", "184805.625000", "184845.553000", "184845.556000", "184845.558000", "184845.561000", "184845.563000", "184845.566000", "184845.568000", "184845.571000", "184845.574000", "184845.576000", "184845.579000", "184845.581000", "184845.584000", "184845.586000", "184845.589000", "184845.591000", "184845.594000", "184845.596000", "184845.599000", "184845.602000", "184845.604000", "184845.607000", "184845.609000", "184845.612000", "184845.614000", "184845.617000", "184845.619000", "184925.549000", "184925.552000", "184925.554000", "184925.557000", "184925.559000", "184925.562000", "184925.565000", "184925.567000", "184925.570000", "184925.572000", "184925.575000", "184925.577000", "184925.580000", "184925.582000", "184925.585000", "184925.587000", "184925.590000", "184925.592000", "184925.595000", "184925.597000", "184925.600000", "184925.602000", "184925.605000", "184925.607000", "184925.610000", "184925.612000", "184925.615000", "185005.534000", "185005.537000", "185005.539000", "185005.542000", "185005.544000", "185005.547000", "185005.549000", "185005.552000", "185005.554000", "185005.557000", "185005.559000", "185005.562000", "185005.564000", "185005.567000", "185005.570000", "185005.572000", "185005.575000", "185005.577000", "185005.580000", "185005.582000", "185005.585000", "185005.587000", "185005.590000", "185005.593000", "185005.595000", "185005.598000", "185005.600000", "185045.548000", "185045.551000", "185045.554000", "185045.556000", "185045.559000", "185045.561000", "185045.564000", "185045.566000", "185045.569000", "185045.572000", "185045.574000", "185045.577000", "185045.579000", "185045.582000", "185045.584000", "185045.587000", "185045.589000", "185045.592000", "185045.594000", "185045.597000", "185045.599000", "185045.602000", "185045.604000", "185045.607000", "185045.609000", "185045.612000", "185045.615000", "185125.556000", "185125.559000", "185125.561000", "185125.564000", "185125.567000", "185125.569000", "185125.572000", "185125.575000", "185125.577000", "185125.579000", "185125.582000", "185125.585000", "185125.587000", "185125.590000", "185125.592000", "185125.595000", "185125.597000", "185125.600000", "185125.602000", "185125.605000", "185125.607000", "185125.610000", "185125.612000", "185125.615000", "185125.618000", "185125.620000", "185125.623000", "185205.547000", "185205.550000", "185205.552000", "185205.555000", "185205.557000", "185205.560000", "185205.563000", "185205.565000", "185205.568000", "185205.570000", "185205.573000", "185205.575000", "185205.578000", "185205.580000", "185205.583000", "185205.586000", "185205.588000", "185205.591000", "185205.593000", "185205.596000", "185205.598000", "185205.601000", "185205.603000", "185205.606000", "185205.608000", "185205.611000", "185245.544000", "185245.547000", "185245.550000", "185245.552000", "185245.555000", "185245.557000", "185245.560000", "185245.562000", "185245.565000", "185245.567000", "185245.570000", "185245.573000", "185245.575000", "185245.578000", "185245.580000", "185245.583000", "185245.585000", "185245.588000", "185245.604000", "185245.607000", "185245.609000", "185245.612000", "185245.615000", "185245.617000", "185245.620000", "185245.622000", "185245.625000", "185325.538000", "185325.541000", "185325.544000", "185325.552000", "185325.554000", "185325.557000", "185325.559000", "185325.562000", "185325.565000", "185325.567000", "185325.570000", "185325.572000", "185325.575000", "185325.577000", "185325.580000", "185325.583000", "185325.585000", "185325.588000", "185325.590000", "185325.593000", "185325.595000", "185325.598000", "185325.600000", "185325.603000", "185325.605000", "185325.608000", "185325.610000", "185405.538000", "185405.541000", "185405.543000", "185405.546000", "185405.548000", "185405.551000", "185405.554000", "185405.556000", "185405.559000", "185405.561000", "185405.564000", "185405.566000", "185405.569000", "185405.572000", "185405.574000", "185405.577000", "185405.579000", "185405.582000", "185405.584000", "185405.587000", "185405.589000", "185405.592000", "185405.595000", "185405.597000", "185405.599000", "185405.602000", "185405.605000", "185428.770000", "185428.773000", "185428.776000", "185428.778000", "185428.781000", "185428.783000", "185428.786000", "185428.789000", "185428.791000", "185428.794000", "185428.796000", "185428.799000", "185428.801000", "185428.804000", "185428.807000", "185428.809000"],
