{
  "AcquisitionMatrixPE": 104,
  "AcquisitionNumber": 1,
  "AcquisitionTime": "19:07:58.030000",
  "BandwidthPerPixelPhaseEncode": 17.17,
  "BaseResolution": 104,
  "BodyPartExamined": "BRAIN",
  "CoilCombinationMethod": "Sum of Squares",
  "ConsistencyInfo": "N4_VE11C_LATEST_20160120",
  "ConversionSoftware": "dcm2niix",
  "ConversionSoftwareVersion": "v1.0.20220505",
  "DerivedVendorReportedEchoSpacing": 0.000560011,
  "DeviceSerialNumber": "167006",
  "DwellTime": 2.1e-06,
  "EchoTime": 0.037,
  "EchoTrainLength": 104,
  "EffectiveEchoSpacing": 0.000560011,
  "FlipAngle": 52,
  "HeudiconvVersion": "0.5.3.post811+g6206e14",
  "ImageComments": "Unaliased MB4/PE3/LB",
  "ImageOrientationPatientDICOM": [0.999761, -0.020642, 0.00715794, 0.0218149, 0.925164, -0.37894],
  "ImageOrientationText": "Tra>Cor(-22.3)>Sag(-0.1)",
  "ImageType": [
    "ORIGINAL",
    "PRIMARY",
    "M",
    "MB",
    "ND",
    "MOSAIC"
],
  "ImagingFrequency": 123.259,
  "InPlanePhaseEncodingDirectionDICOM": "COL",
  "InstitutionAddress": "Chemin Queen-Mary 4565,Montreal,District,CA,H3W 1W5",
  "InstitutionName": "IUGM",
  "InstitutionalDepartmentName": "Department",
  "MRAcquisitionType": "2D",
  "MagneticFieldStrength": 3,
  "Manufacturer": "Siemens",
  "ManufacturersModelName": "Prisma_fit",
  "MatrixCoilMode": "SENSE",
  "Modality": "MR",
  "MultibandAccelerationFactor": 4,
  "PartialFourier": 1,
  "PatientPosition": "HFS",
  "PercentPhaseFOV": 100,
  "PercentSampling": 100,
  "PhaseEncodingDirection": "j",
  "PhaseEncodingSteps": 104,
  "PhaseResolution": 1,
  "PixelBandwidth": 2290,
  "ProcedureStepDescription": "games^mario3",
  "ProtocolName": "func_task-mario3_run-03",
  "PulseSequenceDetails": "%CustomerSeq%\\cmrr_mbep2d_bold",
  "ReceiveCoilActiveElements": "HC1-7;NC1,2",
  "ReceiveCoilName": "HeadNeck_64",
  "ReconMatrixPE": 104,
  "RepetitionTime": 1.49,
  "SAR": 0.0752436,
  "ScanOptions": "FS",
  "ScanningSequence": "EP",
  "SequenceName": "epfid2d1_104",
  "SequenceVariant": "SK\\SS",
  "SeriesDescription": "func_task-mario3_run-03",
  "SeriesNumber": 16,
  "ShimSetting": [590, -7284, -8820, 368, 38, -385, -52, 86],
  "SliceThickness": 2,
  "SliceTiming": [0, 0.7825, 0.0975, 0.88, 0.195, 0.98, 0.2925, 1.0775, 0.39, 1.175, 0.49, 1.2725, 0.5875, 1.37, 0.685, 0, 0.7825, 0.0975, 0.88, 0.195, 0.98, 0.2925, 1.0775, 0.39, 1.175, 0.49, 1.2725, 0.5875, 1.37, 0.685, 0, 0.7825, 0.0975, 0.88, 0.195, 0.98, 0.2925, 1.0775, 0.39, 1.175, 0.49, 1.2725, 0.5875, 1.37, 0.685, 0, 0.7825, 0.0975, 0.88, 0.195, 0.98, 0.2925, 1.0775, 0.39, 1.175, 0.49, 1.2725, 0.5875, 1.37, 0.685],
  "SoftwareVersions": "syngo MR E11",
  "SpacingBetweenSlices": 2,
  "StationName": "MRC35049",
  "TaskName": "mario3",
  "TotalReadoutTime": 0.0576811,
  "TxRefAmp": 303.404,
  "WipMemBlock": "c3c78fd1-5ea5-406a-84a8-7abdd92ab351||Sequence: R017 ve11c/master r/75a17815+; Jun 28 2022 16:32:11 by eja",
  "dcmmeta_affine": [
    [-1.9995225667953491, 0.04362984001636505, -0.0023996697273105383, 102.88732147216797],
    [0.04128409922122955, 1.850327968597412, -0.7580119371414185, -69.15214538574219],
    [0.014315882697701454, 0.7578805685043335, 1.8507869243621826, -64.99454498291016],
    [0.0, 0.0, 0.0, 1.0]
],
  "dcmmeta_reorient_transform": [
    [0.0, -1.0, 0.0, 103.0],
    [1.0, 0.0, 0.0, 0.0],
    [0.0, 0.0, 1.0, 0.0],
    [0.0, 0.0, 0.0, 1.0]
],
  "dcmmeta_shape": [104, 104, 60, 323],
  "dcmmeta_slice_dim": 2,
  "dcmmeta_version": 0.6,
  "global": {
    "const": {
      "AcquisitionMatrix": [104, 0, 0, 104],
      "AngioFlag": "N",
      "BitsAllocated": 16,
      "BitsStored": 16,
      "BodyPartExamined": "BRAIN",
      "Columns": 832,
      "EchoNumbers": 1,
      "EchoTime": 37.0,
      "EchoTrainLength": 104,
      "FlipAngle": 52.0,
      "HighBit": 15,
      "ImageOrientationPatient": [0.99976130632727, -0.0206420504797, 0.00715794123863, 0.02181492074307, 0.92516397388507, -0.3789402732069],
      "ImagePositionPatient": [-851.08868934656, -779.92359128644, 283.72468700183],
      "ImageType": [
        "ORIGINAL",
        "PRIMARY",
        "M",
        "MB",
        "ND",
        "MOSAIC"
],
      "ImagedNucleus": "1H",
      "ImagingFrequency": 123.259156,
      "InPlanePhaseEncodingDirection": "COL",
      "MRAcquisitionType": "2D",
      "MagneticFieldStrength": 3.0,
      "Manufacturer": "SIEMENS",
      "ManufacturerModelName": "Prisma_fit",
      "Modality": "MR",
      "NumberOfAverages": 1.0,
      "NumberOfPhaseEncodingSteps": 104,
      "PercentPhaseFieldOfView": 100.0,
      "PercentSampling": 100.0,
      "PerformedProcedureStepStartTime": "183936.743000",
      "PhotometricInterpretation": "MONOCHROME2",
      "PixelBandwidth": 2290.0,
      "PixelRepresentation": 0,
      "PixelSpacing": [2.0, 2.0],
      "ProtocolName": "func_task-mario3_run-03",
      "RepetitionTime": 1490.0,
      "Rows": 832,
      "SAR": 0.07524364066146,
      "SamplesPerPixel": 1,
      "ScanOptions": "FS",
      "ScanningSequence": "EP",
      "SequenceName": "epfid2d1_104",
      "SequenceVariant": [
        "SK",
        "SS"
],
      "SeriesDescription": "func_task-mario3_run-03",
      "SeriesNumber": 16,
      "SeriesTime": "190858.210000",
      "SliceLocation": -34.059898750124,
      "SliceThickness": 2.0,
      "SmallestImagePixelValue": 0,
      "SoftwareVersions": "syngo MR E11",
      "SpacingBetweenSlices": 1.9999999754424,
      "SpecificCharacterSet": "ISO_IR 100",
      "StudyID": "1",
      "StudyTime": "183936.663000",
      "TransmitCoilName": "Body",
      "VariableFlipAngleFlag": "N",
      "WindowCenterWidthExplanation": "Algo1",
      "dBdt": 0.0},
    "slices": {}
  },
  "time": {
    "samples": {
      "AcquisitionNumber": [1, 2, 3, 4, 5, 6, 7, 8, 9, 10, 11, 12, 13, 14, 15, 16, 17, 18, 19, 20, 21, 22, 23, 24, 25, 26, 27, 28, 29, 30, 31, 32, 33, 34, 35, 36, 37, 38, 39, 40, 41, 42, 43, 44, 45, 46, 47, 48, 49, 50, 51, 52, 53, 54, 55, 56, 57, 58, 59, 60, 61, 62, 63, 64, 65, 66, 67, 68, 69, 70, 71, 72, 73, 74, 75, 76, 77, 78, 79, 80, 81, 82, 83, 84, 85, 86, 87, 88, 89, 90, 91, 92, 93, 94, 95, 96, 97, 98, 99, 100, 101, 102, 103, 104, 105, 106, 107, 108, 109, 110, 111, 112, 113, 114, 115, 116, 117, 118, 119, 120, 121, 122, 123, 124, 125, 126, 127, 128, 129, 130, 131, 132, 133, 134, 135, 136, 137, 138, 139, 140, 141, 142, 143, 144, 145, 146, 147, 148, 149, 150, 151, 152, 153, 154, 155, 156, 157, 158, 159, 160, 161, 162, 163, 164, 165, 166, 167, 168, 169, 170, 171, 172, 173, 174, 175, 176, 177, 178, 179, 180, 181, 182, 183, 184, 185, 186, 187, 188, 189, 190, 191, 192, 193, 194, 195, 196, 197, 198, 199, 200, 201, 202, 203, 204, 205, 206, 207, 208, 209, 210, 211, 212, 213, 214, 215, 216, 217, 218, 219, 220, 221, 222, 223, 224, 225, 226, 227, 228, 229, 230, 231, 232, 233, 234, 235, 236, 237, 238, 239, 240, 241, 242, 243, 244, 245, 246, 247, 248, 249, 250, 251, 252, 253, 254, 255, 256, 257, 258, 259, 260, 261, 262, 263, 264, 265, 266, 267, 268, 269, 270, 271, 272, 273, 274, 275, 276, 277, 278, 279, 280, 281, 282, 283, 284, 285, 286, 287, 288, 289, 290, 291, 292, 293, 294, 295, 296, 297, 298, 299, 300, 301, 302, 303, 304, 305, 306, 307, 308, 309, 310, 311, 312, 313, 314, 315, 316, 317, 318, 319, 320, 321, 322, 323],
      "AcquisitionTime": ["190758.030000", "190759.520000", "190801.010000", "190802.500000", "190803.990000", "190805.480000", "190806.970000", "190808.460000", "190809.950000", "190811.440000", "190812.930000", "190814.420000", "190815.910000", "190817.400000", "190818.890000", "190820.380000", "190821.870000", "190823.360000", "190824.850000", "190826.340000", "190827.830000", "190829.320000", "190830.810000", "190832.300000", "190833.790000", "190835.280000", "190836.770000", "190838.260000", "190839.750000", "190841.240000", "190842.730000", "190844.220000", "190845.710000", "190847.200000", "190848.690000", "190850.180000", "190851.670000", "190853.160000", "190854.650000", "190856.140000", "190857.630000", "190859.120000", "190900.610000", "190902.100000", "190903.590000", "190905.080000", "190906.570000", "190908.060000", "190909.550000", "190911.040000", "190912.530000", "190914.020000", "190915.510000", "190917.000000", "190918.490000", "190919.980000", "190921.470000", "190922.960000", "190924.450000", "190925.940000", "190927.430000", "190928.920000", "190930.410000", "190931.900000", "190933.390000", "190934.880000", "190936.370000", "190937.860000", "190939.350000", "190940.840000", "190942.330000", "190943.820000", "190945.310000", "190946.800000", "190948.290000", "190949.780000", "190951.270000", "190952.760000", "190954.250000", "190955.740000", "190957.230000", "190958.720000", "191000.210000", "191001.700000", "191003.190000", "191004.680000", "191006.170000", "191007.660000", "191009.150000", "191010.640000", "191012.130000", "191013.620000", "191015.110000", "191016.600000", "191018.090000", "191019.580000", "191021.070000", "191022.560000", "191024.050000", "191025.540000", "191027.030000", "191028.520000", "191030.010000", "191031.500000", "191032.990000", "191034.480000", "191035.970000", "191037.460000", "191038.950000", "191040.440000", "191041.930000", "191043.420000", "191044.910000", "191046.400000", "191047.890000", "191049.380000", "191050.870000", "191052.360000", "191053.850000", "191055.340000", "191056.830000", "191058.320000", "191059.810000", "191101.300000", "191102.790000", "191104.280000", "191105.770000", "191107.260000", "191108.750000", "191110.240000", "191111.730000", "191113.220000", "191114.710000", "191116.200000", "191117.690000", "191119.180000", "191120.670000", "191122.160000", "191123.650000", "191125.140000", "191126.630000", "191128.120000", "191129.610000", "191131.100000", "191132.590000", "191134.080000", "191135.570000", "191137.060000", "191138.550000", "191140.040000", "191141.530000", "191143.020000", "191144.510000", "191146.000000", "191147.490000", "191148.980000", "191150.470000", "191151.960000", "191153.450000", "191154.940000", "191156.430000", "191157.920000", "191159.410000", "191200.900000", "191202.390000", "191203.880000", "191205.370000", "191206.860000", "191208.350000", "191209.840000", "191211.330000", "191212.820000", "191214.310000", "191215.800000", "191217.290000", "191218.780000", "191220.270000", "191221.760000", "191223.250000", "191224.740000", "191226.230000", "191227.720000", "191229.210000", "191230.700000", "191232.190000", "191233.680000", "191235.170000", "191236.660000", "191238.150000", "191239.640000", "191241.130000", "191242.620000", "191244.110000", "191245.600000", "191247.090000", "191248.580000", "191250.070000", "191251.560000", "191253.050000", "191254.540000", "191256.030000", "191257.520000", "191259.010000", "191300.500000", "191301.990000", "191303.480000", "191304.970000", "191306.460000", "191307.950000", "191309.440000", "191310.930000", "191312.420000", "191313.910000", "191315.400000", "191316.890000", "191318.380000", "191319.870000", "191321.360000", "191322.850000", "191324.340000", "191325.830000", "191327.320000", "191328.810000", "191330.300000", "191331.790000", "191333.280000", "191334.770000", "191336.260000", "191337.750000", "191339.240000", "191340.730000", "191342.220000", "191343.710000", "191345.200000", "191346.690000", "191348.180000", "191349.670000", "191351.160000", "191352.650000", "191354.140000", "191355.630000", "191357.120000", "191358.610000", "191400.100000", "191401.590000", "191403.080000", "191404.570000", "191406.060000", "191407.550000", "191409.040000", "191410.530000", "191412.020000", "191413.510000", "191415.000000", "191416.490000", "191417.980000", "191419.470000", "191420.960000", "191422.450000", "191423.940000", "191425.430000", "191426.920000", "191428.410000", "191429.900000", "191431.390000", "191432.880000", "191434.370000", "191435.860000", "191437.350000", "191438.840000", "191440.330000", "191441.820000", "191443.310000", "191444.800000", "191446.290000", "191447.780000", "191449.270000", "191450.760000", "191452.250000", "191453.740000", "191455.230000", "191456.720000", "191458.210000", "191459.700000", "191501.190000", "191502.680000", "191504.170000", "191505.660000", "191507.150000", "191508.640000", "191510.130000", "191511.620000", "191513.110000", "191514.600000", "191516.090000", "191517.580000", "191519.070000", "191520.560000", "191522.050000", "191523.540000", "191525.030000", "191526.520000", "191528.010000", "191529.500000", "191530.990000", "191532.480000", "191533.970000", "191535.460000", "191536.950000", "191538.440000", "191539.930000", "191541.420000", "191542.910000", "191544.400000", "191545.890000", "191547.380000", "191548.870000", "191550.360000", "191551.850000", "191553.340000", "191554.830000", "191556.320000", "191557.810000"],
      "ContentTime": ["190858.213000", "190858.217000", "190858.221000", "190858.224000", "190858.242000", "190858.245000", "190858.248000", "190858.256000", "190858.260000", "190858.263000", "190858.266000", "190918.175000", "190918.179000", "190918.182000", "190918.185000", "190918.189000", "190918.192000", "190918.196000", "190918.199000", "190918.202000", "190918.206000", "190918.209000", "190918.212000", "190918.216000", "190918.219000", "190918.222000", "190918.226000", "190918.229000", "190918.232000", "190918.236000", "190918.239000", "190938.175000", "190938.179000", "190938.182000", "190938.185000", "190938.189000", "190938.192000", "190938.195000", "190938.221000", "190938.224000", "190938.228000", "190938.231000", "190938.234000", "190938.238000", "190938.241000", "190938.244000", "190938.248000", "190938.251000", "190938.254000", "190938.258000", "190938.261000", "190958.175000", "190958.179000", "190958.182000", "190958.185000", "190958.189000", "190958.192000", "190958.196000", "190958.199000", "190958.202000", "190958.206000", "190958.209000", "190958.212000", "190958.216000", "190958.219000", "190958.222000", "190958.226000", "190958.229000", "190958.232000", "190958.236000", "190958.239000", "191018.175000", "191018.179000", "191018.182000", "191018.186000", "191018.189000", "191018.193000", "191018.196000", "191018.199000", "191018.203000", "191018.206000", "191018.209000", "191018.213000", "191018.216000", "191018.220000", "191018.223000", "191018.226000", "191018.230000", "191018.233000", "191018.236000", "191018.240000", "191058.175000", "191058.179000", "191058.182000", "191058.185000", "191058.189000", "191058.192000", "191058.196000", "191058.199000", "191058.203000", "191058.206000", "191058.209000", "191058.213000", "191058.216000", "191058.220000", "191058.223000", "191058.226000", "191058.230000", "191058.233000", "191058.236000", "191058.240000", "191058.243000", "191058.247000", "191058.250000", "191058.253000", "191058.257000", "191058.260000", "191058.263000", "191058.267000", "191058.270000", "191138.175000", "191138.179000", "191138.183000", "191138.186000", "191138.189000", "191138.193000", "191138.196000", "191138.199000", "191138.203000", "191138.206000", "191138.210000", "191138.213000", "191138.216000", "191138.220000", "191138.223000", "191138.226000", "191138.230000", "191138.239000", "191138.243000", "191138.246000", "191138.249000", "191138.253000", "191138.256000", "191138.260000", "191138.263000", "191138.266000", "191138.270000", "191218.175000", "191218.183000", "191218.186000", "191218.190000", "191218.193000", "191218.196000", "191218.200000", "191218.203000", "191218.207000", "191218.210000", "191218.213000", "191218.217000", "191218.220000", "191218.223000", "191218.227000", "191218.230000", "191218.234000", "191218.237000", "191218.240000", "191218.243000", "191218.247000", "191218.250000", "191218.254000", "191218.257000", "191218.260000", "191218.264000", "191218.267000", "191258.175000", "191258.179000", "191258.182000", "191258.186000", "191258.189000", "191258.192000", "191258.196000", "191258.199000", "191258.203000", "191258.206000", "191258.209000", "191258.213000", "191258.216000", "191258.219000", "191258.223000", "191258.226000", "191258.230000", "191258.233000", "191258.236000", "191258.240000", "191258.243000", "191258.246000", "191258.250000", "191258.253000", "191258.257000", "191258.260000", "191258.263000", "191338.175000", "191338.179000", "191338.182000", "191338.186000", "191338.189000", "191338.193000", "191338.196000", "191338.200000", "191338.203000", "191338.206000", "191338.210000", "191338.213000", "191338.216000", "191338.220000", "191338.223000", "191338.227000", "191338.230000", "191338.233000", "191338.237000", "191338.240000", "191338.243000", "191338.247000", "191338.250000", "191338.253000", "191338.257000", "191338.260000", "191338.264000", "191418.175000", "191418.179000", "191418.182000", "191418.186000", "191418.189000", "191418.192000", "191418.196000", "191418.199000", "191418.202000", "191418.206000", "191418.209000", "191418.213000", "191418.216000", "191418.219000", "191418.223000", "191418.226000", "191418.229000", "191418.233000", "191418.236000", "191418.240000", "191418.243000", "191418.246000", "191418.250000", "191418.253000", "191418.256000", "191418.260000", "191418.263000", "191458.175000", "191458.179000", "191458.182000", "191458.186000", "191458.189000", "191458.193000", "191458.196000", "191458.199000", "191458.203000", "191458.206000", "191458.210000", "191458.213000", "191458.216000", "191458.220000", "191458.223000", "191458.226000", "191458.230000", "191458.233000", "191458.237000", "191458.241000", "191458.245000", "191458.248000", "191458.251000", "191458.255000", "191458.258000", "191458.261000", "191538.175000", "191538.179000", "191538.182000", "191538.186000", "191538.189000", "191538.193000", "191538.196000", "191538.199000", "191538.203000", "191538.206000", "191538.210000", "191538.213000", "191538.216000", "191538.220000", "191538.223000", "191538.226000", "191538.230000", "191538.233000", "191538.236000", "191538.240000", "191538.243000", "191538.247000", "191538.250000", "191538.253000", "191538.257000", "191538.260000", "191538.263000", "191600.765000", "191600.769000", "191600.773000", "191600.776000", "191600.779000", "191600.783000", "191600.786000", "191600.789000", "191600.793000", "191600.796000", "191600.800000", "191600.803000", "191600.806000", "191600.810000", "191600.813000"],
      "InstanceCreationTime": ["190858.213000", "190858.217000", "190858.221000", "190858.224000", "190858.242000", "190858.245000", "190858.248000", "190858.256000", "190858.260000", "190858.263000", "190858.266000", "190918.175000", "190918.179000", "190918.182000", "190918.185000", "190918.189000", "190918.192000", "190918.196000", "190918.199000", "190918.202000", "190918.206000", "190918.209000", "190918.212000", "190918.216000", "190918.219000", "190918.222000", "190918.226000", "190918.229000", "190918.232000", "190918.236000", "190918.239000", "190938.175000", "190938.179000", "190938.182000", "190938.185000", "190938.189000", "190938.192000", "190938.195000", "190938.221000", "190938.224000", "190938.228000", "190938.231000", "190938.234000", "190938.238000", "190938.241000", "190938.244000", "190938.248000", "190938.251000", "190938.254000", "190938.258000", "190938.261000", "190958.175000", "190958.179000", "190958.182000", "190958.185000", "190958.189000", "190958.192000", "190958.196000", "190958.199000", "190958.202000", "190958.206000", "190958.209000", "190958.212000", "190958.216000", "190958.219000", "190958.222000", "190958.226000", "190958.229000", "190958.232000", "190958.236000", "190958.239000", "191018.175000", "191018.179000", "191018.182000", "191018.186000", "191018.189000", "191018.193000", "191018.196000", "191018.199000", "191018.203000", "191018.206000", "191018.209000", "191018.213000", "191018.216000", "191018.220000", "191018.223000", "191018.226000", "191018.230000", "191018.233000", "191018.236000", "191018.240000", "191058.175000", "191058.179000", "191058.182000", "191058.185000", "191058.189000", "191058.192000", "191058.196000", "191058.199000", "191058.203000", "191058.206000", "191058.209000", "191058.213000", "191058.216000", "191058.220000", "191058.223000", "191058.226000", "191058.230000", "191058.233000", "191058.236000", "191058.240000", "191058.243000", "191058.247000", "191058.250000", "191058.253000", "191058.257000", "191058.260000", "191058.263000", "191058.267000", "191058.270000", "191138.175000", "191138.179000", "191138.183000", "191138.186000", "191138.189000", "191138.193000", "191138.196000", "191138.199000", "191138.203000", "191138.206000", "191138.210000", "191138.213000", "191138.216000", "191138.220000", "191138.223000", "191138.226000", "191138.230000", "191138.239000", "191138.243000", "191138.246000", "191138.249000", "191138.253000", "191138.256000", "191138.260000", "191138.263000", "191138.266000", "191138.270000", "191218.175000", "191218.183000", "191218.186000", "191218.190000", "191218.193000", "191218.196000", "191218.200000", "191218.203000", "191218.207000", "191218.210000", "191218.213000", "191218.217000", "191218.220000", "191218.223000", "191218.227000", "191218.230000", "191218.234000", "191218.237000", "191218.240000", "191218.243000", "191218.247000", "191218.250000", "191218.254000", "191218.257000", "191218.260000", "191218.264000", "191218.267000", "191258.175000", "191258.179000", "191258.182000", "191258.186000", "191258.189000", "191258.192000", "191258.196000", "191258.199000", "191258.203000", "191258.206000", "191258.209000", "191258.213000", "191258.216000", "191258.219000", "191258.223000", "191258.226000", "191258.230000", "191258.233000", "191258.236000", "191258.240000", "191258.243000", "191258.246000", "191258.250000", "191258.253000", "191258.257000", "191258.260000", "191258.263000", "191338.175000", "191338.179000", "191338.182000", "191338.186000", "191338.189000", "191338.193000", "191338.196000", "191338.200000", "191338.203000", "191338.206000", "191338.210000", "191338.213000", "191338.216000", "191338.220000", "191338.223000", "191338.227000", "191338.230000", "191338.233000", "191338.237000", "191338.240000", "191338.243000", "191338.247000", "191338.250000", "191338.253000", "191338.257000", "191338.260000", "191338.264000", "191418.175000", "191418.179000", "191418.182000", "191418.186000", "191418.189000", "191418.192000", "191418.196000", "191418.199000", "191418.202000", "191418.206000", "191418.209000", "191418.213000", "191418.216000", "191418.219000", "191418.223000", "191418.226000", "191418.229000", "191418.233000", "191418.236000", "191418.240000", "191418.243000", "191418.246000", "191418.250000", "191418.253000", "191418.256000", "191418.260000", "191418.263000", "191458.175000", "191458.179000", "191458.182000", "191458.186000", "191458.189000", "191458.193000", "191458.196000", "191458.199000", "191458.203000", "191458.206000", "191458.210000", "191458.213000", "191458.216000", "191458.220000", "191458.223000", "191458.226000", "191458.230000", "191458.233000", "191458.237000", "191458.241000", "191458.245000", "191458.248000", "191458.251000", "191458.255000", "191458.258000", "191458.261000", "191538.175000", "191538.179000", "191538.182000", "191538.186000", "191538.189000", "191538.193000", "191538.196000", "191538.199000", "191538.203000", "191538.206000", "191538.210000", "191538.213000", "191538.216000", "191538.220000", "191538.223000", "191538.226000", "191538.230000", "191538.233000", "191538.236000", "191538.240000", "191538.243000", "191538.247000", "191538.250000", "191538.253000", "191538.257000", "191538.260000", "191538.263000", "191600.765000", "191600.769000", "191600.773000", "191600.776000", "191600.779000", "191600.783000", "191600.786000", "191600.789000", "191600.793000", "191600.796000", "191600.800000", "191600.803000", "191600.806000", "191600.810000", "191600.813000"],
      "InstanceNumber": [1, 2, 3, 4, 5, 6, 7, 8, 9, 10, 11, 12, 13, 14, 15, 16, 17, 18, 19, 20, 21, 22, 23, 24, 25, 26, 27, 28, 29, 30, 31, 32, 33, 34, 35, 36, 37, 38, 39, 40, 41, 42, 43, 44, 45, 46, 47, 48, 49, 50, 51, 52, 53, 54, 55, 56, 57, 58, 59, 60, 61, 62, 63, 64, 65, 66, 67, 68, 69, 70, 71, 72, 73, 74, 75, 76, 77, 78, 79, 80, 81, 82, 83, 84, 85, 86, 87, 88, 89, 90, 91, 92, 93, 94, 95, 96, 97, 98, 99, 100, 101, 102, 103, 104, 105, 106, 107, 108, 109, 110, 111, 112, 113, 114, 115, 116, 117, 118, 119, 120, 121, 122, 123, 124, 125, 126, 127, 128, 129, 130, 131, 132, 133, 134, 135, 136, 137, 138, 139, 140, 141, 142, 143, 144, 145, 146, 147, 148, 149, 150, 151, 152, 153, 154, 155, 156, 157, 158, 159, 160, 161, 162, 163, 164, 165, 166, 167, 168, 169, 170, 171, 172, 173, 174, 175, 176, 177, 178, 179, 180, 181, 182, 183, 184, 185, 186, 187, 188, 189, 190, 191, 192, 193, 194, 195, 196, 197, 198, 199, 200, 201, 202, 203, 204, 205, 206, 207, 208, 209, 210, 211, 212, 213, 214, 215, 216, 217, 218, 219, 220, 221, 222, 223, 224, 225, 226, 227, 228, 229, 230, 231, 232, 233, 234, 235, 236, 237, 238, 239, 240, 241, 242, 243, 244, 245, 246, 247, 248, 249, 250, 251, 252, 253, 254, 255, 256, 257, 258, 259, 260, 261, 262, 263, 264, 265, 266, 267, 268, 269, 270, 271, 272, 273, 274, 275, 276, 277, 278, 279, 280, 281, 282, 283, 284, 285, 286, 287, 288, 289, 290, 291, 292, 293, 294, 295, 296, 297, 298, 299, 300, 301, 302, 303, 304, 305, 306, 307, 308, 309, 310, 311, 312, 313, 314, 315, 316, 317, 318, 319, 320, 321, 322, 323],
      "LargestImagePixelValue": [57134, 55356, 57497, 54874, 53682, 53466, 53256, 53531, 53826, 53500, 54512, 54183, 54313, 54276, 54496, 54661, 54365, 54665, 54337, 54649, 53671, 54147, 54516, 53566, 54231, 53928, 55086, 54793, 54620, 54598, 54658, 54515, 54836, 54195, 54809, 54807, 54962, 54675, 54917, 54717, 54909, 54447, 54778, 54493, 54915, 54871, 55215, 54756, 55217, 55039, 54919, 55471, 54760, 55222, 54848, 54981, 54958, 55093, 54797, 55531, 55188, 55141, 55180, 55442, 54934, 55948, 55552, 54851, 55810, 55160, 55120, 55427, 55243, 55707, 55398, 54708, 54832, 54597, 55562, 55208, 55777, 55473, 55354, 54762, 54688, 54597, 54628, 55124, 55582, 55566, 55872, 55584, 55469, 55472, 55626, 55197, 55426, 55763, 55982, 55811, 55585, 56210, 55664, 56112, 55583, 55970, 56190, 56026, 56052, 55963, 55613, 56181, 55775, 56324, 55848, 55844, 56130, 55864, 55684, 56205, 56441, 55915, 56073, 62852, 57821, 55753, 56145, 56128, 55515, 55585, 55733, 55878, 56405, 55925, 56306, 56239, 56300, 57172, 56422, 56804, 56587, 55883, 56196, 56164, 56477, 56575, 56611, 56080, 56382, 55456, 56032, 55562, 55608, 55973, 55733, 55285, 55748, 55610, 55966, 55398, 55204, 55571, 55706, 55326, 55847, 55425, 55619, 55674, 55867, 55271, 55764, 55986, 55169, 55864, 49049, 57264, 56126, 55147, 55206, 55845, 55325, 55597, 56332, 55234, 55806, 55645, 55777, 56324, 56095, 56206, 55055, 55695, 55566, 55998, 55960, 55913, 55799, 56147, 56032, 55411, 55495, 55906, 55738, 55675, 56116, 56129, 55472, 55616, 55200, 54483, 55392, 55233, 55350, 55387, 55229, 55011, 54906, 54779, 54629, 54944, 55217, 55811, 54965, 55549, 55969, 55870, 55026, 55300, 55836, 55301, 55496, 55777, 55324, 55179, 54789, 54824, 54928, 55258, 54863, 54579, 54736, 55380, 54690, 55774, 54845, 55489, 55495, 54768, 55107, 54643, 54707, 54548, 55358, 55247, 54591, 55731, 54833, 55274, 54649, 54210, 54707, 54344, 54288, 54690, 54721, 54580, 54452, 54938, 54480, 55018, 54824, 54767, 54793, 54306, 54028, 54558, 54286, 54973, 54819, 54532, 55180, 54630, 55442, 55412, 55000, 55527, 54537, 54990, 54709, 55221, 55133, 54808, 54895, 53978, 54784, 54302, 54793, 54887, 54988, 54846, 54735, 54996, 54238, 54996, 53965, 54745, 53926, 54841, 53996, 54743, 53629, 54622, 54299, 54352, 54087, 54341, 54382, 54208, 53776, 54324, 53704, 54106, 54194],
