{
  "AcquisitionMatrixPE": 104,
  "AcquisitionNumber": 1,
  "AcquisitionTime": "19:34:7.735000",
  "BandwidthPerPixelPhaseEncode": 17.17,
  "BaseResolution": 104,
  "BodyPartExamined": "BRAIN",
  "CoilCombinationMethod": "Sum of Squares",
  "ConsistencyInfo": "N4_VE11C_LATEST_20160120",
  "ConversionSoftware": "dcm2niix",
  "ConversionSoftwareVersion": "v1.0.20220505",
  "DerivedVendorReportedEchoSpacing": 0.000560011,
  "DeviceSerialNumber": "167006",
  "DwellTime": 2.1e-06,
  "EchoTime": 0.037,
  "EchoTime1": 0.037,
  "EchoTime2": 0.001,
  "EchoTrainLength": 104,
  "EffectiveEchoSpacing": 0.000560011,
  "FlipAngle": 52,
  "HeudiconvVersion": "0.5.3.post811+g6206e14",
  "ImageComments": "Unaliased MB4/PE3/LB",
  "ImageOrientationPatientDICOM": [0.999761, -0.020642, 0.00715794, 0.0218149, 0.925164, -0.37894],
  "ImageOrientationText": "Tra>Cor(-22.3)>Sag(-0.1)",
  "ImageType": [
    "ORIGINAL",
    "PRIMARY",
    "P",
    "MB",
    "ND",
    "MOSAIC",
    "PHASE"
],
  "ImagingFrequency": 123.259,
  "InPlanePhaseEncodingDirectionDICOM": "COL",
  "InstitutionAddress": "Chemin Queen-Mary 4565,Montreal,District,CA,H3W 1W5",
  "InstitutionName": "IUGM",
  "InstitutionalDepartmentName": "Department",
  "MRAcquisitionType": "2D",
  "MagneticFieldStrength": 3,
  "Manufacturer": "Siemens",
  "ManufacturersModelName": "Prisma_fit",
  "MatrixCoilMode": "SENSE",
  "Modality": "MR",
  "MultibandAccelerationFactor": 4,
  "PartialFourier": 1,
  "PatientPosition": "HFS",
  "PercentPhaseFOV": 100,
  "PercentSampling": 100,
  "PhaseEncodingDirection": "j",
  "PhaseEncodingSteps": 104,
  "PhaseResolution": 1,
  "PixelBandwidth": 2290,
  "ProcedureStepDescription": "games^mario3",
  "ProtocolName": "func_task-mario3_run-05",
  "PulseSequenceDetails": "%CustomerSeq%\\cmrr_mbep2d_bold",
  "ReceiveCoilActiveElements": "HC1-7;NC1,2",
  "ReceiveCoilName": "HeadNeck_64",
  "ReconMatrixPE": 104,
  "RepetitionTime": 1.49,
  "SAR": 0.0752436,
  "ScanOptions": "FS",
  "ScanningSequence": "EP",
  "SequenceName": "epfid2d1_104",
  "SequenceVariant": "SK\\SS",
  "SeriesDescription": "func_task-mario3_run-05",
  "SeriesNumber": 23,
  "ShimSetting": [590, -7284, -8820, 368, 38, -385, -52, 86],
  "SliceThickness": 2,
  "SliceTiming": [0, 0.785, 0.0975, 0.8825, 0.1975, 0.98, 0.295, 1.0775, 0.3925, 1.175, 0.49, 1.275, 0.5875, 1.3725, 0.6875, 0, 0.785, 0.0975, 0.8825, 0.1975, 0.98, 0.295, 1.0775, 0.3925, 1.175, 0.49, 1.275, 0.5875, 1.3725, 0.6875, 0, 0.785, 0.0975, 0.8825, 0.1975, 0.98, 0.295, 1.0775, 0.3925, 1.175, 0.49, 1.275, 0.5875, 1.3725, 0.6875, 0, 0.785, 0.0975, 0.8825, 0.1975, 0.98, 0.295, 1.0775, 0.3925, 1.175, 0.49, 1.275, 0.5875, 1.3725, 0.6875],
  "SoftwareVersions": "syngo MR E11",
  "SpacingBetweenSlices": 2,
  "StationName": "MRC35049",
  "TaskName": "mario3",
  "TotalReadoutTime": 0.0576811,
  "TxRefAmp": 303.404,
  "WipMemBlock": "f3a7d6b2-bb8f-4546-b44b-c4ba0da77cd2||Sequence: R017 ve11c/master r/75a17815+; Jun 28 2022 16:32:11 by eja",
  "dcmmeta_affine": [
    [-1.9995225667953491, 0.04362984001636505, -0.0023996697273105383, 102.88732147216797],
    [0.04128409922122955, 1.850327968597412, -0.7580119371414185, -69.15214538574219],
    [0.014315882697701454, 0.7578805685043335, 1.8507869243621826, -64.99454498291016],
    [0.0, 0.0, 0.0, 1.0]
],
  "dcmmeta_reorient_transform": [
    [0.0, -1.0, 0.0, 103.0],
    [1.0, 0.0, 0.0, 0.0],
    [0.0, 0.0, 1.0, 0.0],
    [0.0, 0.0, 0.0, 1.0]
],
  "dcmmeta_shape": [104, 104, 60, 390],
  "dcmmeta_slice_dim": 2,
  "dcmmeta_version": 0.6,
  "global": {
    "const": {
      "AcquisitionMatrix": [104, 0, 0, 104],
      "AngioFlag": "N",
      "BitsAllocated": 16,
      "BitsStored": 16,
      "BodyPartExamined": "BRAIN",
      "Columns": 832,
      "EchoNumbers": 1,
      "EchoTime": 37.0,
      "EchoTrainLength": 104,
      "FlipAngle": 52.0,
      "HighBit": 15,
      "ImageOrientationPatient": [0.99976130632727, -0.0206420504797, 0.00715794123863, 0.02181492074307, 0.92516397388507, -0.3789402732069],
      "ImagePositionPatient": [-851.08868934656, -779.92359128644, 283.72468700183],
      "ImageType": [
        "ORIGINAL",
        "PRIMARY",
        "P",
        "MB",
        "ND",
        "MOSAIC"
],
      "ImagedNucleus": "1H",
      "ImagingFrequency": 123.259159,
      "InPlanePhaseEncodingDirection": "COL",
      "LargestImagePixelValue": 4095,
      "MRAcquisitionType": "2D",
      "MagneticFieldStrength": 3.0,
      "Manufacturer": "SIEMENS",
      "ManufacturerModelName": "Prisma_fit",
      "Modality": "MR",
      "NumberOfAverages": 1.0,
      "NumberOfPhaseEncodingSteps": 104,
      "PercentPhaseFieldOfView": 100.0,
      "PercentSampling": 100.0,
      "PerformedProcedureStepStartTime": "183936.743000",
      "PhotometricInterpretation": "MONOCHROME2",
      "PixelBandwidth": 2290.0,
      "PixelRepresentation": 0,
      "PixelSpacing": [2.0, 2.0],
      "ProtocolName": "func_task-mario3_run-05",
      "RepetitionTime": 1490.0,
      "RescaleIntercept": -4096.0,
      "RescaleSlope": 2.0,
      "RescaleType": "US",
      "Rows": 832,
      "SAR": 0.07524364066146,
      "SamplesPerPixel": 1,
      "ScanOptions": "FS",
      "ScanningSequence": "EP",
      "SequenceName": "epfid2d1_104",
      "SequenceVariant": [
        "SK",
        "SS"
],
      "SeriesDescription": "func_task-mario3_run-05",
      "SeriesNumber": 23,
      "SeriesTime": "193530.568000",
      "SliceLocation": -34.059898750124,
      "SliceThickness": 2.0,
      "SmallestImagePixelValue": 0,
      "SoftwareVersions": "syngo MR E11",
      "SpacingBetweenSlices": 1.9999999754424,
      "SpecificCharacterSet": "ISO_IR 100",
      "StudyID": "1",
      "StudyTime": "183936.663000",
      "TransmitCoilName": "Body",
      "VariableFlipAngleFlag": "N",
      "WindowCenterWidthExplanation": "Algo1",
      "dBdt": 0.0},
    "slices": {}
  },
  "time": {
    "samples": {
      "AcquisitionNumber": [1, 2, 3, 4, 5, 6, 7, 8, 9, 10, 11, 12, 13, 14, 15, 16, 17, 18, 19, 20, 21, 22, 23, 24, 25, 26, 27, 28, 29, 30, 31, 32, 33, 34, 35, 36, 37, 38, 39, 40, 41, 42, 43, 44, 45, 46, 47, 48, 49, 50, 51, 52, 53, 54, 55, 56, 57, 58, 59, 60, 61, 62, 63, 64, 65, 66, 67, 68, 69, 70, 71, 72, 73, 74, 75, 76, 77, 78, 79, 80, 81, 82, 83, 84, 85, 86, 87, 88, 89, 90, 91, 92, 93, 94, 95, 96, 97, 98, 99, 100, 101, 102, 103, 104, 105, 106, 107, 108, 109, 110, 111, 112, 113, 114, 115, 116, 117, 118, 119, 120, 121, 122, 123, 124, 125, 126, 127, 128, 129, 130, 131, 132, 133, 134, 135, 136, 137, 138, 139, 140, 141, 142, 143, 144, 145, 146, 147, 148, 149, 150, 151, 152, 153, 154, 155, 156, 157, 158, 159, 160, 161, 162, 163, 164, 165, 166, 167, 168, 169, 170, 171, 172, 173, 174, 175, 176, 177, 178, 179, 180, 181, 182, 183, 184, 185, 186, 187, 188, 189, 190, 191, 192, 193, 194, 195, 196, 197, 198, 199, 200, 201, 202, 203, 204, 205, 206, 207, 208, 209, 210, 211, 212, 213, 214, 215, 216, 217, 218, 219, 220, 221, 222, 223, 224, 225, 226, 227, 228, 229, 230, 231, 232, 233, 234, 235, 236, 237, 238, 239, 240, 241, 242, 243, 244, 245, 246, 247, 248, 249, 250, 251, 252, 253, 254, 255, 256, 257, 258, 259, 260, 261, 262, 263, 264, 265, 266, 267, 268, 269, 270, 271, 272, 273, 274, 275, 276, 277, 278, 279, 280, 281, 282, 283, 284, 285, 286, 287, 288, 289, 290, 291, 292, 293, 294, 295, 296, 297, 298, 299, 300, 301, 302, 303, 304, 305, 306, 307, 308, 309, 310, 311, 312, 313, 314, 315, 316, 317, 318, 319, 320, 321, 322, 323, 324, 325, 326, 327, 328, 329, 330, 331, 332, 333, 334, 335, 336, 337, 338, 339, 340, 341, 342, 343, 344, 345, 346, 347, 348, 349, 350, 351, 352, 353, 354, 355, 356, 357, 358, 359, 360, 361, 362, 363, 364, 365, 366, 367, 368, 369, 370, 371, 372, 373, 374, 375, 376, 377, 378, 379, 380, 381, 382, 383, 384, 385, 386, 387, 388, 389, 390],
      "AcquisitionTime": ["193407.735000", "193409.225000", "193410.715000", "193412.205000", "193413.695000", "193415.185000", "193416.675000", "193418.165000", "193419.655000", "193421.145000", "193422.635000", "193424.125000", "193425.615000", "193427.105000", "193428.595000", "193430.085000", "193431.575000", "193433.065000", "193434.555000", "193436.045000", "193437.535000", "193439.025000", "193440.515000", "193442.005000", "193443.495000", "193444.985000", "193446.475000", "193447.965000", "193449.455000", "193450.945000", "193452.435000", "193453.925000", "193455.415000", "193456.905000", "193458.395000", "193459.885000", "193501.375000", "193502.865000", "193504.355000", "193505.845000", "193507.335000", "193508.825000", "193510.315000", "193511.805000", "193513.295000", "193514.785000", "193516.275000", "193517.765000", "193519.255000", "193520.745000", "193522.235000", "193523.725000", "193525.215000", "193526.705000", "193528.195000", "193529.685000", "193531.175000", "193532.665000", "193534.155000", "193535.645000", "193537.135000", "193538.625000", "193540.115000", "193541.605000", "193543.095000", "193544.585000", "193546.075000", "193547.565000", "193549.055000", "193550.545000", "193552.035000", "193553.525000", "193555.015000", "193556.505000", "193557.995000", "193559.485000", "193600.975000", "193602.465000", "193603.955000", "193605.445000", "193606.935000", "193608.425000", "193609.915000", "193611.405000", "193612.895000", "193614.385000", "193615.875000", "193617.365000", "193618.855000", "193620.345000", "193621.835000", "193623.325000", "193624.815000", "193626.305000", "193627.795000", "193629.285000", "193630.775000", "193632.265000", "193633.755000", "193635.245000", "193636.735000", "193638.225000", "193639.715000", "193641.205000", "193642.695000", "193644.185000", "193645.675000", "193647.165000", "193648.655000", "193650.145000", "193651.635000", "193653.125000", "193654.615000", "193656.105000", "193657.595000", "193659.085000", "193700.575000", "193702.065000", "193703.555000", "193705.045000", "193706.535000", "193708.025000", "193709.515000", "193711.005000", "193712.495000", "193713.985000", "193715.475000", "193716.965000", "193718.455000", "193719.945000", "193721.435000", "193722.925000", "193724.415000", "193725.905000", "193727.395000", "193728.885000", "193730.375000", "193731.865000", "193733.355000", "193734.845000", "193736.335000", "193737.825000", "193739.315000", "193740.805000", "193742.295000", "193743.785000", "193745.275000", "193746.765000", "193748.255000", "193749.745000", "193751.235000", "193752.725000", "193754.215000", "193755.705000", "193757.195000", "193758.685000", "193800.175000", "193801.665000", "193803.155000", "193804.645000", "193806.135000", "193807.625000", "193809.115000", "193810.605000", "193812.095000", "193813.585000", "193815.075000", "193816.565000", "193818.055000", "193819.545000", "193821.035000", "193822.525000", "193824.015000", "193825.505000", "193826.995000", "193828.485000", "193829.975000", "193831.465000", "193832.955000", "193834.445000", "193835.935000", "193837.425000", "193838.915000", "193840.405000", "193841.895000", "193843.385000", "193844.875000", "193846.365000", "193847.855000", "193849.345000", "193850.835000", "193852.325000", "193853.815000", "193855.305000", "193856.795000", "193858.285000", "193859.775000", "193901.265000", "193902.755000", "193904.245000", "193905.735000", "193907.225000", "193908.715000", "193910.205000", "193911.695000", "193913.185000", "193914.675000", "193916.165000", "193917.655000", "193919.145000", "193920.635000", "193922.125000", "193923.615000", "193925.105000", "193926.595000", "193928.085000", "193929.575000", "193931.065000", "193932.555000", "193934.045000", "193935.535000", "193937.025000", "193938.515000", "193940.005000", "193941.495000", "193942.985000", "193944.475000", "193945.965000", "193947.455000", "193948.945000", "193950.435000", "193951.925000", "193953.415000", "193954.905000", "193956.395000", "193957.885000", "193959.375000", "194000.865000", "194002.355000", "194003.845000", "194005.335000", "194006.825000", "194008.315000", "194009.805000", "194011.295000", "194012.785000", "194014.275000", "194015.765000", "194017.255000", "194018.745000", "194020.235000", "194021.725000", "194023.215000", "194024.705000", "194026.195000", "194027.685000", "194029.175000", "194030.665000", "194032.155000", "194033.645000", "194035.135000", "194036.625000", "194038.115000", "194039.605000", "194041.095000", "194042.585000", "194044.075000", "194045.565000", "194047.055000", "194048.545000", "194050.035000", "194051.525000", "194053.015000", "194054.505000", "194055.995000", "194057.485000", "194058.975000", "194100.465000", "194101.955000", "194103.445000", "194104.935000", "194106.425000", "194107.915000", "194109.405000", "194110.895000", "194112.385000", "194113.875000", "194115.365000", "194116.855000", "194118.345000", "194119.835000", "194121.325000", "194122.815000", "194124.305000", "194125.795000", "194127.285000", "194128.775000", "194130.265000", "194131.755000", "194133.245000", "194134.735000", "194136.225000", "194137.715000", "194139.205000", "194140.695000", "194142.185000", "194143.675000", "194145.165000", "194146.655000", "194148.145000", "194149.635000", "194151.125000", "194152.615000", "194154.105000", "194155.595000", "194157.085000", "194158.575000", "194200.065000", "194201.555000", "194203.045000", "194204.535000", "194206.025000", "194207.515000", "194209.005000", "194210.495000", "194211.985000", "194213.475000", "194214.965000", "194216.455000", "194217.945000", "194219.435000", "194220.925000", "194222.415000", "194223.905000", "194225.395000", "194226.885000", "194228.375000", "194229.865000", "194231.355000", "194232.845000", "194234.335000", "194235.825000", "194237.315000", "194238.805000", "194240.295000", "194241.785000", "194243.275000", "194244.765000", "194246.255000", "194247.745000", "194249.235000", "194250.725000", "194252.215000", "194253.705000", "194255.195000", "194256.685000", "194258.175000", "194259.665000", "194301.155000", "194302.645000", "194304.135000", "194305.625000", "194307.115000", "194308.605000", "194310.095000", "194311.585000", "194313.075000", "194314.565000", "194316.055000", "194317.545000", "194319.035000", "194320.525000", "194322.015000", "194323.505000", "194324.995000", "194326.485000", "194327.975000", "194329.465000", "194330.955000", "194332.445000", "194333.935000", "194335.425000", "194336.915000", "194338.405000", "194339.895000", "194341.385000", "194342.875000", "194344.365000", "194345.855000", "194347.345000"],
      "ContentTime": ["193530.570000", "193530.573000", "193530.575000", "193530.578000", "193530.580000", "193530.583000", "193530.585000", "193530.588000", "193530.596000", "193530.598000", "193530.601000", "193530.603000", "193530.606000", "193530.612000", "193530.614000", "193530.617000", "193530.619000", "193530.622000", "193530.624000", "193530.627000", "193530.629000", "193530.632000", "193530.634000", "193530.637000", "193530.640000", "193530.642000", "193530.645000", "193530.647000", "193530.650000", "193530.652000", "193530.655000", "193530.657000", "193530.660000", "193530.662000", "193550.475000", "193550.478000", "193550.481000", "193550.483000", "193550.501000", "193550.504000", "193550.506000", "193550.509000", "193550.511000", "193550.514000", "193550.517000", "193550.519000", "193550.522000", "193550.524000", "193550.527000", "193550.529000", "193550.532000", "193550.535000", "193550.537000", "193550.539000", "193610.487000", "193610.489000", "193610.492000", "193610.494000", "193610.497000", "193610.499000", "193610.502000", "193610.504000", "193610.507000", "193610.510000", "193610.512000", "193610.515000", "193610.518000", "193610.520000", "193610.523000", "193610.525000", "193610.528000", "193610.531000", "193610.534000", "193610.537000", "193630.513000", "193630.516000", "193630.518000", "193630.521000", "193630.523000", "193630.526000", "193630.528000", "193630.531000", "193630.533000", "193630.536000", "193630.538000", "193630.541000", "193630.544000", "193630.546000", "193630.549000", "193630.551000", "193630.554000", "193630.556000", "193630.559000", "193630.561000", "193710.505000", "193710.508000", "193710.510000", "193710.513000", "193710.515000", "193710.518000", "193710.521000", "193710.523000", "193710.526000", "193710.528000", "193710.531000", "193710.533000", "193710.536000", "193710.539000", "193710.541000", "193710.544000", "193710.546000", "193710.549000", "193710.551000", "193710.554000", "193710.556000", "193710.559000", "193710.561000", "193710.564000", "193710.566000", "193710.569000", "193710.572000", "193750.511000", "193750.513000", "193750.516000", "193750.519000", "193750.521000", "193750.524000", "193750.526000", "193750.529000", "193750.531000", "193750.534000", "193750.536000", "193750.539000", "193750.542000", "193750.544000", "193750.547000", "193750.549000", "193750.552000", "193750.554000", "193750.557000", "193750.559000", "193750.562000", "193750.564000", "193750.567000", "193750.570000", "193750.572000", "193750.575000", "193750.577000", "193830.502000", "193830.505000", "193830.507000", "193830.510000", "193830.513000", "193830.515000", "193830.518000", "193830.520000", "193830.523000", "193830.525000", "193830.528000", "193830.530000", "193830.536000", "193830.539000", "193830.541000", "193830.544000", "193830.547000", "193830.549000", "193830.552000", "193830.554000", "193830.557000", "193830.559000", "193830.562000", "193830.564000", "193830.567000", "193830.569000", "193830.572000", "193850.449000", "193850.452000", "193850.462000", "193850.464000", "193850.467000", "193850.469000", "193850.472000", "193850.474000", "193850.477000", "193850.479000", "193850.482000", "193850.484000", "193850.487000", "193850.489000", "193930.503000", "193930.505000", "193930.508000", "193930.511000", "193930.513000", "193930.516000", "193930.518000", "193930.521000", "193930.523000", "193930.526000", "193930.528000", "193930.531000", "193930.533000", "193930.536000", "193930.538000", "193930.541000", "193930.544000", "193930.546000", "193930.549000", "193930.551000", "193930.554000", "193930.556000", "193930.559000", "193930.562000", "193930.564000", "193930.567000", "194010.522000", "194010.524000", "194010.527000", "194010.529000", "194010.532000", "194010.535000", "194010.537000", "194010.540000", "194010.542000", "194010.545000", "194010.547000", "194010.555000", "194010.557000", "194010.560000", "194010.562000", "194010.565000", "194010.568000", "194010.570000", "194010.573000", "194010.575000", "194010.578000", "194010.580000", "194010.583000", "194010.585000", "194010.588000", "194010.591000", "194010.593000", "194050.530000", "194050.533000", "194050.536000", "194050.538000", "194050.541000", "194050.543000", "194050.546000", "194050.548000", "194050.551000", "194050.553000", "194050.556000", "194050.558000", "194050.561000", "194050.563000", "194050.566000", "194050.568000", "194050.571000", "194050.574000", "194050.576000", "194050.579000", "194050.581000", "194050.584000", "194050.586000", "194050.589000", "194050.591000", "194050.594000", "194050.596000", "194130.510000", "194130.513000", "194130.516000", "194130.519000", "194130.521000", "194130.524000", "194130.526000", "194130.529000", "194130.531000", "194130.534000", "194130.536000", "194130.539000", "194130.541000", "194130.544000", "194130.547000", "194130.549000", "194130.552000", "194130.555000", "194130.558000", "194130.560000", "194130.563000", "194130.566000", "194130.568000", "194130.571000", "194130.574000", "194130.576000", "194130.578000", "194210.512000", "194210.515000", "194210.517000", "194210.520000", "194210.522000", "194210.525000", "194210.528000", "194210.530000", "194210.533000", "194210.535000", "194210.538000", "194210.540000", "194210.543000", "194210.545000", "194210.548000", "194210.550000", "194210.554000", "194210.557000", "194210.559000", "194210.562000", "194210.564000", "194210.567000", "194210.569000", "194210.572000", "194210.574000", "194210.577000", "194210.580000", "194250.514000", "194250.517000", "194250.520000", "194250.522000", "194250.525000", "194250.527000", "194250.530000", "194250.532000", "194250.535000", "194250.537000", "194250.540000", "194250.543000", "194250.545000", "194250.547000", "194250.550000", "194250.553000", "194250.555000", "194250.558000", "194250.560000", "194250.563000", "194250.565000", "194250.568000", "194250.570000", "194250.573000", "194250.580000", "194250.582000", "194250.585000", "194330.500000", "194330.503000", "194330.506000", "194330.508000", "194330.511000", "194330.513000", "194330.516000", "194330.519000", "194330.521000", "194330.524000", "194330.526000", "194330.529000", "194330.531000", "194330.534000", "194330.536000", "194330.539000", "194330.541000", "194330.544000", "194330.546000", "194330.549000", "194330.551000", "194330.554000", "194330.557000", "194330.559000", "194330.562000", "194330.564000", "194349.974000", "194349.977000", "194349.987000", "194349.990000", "194349.992000", "194349.995000", "194349.998000", "194350.001000", "194350.004000", "194350.006000", "194350.009000", "194350.012000", "194350.014000", "194350.017000"],
      "InstanceCreationTime": ["193530.570000", "193530.573000", "193530.575000", "193530.578000", "193530.580000", "193530.583000", "193530.585000", "193530.588000", "193530.596000", "193530.598000", "193530.601000", "193530.603000", "193530.606000", "193530.612000", "193530.614000", "193530.617000", "193530.619000", "193530.622000", "193530.624000", "193530.627000", "193530.629000", "193530.632000", "193530.634000", "193530.637000", "193530.640000", "193530.642000", "193530.645000", "193530.647000", "193530.650000", "193530.652000", "193530.655000", "193530.657000", "193530.660000", "193530.662000", "193550.475000", "193550.478000", "193550.481000", "193550.483000", "193550.501000", "193550.504000", "193550.506000", "193550.509000", "193550.511000", "193550.514000", "193550.517000", "193550.519000", "193550.522000", "193550.524000", "193550.527000", "193550.529000", "193550.532000", "193550.535000", "193550.537000", "193550.539000", "193610.487000", "193610.489000", "193610.492000", "193610.494000", "193610.497000", "193610.499000", "193610.502000", "193610.504000", "193610.507000", "193610.510000", "193610.512000", "193610.515000", "193610.518000", "193610.520000", "193610.523000", "193610.525000", "193610.528000", "193610.531000", "193610.534000", "193610.537000", "193630.513000", "193630.516000", "193630.518000", "193630.521000", "193630.523000", "193630.526000", "193630.528000", "193630.531000", "193630.533000", "193630.536000", "193630.538000", "193630.541000", "193630.544000", "193630.546000", "193630.549000", "193630.551000", "193630.554000", "193630.556000", "193630.559000", "193630.561000", "193710.505000", "193710.508000", "193710.510000", "193710.513000", "193710.515000", "193710.518000", "193710.521000", "193710.523000", "193710.526000", "193710.528000", "193710.531000", "193710.533000", "193710.536000", "193710.539000", "193710.541000", "193710.544000", "193710.546000", "193710.549000", "193710.551000", "193710.554000", "193710.556000", "193710.559000", "193710.561000", "193710.564000", "193710.566000", "193710.569000", "193710.572000", "193750.511000", "193750.513000", "193750.516000", "193750.519000", "193750.521000", "193750.524000", "193750.526000", "193750.529000", "193750.531000", "193750.534000", "193750.536000", "193750.539000", "193750.542000", "193750.544000", "193750.547000", "193750.549000", "193750.552000", "193750.554000", "193750.557000", "193750.559000", "193750.562000", "193750.564000", "193750.567000", "193750.570000", "193750.572000", "193750.575000", "193750.577000", "193830.502000", "193830.505000", "193830.507000", "193830.510000", "193830.513000", "193830.515000", "193830.518000", "193830.520000", "193830.523000", "193830.525000", "193830.528000", "193830.530000", "193830.536000", "193830.539000", "193830.541000", "193830.544000", "193830.547000", "193830.549000", "193830.552000", "193830.554000", "193830.557000", "193830.559000", "193830.562000", "193830.564000", "193830.567000", "193830.569000", "193830.572000", "193850.449000", "193850.452000", "193850.462000", "193850.464000", "193850.467000", "193850.469000", "193850.472000", "193850.474000", "193850.477000", "193850.479000", "193850.482000", "193850.484000", "193850.487000", "193850.489000", "193930.503000", "193930.505000", "193930.508000", "193930.511000", "193930.513000", "193930.516000", "193930.518000", "193930.521000", "193930.523000", "193930.526000", "193930.528000", "193930.531000", "193930.533000", "193930.536000", "193930.538000", "193930.541000", "193930.544000", "193930.546000", "193930.549000", "193930.551000", "193930.554000", "193930.556000", "193930.559000", "193930.562000", "193930.564000", "193930.567000", "194010.522000", "194010.524000", "194010.527000", "194010.529000", "194010.532000", "194010.535000", "194010.537000", "194010.540000", "194010.542000", "194010.545000", "194010.547000", "194010.555000", "194010.557000", "194010.560000", "194010.562000", "194010.565000", "194010.568000", "194010.570000", "194010.573000", "194010.575000", "194010.578000", "194010.580000", "194010.583000", "194010.585000", "194010.588000", "194010.591000", "194010.593000", "194050.530000", "194050.533000", "194050.536000", "194050.538000", "194050.541000", "194050.543000", "194050.546000", "194050.548000", "194050.551000", "194050.553000", "194050.556000", "194050.558000", "194050.561000", "194050.563000", "194050.566000", "194050.568000", "194050.571000", "194050.574000", "194050.576000", "194050.579000", "194050.581000", "194050.584000", "194050.586000", "194050.589000", "194050.591000", "194050.594000", "194050.596000", "194130.510000", "194130.513000", "194130.516000", "194130.519000", "194130.521000", "194130.524000", "194130.526000", "194130.529000", "194130.531000", "194130.534000", "194130.536000", "194130.539000", "194130.541000", "194130.544000", "194130.547000", "194130.549000", "194130.552000", "194130.555000", "194130.558000", "194130.560000", "194130.563000", "194130.566000", "194130.568000", "194130.571000", "194130.574000", "194130.576000", "194130.578000", "194210.512000", "194210.515000", "194210.517000", "194210.520000", "194210.522000", "194210.525000", "194210.528000", "194210.530000", "194210.533000", "194210.535000", "194210.538000", "194210.540000", "194210.543000", "194210.545000", "194210.548000", "194210.550000", "194210.554000", "194210.557000", "194210.559000", "194210.562000", "194210.564000", "194210.567000", "194210.569000", "194210.572000", "194210.574000", "194210.577000", "194210.580000", "194250.514000", "194250.517000", "194250.520000", "194250.522000", "194250.525000", "194250.527000", "194250.530000", "194250.532000", "194250.535000", "194250.537000", "194250.540000", "194250.543000", "194250.545000", "194250.547000", "194250.550000", "194250.553000", "194250.555000", "194250.558000", "194250.560000", "194250.563000", "194250.565000", "194250.568000", "194250.570000", "194250.573000", "194250.580000", "194250.582000", "194250.585000", "194330.500000", "194330.503000", "194330.506000", "194330.508000", "194330.511000", "194330.513000", "194330.516000", "194330.519000", "194330.521000", "194330.524000", "194330.526000", "194330.529000", "194330.531000", "194330.534000", "194330.536000", "194330.539000", "194330.541000", "194330.544000", "194330.546000", "194330.549000", "194330.551000", "194330.554000", "194330.557000", "194330.559000", "194330.562000", "194330.564000", "194349.974000", "194349.977000", "194349.987000", "194349.990000", "194349.992000", "194349.995000", "194349.998000", "194350.001000", "194350.004000", "194350.006000", "194350.009000", "194350.012000", "194350.014000", "194350.017000"],
      "InstanceNumber": [1, 2, 3, 4, 5, 6, 7, 8, 9, 10, 11, 12, 13, 14, 15, 16, 17, 18, 19, 20, 21, 22, 23, 24, 25, 26, 27, 28, 29, 30, 31, 32, 33, 34, 35, 36, 37, 38, 39, 40, 41, 42, 43, 44, 45, 46, 47, 48, 49, 50, 51, 52, 53, 54, 55, 56, 57, 58, 59, 60, 61, 62, 63, 64, 65, 66, 67, 68, 69, 70, 71, 72, 73, 74, 75, 76, 77, 78, 79, 80, 81, 82, 83, 84, 85, 86, 87, 88, 89, 90, 91, 92, 93, 94, 95, 96, 97, 98, 99, 100, 101, 102, 103, 104, 105, 106, 107, 108, 109, 110, 111, 112, 113, 114, 115, 116, 117, 118, 119, 120, 121, 122, 123, 124, 125, 126, 127, 128, 129, 130, 131, 132, 133, 134, 135, 136, 137, 138, 139, 140, 141, 142, 143, 144, 145, 146, 147, 148, 149, 150, 151, 152, 153, 154, 155, 156, 157, 158, 159, 160, 161, 162, 163, 164, 165, 166, 167, 168, 169, 170, 171, 172, 173, 174, 175, 176, 177, 178, 179, 180, 181, 182, 183, 184, 185, 186, 187, 188, 189, 190, 191, 192, 193, 194, 195, 196, 197, 198, 199, 200, 201, 202, 203, 204, 205, 206, 207, 208, 209, 210, 211, 212, 213, 214, 215, 216, 217, 218, 219, 220, 221, 222, 223, 224, 225, 226, 227, 228, 229, 230, 231, 232, 233, 234, 235, 236, 237, 238, 239, 240, 241, 242, 243, 244, 245, 246, 247, 248, 249, 250, 251, 252, 253, 254, 255, 256, 257, 258, 259, 260, 261, 262, 263, 264, 265, 266, 267, 268, 269, 270, 271, 272, 273, 274, 275, 276, 277, 278, 279, 280, 281, 282, 283, 284, 285, 286, 287, 288, 289, 290, 291, 292, 293, 294, 295, 296, 297, 298, 299, 300, 301, 302, 303, 304, 305, 306, 307, 308, 309, 310, 311, 312, 313, 314, 315, 316, 317, 318, 319, 320, 321, 322, 323, 324, 325, 326, 327, 328, 329, 330, 331, 332, 333, 334, 335, 336, 337, 338, 339, 340, 341, 342, 343, 344, 345, 346, 347, 348, 349, 350, 351, 352, 353, 354, 355, 356, 357, 358, 359, 360, 361, 362, 363, 364, 365, 366, 367, 368, 369, 370, 371, 372, 373, 374, 375, 376, 377, 378, 379, 380, 381, 382, 383, 384, 385, 386, 387, 388, 389, 390],
