{
  "AcquisitionMatrixPE": 104,
  "AcquisitionNumber": 1,
  "AcquisitionTime": "19:48:57.262500",
  "BandwidthPerPixelPhaseEncode": 17.17,
  "BaseResolution": 104,
  "BodyPartExamined": "BRAIN",
  "CoilCombinationMethod": "Sum of Squares",
  "ConsistencyInfo": "N4_VE11C_LATEST_20160120",
  "ConversionSoftware": "dcm2niix",
  "ConversionSoftwareVersion": "v1.0.20220505",
  "DerivedVendorReportedEchoSpacing": 0.000560011,
  "DeviceSerialNumber": "167006",
  "DwellTime": 2.1e-06,
  "EchoTime": 0.037,
  "EchoTime1": 0.037,
  "EchoTime2": 0.001,
  "EchoTrainLength": 104,
  "EffectiveEchoSpacing": 0.000560011,
  "FlipAngle": 52,
  "HeudiconvVersion": "0.5.3.post811+g6206e14",
  "ImageComments": "Unaliased MB4/PE3/LB",
  "ImageOrientationPatientDICOM": [0.999761, -0.020642, 0.00715794, 0.0218149, 0.925164, -0.37894],
  "ImageOrientationText": "Tra>Cor(-22.3)>Sag(-0.1)",
  "ImageType": [
    "ORIGINAL",
    "PRIMARY",
    "P",
    "MB",
    "ND",
    "MOSAIC",
    "PHASE"
],
  "ImagingFrequency": 123.259,
  "InPlanePhaseEncodingDirectionDICOM": "COL",
  "InstitutionAddress": "Chemin Queen-Mary 4565,Montreal,District,CA,H3W 1W5",
  "InstitutionName": "IUGM",
  "InstitutionalDepartmentName": "Department",
  "MRAcquisitionType": "2D",
  "MagneticFieldStrength": 3,
  "Manufacturer": "Siemens",
  "ManufacturersModelName": "Prisma_fit",
  "MatrixCoilMode": "SENSE",
  "Modality": "MR",
  "MultibandAccelerationFactor": 4,
  "PartialFourier": 1,
  "PatientPosition": "HFS",
  "PercentPhaseFOV": 100,
  "PercentSampling": 100,
  "PhaseEncodingDirection": "j",
  "PhaseEncodingSteps": 104,
  "PhaseResolution": 1,
  "PixelBandwidth": 2290,
  "ProcedureStepDescription": "games^mario3",
  "ProtocolName": "func_task-mario3_run-06",
  "PulseSequenceDetails": "%CustomerSeq%\\cmrr_mbep2d_bold",
  "ReceiveCoilActiveElements": "HC1-7;NC1,2",
  "ReceiveCoilName": "HeadNeck_64",
  "ReconMatrixPE": 104,
  "RepetitionTime": 1.49,
  "SAR": 0.0752436,
  "ScanOptions": "FS",
  "ScanningSequence": "EP",
  "SequenceName": "epfid2d1_104",
  "SequenceVariant": "SK\\SS",
  "SeriesDescription": "func_task-mario3_run-06",
  "SeriesNumber": 26,
  "ShimSetting": [590, -7284, -8820, 368, 38, -385, -52, 86],
  "SliceThickness": 2,
  "SliceTiming": [0, 0.785, 0.1, 0.8825, 0.1975, 0.98, 0.295, 1.08, 0.3925, 1.1775, 0.49, 1.275, 0.59, 1.3725, 0.6875, 0, 0.785, 0.1, 0.8825, 0.1975, 0.98, 0.295, 1.08, 0.3925, 1.1775, 0.49, 1.275, 0.59, 1.3725, 0.6875, 0, 0.785, 0.1, 0.8825, 0.1975, 0.98, 0.295, 1.08, 0.3925, 1.1775, 0.49, 1.275, 0.59, 1.3725, 0.6875, 0, 0.785, 0.1, 0.8825, 0.1975, 0.98, 0.295, 1.08, 0.3925, 1.1775, 0.49, 1.275, 0.59, 1.3725, 0.6875],
  "SoftwareVersions": "syngo MR E11",
  "SpacingBetweenSlices": 2,
  "StationName": "MRC35049",
  "TaskName": "mario3",
  "TotalReadoutTime": 0.0576811,
  "TxRefAmp": 303.404,
  "WipMemBlock": "5cbc00b3-eaae-426e-8115-2dd1726b31c3||Sequence: R017 ve11c/master r/75a17815+; Jun 28 2022 16:32:11 by eja",
  "dcmmeta_affine": [
    [-1.9995225667953491, 0.04362984001636505, -0.0023996697273105383, 102.88732147216797],
    [0.04128409922122955, 1.850327968597412, -0.7580119371414185, -69.15214538574219],
    [0.014315882697701454, 0.7578805685043335, 1.8507869243621826, -64.99454498291016],
    [0.0, 0.0, 0.0, 1.0]
],
  "dcmmeta_reorient_transform": [
    [0.0, -1.0, 0.0, 103.0],
    [1.0, 0.0, 0.0, 0.0],
    [0.0, 0.0, 1.0, 0.0],
    [0.0, 0.0, 0.0, 1.0]
],
  "dcmmeta_shape": [104, 104, 60, 364],
  "dcmmeta_slice_dim": 2,
  "dcmmeta_version": 0.6,
  "global": {
    "const": {
      "AcquisitionMatrix": [104, 0, 0, 104],
      "AngioFlag": "N",
      "BitsAllocated": 16,
      "BitsStored": 16,
      "BodyPartExamined": "BRAIN",
      "Columns": 832,
      "EchoNumbers": 1,
      "EchoTime": 37.0,
      "EchoTrainLength": 104,
      "FlipAngle": 52.0,
      "HighBit": 15,
      "ImageOrientationPatient": [0.99976130632727, -0.0206420504797, 0.00715794123863, 0.02181492074307, 0.92516397388507, -0.3789402732069],
      "ImagePositionPatient": [-851.08868934656, -779.92359128644, 283.72468700183],
      "ImageType": [
        "ORIGINAL",
        "PRIMARY",
        "P",
        "MB",
        "ND",
        "MOSAIC"
],
      "ImagedNucleus": "1H",
      "ImagingFrequency": 123.259154,
      "InPlanePhaseEncodingDirection": "COL",
      "LargestImagePixelValue": 4095,
      "MRAcquisitionType": "2D",
      "MagneticFieldStrength": 3.0,
      "Manufacturer": "SIEMENS",
      "ManufacturerModelName": "Prisma_fit",
      "Modality": "MR",
      "NumberOfAverages": 1.0,
      "NumberOfPhaseEncodingSteps": 104,
      "PercentPhaseFieldOfView": 100.0,
      "PercentSampling": 100.0,
      "PerformedProcedureStepStartTime": "183936.743000",
      "PhotometricInterpretation": "MONOCHROME2",
      "PixelBandwidth": 2290.0,
      "PixelRepresentation": 0,
      "PixelSpacing": [2.0, 2.0],
      "ProtocolName": "func_task-mario3_run-06",
      "RepetitionTime": 1490.0,
      "RescaleIntercept": -4096.0,
      "RescaleSlope": 2.0,
      "RescaleType": "US",
      "Rows": 832,
      "SAR": 0.07524364066146,
      "SamplesPerPixel": 1,
      "ScanOptions": "FS",
      "ScanningSequence": "EP",
      "SequenceName": "epfid2d1_104",
      "SequenceVariant": [
        "SK",
        "SS"
],
      "SeriesDescription": "func_task-mario3_run-06",
      "SeriesNumber": 26,
      "SeriesTime": "195018.401000",
      "SliceLocation": -34.059898750124,
      "SliceThickness": 2.0,
      "SmallestImagePixelValue": 0,
      "SoftwareVersions": "syngo MR E11",
      "SpacingBetweenSlices": 1.9999999754424,
      "SpecificCharacterSet": "ISO_IR 100",
      "StudyID": "1",
      "StudyTime": "183936.663000",
      "TransmitCoilName": "Body",
      "VariableFlipAngleFlag": "N",
      "WindowCenterWidthExplanation": "Algo1",
      "dBdt": 0.0},
    "slices": {}
  },
  "time": {
    "samples": {
      "AcquisitionNumber": [1, 2, 3, 4, 5, 6, 7, 8, 9, 10, 11, 12, 13, 14, 15, 16, 17, 18, 19, 20, 21, 22, 23, 24, 25, 26, 27, 28, 29, 30, 31, 32, 33, 34, 35, 36, 37, 38, 39, 40, 41, 42, 43, 44, 45, 46, 47, 48, 49, 50, 51, 52, 53, 54, 55, 56, 57, 58, 59, 60, 61, 62, 63, 64, 65, 66, 67, 68, 69, 70, 71, 72, 73, 74, 75, 76, 77, 78, 79, 80, 81, 82, 83, 84, 85, 86, 87, 88, 89, 90, 91, 92, 93, 94, 95, 96, 97, 98, 99, 100, 101, 102, 103, 104, 105, 106, 107, 108, 109, 110, 111, 112, 113, 114, 115, 116, 117, 118, 119, 120, 121, 122, 123, 124, 125, 126, 127, 128, 129, 130, 131, 132, 133, 134, 135, 136, 137, 138, 139, 140, 141, 142, 143, 144, 145, 146, 147, 148, 149, 150, 151, 152, 153, 154, 155, 156, 157, 158, 159, 160, 161, 162, 163, 164, 165, 166, 167, 168, 169, 170, 171, 172, 173, 174, 175, 176, 177, 178, 179, 180, 181, 182, 183, 184, 185, 186, 187, 188, 189, 190, 191, 192, 193, 194, 195, 196, 197, 198, 199, 200, 201, 202, 203, 204, 205, 206, 207, 208, 209, 210, 211, 212, 213, 214, 215, 216, 217, 218, 219, 220, 221, 222, 223, 224, 225, 226, 227, 228, 229, 230, 231, 232, 233, 234, 235, 236, 237, 238, 239, 240, 241, 242, 243, 244, 245, 246, 247, 248, 249, 250, 251, 252, 253, 254, 255, 256, 257, 258, 259, 260, 261, 262, 263, 264, 265, 266, 267, 268, 269, 270, 271, 272, 273, 274, 275, 276, 277, 278, 279, 280, 281, 282, 283, 284, 285, 286, 287, 288, 289, 290, 291, 292, 293, 294, 295, 296, 297, 298, 299, 300, 301, 302, 303, 304, 305, 306, 307, 308, 309, 310, 311, 312, 313, 314, 315, 316, 317, 318, 319, 320, 321, 322, 323, 324, 325, 326, 327, 328, 329, 330, 331, 332, 333, 334, 335, 336, 337, 338, 339, 340, 341, 342, 343, 344, 345, 346, 347, 348, 349, 350, 351, 352, 353, 354, 355, 356, 357, 358, 359, 360, 361, 362, 363, 364],
      "AcquisitionTime": ["194857.262500", "194858.752500", "194900.242500", "194901.732500", "194903.222500", "194904.712500", "194906.202500", "194907.692500", "194909.182500", "194910.672500", "194912.162500", "194913.652500", "194915.142500", "194916.632500", "194918.122500", "194919.612500", "194921.102500", "194922.592500", "194924.082500", "194925.572500", "194927.062500", "194928.552500", "194930.042500", "194931.532500", "194933.022500", "194934.512500", "194936.002500", "194937.492500", "194938.982500", "194940.472500", "194941.962500", "194943.452500", "194944.942500", "194946.432500", "194947.922500", "194949.412500", "194950.902500", "194952.392500", "194953.882500", "194955.372500", "194956.862500", "194958.352500", "194959.842500", "195001.332500", "195002.822500", "195004.312500", "195005.802500", "195007.292500", "195008.782500", "195010.272500", "195011.762500", "195013.252500", "195014.742500", "195016.232500", "195017.722500", "195019.212500", "195020.702500", "195022.192500", "195023.682500", "195025.172500", "195026.662500", "195028.152500", "195029.642500", "195031.132500", "195032.622500", "195034.112500", "195035.602500", "195037.092500", "195038.582500", "195040.072500", "195041.562500", "195043.052500", "195044.542500", "195046.032500", "195047.522500", "195049.012500", "195050.502500", "195051.992500", "195053.482500", "195054.972500", "195056.462500", "195057.952500", "195059.442500", "195100.932500", "195102.422500", "195103.912500", "195105.402500", "195106.892500", "195108.382500", "195109.872500", "195111.362500", "195112.852500", "195114.342500", "195115.832500", "195117.322500", "195118.812500", "195120.302500", "195121.792500", "195123.282500", "195124.772500", "195126.262500", "195127.752500", "195129.242500", "195130.732500", "195132.222500", "195133.712500", "195135.202500", "195136.692500", "195138.182500", "195139.672500", "195141.162500", "195142.652500", "195144.142500", "195145.632500", "195147.122500", "195148.612500", "195150.102500", "195151.592500", "195153.082500", "195154.572500", "195156.062500", "195157.552500", "195159.042500", "195200.532500", "195202.022500", "195203.512500", "195205.002500", "195206.492500", "195207.982500", "195209.472500", "195210.962500", "195212.452500", "195213.942500", "195215.432500", "195216.922500", "195218.412500", "195219.902500", "195221.392500", "195222.882500", "195224.372500", "195225.862500", "195227.352500", "195228.842500", "195230.332500", "195231.822500", "195233.312500", "195234.802500", "195236.292500", "195237.782500", "195239.272500", "195240.762500", "195242.252500", "195243.742500", "195245.232500", "195246.722500", "195248.212500", "195249.702500", "195251.192500", "195252.682500", "195254.172500", "195255.662500", "195257.152500", "195258.642500", "195300.132500", "195301.622500", "195303.112500", "195304.602500", "195306.092500", "195307.582500", "195309.072500", "195310.562500", "195312.052500", "195313.542500", "195315.032500", "195316.522500", "195318.012500", "195319.502500", "195320.992500", "195322.482500", "195323.972500", "195325.462500", "195326.952500", "195328.442500", "195329.932500", "195331.422500", "195332.912500", "195334.402500", "195335.892500", "195337.382500", "195338.872500", "195340.362500", "195341.852500", "195343.342500", "195344.832500", "195346.322500", "195347.812500", "195349.302500", "195350.792500", "195352.282500", "195353.772500", "195355.262500", "195356.752500", "195358.242500", "195359.732500", "195401.222500", "195402.712500", "195404.202500", "195405.692500", "195407.182500", "195408.672500", "195410.162500", "195411.652500", "195413.142500", "195414.632500", "195416.122500", "195417.612500", "195419.102500", "195420.592500", "195422.082500", "195423.572500", "195425.062500", "195426.552500", "195428.042500", "195429.532500", "195431.022500", "195432.512500", "195434.002500", "195435.492500", "195436.982500", "195438.472500", "195439.962500", "195441.452500", "195442.942500", "195444.432500", "195445.922500", "195447.412500", "195448.902500", "195450.392500", "195451.882500", "195453.372500", "195454.862500", "195456.352500", "195457.842500", "195459.332500", "195500.822500", "195502.312500", "195503.802500", "195505.292500", "195506.782500", "195508.272500", "195509.762500", "195511.252500", "195512.742500", "195514.232500", "195515.722500", "195517.212500", "195518.702500", "195520.192500", "195521.682500", "195523.172500", "195524.662500", "195526.152500", "195527.642500", "195529.132500", "195530.622500", "195532.112500", "195533.602500", "195535.092500", "195536.582500", "195538.072500", "195539.562500", "195541.052500", "195542.542500", "195544.032500", "195545.522500", "195547.012500", "195548.502500", "195549.992500", "195551.482500", "195552.972500", "195554.462500", "195555.952500", "195557.442500", "195558.932500", "195600.422500", "195601.912500", "195603.402500", "195604.892500", "195606.382500", "195607.872500", "195609.362500", "195610.852500", "195612.342500", "195613.832500", "195615.322500", "195616.812500", "195618.302500", "195619.792500", "195621.282500", "195622.772500", "195624.262500", "195625.752500", "195627.242500", "195628.732500", "195630.222500", "195631.712500", "195633.202500", "195634.692500", "195636.182500", "195637.672500", "195639.162500", "195640.652500", "195642.142500", "195643.632500", "195645.122500", "195646.612500", "195648.102500", "195649.592500", "195651.082500", "195652.572500", "195654.062500", "195655.552500", "195657.042500", "195658.532500", "195700.022500", "195701.512500", "195703.002500", "195704.492500", "195705.982500", "195707.472500", "195708.962500", "195710.452500", "195711.942500", "195713.432500", "195714.922500", "195716.412500", "195717.902500", "195719.392500", "195720.882500", "195722.372500", "195723.862500", "195725.352500", "195726.842500", "195728.332500", "195729.822500", "195731.312500", "195732.802500", "195734.292500", "195735.782500", "195737.272500", "195738.762500", "195740.252500", "195741.742500", "195743.232500", "195744.722500", "195746.212500", "195747.702500", "195749.192500", "195750.682500", "195752.172500", "195753.662500", "195755.152500", "195756.642500", "195758.132500"],
      "ContentTime": ["195018.403000", "195018.406000", "195018.409000", "195018.411000", "195018.414000", "195018.425000", "195018.427000", "195018.430000", "195018.432000", "195018.435000", "195018.437000", "195018.440000", "195018.443000", "195018.445000", "195018.447000", "195018.450000", "195018.453000", "195018.455000", "195018.458000", "195018.460000", "195018.463000", "195018.465000", "195018.468000", "195018.470000", "195018.473000", "195018.475000", "195018.478000", "195018.480000", "195018.482000", "195018.485000", "195018.487000", "195038.298000", "195038.301000", "195038.303000", "195038.306000", "195038.308000", "195038.311000", "195038.313000", "195038.316000", "195038.318000", "195038.321000", "195038.323000", "195038.326000", "195038.328000", "195038.331000", "195038.333000", "195038.336000", "195038.339000", "195038.341000", "195038.343000", "195038.346000", "195058.285000", "195058.288000", "195058.291000", "195058.293000", "195058.296000", "195058.298000", "195058.301000", "195058.303000", "195058.306000", "195058.309000", "195058.311000", "195058.314000", "195058.316000", "195058.319000", "195058.321000", "195058.325000", "195058.328000", "195058.332000", "195058.335000", "195058.338000", "195118.290000", "195118.293000", "195118.295000", "195118.298000", "195118.301000", "195118.303000", "195118.306000", "195118.308000", "195118.311000", "195118.313000", "195118.316000", "195118.318000", "195118.321000", "195118.323000", "195118.326000", "195118.328000", "195118.331000", "195118.334000", "195118.336000", "195118.339000", "195158.328000", "195158.331000", "195158.333000", "195158.336000", "195158.338000", "195158.341000", "195158.343000", "195158.346000", "195158.348000", "195158.351000", "195158.354000", "195158.356000", "195158.359000", "195158.361000", "195158.364000", "195158.366000", "195158.369000", "195158.371000", "195158.374000", "195158.376000", "195158.379000", "195158.381000", "195158.384000", "195158.386000", "195158.389000", "195158.391000", "195158.394000", "195158.397000", "195158.399000", "195158.402000", "195238.329000", "195238.332000", "195238.335000", "195238.337000", "195238.340000", "195238.342000", "195238.345000", "195238.347000", "195238.350000", "195238.353000", "195238.355000", "195238.358000", "195238.360000", "195238.363000", "195238.365000", "195238.368000", "195238.370000", "195238.373000", "195238.375000", "195238.378000", "195238.380000", "195238.383000", "195238.385000", "195238.388000", "195238.391000", "195238.393000", "195238.396000", "195318.319000", "195318.322000", "195318.325000", "195318.327000", "195318.330000", "195318.332000", "195318.335000", "195318.337000", "195318.340000", "195318.342000", "195318.345000", "195318.347000", "195318.350000", "195318.353000", "195318.355000", "195318.358000", "195318.360000", "195318.363000", "195318.365000", "195318.368000", "195318.370000", "195318.373000", "195318.376000", "195318.378000", "195318.381000", "195318.383000", "195358.692000", "195358.695000", "195358.698000", "195358.700000", "195358.703000", "195358.705000", "195358.708000", "195358.711000", "195358.713000", "195358.716000", "195358.718000", "195358.721000", "195358.723000", "195358.726000", "195358.728000", "195358.731000", "195358.733000", "195358.736000", "195358.738000", "195358.741000", "195358.744000", "195358.746000", "195358.749000", "195358.751000", "195358.754000", "195358.756000", "195358.759000", "195438.323000", "195438.326000", "195438.329000", "195438.331000", "195438.334000", "195438.336000", "195438.339000", "195438.341000", "195438.344000", "195438.346000", "195438.349000", "195438.351000", "195438.354000", "195438.356000", "195438.359000", "195438.362000", "195438.364000", "195438.367000", "195438.369000", "195438.372000", "195438.374000", "195438.377000", "195438.379000", "195438.382000", "195438.385000", "195438.388000", "195438.390000", "195518.325000", "195518.328000", "195518.331000", "195518.333000", "195518.336000", "195518.338000", "195518.341000", "195518.343000", "195518.346000", "195518.348000", "195518.351000", "195518.354000", "195518.356000", "195518.359000", "195518.361000", "195518.364000", "195518.366000", "195518.369000", "195518.371000", "195518.374000", "195518.376000", "195518.379000", "195518.381000", "195518.384000", "195518.388000", "195518.390000", "195518.393000", "195558.317000", "195558.320000", "195558.322000", "195558.325000", "195558.327000", "195558.337000", "195558.339000", "195558.342000", "195558.344000", "195558.347000", "195558.349000", "195558.352000", "195558.354000", "195558.357000", "195558.359000", "195558.362000", "195558.364000", "195558.367000", "195558.370000", "195558.372000", "195558.375000", "195558.377000", "195558.380000", "195558.382000", "195558.385000", "195558.387000", "195558.390000", "195638.319000", "195638.322000", "195638.325000", "195638.327000", "195638.330000", "195638.332000", "195638.335000", "195638.337000", "195638.340000", "195638.342000", "195638.345000", "195638.347000", "195638.350000", "195638.352000", "195638.355000", "195638.358000", "195638.360000", "195638.363000", "195638.365000", "195638.368000", "195638.370000", "195638.373000", "195638.375000", "195638.378000", "195638.381000", "195638.383000", "195638.385000", "195718.350000", "195718.353000", "195718.355000", "195718.358000", "195718.373000", "195718.376000", "195718.378000", "195718.381000", "195718.383000", "195718.386000", "195718.388000", "195718.391000", "195718.393000", "195718.396000", "195718.398000", "195718.401000", "195718.403000", "195718.406000", "195718.409000", "195718.411000", "195718.414000", "195718.416000", "195718.419000", "195718.421000", "195718.424000", "195718.426000", "195758.318000", "195758.321000", "195758.323000", "195758.326000", "195758.328000", "195758.331000", "195758.334000", "195758.336000", "195758.339000", "195758.341000", "195758.344000", "195758.346000", "195758.349000", "195758.351000", "195758.354000", "195758.356000", "195758.359000", "195758.362000", "195758.364000", "195758.367000", "195758.369000", "195758.372000", "195758.375000", "195758.378000", "195758.380000", "195758.383000", "195758.386000", "195800.228000", "195800.231000"],
      "InstanceCreationTime": ["195018.403000", "195018.406000", "195018.409000", "195018.411000", "195018.414000", "195018.425000", "195018.427000", "195018.430000", "195018.432000", "195018.435000", "195018.437000", "195018.440000", "195018.443000", "195018.445000", "195018.447000", "195018.450000", "195018.453000", "195018.455000", "195018.458000", "195018.460000", "195018.463000", "195018.465000", "195018.468000", "195018.470000", "195018.473000", "195018.475000", "195018.478000", "195018.480000", "195018.482000", "195018.485000", "195018.487000", "195038.298000", "195038.301000", "195038.303000", "195038.306000", "195038.308000", "195038.311000", "195038.313000", "195038.316000", "195038.318000", "195038.321000", "195038.323000", "195038.326000", "195038.328000", "195038.331000", "195038.333000", "195038.336000", "195038.339000", "195038.341000", "195038.343000", "195038.346000", "195058.285000", "195058.288000", "195058.291000", "195058.293000", "195058.296000", "195058.298000", "195058.301000", "195058.303000", "195058.306000", "195058.309000", "195058.311000", "195058.314000", "195058.316000", "195058.319000", "195058.321000", "195058.325000", "195058.328000", "195058.332000", "195058.335000", "195058.338000", "195118.290000", "195118.293000", "195118.295000", "195118.298000", "195118.301000", "195118.303000", "195118.306000", "195118.308000", "195118.311000", "195118.313000", "195118.316000", "195118.318000", "195118.321000", "195118.323000", "195118.326000", "195118.328000", "195118.331000", "195118.334000", "195118.336000", "195118.339000", "195158.328000", "195158.331000", "195158.333000", "195158.336000", "195158.338000", "195158.341000", "195158.343000", "195158.346000", "195158.348000", "195158.351000", "195158.354000", "195158.356000", "195158.359000", "195158.361000", "195158.364000", "195158.366000", "195158.369000", "195158.371000", "195158.374000", "195158.376000", "195158.379000", "195158.381000", "195158.384000", "195158.386000", "195158.389000", "195158.391000", "195158.394000", "195158.397000", "195158.399000", "195158.402000", "195238.329000", "195238.332000", "195238.335000", "195238.337000", "195238.340000", "195238.342000", "195238.345000", "195238.347000", "195238.350000", "195238.353000", "195238.355000", "195238.358000", "195238.360000", "195238.363000", "195238.365000", "195238.368000", "195238.370000", "195238.373000", "195238.375000", "195238.378000", "195238.380000", "195238.383000", "195238.385000", "195238.388000", "195238.391000", "195238.393000", "195238.396000", "195318.319000", "195318.322000", "195318.325000", "195318.327000", "195318.330000", "195318.332000", "195318.335000", "195318.337000", "195318.340000", "195318.342000", "195318.345000", "195318.347000", "195318.350000", "195318.353000", "195318.355000", "195318.358000", "195318.360000", "195318.363000", "195318.365000", "195318.368000", "195318.370000", "195318.373000", "195318.376000", "195318.378000", "195318.381000", "195318.383000", "195358.692000", "195358.695000", "195358.698000", "195358.700000", "195358.703000", "195358.705000", "195358.708000", "195358.711000", "195358.713000", "195358.716000", "195358.718000", "195358.721000", "195358.723000", "195358.726000", "195358.728000", "195358.731000", "195358.733000", "195358.736000", "195358.738000", "195358.741000", "195358.744000", "195358.746000", "195358.749000", "195358.751000", "195358.754000", "195358.756000", "195358.759000", "195438.323000", "195438.326000", "195438.329000", "195438.331000", "195438.334000", "195438.336000", "195438.339000", "195438.341000", "195438.344000", "195438.346000", "195438.349000", "195438.351000", "195438.354000", "195438.356000", "195438.359000", "195438.362000", "195438.364000", "195438.367000", "195438.369000", "195438.372000", "195438.374000", "195438.377000", "195438.379000", "195438.382000", "195438.385000", "195438.388000", "195438.390000", "195518.325000", "195518.328000", "195518.331000", "195518.333000", "195518.336000", "195518.338000", "195518.341000", "195518.343000", "195518.346000", "195518.348000", "195518.351000", "195518.354000", "195518.356000", "195518.359000", "195518.361000", "195518.364000", "195518.366000", "195518.369000", "195518.371000", "195518.374000", "195518.376000", "195518.379000", "195518.381000", "195518.384000", "195518.388000", "195518.390000", "195518.393000", "195558.317000", "195558.320000", "195558.322000", "195558.325000", "195558.327000", "195558.337000", "195558.339000", "195558.342000", "195558.344000", "195558.347000", "195558.349000", "195558.352000", "195558.354000", "195558.357000", "195558.359000", "195558.362000", "195558.364000", "195558.367000", "195558.370000", "195558.372000", "195558.375000", "195558.377000", "195558.380000", "195558.382000", "195558.385000", "195558.387000", "195558.390000", "195638.319000", "195638.322000", "195638.325000", "195638.327000", "195638.330000", "195638.332000", "195638.335000", "195638.337000", "195638.340000", "195638.342000", "195638.345000", "195638.347000", "195638.350000", "195638.352000", "195638.355000", "195638.358000", "195638.360000", "195638.363000", "195638.365000", "195638.368000", "195638.370000", "195638.373000", "195638.375000", "195638.378000", "195638.381000", "195638.383000", "195638.385000", "195718.350000", "195718.353000", "195718.355000", "195718.358000", "195718.373000", "195718.376000", "195718.378000", "195718.381000", "195718.383000", "195718.386000", "195718.388000", "195718.391000", "195718.393000", "195718.396000", "195718.398000", "195718.401000", "195718.403000", "195718.406000", "195718.409000", "195718.411000", "195718.414000", "195718.416000", "195718.419000", "195718.421000", "195718.424000", "195718.426000", "195758.318000", "195758.321000", "195758.323000", "195758.326000", "195758.328000", "195758.331000", "195758.334000", "195758.336000", "195758.339000", "195758.341000", "195758.344000", "195758.346000", "195758.349000", "195758.351000", "195758.354000", "195758.356000", "195758.359000", "195758.362000", "195758.364000", "195758.367000", "195758.369000", "195758.372000", "195758.375000", "195758.378000", "195758.380000", "195758.383000", "195758.386000", "195800.228000", "195800.231000"],
      "InstanceNumber": [1, 2, 3, 4, 5, 6, 7, 8, 9, 10, 11, 12, 13, 14, 15, 16, 17, 18, 19, 20, 21, 22, 23, 24, 25, 26, 27, 28, 29, 30, 31, 32, 33, 34, 35, 36, 37, 38, 39, 40, 41, 42, 43, 44, 45, 46, 47, 48, 49, 50, 51, 52, 53, 54, 55, 56, 57, 58, 59, 60, 61, 62, 63, 64, 65, 66, 67, 68, 69, 70, 71, 72, 73, 74, 75, 76, 77, 78, 79, 80, 81, 82, 83, 84, 85, 86, 87, 88, 89, 90, 91, 92, 93, 94, 95, 96, 97, 98, 99, 100, 101, 102, 103, 104, 105, 106, 107, 108, 109, 110, 111, 112, 113, 114, 115, 116, 117, 118, 119, 120, 121, 122, 123, 124, 125, 126, 127, 128, 129, 130, 131, 132, 133, 134, 135, 136, 137, 138, 139, 140, 141, 142, 143, 144, 145, 146, 147, 148, 149, 150, 151, 152, 153, 154, 155, 156, 157, 158, 159, 160, 161, 162, 163, 164, 165, 166, 167, 168, 169, 170, 171, 172, 173, 174, 175, 176, 177, 178, 179, 180, 181, 182, 183, 184, 185, 186, 187, 188, 189, 190, 191, 192, 193, 194, 195, 196, 197, 198, 199, 200, 201, 202, 203, 204, 205, 206, 207, 208, 209, 210, 211, 212, 213, 214, 215, 216, 217, 218, 219, 220, 221, 222, 223, 224, 225, 226, 227, 228, 229, 230, 231, 232, 233, 234, 235, 236, 237, 238, 239, 240, 241, 242, 243, 244, 245, 246, 247, 248, 249, 250, 251, 252, 253, 254, 255, 256, 257, 258, 259, 260, 261, 262, 263, 264, 265, 266, 267, 268, 269, 270, 271, 272, 273, 274, 275, 276, 277, 278, 279, 280, 281, 282, 283, 284, 285, 286, 287, 288, 289, 290, 291, 292, 293, 294, 295, 296, 297, 298, 299, 300, 301, 302, 303, 304, 305, 306, 307, 308, 309, 310, 311, 312, 313, 314, 315, 316, 317, 318, 319, 320, 321, 322, 323, 324, 325, 326, 327, 328, 329, 330, 331, 332, 333, 334, 335, 336, 337, 338, 339, 340, 341, 342, 343, 344, 345, 346, 347, 348, 349, 350, 351, 352, 353, 354, 355, 356, 357, 358, 359, 360, 361, 362, 363, 364],
