{
  "AcquisitionMatrixPE": 104,
  "AcquisitionNumber": 1,
  "AcquisitionTime": "16:02:38.567500",
  "BandwidthPerPixelPhaseEncode": 17.17,
  "BaseResolution": 104,
  "BodyPartExamined": "BRAIN",
  "CoilCombinationMethod": "Sum of Squares",
  "ConsistencyInfo": "N4_VE11C_LATEST_20160120",
  "ConversionSoftware": "dcm2niix",
  "ConversionSoftwareVersion": "v1.0.20220505",
  "DerivedVendorReportedEchoSpacing": 0.000560011,
  "DeviceSerialNumber": "167006",
  "DwellTime": 2.1e-06,
  "EchoTime": 0.037,
  "EchoTime1": 0.037,
  "EchoTime2": 0.001,
  "EchoTrainLength": 104,
  "EffectiveEchoSpacing": 0.000560011,
  "FlipAngle": 52,
  "HeudiconvVersion": "0.5.3.post811+g6206e14",
  "ImageComments": "Unaliased MB4/PE3/LB",
  "ImageOrientationPatientDICOM": [0.999261, -0.0333538, 0.0191044, 0.0378637, 0.939719, -0.339846],
  "ImageOrientationText": "Tra>Cor(-19.9)>Sag(0.4)",
  "ImageType": [
    "ORIGINAL",
    "PRIMARY",
    "P",
    "MB",
    "ND",
    "MOSAIC",
    "PHASE"
],
  "ImagingFrequency": 123.259,
  "InPlanePhaseEncodingDirectionDICOM": "COL",
  "InstitutionAddress": "Chemin Queen-Mary 4565,Montreal,District,CA,H3W 1W5",
  "InstitutionName": "IUGM",
  "InstitutionalDepartmentName": "Department",
  "MRAcquisitionType": "2D",
  "MagneticFieldStrength": 3,
  "Manufacturer": "Siemens",
  "ManufacturersModelName": "Prisma_fit",
  "MatrixCoilMode": "SENSE",
  "Modality": "MR",
  "MultibandAccelerationFactor": 4,
  "PartialFourier": 1,
  "PatientPosition": "HFS",
  "PercentPhaseFOV": 100,
  "PercentSampling": 100,
  "PhaseEncodingDirection": "j",
  "PhaseEncodingSteps": 104,
  "PhaseResolution": 1,
  "PixelBandwidth": 2290,
  "ProcedureStepDescription": "games^mario3",
  "ProtocolName": "func_task-mario3_run-01",
  "PulseSequenceDetails": "%CustomerSeq%\\cmrr_mbep2d_bold",
  "ReceiveCoilActiveElements": "HC1-7;NC1,2",
  "ReceiveCoilName": "HeadNeck_64",
  "ReconMatrixPE": 104,
  "RepetitionTime": 1.49,
  "SAR": 0.055255,
  "ScanOptions": "FS",
  "ScanningSequence": "EP",
  "SequenceName": "epfid2d1_104",
  "SequenceVariant": "SK\\SS",
  "SeriesDescription": "func_task-mario3_run-01",
  "SeriesNumber": 11,
  "ShimSetting": [589, -7288, -8814, 517, 42, -287, -163, 57],
  "SliceThickness": 2,
  "SliceTiming": [0, 0.7825, 0.0975, 0.88, 0.195, 0.98, 0.2925, 1.0775, 0.39, 1.175, 0.49, 1.2725, 0.5875, 1.37, 0.685, 0, 0.7825, 0.0975, 0.88, 0.195, 0.98, 0.2925, 1.0775, 0.39, 1.175, 0.49, 1.2725, 0.5875, 1.37, 0.685, 0, 0.7825, 0.0975, 0.88, 0.195, 0.98, 0.2925, 1.0775, 0.39, 1.175, 0.49, 1.2725, 0.5875, 1.37, 0.685, 0, 0.7825, 0.0975, 0.88, 0.195, 0.98, 0.2925, 1.0775, 0.39, 1.175, 0.49, 1.2725, 0.5875, 1.37, 0.685],
  "SoftwareVersions": "syngo MR E11",
  "SpacingBetweenSlices": 2,
  "StationName": "MRC35049",
  "TaskName": "mario3",
  "TotalReadoutTime": 0.0576811,
  "TxRefAmp": 241.173,
  "WipMemBlock": "37714b2f-e6c8-4e30-83f5-48765fe66e0e||Sequence: R017 ve11c/master r/75a17815+; Jun 28 2022 16:32:11 by eja",
  "dcmmeta_affine": [
    [-1.9985220432281494, 0.07572740316390991, 0.013235163874924183, 103.80171966552734],
    [0.06670759618282318, 1.8794374465942383, -0.6806355714797974, -68.4758071899414],
    [0.03820871561765671, 0.6796911358833313, 1.8805744647979736, -64.08352661132812],
    [0.0, 0.0, 0.0, 1.0]
],
  "dcmmeta_reorient_transform": [
    [0.0, -1.0, 0.0, 103.0],
    [1.0, 0.0, 0.0, 0.0],
    [0.0, 0.0, 1.0, 0.0],
    [0.0, 0.0, 0.0, 1.0]
],
  "dcmmeta_shape": [104, 104, 60, 332],
  "dcmmeta_slice_dim": 2,
  "dcmmeta_version": 0.6,
  "global": {
    "const": {
      "AcquisitionMatrix": [104, 0, 0, 104],
      "AngioFlag": "N",
      "BitsAllocated": 16,
      "BitsStored": 16,
      "BodyPartExamined": "BRAIN",
      "Columns": 832,
      "EchoNumbers": 1,
      "EchoTime": 37.0,
      "EchoTrainLength": 104,
      "FlipAngle": 52.0,
      "HighBit": 15,
      "ImageOrientationPatient": [0.99926100074527, -0.0333537991531, 0.01910435739891, 0.03786370292548, 0.93971874922521, -0.3398455713341],
      "ImagePositionPatient": [-866.62842675767, -784.93993777643, 239.4242673561],
      "ImageType": [
        "ORIGINAL",
        "PRIMARY",
        "P",
        "MB",
        "ND",
        "MOSAIC"
],
      "ImagedNucleus": "1H",
      "ImagingFrequency": 123.259048,
      "InPlanePhaseEncodingDirection": "COL",
      "LargestImagePixelValue": 4095,
      "MRAcquisitionType": "2D",
      "MagneticFieldStrength": 3.0,
      "Manufacturer": "SIEMENS",
      "ManufacturerModelName": "Prisma_fit",
      "Modality": "MR",
      "NumberOfAverages": 1.0,
      "NumberOfPhaseEncodingSteps": 104,
      "PercentPhaseFieldOfView": 100.0,
      "PercentSampling": 100.0,
      "PerformedProcedureStepStartTime": "155737.296000",
      "PhotometricInterpretation": "MONOCHROME2",
      "PixelBandwidth": 2290.0,
      "PixelRepresentation": 0,
      "PixelSpacing": [2.0, 2.0],
      "ProtocolName": "func_task-mario3_run-01",
      "RepetitionTime": 1490.0,
      "RescaleIntercept": -4096.0,
      "RescaleSlope": 2.0,
      "RescaleType": "US",
      "Rows": 832,
      "SAR": 0.05525499147013,
      "SamplesPerPixel": 1,
      "ScanOptions": "FS",
      "ScanningSequence": "EP",
      "SequenceName": "epfid2d1_104",
      "SequenceVariant": [
        "SK",
        "SS"
],
      "SeriesDescription": "func_task-mario3_run-01",
      "SeriesNumber": 11,
      "SeriesTime": "160356.648000",
      "SliceLocation": -36.266465250793,
      "SliceThickness": 2.0,
      "SmallestImagePixelValue": 0,
      "SoftwareVersions": "syngo MR E11",
      "SpacingBetweenSlices": 2.0000000438609,
      "SpecificCharacterSet": "ISO_IR 100",
      "StudyID": "1",
      "StudyTime": "155737.223000",
      "TransmitCoilName": "Body",
      "VariableFlipAngleFlag": "N",
      "WindowCenterWidthExplanation": "Algo1",
      "dBdt": 0.0},
    "slices": {}
  },
  "time": {
    "samples": {
      "AcquisitionNumber": [1, 2, 3, 4, 5, 6, 7, 8, 9, 10, 11, 12, 13, 14, 15, 16, 17, 18, 19, 20, 21, 22, 23, 24, 25, 26, 27, 28, 29, 30, 31, 32, 33, 34, 35, 36, 37, 38, 39, 40, 41, 42, 43, 44, 45, 46, 47, 48, 49, 50, 51, 52, 53, 54, 55, 56, 57, 58, 59, 60, 61, 62, 63, 64, 65, 66, 67, 68, 69, 70, 71, 72, 73, 74, 75, 76, 77, 78, 79, 80, 81, 82, 83, 84, 85, 86, 87, 88, 89, 90, 91, 92, 93, 94, 95, 96, 97, 98, 99, 100, 101, 102, 103, 104, 105, 106, 107, 108, 109, 110, 111, 112, 113, 114, 115, 116, 117, 118, 119, 120, 121, 122, 123, 124, 125, 126, 127, 128, 129, 130, 131, 132, 133, 134, 135, 136, 137, 138, 139, 140, 141, 142, 143, 144, 145, 146, 147, 148, 149, 150, 151, 152, 153, 154, 155, 156, 157, 158, 159, 160, 161, 162, 163, 164, 165, 166, 167, 168, 169, 170, 171, 172, 173, 174, 175, 176, 177, 178, 179, 180, 181, 182, 183, 184, 185, 186, 187, 188, 189, 190, 191, 192, 193, 194, 195, 196, 197, 198, 199, 200, 201, 202, 203, 204, 205, 206, 207, 208, 209, 210, 211, 212, 213, 214, 215, 216, 217, 218, 219, 220, 221, 222, 223, 224, 225, 226, 227, 228, 229, 230, 231, 232, 233, 234, 235, 236, 237, 238, 239, 240, 241, 242, 243, 244, 245, 246, 247, 248, 249, 250, 251, 252, 253, 254, 255, 256, 257, 258, 259, 260, 261, 262, 263, 264, 265, 266, 267, 268, 269, 270, 271, 272, 273, 274, 275, 276, 277, 278, 279, 280, 281, 282, 283, 284, 285, 286, 287, 288, 289, 290, 291, 292, 293, 294, 295, 296, 297, 298, 299, 300, 301, 302, 303, 304, 305, 306, 307, 308, 309, 310, 311, 312, 313, 314, 315, 316, 317, 318, 319, 320, 321, 322, 323, 324, 325, 326, 327, 328, 329, 330, 331, 332],
      "AcquisitionTime": ["160238.567500", "160240.057500", "160241.547500", "160243.037500", "160244.527500", "160246.017500", "160247.507500", "160248.997500", "160250.487500", "160251.977500", "160253.467500", "160254.957500", "160256.447500", "160257.937500", "160259.427500", "160300.917500", "160302.407500", "160303.897500", "160305.387500", "160306.877500", "160308.367500", "160309.857500", "160311.347500", "160312.837500", "160314.327500", "160315.817500", "160317.307500", "160318.797500", "160320.287500", "160321.777500", "160323.267500", "160324.757500", "160326.247500", "160327.737500", "160329.227500", "160330.717500", "160332.207500", "160333.697500", "160335.187500", "160336.677500", "160338.167500", "160339.657500", "160341.147500", "160342.637500", "160344.127500", "160345.617500", "160347.107500", "160348.597500", "160350.087500", "160351.577500", "160353.067500", "160354.557500", "160356.047500", "160357.537500", "160359.027500", "160400.517500", "160402.007500", "160403.497500", "160404.987500", "160406.477500", "160407.967500", "160409.457500", "160410.947500", "160412.437500", "160413.927500", "160415.417500", "160416.907500", "160418.397500", "160419.887500", "160421.377500", "160422.867500", "160424.357500", "160425.847500", "160427.337500", "160428.827500", "160430.317500", "160431.807500", "160433.297500", "160434.787500", "160436.277500", "160437.767500", "160439.257500", "160440.747500", "160442.237500", "160443.727500", "160445.217500", "160446.707500", "160448.197500", "160449.687500", "160451.177500", "160452.667500", "160454.157500", "160455.647500", "160457.137500", "160458.627500", "160500.117500", "160501.607500", "160503.097500", "160504.587500", "160506.077500", "160507.567500", "160509.057500", "160510.547500", "160512.037500", "160513.527500", "160515.017500", "160516.507500", "160517.997500", "160519.487500", "160520.977500", "160522.467500", "160523.957500", "160525.447500", "160526.937500", "160528.427500", "160529.917500", "160531.407500", "160532.897500", "160534.387500", "160535.877500", "160537.367500", "160538.857500", "160540.347500", "160541.837500", "160543.327500", "160544.817500", "160546.307500", "160547.797500", "160549.287500", "160550.777500", "160552.267500", "160553.757500", "160555.247500", "160556.737500", "160558.227500", "160559.717500", "160601.207500", "160602.697500", "160604.187500", "160605.677500", "160607.167500", "160608.657500", "160610.147500", "160611.637500", "160613.127500", "160614.617500", "160616.107500", "160617.597500", "160619.087500", "160620.577500", "160622.067500", "160623.557500", "160625.047500", "160626.537500", "160628.027500", "160629.517500", "160631.007500", "160632.497500", "160633.987500", "160635.477500", "160636.967500", "160638.457500", "160639.947500", "160641.437500", "160642.927500", "160644.417500", "160645.907500", "160647.397500", "160648.887500", "160650.377500", "160651.867500", "160653.357500", "160654.847500", "160656.337500", "160657.827500", "160659.317500", "160700.807500", "160702.297500", "160703.787500", "160705.277500", "160706.767500", "160708.257500", "160709.747500", "160711.237500", "160712.727500", "160714.217500", "160715.707500", "160717.197500", "160718.687500", "160720.177500", "160721.667500", "160723.157500", "160724.647500", "160726.137500", "160727.627500", "160729.117500", "160730.607500", "160732.097500", "160733.587500", "160735.077500", "160736.567500", "160738.057500", "160739.547500", "160741.037500", "160742.527500", "160744.017500", "160745.507500", "160746.997500", "160748.487500", "160749.977500", "160751.467500", "160752.957500", "160754.447500", "160755.937500", "160757.427500", "160758.917500", "160800.407500", "160801.897500", "160803.387500", "160804.877500", "160806.367500", "160807.857500", "160809.347500", "160810.837500", "160812.327500", "160813.817500", "160815.307500", "160816.797500", "160818.287500", "160819.777500", "160821.267500", "160822.757500", "160824.247500", "160825.737500", "160827.227500", "160828.717500", "160830.207500", "160831.697500", "160833.187500", "160834.677500", "160836.167500", "160837.657500", "160839.147500", "160840.637500", "160842.127500", "160843.617500", "160845.107500", "160846.597500", "160848.087500", "160849.577500", "160851.067500", "160852.557500", "160854.047500", "160855.537500", "160857.027500", "160858.517500", "160900.007500", "160901.497500", "160902.987500", "160904.477500", "160905.967500", "160907.457500", "160908.947500", "160910.437500", "160911.927500", "160913.417500", "160914.907500", "160916.397500", "160917.887500", "160919.377500", "160920.867500", "160922.357500", "160923.847500", "160925.337500", "160926.827500", "160928.317500", "160929.807500", "160931.297500", "160932.787500", "160934.277500", "160935.767500", "160937.257500", "160938.747500", "160940.237500", "160941.727500", "160943.217500", "160944.707500", "160946.197500", "160947.687500", "160949.177500", "160950.667500", "160952.157500", "160953.647500", "160955.137500", "160956.627500", "160958.117500", "160959.607500", "161001.097500", "161002.587500", "161004.077500", "161005.567500", "161007.057500", "161008.547500", "161010.037500", "161011.527500", "161013.017500", "161014.507500", "161015.997500", "161017.487500", "161018.977500", "161020.467500", "161021.957500", "161023.447500", "161024.937500", "161026.427500", "161027.917500", "161029.407500", "161030.897500", "161032.387500", "161033.877500", "161035.367500", "161036.857500", "161038.347500", "161039.837500", "161041.327500", "161042.817500", "161044.307500", "161045.797500", "161047.287500", "161048.777500", "161050.267500", "161051.757500"],
      "ContentTime": ["160356.650000", "160356.653000", "160356.656000", "160356.658000", "160356.661000", "160356.663000", "160356.666000", "160356.668000", "160356.670000", "160356.673000", "160356.675000", "160356.678000", "160356.680000", "160356.683000", "160356.685000", "160356.688000", "160356.690000", "160356.693000", "160356.695000", "160356.698000", "160356.700000", "160356.703000", "160356.705000", "160356.708000", "160356.710000", "160356.713000", "160356.715000", "160356.726000", "160416.602000", "160416.604000", "160416.607000", "160416.609000", "160416.612000", "160416.614000", "160416.617000", "160416.619000", "160416.622000", "160416.624000", "160416.627000", "160416.629000", "160416.632000", "160416.634000", "160416.637000", "160416.639000", "160416.642000", "160416.644000", "160416.646000", "160416.649000", "160436.566000", "160436.569000", "160436.571000", "160436.574000", "160436.577000", "160436.579000", "160436.582000", "160436.584000", "160436.587000", "160436.589000", "160436.600000", "160436.602000", "160436.605000", "160436.607000", "160436.610000", "160436.612000", "160436.615000", "160436.617000", "160436.620000", "160436.622000", "160436.625000", "160456.583000", "160456.586000", "160456.588000", "160456.591000", "160456.594000", "160456.596000", "160456.598000", "160456.601000", "160456.603000", "160456.606000", "160456.609000", "160456.611000", "160456.613000", "160456.616000", "160456.618000", "160456.621000", "160456.623000", "160456.626000", "160456.628000", "160456.631000", "160536.614000", "160536.617000", "160536.619000", "160536.622000", "160536.624000", "160536.627000", "160536.629000", "160536.632000", "160536.634000", "160536.644000", "160536.646000", "160536.649000", "160536.651000", "160536.653000", "160536.656000", "160536.658000", "160536.661000", "160536.663000", "160536.666000", "160536.669000", "160536.671000", "160536.673000", "160536.676000", "160536.678000", "160536.681000", "160536.683000", "160536.686000", "160536.688000", "160536.691000", "160616.599000", "160616.601000", "160616.604000", "160616.606000", "160616.609000", "160616.611000", "160616.614000", "160616.616000", "160616.619000", "160616.621000", "160616.624000", "160616.626000", "160616.629000", "160616.631000", "160616.634000", "160616.636000", "160616.639000", "160616.641000", "160616.644000", "160616.646000", "160616.649000", "160616.651000", "160616.654000", "160616.657000", "160616.659000", "160616.662000", "160616.664000", "160657.017000", "160657.020000", "160657.022000", "160657.025000", "160657.027000", "160657.030000", "160657.032000", "160657.035000", "160657.037000", "160657.040000", "160657.042000", "160657.045000", "160657.047000", "160657.050000", "160657.052000", "160657.055000", "160657.057000", "160657.060000", "160657.062000", "160657.065000", "160657.067000", "160657.070000", "160657.072000", "160657.075000", "160657.077000", "160657.080000", "160657.082000", "160736.597000", "160736.600000", "160736.603000", "160736.605000", "160736.608000", "160736.610000", "160736.613000", "160736.615000", "160736.618000", "160736.620000", "160736.623000", "160736.625000", "160736.628000", "160736.630000", "160736.633000", "160736.635000", "160736.638000", "160736.640000", "160736.643000", "160736.645000", "160736.648000", "160736.650000", "160736.653000", "160736.655000", "160736.658000", "160736.660000", "160736.663000", "160816.611000", "160816.613000", "160816.616000", "160816.618000", "160816.629000", "160816.631000", "160816.633000", "160816.636000", "160816.638000", "160816.641000", "160816.643000", "160816.646000", "160816.649000", "160816.651000", "160816.654000", "160816.656000", "160816.659000", "160816.661000", "160816.664000", "160816.666000", "160816.669000", "160816.671000", "160816.674000", "160816.676000", "160816.679000", "160816.681000", "160816.684000", "160856.607000", "160856.610000", "160856.612000", "160856.615000", "160856.617000", "160856.620000", "160856.622000", "160856.625000", "160856.627000", "160856.630000", "160856.633000", "160856.635000", "160856.638000", "160856.640000", "160856.643000", "160856.645000", "160856.648000", "160856.650000", "160856.653000", "160856.655000", "160856.658000", "160856.660000", "160856.663000", "160856.665000", "160856.668000", "160856.670000", "160936.603000", "160936.606000", "160936.608000", "160936.611000", "160936.613000", "160936.616000", "160936.627000", "160936.629000", "160936.632000", "160936.634000", "160936.637000", "160936.639000", "160936.642000", "160936.644000", "160936.647000", "160936.649000", "160936.653000", "160936.656000", "160936.658000", "160936.661000", "160936.663000", "160936.666000", "160936.668000", "160936.671000", "160936.674000", "160936.676000", "160936.679000", "161016.611000", "161016.614000", "161016.617000", "161016.619000", "161016.622000", "161016.624000", "161016.627000", "161016.629000", "161016.632000", "161016.634000", "161016.637000", "161016.639000", "161016.642000", "161016.644000", "161016.647000", "161016.649000", "161016.652000", "161016.654000", "161016.657000", "161016.659000", "161016.662000", "161016.664000", "161016.667000", "161016.669000", "161016.672000", "161016.674000", "161016.677000", "161055.512000", "161055.515000", "161055.518000", "161055.520000", "161055.522000", "161055.525000", "161055.527000", "161055.530000", "161055.540000", "161055.542000", "161055.545000", "161055.547000", "161055.550000", "161055.552000", "161055.554000", "161055.557000", "161055.559000", "161055.562000", "161055.565000", "161055.567000", "161055.570000", "161055.572000", "161055.575000", "161055.578000", "161055.580000", "161055.583000"],
      "InstanceCreationTime": ["160356.650000", "160356.653000", "160356.656000", "160356.658000", "160356.661000", "160356.663000", "160356.666000", "160356.668000", "160356.670000", "160356.673000", "160356.675000", "160356.678000", "160356.680000", "160356.683000", "160356.685000", "160356.688000", "160356.690000", "160356.693000", "160356.695000", "160356.698000", "160356.700000", "160356.703000", "160356.705000", "160356.708000", "160356.710000", "160356.713000", "160356.715000", "160356.726000", "160416.602000", "160416.604000", "160416.607000", "160416.609000", "160416.612000", "160416.614000", "160416.617000", "160416.619000", "160416.622000", "160416.624000", "160416.627000", "160416.629000", "160416.632000", "160416.634000", "160416.637000", "160416.639000", "160416.642000", "160416.644000", "160416.646000", "160416.649000", "160436.566000", "160436.569000", "160436.571000", "160436.574000", "160436.577000", "160436.579000", "160436.582000", "160436.584000", "160436.587000", "160436.589000", "160436.600000", "160436.602000", "160436.605000", "160436.607000", "160436.610000", "160436.612000", "160436.615000", "160436.617000", "160436.620000", "160436.622000", "160436.625000", "160456.583000", "160456.586000", "160456.588000", "160456.591000", "160456.594000", "160456.596000", "160456.598000", "160456.601000", "160456.603000", "160456.606000", "160456.609000", "160456.611000", "160456.613000", "160456.616000", "160456.618000", "160456.621000", "160456.623000", "160456.626000", "160456.628000", "160456.631000", "160536.614000", "160536.617000", "160536.619000", "160536.622000", "160536.624000", "160536.627000", "160536.629000", "160536.632000", "160536.634000", "160536.644000", "160536.646000", "160536.649000", "160536.651000", "160536.653000", "160536.656000", "160536.658000", "160536.661000", "160536.663000", "160536.666000", "160536.669000", "160536.671000", "160536.673000", "160536.676000", "160536.678000", "160536.681000", "160536.683000", "160536.686000", "160536.688000", "160536.691000", "160616.599000", "160616.601000", "160616.604000", "160616.606000", "160616.609000", "160616.611000", "160616.614000", "160616.616000", "160616.619000", "160616.621000", "160616.624000", "160616.626000", "160616.629000", "160616.631000", "160616.634000", "160616.636000", "160616.639000", "160616.641000", "160616.644000", "160616.646000", "160616.649000", "160616.651000", "160616.654000", "160616.657000", "160616.659000", "160616.662000", "160616.664000", "160657.017000", "160657.020000", "160657.022000", "160657.025000", "160657.027000", "160657.030000", "160657.032000", "160657.035000", "160657.037000", "160657.040000", "160657.042000", "160657.045000", "160657.047000", "160657.050000", "160657.052000", "160657.055000", "160657.057000", "160657.060000", "160657.062000", "160657.065000", "160657.067000", "160657.070000", "160657.072000", "160657.075000", "160657.077000", "160657.080000", "160657.082000", "160736.597000", "160736.600000", "160736.603000", "160736.605000", "160736.608000", "160736.610000", "160736.613000", "160736.615000", "160736.618000", "160736.620000", "160736.623000", "160736.625000", "160736.628000", "160736.630000", "160736.633000", "160736.635000", "160736.638000", "160736.640000", "160736.643000", "160736.645000", "160736.648000", "160736.650000", "160736.653000", "160736.655000", "160736.658000", "160736.660000", "160736.663000", "160816.611000", "160816.613000", "160816.616000", "160816.618000", "160816.629000", "160816.631000", "160816.633000", "160816.636000", "160816.638000", "160816.641000", "160816.643000", "160816.646000", "160816.649000", "160816.651000", "160816.654000", "160816.656000", "160816.659000", "160816.661000", "160816.664000", "160816.666000", "160816.669000", "160816.671000", "160816.674000", "160816.676000", "160816.679000", "160816.681000", "160816.684000", "160856.607000", "160856.610000", "160856.612000", "160856.615000", "160856.617000", "160856.620000", "160856.622000", "160856.625000", "160856.627000", "160856.630000", "160856.633000", "160856.635000", "160856.638000", "160856.640000", "160856.643000", "160856.645000", "160856.648000", "160856.650000", "160856.653000", "160856.655000", "160856.658000", "160856.660000", "160856.663000", "160856.665000", "160856.668000", "160856.670000", "160936.603000", "160936.606000", "160936.608000", "160936.611000", "160936.613000", "160936.616000", "160936.627000", "160936.629000", "160936.632000", "160936.634000", "160936.637000", "160936.639000", "160936.642000", "160936.644000", "160936.647000", "160936.649000", "160936.653000", "160936.656000", "160936.658000", "160936.661000", "160936.663000", "160936.666000", "160936.668000", "160936.671000", "160936.674000", "160936.676000", "160936.679000", "161016.611000", "161016.614000", "161016.617000", "161016.619000", "161016.622000", "161016.624000", "161016.627000", "161016.629000", "161016.632000", "161016.634000", "161016.637000", "161016.639000", "161016.642000", "161016.644000", "161016.647000", "161016.649000", "161016.652000", "161016.654000", "161016.657000", "161016.659000", "161016.662000", "161016.664000", "161016.667000", "161016.669000", "161016.672000", "161016.674000", "161016.677000", "161055.512000", "161055.515000", "161055.518000", "161055.520000", "161055.522000", "161055.525000", "161055.527000", "161055.530000", "161055.540000", "161055.542000", "161055.545000", "161055.547000", "161055.550000", "161055.552000", "161055.554000", "161055.557000", "161055.559000", "161055.562000", "161055.565000", "161055.567000", "161055.570000", "161055.572000", "161055.575000", "161055.578000", "161055.580000", "161055.583000"],
      "InstanceNumber": [1, 2, 3, 4, 5, 6, 7, 8, 9, 10, 11, 12, 13, 14, 15, 16, 17, 18, 19, 20, 21, 22, 23, 24, 25, 26, 27, 28, 29, 30, 31, 32, 33, 34, 35, 36, 37, 38, 39, 40, 41, 42, 43, 44, 45, 46, 47, 48, 49, 50, 51, 52, 53, 54, 55, 56, 57, 58, 59, 60, 61, 62, 63, 64, 65, 66, 67, 68, 69, 70, 71, 72, 73, 74, 75, 76, 77, 78, 79, 80, 81, 82, 83, 84, 85, 86, 87, 88, 89, 90, 91, 92, 93, 94, 95, 96, 97, 98, 99, 100, 101, 102, 103, 104, 105, 106, 107, 108, 109, 110, 111, 112, 113, 114, 115, 116, 117, 118, 119, 120, 121, 122, 123, 124, 125, 126, 127, 128, 129, 130, 131, 132, 133, 134, 135, 136, 137, 138, 139, 140, 141, 142, 143, 144, 145, 146, 147, 148, 149, 150, 151, 152, 153, 154, 155, 156, 157, 158, 159, 160, 161, 162, 163, 164, 165, 166, 167, 168, 169, 170, 171, 172, 173, 174, 175, 176, 177, 178, 179, 180, 181, 182, 183, 184, 185, 186, 187, 188, 189, 190, 191, 192, 193, 194, 195, 196, 197, 198, 199, 200, 201, 202, 203, 204, 205, 206, 207, 208, 209, 210, 211, 212, 213, 214, 215, 216, 217, 218, 219, 220, 221, 222, 223, 224, 225, 226, 227, 228, 229, 230, 231, 232, 233, 234, 235, 236, 237, 238, 239, 240, 241, 242, 243, 244, 245, 246, 247, 248, 249, 250, 251, 252, 253, 254, 255, 256, 257, 258, 259, 260, 261, 262, 263, 264, 265, 266, 267, 268, 269, 270, 271, 272, 273, 274, 275, 276, 277, 278, 279, 280, 281, 282, 283, 284, 285, 286, 287, 288, 289, 290, 291, 292, 293, 294, 295, 296, 297, 298, 299, 300, 301, 302, 303, 304, 305, 306, 307, 308, 309, 310, 311, 312, 313, 314, 315, 316, 317, 318, 319, 320, 321, 322, 323, 324, 325, 326, 327, 328, 329, 330, 331, 332],
      "WindowCenter": [4920.0, 4920.0, 4892.0, 4894.0, 4896.0, 4944.0, 4942.0, 4944.0, 4940.0, 4942.0, 4920.0, 4918.0, 4920.0, 4922.0, 4918.0, 4942.0, 4920.0, 4942.0, 4944.0, 4944.0, 4940.0, 4924.0, 4920.0, 4920.0, 4918.0, 4918.0, 4892.0, 4918.0, 4924.0, 4940.0, 4920.0, 4916.0, 4870.0, 4916.0, 4890.0, 4886.0, 4944.0, 4870.0, 4866.0, 4866.0, 4870.0, 4916.0, 4944.0, 4940.0, 4932.0, 4936.0, 4944.0, 4942.0, 4944.0, 4920.0, 4872.0, 4894.0, 4922.0, 4918.0, 4948.0, 4944.0, 4942.0, 4942.0, 4948.0, 4942.0, 4920.0, 4920.0, 4918.0, 4920.0, 4922.0, 4918.0, 4944.0, 4944.0, 4946.0, 4944.0, 4942.0, 4942.0, 4920.0, 4942.0, 4942.0, 4918.0, 4922.0, 4920.0, 4922.0, 4922.0, 4942.0, 4918.0, 4944.0, 4944.0, 4918.0, 4922.0, 4942.0, 4946.0, 4940.0, 4942.0, 4942.0, 4916.0, 4922.0, 4922.0, 4942.0, 4896.0, 4942.0, 4862.0, 4938.0, 4924.0, 4916.0, 4898.0, 4918.0, 4940.0, 4940.0, 4946.0, 4920.0, 4918.0, 4918.0, 4938.0, 4932.0, 4944.0, 4920.0, 4892.0, 4894.0, 4944.0, 4942.0, 4946.0, 4942.0, 4940.0, 4920.0, 4920.0, 4924.0, 4858.0, 4944.0, 4896.0, 4868.0, 4892.0, 4920.0, 4946.0, 4938.0, 4966.0, 4942.0, 4942.0, 4922.0, 4918.0, 4896.0, 4920.0, 4940.0, 4950.0, 4922.0, 4942.0, 4942.0, 4946.0, 4944.0, 4944.0, 4942.0, 4946.0, 4942.0, 4942.0, 4922.0, 4942.0, 4924.0, 4944.0, 4918.0, 4944.0, 4944.0, 4942.0, 4944.0, 4920.0, 4918.0, 4922.0, 4942.0, 4920.0, 4944.0, 4942.0, 4942.0, 4942.0, 4948.0, 4946.0, 4920.0, 4920.0, 4918.0, 4922.0, 4942.0, 4942.0, 4932.0, 4944.0, 4944.0, 4918.0, 4920.0, 4916.0, 4892.0, 4944.0, 4940.0, 4826.0, 4852.0, 4944.0, 4896.0, 4866.0, 4868.0, 4870.0, 4894.0, 4944.0, 4940.0, 4932.0, 4934.0, 4942.0, 4946.0, 4922.0, 4916.0, 4940.0, 4922.0, 4894.0, 4920.0, 4920.0, 4918.0, 4942.0, 4942.0, 4946.0, 4966.0, 4946.0, 4932.0, 4944.0, 4918.0, 4918.0, 4918.0, 4920.0, 4944.0, 4934.0, 4946.0, 4942.0, 4944.0, 4920.0, 4922.0, 4946.0, 4920.0, 4944.0, 4944.0, 4946.0, 4938.0, 4940.0, 4922.0, 4918.0, 4924.0, 4946.0, 4942.0, 4944.0, 4942.0, 4918.0, 4920.0, 4942.0, 4946.0, 4942.0, 4944.0, 4946.0, 4944.0, 4944.0, 4922.0, 4920.0, 4920.0, 4944.0, 4940.0, 4944.0, 4942.0, 4920.0, 4922.0, 4918.0, 4916.0, 4918.0, 4944.0, 4942.0, 4944.0, 4942.0, 4940.0, 4944.0, 4940.0, 4944.0, 4946.0, 4944.0, 4920.0, 4944.0, 4912.0, 4902.0, 4946.0, 4946.0, 4920.0, 4920.0, 4922.0, 4944.0, 4942.0, 4944.0, 4944.0, 4936.0, 4942.0, 4920.0, 4920.0, 4942.0, 4922.0, 4894.0, 4922.0, 4944.0, 4940.0, 4940.0, 4932.0, 4942.0, 4944.0, 4946.0, 4942.0, 4920.0, 4938.0, 4946.0, 4922.0, 4942.0, 4924.0, 4942.0, 4942.0, 4944.0, 4936.0, 4944.0, 4944.0, 4922.0, 4918.0, 4940.0, 4942.0, 4920.0, 4920.0, 4916.0, 4944.0, 4824.0, 4824.0, 4930.0, 4920.0, 4838.0, 4840.0, 4868.0, 4918.0, 4942.0, 4934.0, 4924.0, 4926.0, 4938.0],
