{
  "AcquisitionMatrixPE": 104,
  "AcquisitionNumber": 1,
  "AcquisitionTime": "16:15:39.690000",
  "BandwidthPerPixelPhaseEncode": 17.17,
  "BaseResolution": 104,
  "BodyPartExamined": "BRAIN",
  "CoilCombinationMethod": "Sum of Squares",
  "ConsistencyInfo": "N4_VE11C_LATEST_20160120",
  "ConversionSoftware": "dcm2niix",
  "ConversionSoftwareVersion": "v1.0.20220505",
  "DerivedVendorReportedEchoSpacing": 0.000560011,
  "DeviceSerialNumber": "167006",
  "DwellTime": 2.1e-06,
  "EchoTime": 0.037,
  "EchoTrainLength": 104,
  "EffectiveEchoSpacing": 0.000560011,
  "FlipAngle": 52,
  "HeudiconvVersion": "0.5.3.post811+g6206e14",
  "ImageComments": "Unaliased MB4/PE3/LB",
  "ImageOrientationPatientDICOM": [0.999261, -0.0333538, 0.0191044, 0.0378637, 0.939719, -0.339846],
  "ImageOrientationText": "Tra>Cor(-19.9)>Sag(0.4)",
  "ImageType": [
    "ORIGINAL",
    "PRIMARY",
    "M",
    "MB",
    "ND",
    "MOSAIC"
],
  "ImagingFrequency": 123.259,
  "InPlanePhaseEncodingDirectionDICOM": "COL",
  "InstitutionAddress": "Chemin Queen-Mary 4565,Montreal,District,CA,H3W 1W5",
  "InstitutionName": "IUGM",
  "InstitutionalDepartmentName": "Department",
  "MRAcquisitionType": "2D",
  "MagneticFieldStrength": 3,
  "Manufacturer": "Siemens",
  "ManufacturersModelName": "Prisma_fit",
  "MatrixCoilMode": "SENSE",
  "Modality": "MR",
  "MultibandAccelerationFactor": 4,
  "PartialFourier": 1,
  "PatientPosition": "HFS",
  "PercentPhaseFOV": 100,
  "PercentSampling": 100,
  "PhaseEncodingDirection": "j",
  "PhaseEncodingSteps": 104,
  "PhaseResolution": 1,
  "PixelBandwidth": 2290,
  "ProcedureStepDescription": "games^mario3",
  "ProtocolName": "func_task-mario3_run-02",
  "PulseSequenceDetails": "%CustomerSeq%\\cmrr_mbep2d_bold",
  "ReceiveCoilActiveElements": "HC1-7;NC1,2",
  "ReceiveCoilName": "HeadNeck_64",
  "ReconMatrixPE": 104,
  "RepetitionTime": 1.49,
  "SAR": 0.055255,
  "ScanOptions": "FS",
  "ScanningSequence": "EP",
  "SequenceName": "epfid2d1_104",
  "SequenceVariant": "SK\\SS",
  "SeriesDescription": "func_task-mario3_run-02",
  "SeriesNumber": 13,
  "ShimSetting": [589, -7288, -8814, 517, 42, -287, -163, 57],
  "SliceThickness": 2,
  "SliceTiming": [0, 0.785, 0.0975, 0.8825, 0.1975, 0.98, 0.295, 1.0775, 0.3925, 1.1775, 0.49, 1.275, 0.5875, 1.3725, 0.6875, 0, 0.785, 0.0975, 0.8825, 0.1975, 0.98, 0.295, 1.0775, 0.3925, 1.1775, 0.49, 1.275, 0.5875, 1.3725, 0.6875, 0, 0.785, 0.0975, 0.8825, 0.1975, 0.98, 0.295, 1.0775, 0.3925, 1.1775, 0.49, 1.275, 0.5875, 1.3725, 0.6875, 0, 0.785, 0.0975, 0.8825, 0.1975, 0.98, 0.295, 1.0775, 0.3925, 1.1775, 0.49, 1.275, 0.5875, 1.3725, 0.6875],
  "SoftwareVersions": "syngo MR E11",
  "SpacingBetweenSlices": 2,
  "StationName": "MRC35049",
  "TaskName": "mario3",
  "TotalReadoutTime": 0.0576811,
  "TxRefAmp": 241.173,
  "WipMemBlock": "dced6a95-5a05-40ee-909c-789cf891813f||Sequence: R017 ve11c/master r/75a17815+; Jun 28 2022 16:32:11 by eja",
  "dcmmeta_affine": [
    [-1.9985220432281494, 0.07572740316390991, 0.013235163874924183, 103.80171966552734],
    [0.06670759618282318, 1.8794374465942383, -0.6806355714797974, -68.4758071899414],
    [0.03820871561765671, 0.6796911358833313, 1.8805744647979736, -64.08352661132812],
    [0.0, 0.0, 0.0, 1.0]
],
  "dcmmeta_reorient_transform": [
    [0.0, -1.0, 0.0, 103.0],
    [1.0, 0.0, 0.0, 0.0],
    [0.0, 0.0, 1.0, 0.0],
    [0.0, 0.0, 0.0, 1.0]
],
  "dcmmeta_shape": [104, 104, 60, 365],
  "dcmmeta_slice_dim": 2,
  "dcmmeta_version": 0.6,
  "global": {
    "const": {
      "AcquisitionMatrix": [104, 0, 0, 104],
      "AngioFlag": "N",
      "BitsAllocated": 16,
      "BitsStored": 16,
      "BodyPartExamined": "BRAIN",
      "Columns": 832,
      "EchoNumbers": 1,
      "EchoTime": 37.0,
      "EchoTrainLength": 104,
      "FlipAngle": 52.0,
      "HighBit": 15,
      "ImageOrientationPatient": [0.99926100074527, -0.0333537991531, 0.01910435739891, 0.03786370292548, 0.93971874922521, -0.3398455713341],
      "ImagePositionPatient": [-866.62842675767, -784.93993777643, 239.4242673561],
      "ImageType": [
        "ORIGINAL",
        "PRIMARY",
        "M",
        "MB",
        "ND",
        "MOSAIC"
],
      "ImagedNucleus": "1H",
      "ImagingFrequency": 123.25905,
      "InPlanePhaseEncodingDirection": "COL",
      "MRAcquisitionType": "2D",
      "MagneticFieldStrength": 3.0,
      "Manufacturer": "SIEMENS",
      "ManufacturerModelName": "Prisma_fit",
      "Modality": "MR",
      "NumberOfAverages": 1.0,
      "NumberOfPhaseEncodingSteps": 104,
      "PercentPhaseFieldOfView": 100.0,
      "PercentSampling": 100.0,
      "PerformedProcedureStepStartTime": "155737.296000",
      "PhotometricInterpretation": "MONOCHROME2",
      "PixelBandwidth": 2290.0,
      "PixelRepresentation": 0,
      "PixelSpacing": [2.0, 2.0],
      "ProtocolName": "func_task-mario3_run-02",
      "RepetitionTime": 1490.0,
      "Rows": 832,
      "SAR": 0.05525499147013,
      "SamplesPerPixel": 1,
      "ScanOptions": "FS",
      "ScanningSequence": "EP",
      "SequenceName": "epfid2d1_104",
      "SequenceVariant": [
        "SK",
        "SS"
],
      "SeriesDescription": "func_task-mario3_run-02",
      "SeriesNumber": 13,
      "SeriesTime": "161656.074000",
      "SliceLocation": -36.266465250793,
      "SliceThickness": 2.0,
      "SmallestImagePixelValue": 0,
      "SoftwareVersions": "syngo MR E11",
      "SpacingBetweenSlices": 2.0000000438609,
      "SpecificCharacterSet": "ISO_IR 100",
      "StudyID": "1",
      "StudyTime": "155737.223000",
      "TransmitCoilName": "Body",
      "VariableFlipAngleFlag": "N",
      "WindowCenterWidthExplanation": "Algo1",
      "dBdt": 0.0},
    "slices": {}
  },
  "time": {
    "samples": {
      "AcquisitionNumber": [1, 2, 3, 4, 5, 6, 7, 8, 9, 10, 11, 12, 13, 14, 15, 16, 17, 18, 19, 20, 21, 22, 23, 24, 25, 26, 27, 28, 29, 30, 31, 32, 33, 34, 35, 36, 37, 38, 39, 40, 41, 42, 43, 44, 45, 46, 47, 48, 49, 50, 51, 52, 53, 54, 55, 56, 57, 58, 59, 60, 61, 62, 63, 64, 65, 66, 67, 68, 69, 70, 71, 72, 73, 74, 75, 76, 77, 78, 79, 80, 81, 82, 83, 84, 85, 86, 87, 88, 89, 90, 91, 92, 93, 94, 95, 96, 97, 98, 99, 100, 101, 102, 103, 104, 105, 106, 107, 108, 109, 110, 111, 112, 113, 114, 115, 116, 117, 118, 119, 120, 121, 122, 123, 124, 125, 126, 127, 128, 129, 130, 131, 132, 133, 134, 135, 136, 137, 138, 139, 140, 141, 142, 143, 144, 145, 146, 147, 148, 149, 150, 151, 152, 153, 154, 155, 156, 157, 158, 159, 160, 161, 162, 163, 164, 165, 166, 167, 168, 169, 170, 171, 172, 173, 174, 175, 176, 177, 178, 179, 180, 181, 182, 183, 184, 185, 186, 187, 188, 189, 190, 191, 192, 193, 194, 195, 196, 197, 198, 199, 200, 201, 202, 203, 204, 205, 206, 207, 208, 209, 210, 211, 212, 213, 214, 215, 216, 217, 218, 219, 220, 221, 222, 223, 224, 225, 226, 227, 228, 229, 230, 231, 232, 233, 234, 235, 236, 237, 238, 239, 240, 241, 242, 243, 244, 245, 246, 247, 248, 249, 250, 251, 252, 253, 254, 255, 256, 257, 258, 259, 260, 261, 262, 263, 264, 265, 266, 267, 268, 269, 270, 271, 272, 273, 274, 275, 276, 277, 278, 279, 280, 281, 282, 283, 284, 285, 286, 287, 288, 289, 290, 291, 292, 293, 294, 295, 296, 297, 298, 299, 300, 301, 302, 303, 304, 305, 306, 307, 308, 309, 310, 311, 312, 313, 314, 315, 316, 317, 318, 319, 320, 321, 322, 323, 324, 325, 326, 327, 328, 329, 330, 331, 332, 333, 334, 335, 336, 337, 338, 339, 340, 341, 342, 343, 344, 345, 346, 347, 348, 349, 350, 351, 352, 353, 354, 355, 356, 357, 358, 359, 360, 361, 362, 363, 364, 365],
      "AcquisitionTime": ["161539.690000", "161541.180000", "161542.670000", "161544.160000", "161545.650000", "161547.140000", "161548.630000", "161550.120000", "161551.610000", "161553.100000", "161554.590000", "161556.080000", "161557.570000", "161559.060000", "161600.550000", "161602.040000", "161603.530000", "161605.020000", "161606.510000", "161608.000000", "161609.490000", "161610.980000", "161612.470000", "161613.960000", "161615.450000", "161616.940000", "161618.430000", "161619.920000", "161621.410000", "161622.900000", "161624.390000", "161625.880000", "161627.370000", "161628.860000", "161630.350000", "161631.840000", "161633.330000", "161634.820000", "161636.310000", "161637.800000", "161639.290000", "161640.780000", "161642.270000", "161643.760000", "161645.250000", "161646.740000", "161648.230000", "161649.720000", "161651.210000", "161652.700000", "161654.190000", "161655.680000", "161657.170000", "161658.660000", "161700.150000", "161701.640000", "161703.130000", "161704.620000", "161706.110000", "161707.600000", "161709.090000", "161710.580000", "161712.070000", "161713.560000", "161715.050000", "161716.540000", "161718.030000", "161719.520000", "161721.010000", "161722.500000", "161723.990000", "161725.480000", "161726.970000", "161728.460000", "161729.950000", "161731.440000", "161732.930000", "161734.420000", "161735.910000", "161737.400000", "161738.890000", "161740.380000", "161741.870000", "161743.360000", "161744.850000", "161746.340000", "161747.830000", "161749.320000", "161750.810000", "161752.300000", "161753.790000", "161755.280000", "161756.770000", "161758.260000", "161759.750000", "161801.240000", "161802.730000", "161804.220000", "161805.710000", "161807.200000", "161808.690000", "161810.180000", "161811.670000", "161813.160000", "161814.650000", "161816.140000", "161817.630000", "161819.120000", "161820.610000", "161822.100000", "161823.590000", "161825.080000", "161826.570000", "161828.060000", "161829.550000", "161831.040000", "161832.530000", "161834.020000", "161835.510000", "161837.000000", "161838.490000", "161839.980000", "161841.470000", "161842.960000", "161844.450000", "161845.940000", "161847.430000", "161848.920000", "161850.410000", "161851.900000", "161853.390000", "161854.880000", "161856.370000", "161857.860000", "161859.350000", "161900.840000", "161902.330000", "161903.820000", "161905.310000", "161906.800000", "161908.290000", "161909.780000", "161911.270000", "161912.760000", "161914.250000", "161915.740000", "161917.230000", "161918.720000", "161920.210000", "161921.700000", "161923.190000", "161924.680000", "161926.170000", "161927.660000", "161929.150000", "161930.640000", "161932.130000", "161933.620000", "161935.110000", "161936.600000", "161938.090000", "161939.580000", "161941.070000", "161942.560000", "161944.050000", "161945.540000", "161947.030000", "161948.520000", "161950.010000", "161951.500000", "161952.990000", "161954.480000", "161955.970000", "161957.460000", "161958.950000", "162000.440000", "162001.930000", "162003.420000", "162004.910000", "162006.400000", "162007.890000", "162009.380000", "162010.870000", "162012.360000", "162013.850000", "162015.340000", "162016.830000", "162018.320000", "162019.810000", "162021.300000", "162022.790000", "162024.280000", "162025.770000", "162027.260000", "162028.750000", "162030.240000", "162031.730000", "162033.220000", "162034.710000", "162036.200000", "162037.690000", "162039.180000", "162040.670000", "162042.160000", "162043.650000", "162045.140000", "162046.630000", "162048.120000", "162049.610000", "162051.100000", "162052.590000", "162054.080000", "162055.570000", "162057.060000", "162058.550000", "162100.040000", "162101.530000", "162103.020000", "162104.510000", "162106.000000", "162107.490000", "162108.980000", "162110.470000", "162111.960000", "162113.450000", "162114.940000", "162116.430000", "162117.920000", "162119.410000", "162120.900000", "162122.390000", "162123.880000", "162125.370000", "162126.860000", "162128.350000", "162129.840000", "162131.330000", "162132.820000", "162134.310000", "162135.800000", "162137.290000", "162138.780000", "162140.270000", "162141.760000", "162143.250000", "162144.740000", "162146.230000", "162147.720000", "162149.210000", "162150.700000", "162152.190000", "162153.680000", "162155.170000", "162156.660000", "162158.150000", "162159.640000", "162201.130000", "162202.620000", "162204.110000", "162205.600000", "162207.090000", "162208.580000", "162210.070000", "162211.560000", "162213.050000", "162214.540000", "162216.030000", "162217.520000", "162219.010000", "162220.500000", "162221.990000", "162223.480000", "162224.970000", "162226.460000", "162227.950000", "162229.440000", "162230.930000", "162232.420000", "162233.910000", "162235.400000", "162236.890000", "162238.380000", "162239.870000", "162241.360000", "162242.850000", "162244.340000", "162245.830000", "162247.320000", "162248.810000", "162250.300000", "162251.790000", "162253.280000", "162254.770000", "162256.260000", "162257.750000", "162259.240000", "162300.730000", "162302.220000", "162303.710000", "162305.200000", "162306.690000", "162308.180000", "162309.670000", "162311.160000", "162312.650000", "162314.140000", "162315.630000", "162317.120000", "162318.610000", "162320.100000", "162321.590000", "162323.080000", "162324.570000", "162326.060000", "162327.550000", "162329.040000", "162330.530000", "162332.020000", "162333.510000", "162335.000000", "162336.490000", "162337.980000", "162339.470000", "162340.960000", "162342.450000", "162343.940000", "162345.430000", "162346.920000", "162348.410000", "162349.900000", "162351.390000", "162352.880000", "162354.370000", "162355.860000", "162357.350000", "162358.840000", "162400.330000", "162401.820000", "162403.310000", "162404.800000", "162406.290000", "162407.780000", "162409.270000", "162410.760000", "162412.250000", "162413.740000", "162415.230000", "162416.720000", "162418.210000", "162419.700000", "162421.190000", "162422.680000", "162424.170000", "162425.660000", "162427.150000", "162428.640000", "162430.130000", "162431.620000", "162433.110000", "162434.600000", "162436.090000", "162437.580000", "162439.070000", "162440.560000", "162442.050000"],
      "ContentTime": ["161656.077000", "161656.081000", "161656.085000", "161656.089000", "161656.092000", "161656.095000", "161656.099000", "161656.102000", "161656.106000", "161656.109000", "161656.112000", "161656.116000", "161656.119000", "161656.122000", "161656.126000", "161656.129000", "161656.132000", "161656.138000", "161656.152000", "161656.155000", "161656.158000", "161656.162000", "161656.165000", "161656.169000", "161656.172000", "161656.175000", "161656.179000", "161716.034000", "161716.038000", "161716.041000", "161716.045000", "161716.048000", "161716.051000", "161716.055000", "161716.058000", "161716.061000", "161716.074000", "161716.077000", "161716.081000", "161716.084000", "161716.088000", "161716.091000", "161716.094000", "161716.098000", "161716.101000", "161716.104000", "161716.108000", "161736.033000", "161736.037000", "161736.040000", "161736.044000", "161736.047000", "161736.050000", "161736.054000", "161736.057000", "161736.060000", "161736.064000", "161736.067000", "161736.070000", "161736.074000", "161736.098000", "161736.102000", "161736.105000", "161736.108000", "161736.112000", "161736.123000", "161736.126000", "161756.033000", "161756.037000", "161756.040000", "161756.044000", "161756.047000", "161756.051000", "161756.054000", "161756.057000", "161756.061000", "161756.064000", "161756.068000", "161756.071000", "161756.074000", "161756.078000", "161756.081000", "161756.084000", "161756.088000", "161756.098000", "161756.101000", "161756.104000", "161836.034000", "161836.038000", "161836.042000", "161836.045000", "161836.049000", "161836.080000", "161836.084000", "161836.087000", "161836.091000", "161836.094000", "161836.098000", "161836.101000", "161836.104000", "161836.108000", "161836.111000", "161836.114000", "161836.118000", "161836.121000", "161836.124000", "161836.128000", "161836.131000", "161836.135000", "161836.138000", "161836.141000", "161836.145000", "161836.148000", "161836.151000", "161836.155000", "161836.167000", "161836.170000", "161916.034000", "161916.038000", "161916.041000", "161916.045000", "161916.048000", "161916.052000", "161916.059000", "161916.062000", "161916.066000", "161916.069000", "161916.072000", "161916.076000", "161916.079000", "161916.082000", "161916.086000", "161916.089000", "161916.093000", "161916.096000", "161916.099000", "161916.103000", "161916.106000", "161916.110000", "161916.113000", "161916.116000", "161916.120000", "161916.123000", "161916.126000", "161956.033000", "161956.037000", "161956.041000", "161956.044000", "161956.047000", "161956.051000", "161956.054000", "161956.061000", "161956.065000", "161956.068000", "161956.072000", "161956.075000", "161956.078000", "161956.082000", "161956.085000", "161956.088000", "161956.092000", "161956.109000", "161956.112000", "161956.115000", "161956.119000", "161956.122000", "161956.125000", "161956.129000", "161956.132000", "161956.136000", "161956.139000", "162036.033000", "162036.037000", "162036.041000", "162036.044000", "162036.047000", "162036.051000", "162036.054000", "162036.062000", "162036.065000", "162036.069000", "162036.072000", "162036.075000", "162036.079000", "162036.082000", "162036.085000", "162036.089000", "162036.092000", "162036.096000", "162036.099000", "162036.102000", "162036.106000", "162036.109000", "162036.112000", "162036.116000", "162036.119000", "162036.123000", "162036.126000", "162116.033000", "162116.037000", "162116.040000", "162116.044000", "162116.047000", "162116.051000", "162116.054000", "162116.058000", "162116.061000", "162116.064000", "162116.068000", "162116.071000", "162116.075000", "162116.078000", "162116.081000", "162116.085000", "162116.088000", "162116.092000", "162116.095000", "162116.098000", "162116.102000", "162116.105000", "162116.108000", "162116.112000", "162116.115000", "162116.118000", "162116.122000", "162156.034000", "162156.038000", "162156.042000", "162156.045000", "162156.048000", "162156.052000", "162156.055000", "162156.059000", "162156.062000", "162156.066000", "162156.069000", "162156.072000", "162156.076000", "162156.079000", "162156.082000", "162156.086000", "162156.089000", "162156.093000", "162156.096000", "162156.099000", "162156.103000", "162156.106000", "162156.110000", "162156.113000", "162156.116000", "162156.120000", "162156.123000", "162236.054000", "162236.058000", "162236.061000", "162236.064000", "162236.068000", "162236.071000", "162236.074000", "162236.078000", "162236.081000", "162236.085000", "162236.088000", "162236.092000", "162236.095000", "162236.098000", "162236.102000", "162236.105000", "162236.109000", "162236.112000", "162236.115000", "162236.119000", "162236.122000", "162236.126000", "162236.129000", "162236.132000", "162236.136000", "162236.139000", "162236.142000", "162316.034000", "162316.037000", "162316.041000", "162316.044000", "162316.048000", "162316.051000", "162316.055000", "162316.058000", "162316.061000", "162316.065000", "162316.068000", "162316.072000", "162316.075000", "162316.078000", "162316.082000", "162316.085000", "162316.089000", "162316.092000", "162316.096000", "162316.099000", "162316.102000", "162316.106000", "162316.109000", "162316.112000", "162316.116000", "162316.119000", "162356.034000", "162356.038000", "162356.041000", "162356.045000", "162356.048000", "162356.052000", "162356.055000", "162356.058000", "162356.062000", "162356.065000", "162356.069000", "162356.072000", "162356.075000", "162356.079000", "162356.082000", "162356.085000", "162356.089000", "162356.092000", "162356.096000", "162356.099000", "162356.102000", "162356.106000", "162356.109000", "162356.113000", "162356.116000", "162356.119000", "162356.123000", "162416.034000", "162416.038000", "162416.042000", "162416.045000", "162416.048000", "162416.052000", "162416.055000", "162416.059000", "162416.062000", "162416.066000", "162416.069000", "162416.072000", "162416.076000", "162416.079000", "162445.094000", "162445.099000", "162445.103000", "162445.107000", "162445.111000", "162445.115000", "162445.118000", "162445.122000", "162445.125000", "162445.129000", "162445.132000", "162445.136000", "162445.139000", "162445.142000", "162445.146000", "162445.149000", "162445.152000", "162445.156000", "162445.159000"],
      "InstanceCreationTime": ["161656.077000", "161656.081000", "161656.085000", "161656.089000", "161656.092000", "161656.095000", "161656.099000", "161656.102000", "161656.106000", "161656.109000", "161656.112000", "161656.116000", "161656.119000", "161656.122000", "161656.126000", "161656.129000", "161656.132000", "161656.138000", "161656.152000", "161656.155000", "161656.158000", "161656.162000", "161656.165000", "161656.169000", "161656.172000", "161656.175000", "161656.179000", "161716.034000", "161716.038000", "161716.041000", "161716.045000", "161716.048000", "161716.051000", "161716.055000", "161716.058000", "161716.061000", "161716.074000", "161716.077000", "161716.081000", "161716.084000", "161716.088000", "161716.091000", "161716.094000", "161716.098000", "161716.101000", "161716.104000", "161716.108000", "161736.033000", "161736.037000", "161736.040000", "161736.044000", "161736.047000", "161736.050000", "161736.054000", "161736.057000", "161736.060000", "161736.064000", "161736.067000", "161736.070000", "161736.074000", "161736.098000", "161736.102000", "161736.105000", "161736.108000", "161736.112000", "161736.123000", "161736.126000", "161756.033000", "161756.037000", "161756.040000", "161756.044000", "161756.047000", "161756.051000", "161756.054000", "161756.057000", "161756.061000", "161756.064000", "161756.068000", "161756.071000", "161756.074000", "161756.078000", "161756.081000", "161756.084000", "161756.088000", "161756.098000", "161756.101000", "161756.104000", "161836.034000", "161836.038000", "161836.042000", "161836.045000", "161836.049000", "161836.080000", "161836.084000", "161836.087000", "161836.091000", "161836.094000", "161836.098000", "161836.101000", "161836.104000", "161836.108000", "161836.111000", "161836.114000", "161836.118000", "161836.121000", "161836.124000", "161836.128000", "161836.131000", "161836.135000", "161836.138000", "161836.141000", "161836.145000", "161836.148000", "161836.151000", "161836.155000", "161836.167000", "161836.170000", "161916.034000", "161916.038000", "161916.041000", "161916.045000", "161916.048000", "161916.052000", "161916.059000", "161916.062000", "161916.066000", "161916.069000", "161916.072000", "161916.076000", "161916.079000", "161916.082000", "161916.086000", "161916.089000", "161916.093000", "161916.096000", "161916.099000", "161916.103000", "161916.106000", "161916.110000", "161916.113000", "161916.116000", "161916.120000", "161916.123000", "161916.126000", "161956.033000", "161956.037000", "161956.041000", "161956.044000", "161956.047000", "161956.051000", "161956.054000", "161956.061000", "161956.065000", "161956.068000", "161956.072000", "161956.075000", "161956.078000", "161956.082000", "161956.085000", "161956.088000", "161956.092000", "161956.109000", "161956.112000", "161956.115000", "161956.119000", "161956.122000", "161956.125000", "161956.129000", "161956.132000", "161956.136000", "161956.139000", "162036.033000", "162036.037000", "162036.041000", "162036.044000", "162036.047000", "162036.051000", "162036.054000", "162036.062000", "162036.065000", "162036.069000", "162036.072000", "162036.075000", "162036.079000", "162036.082000", "162036.085000", "162036.089000", "162036.092000", "162036.096000", "162036.099000", "162036.102000", "162036.106000", "162036.109000", "162036.112000", "162036.116000", "162036.119000", "162036.123000", "162036.126000", "162116.033000", "162116.037000", "162116.040000", "162116.044000", "162116.047000", "162116.051000", "162116.054000", "162116.058000", "162116.061000", "162116.064000", "162116.068000", "162116.071000", "162116.075000", "162116.078000", "162116.081000", "162116.085000", "162116.088000", "162116.092000", "162116.095000", "162116.098000", "162116.102000", "162116.105000", "162116.108000", "162116.112000", "162116.115000", "162116.118000", "162116.122000", "162156.034000", "162156.038000", "162156.042000", "162156.045000", "162156.048000", "162156.052000", "162156.055000", "162156.059000", "162156.062000", "162156.066000", "162156.069000", "162156.072000", "162156.076000", "162156.079000", "162156.082000", "162156.086000", "162156.089000", "162156.093000", "162156.096000", "162156.099000", "162156.103000", "162156.106000", "162156.110000", "162156.113000", "162156.116000", "162156.120000", "162156.123000", "162236.054000", "162236.058000", "162236.061000", "162236.064000", "162236.068000", "162236.071000", "162236.074000", "162236.078000", "162236.081000", "162236.085000", "162236.088000", "162236.092000", "162236.095000", "162236.098000", "162236.102000", "162236.105000", "162236.109000", "162236.112000", "162236.115000", "162236.119000", "162236.122000", "162236.126000", "162236.129000", "162236.132000", "162236.136000", "162236.139000", "162236.142000", "162316.034000", "162316.037000", "162316.041000", "162316.044000", "162316.048000", "162316.051000", "162316.055000", "162316.058000", "162316.061000", "162316.065000", "162316.068000", "162316.072000", "162316.075000", "162316.078000", "162316.082000", "162316.085000", "162316.089000", "162316.092000", "162316.096000", "162316.099000", "162316.102000", "162316.106000", "162316.109000", "162316.112000", "162316.116000", "162316.119000", "162356.034000", "162356.038000", "162356.041000", "162356.045000", "162356.048000", "162356.052000", "162356.055000", "162356.058000", "162356.062000", "162356.065000", "162356.069000", "162356.072000", "162356.075000", "162356.079000", "162356.082000", "162356.085000", "162356.089000", "162356.092000", "162356.096000", "162356.099000", "162356.102000", "162356.106000", "162356.109000", "162356.113000", "162356.116000", "162356.119000", "162356.123000", "162416.034000", "162416.038000", "162416.042000", "162416.045000", "162416.048000", "162416.052000", "162416.055000", "162416.059000", "162416.062000", "162416.066000", "162416.069000", "162416.072000", "162416.076000", "162416.079000", "162445.094000", "162445.099000", "162445.103000", "162445.107000", "162445.111000", "162445.115000", "162445.118000", "162445.122000", "162445.125000", "162445.129000", "162445.132000", "162445.136000", "162445.139000", "162445.142000", "162445.146000", "162445.149000", "162445.152000", "162445.156000", "162445.159000"],
      "InstanceNumber": [1, 2, 3, 4, 5, 6, 7, 8, 9, 10, 11, 12, 13, 14, 15, 16, 17, 18, 19, 20, 21, 22, 23, 24, 25, 26, 27, 28, 29, 30, 31, 32, 33, 34, 35, 36, 37, 38, 39, 40, 41, 42, 43, 44, 45, 46, 47, 48, 49, 50, 51, 52, 53, 54, 55, 56, 57, 58, 59, 60, 61, 62, 63, 64, 65, 66, 67, 68, 69, 70, 71, 72, 73, 74, 75, 76, 77, 78, 79, 80, 81, 82, 83, 84, 85, 86, 87, 88, 89, 90, 91, 92, 93, 94, 95, 96, 97, 98, 99, 100, 101, 102, 103, 104, 105, 106, 107, 108, 109, 110, 111, 112, 113, 114, 115, 116, 117, 118, 119, 120, 121, 122, 123, 124, 125, 126, 127, 128, 129, 130, 131, 132, 133, 134, 135, 136, 137, 138, 139, 140, 141, 142, 143, 144, 145, 146, 147, 148, 149, 150, 151, 152, 153, 154, 155, 156, 157, 158, 159, 160, 161, 162, 163, 164, 165, 166, 167, 168, 169, 170, 171, 172, 173, 174, 175, 176, 177, 178, 179, 180, 181, 182, 183, 184, 185, 186, 187, 188, 189, 190, 191, 192, 193, 194, 195, 196, 197, 198, 199, 200, 201, 202, 203, 204, 205, 206, 207, 208, 209, 210, 211, 212, 213, 214, 215, 216, 217, 218, 219, 220, 221, 222, 223, 224, 225, 226, 227, 228, 229, 230, 231, 232, 233, 234, 235, 236, 237, 238, 239, 240, 241, 242, 243, 244, 245, 246, 247, 248, 249, 250, 251, 252, 253, 254, 255, 256, 257, 258, 259, 260, 261, 262, 263, 264, 265, 266, 267, 268, 269, 270, 271, 272, 273, 274, 275, 276, 277, 278, 279, 280, 281, 282, 283, 284, 285, 286, 287, 288, 289, 290, 291, 292, 293, 294, 295, 296, 297, 298, 299, 300, 301, 302, 303, 304, 305, 306, 307, 308, 309, 310, 311, 312, 313, 314, 315, 316, 317, 318, 319, 320, 321, 322, 323, 324, 325, 326, 327, 328, 329, 330, 331, 332, 333, 334, 335, 336, 337, 338, 339, 340, 341, 342, 343, 344, 345, 346, 347, 348, 349, 350, 351, 352, 353, 354, 355, 356, 357, 358, 359, 360, 361, 362, 363, 364, 365],
